F:\20151113_APS_34IDE\\Brian\Particle1\OCV\Data_0013.tif
2-Theta Angle (Degrees)
Intensity
       2000
 5.7500005E-03  0.0000000E+00
 1.7250001E-02  0.0000000E+00
 2.8750001E-02  0.0000000E+00
 4.0250003E-02  0.0000000E+00
 5.1750004E-02  0.0000000E+00
 6.3250005E-02  0.0000000E+00
 7.4750006E-02  0.0000000E+00
 8.6250007E-02  0.0000000E+00
 9.7750008E-02  0.0000000E+00
 1.0925001E-01  0.0000000E+00
 1.2075000E-01  0.0000000E+00
 1.3225001E-01  0.0000000E+00
 1.4375001E-01  0.0000000E+00
 1.5525001E-01  0.0000000E+00
 1.6675001E-01  0.0000000E+00
 1.7825001E-01  0.0000000E+00
 1.8975002E-01  0.0000000E+00
 2.0125002E-01  0.0000000E+00
 2.1275002E-01  0.0000000E+00
 2.2425000E-01  0.0000000E+00
 2.3575000E-01  0.0000000E+00
 2.4725001E-01  0.0000000E+00
 2.5875002E-01  0.0000000E+00
 2.7025002E-01  0.0000000E+00
 2.8175002E-01  0.0000000E+00
 2.9325002E-01  0.0000000E+00
 3.0475003E-01  0.0000000E+00
 3.1625003E-01  0.0000000E+00
 3.2775003E-01  0.0000000E+00
 3.3925003E-01  0.0000000E+00
 3.5075003E-01  0.0000000E+00
 3.6225003E-01  0.0000000E+00
 3.7375003E-01  0.0000000E+00
 3.8525003E-01  0.0000000E+00
 3.9675003E-01  0.0000000E+00
 4.0825003E-01  0.0000000E+00
 4.1975003E-01  0.0000000E+00
 4.3125004E-01  0.0000000E+00
 4.4275001E-01  0.0000000E+00
 4.5425001E-01  0.0000000E+00
 4.6575001E-01  0.0000000E+00
 4.7725001E-01  0.0000000E+00
 4.8875001E-01  0.0000000E+00
 5.0025004E-01  0.0000000E+00
 5.1175004E-01  0.0000000E+00
 5.2325004E-01  0.0000000E+00
 5.3475004E-01  0.0000000E+00
 5.4625005E-01  0.0000000E+00
 5.5775005E-01  0.0000000E+00
 5.6925005E-01  0.0000000E+00
 5.8075005E-01  0.0000000E+00
 5.9225005E-01  0.0000000E+00
 6.0375005E-01  0.0000000E+00
 6.1525005E-01  0.0000000E+00
 6.2675005E-01  0.0000000E+00
 6.3825005E-01  0.0000000E+00
 6.4975005E-01  0.0000000E+00
 6.6125005E-01  0.0000000E+00
 6.7275006E-01  0.0000000E+00
 6.8425006E-01  0.0000000E+00
 6.9575006E-01  0.0000000E+00
 7.0725006E-01  0.0000000E+00
 7.1875006E-01  0.0000000E+00
 7.3025006E-01  0.0000000E+00
 7.4175006E-01  0.0000000E+00
 7.5325006E-01  0.0000000E+00
 7.6475006E-01  0.0000000E+00
 7.7625006E-01  0.0000000E+00
 7.8775007E-01  0.0000000E+00
 7.9925007E-01  0.0000000E+00
 8.1075007E-01  0.0000000E+00
 8.2225007E-01  0.0000000E+00
 8.3375007E-01  0.0000000E+00
 8.4525007E-01  0.0000000E+00
 8.5675007E-01  0.0000000E+00
 8.6825007E-01  0.0000000E+00
 8.7975001E-01  0.0000000E+00
 8.9125001E-01  0.0000000E+00
 9.0275002E-01  0.0000000E+00
 9.1425002E-01  0.0000000E+00
 9.2575002E-01  0.0000000E+00
 9.3725002E-01  0.0000000E+00
 9.4875002E-01  0.0000000E+00
 9.6025002E-01  0.0000000E+00
 9.7175002E-01  0.0000000E+00
 9.8325002E-01  0.0000000E+00
 9.9475002E-01  0.0000000E+00
 1.0062500E+00  0.0000000E+00
 1.0177500E+00  0.0000000E+00
 1.0292500E+00  0.0000000E+00
 1.0407500E+00  0.0000000E+00
 1.0522500E+00  0.0000000E+00
 1.0637500E+00  0.0000000E+00
 1.0752500E+00  0.0000000E+00
 1.0867500E+00  0.0000000E+00
 1.0982500E+00  0.0000000E+00
 1.1097500E+00  0.0000000E+00
 1.1212500E+00  0.0000000E+00
 1.1327500E+00  0.0000000E+00
 1.1442500E+00  0.0000000E+00
 1.1557500E+00  0.0000000E+00
 1.1672500E+00  0.0000000E+00
 1.1787500E+00  0.0000000E+00
 1.1902500E+00  0.0000000E+00
 1.2017500E+00  0.0000000E+00
 1.2132500E+00  0.0000000E+00
 1.2247500E+00  0.0000000E+00
 1.2362500E+00  0.0000000E+00
 1.2477500E+00  0.0000000E+00
 1.2592500E+00  0.0000000E+00
 1.2707500E+00  0.0000000E+00
 1.2822500E+00  0.0000000E+00
 1.2937500E+00  0.0000000E+00
 1.3052500E+00  0.0000000E+00
 1.3167500E+00  0.0000000E+00
 1.3282501E+00  0.0000000E+00
 1.3397501E+00  0.0000000E+00
 1.3512501E+00  0.0000000E+00
 1.3627501E+00  0.0000000E+00
 1.3742501E+00  0.0000000E+00
 1.3857501E+00  0.0000000E+00
 1.3972501E+00  0.0000000E+00
 1.4087501E+00  0.0000000E+00
 1.4202501E+00  0.0000000E+00
 1.4317501E+00  0.0000000E+00
 1.4432501E+00  0.0000000E+00
 1.4547501E+00  0.0000000E+00
 1.4662501E+00  0.0000000E+00
 1.4777501E+00  0.0000000E+00
 1.4892501E+00  0.0000000E+00
 1.5007501E+00  0.0000000E+00
 1.5122501E+00  0.0000000E+00
 1.5237501E+00  0.0000000E+00
 1.5352501E+00  0.0000000E+00
 1.5467501E+00  0.0000000E+00
 1.5582501E+00  0.0000000E+00
 1.5697501E+00  0.0000000E+00
 1.5812501E+00  0.0000000E+00
 1.5927501E+00  0.0000000E+00
 1.6042501E+00  0.0000000E+00
 1.6157501E+00  0.0000000E+00
 1.6272501E+00  0.0000000E+00
 1.6387501E+00  0.0000000E+00
 1.6502501E+00  0.0000000E+00
 1.6617501E+00  0.0000000E+00
 1.6732501E+00  0.0000000E+00
 1.6847501E+00  0.0000000E+00
 1.6962501E+00  0.0000000E+00
 1.7077501E+00  0.0000000E+00
 1.7192501E+00  0.0000000E+00
 1.7307501E+00  0.0000000E+00
 1.7422501E+00  0.0000000E+00
 1.7537501E+00  0.0000000E+00
 1.7652501E+00  0.0000000E+00
 1.7767501E+00  0.0000000E+00
 1.7882501E+00  0.0000000E+00
 1.7997501E+00  0.0000000E+00
 1.8112501E+00  0.0000000E+00
 1.8227501E+00  0.0000000E+00
 1.8342501E+00  0.0000000E+00
 1.8457501E+00  0.0000000E+00
 1.8572501E+00  0.0000000E+00
 1.8687501E+00  0.0000000E+00
 1.8802501E+00  0.0000000E+00
 1.8917501E+00  0.0000000E+00
 1.9032501E+00  0.0000000E+00
 1.9147501E+00  0.0000000E+00
 1.9262501E+00  0.0000000E+00
 1.9377501E+00  0.0000000E+00
 1.9492501E+00  0.0000000E+00
 1.9607501E+00  0.0000000E+00
 1.9722501E+00  0.0000000E+00
 1.9837501E+00  0.0000000E+00
 1.9952501E+00  0.0000000E+00
 2.0067501E+00  0.0000000E+00
 2.0182500E+00  0.0000000E+00
 2.0297501E+00  0.0000000E+00
 2.0412500E+00  0.0000000E+00
 2.0527501E+00  0.0000000E+00
 2.0642500E+00  0.0000000E+00
 2.0757501E+00  0.0000000E+00
 2.0872500E+00  0.0000000E+00
 2.0987501E+00  0.0000000E+00
 2.1102500E+00  0.0000000E+00
 2.1217501E+00  0.0000000E+00
 2.1332500E+00  0.0000000E+00
 2.1447501E+00  0.0000000E+00
 2.1562500E+00  0.0000000E+00
 2.1677501E+00  0.0000000E+00
 2.1792500E+00  0.0000000E+00
 2.1907501E+00  0.0000000E+00
 2.2022500E+00  0.0000000E+00
 2.2137501E+00  0.0000000E+00
 2.2252500E+00  0.0000000E+00
 2.2367501E+00  0.0000000E+00
 2.2482500E+00  0.0000000E+00
 2.2597501E+00  0.0000000E+00
 2.2712500E+00  0.0000000E+00
 2.2827501E+00  0.0000000E+00
 2.2942500E+00  0.0000000E+00
 2.3057501E+00  0.0000000E+00
 2.3172500E+00  0.0000000E+00
 2.3287501E+00  0.0000000E+00
 2.3402500E+00  0.0000000E+00
 2.3517501E+00  0.0000000E+00
 2.3632500E+00  0.0000000E+00
 2.3747501E+00  0.0000000E+00
 2.3862500E+00  0.0000000E+00
 2.3977501E+00  0.0000000E+00
 2.4092500E+00  0.0000000E+00
 2.4207501E+00  0.0000000E+00
 2.4322500E+00  0.0000000E+00
 2.4437501E+00  0.0000000E+00
 2.4552500E+00  0.0000000E+00
 2.4667501E+00  0.0000000E+00
 2.4782500E+00  0.0000000E+00
 2.4897501E+00  0.0000000E+00
 2.5012500E+00  0.0000000E+00
 2.5127501E+00  0.0000000E+00
 2.5242500E+00  0.0000000E+00
 2.5357502E+00  0.0000000E+00
 2.5472500E+00  0.0000000E+00
 2.5587502E+00  0.0000000E+00
 2.5702500E+00  0.0000000E+00
 2.5817502E+00  0.0000000E+00
 2.5932500E+00  0.0000000E+00
 2.6047502E+00  0.0000000E+00
 2.6162500E+00  0.0000000E+00
 2.6277502E+00  0.0000000E+00
 2.6392500E+00  0.0000000E+00
 2.6507502E+00  0.0000000E+00
 2.6622500E+00  0.0000000E+00
 2.6737502E+00  0.0000000E+00
 2.6852500E+00  0.0000000E+00
 2.6967502E+00  0.0000000E+00
 2.7082500E+00  0.0000000E+00
 2.7197502E+00  0.0000000E+00
 2.7312500E+00  0.0000000E+00
 2.7427502E+00  0.0000000E+00
 2.7542500E+00  0.0000000E+00
 2.7657502E+00  0.0000000E+00
 2.7772501E+00  0.0000000E+00
 2.7887502E+00  0.0000000E+00
 2.8002501E+00  0.0000000E+00
 2.8117502E+00  0.0000000E+00
 2.8232501E+00  3.1416214E+01
 2.8347502E+00  3.4421318E+01
 2.8462501E+00  3.4697609E+01
 2.8577502E+00  3.4945957E+01
 2.8692501E+00  3.4997208E+01
 2.8807502E+00  3.5014004E+01
 2.8922501E+00  3.5193314E+01
 2.9037502E+00  3.5414566E+01
 2.9152501E+00  3.5928143E+01
 2.9267502E+00  3.6288216E+01
 2.9382501E+00  3.6280586E+01
 2.9497502E+00  3.6299061E+01
 2.9612501E+00  3.5828568E+01
 2.9727502E+00  3.5608879E+01
 2.9842501E+00  3.5459766E+01
 2.9957502E+00  3.5457611E+01
 3.0072501E+00  3.5980362E+01
 3.0187502E+00  3.6191135E+01
 3.0302501E+00  3.6824780E+01
 3.0417502E+00  3.6909443E+01
 3.0532501E+00  3.6343323E+01
 3.0647502E+00  3.5616829E+01
 3.0762501E+00  3.4814266E+01
 3.0877502E+00  3.4289455E+01
 3.0992501E+00  3.4411846E+01
 3.1107502E+00  3.4210548E+01
 3.1222501E+00  3.4503407E+01
 3.1337502E+00  3.4340351E+01
 3.1452501E+00  3.4560818E+01
 3.1567502E+00  3.4726021E+01
 3.1682501E+00  3.4818604E+01
 3.1797502E+00  3.4963676E+01
 3.1912501E+00  3.4764866E+01
 3.2027502E+00  3.5085773E+01
 3.2142501E+00  3.5096550E+01
 3.2257502E+00  3.5422127E+01
 3.2372501E+00  3.5216087E+01
 3.2487502E+00  3.5172825E+01
 3.2602501E+00  3.5114296E+01
 3.2717502E+00  3.4678837E+01
 3.2832501E+00  3.4813385E+01
 3.2947502E+00  3.4568764E+01
 3.3062501E+00  3.4949856E+01
 3.3177502E+00  3.5011379E+01
 3.3292501E+00  3.4815971E+01
 3.3407502E+00  3.4837807E+01
 3.3522501E+00  3.4558144E+01
 3.3637502E+00  3.4772896E+01
 3.3752501E+00  3.5041058E+01
 3.3867502E+00  3.5210796E+01
 3.3982501E+00  3.5620380E+01
 3.4097502E+00  3.5189800E+01
 3.4212501E+00  3.4756714E+01
 3.4327502E+00  3.4453320E+01
 3.4442501E+00  3.4367561E+01
 3.4557502E+00  3.4419083E+01
 3.4672501E+00  3.4268063E+01
 3.4787502E+00  3.4030533E+01
 3.4902501E+00  3.4096706E+01
 3.5017502E+00  3.3968178E+01
 3.5132501E+00  3.3993832E+01
 3.5247502E+00  3.4211411E+01
 3.5362501E+00  3.4288086E+01
 3.5477502E+00  3.4339554E+01
 3.5592501E+00  3.4399197E+01
 3.5707502E+00  3.4276009E+01
 3.5822501E+00  3.4349617E+01
 3.5937502E+00  3.4433765E+01
 3.6052501E+00  3.4374310E+01
 3.6167502E+00  3.4272808E+01
 3.6282501E+00  3.4257725E+01
 3.6397502E+00  3.4141285E+01
 3.6512501E+00  3.4208683E+01
 3.6627502E+00  3.3985443E+01
 3.6742501E+00  3.3837345E+01
 3.6857502E+00  3.3651123E+01
 3.6972501E+00  3.3391220E+01
 3.7087502E+00  3.3351952E+01
 3.7202501E+00  3.3448605E+01
 3.7317502E+00  3.3419071E+01
 3.7432501E+00  3.3611115E+01
 3.7547503E+00  3.3554195E+01
 3.7662501E+00  3.3680279E+01
 3.7777503E+00  3.3450840E+01
 3.7892501E+00  3.3488522E+01
 3.8007503E+00  3.3435452E+01
 3.8122501E+00  3.3678585E+01
 3.8237503E+00  3.3657360E+01
 3.8352501E+00  3.3608631E+01
 3.8467503E+00  3.3536770E+01
 3.8582501E+00  3.3247074E+01
 3.8697503E+00  3.3178719E+01
 3.8812501E+00  3.3045338E+01
 3.8927503E+00  3.2854286E+01
 3.9042501E+00  3.2826229E+01
 3.9157503E+00  3.2761871E+01
 3.9272501E+00  3.2957466E+01
 3.9387503E+00  3.3075615E+01
 3.9502501E+00  3.3074566E+01
 3.9617503E+00  3.3348793E+01
 3.9732502E+00  3.3303581E+01
 3.9847503E+00  3.3246956E+01
 3.9962502E+00  3.3149704E+01
 4.0077500E+00  3.2841656E+01
 4.0192504E+00  3.2640457E+01
 4.0307503E+00  3.2370819E+01
 4.0422502E+00  3.2411926E+01
 4.0537500E+00  3.2448215E+01
 4.0652504E+00  3.2526066E+01
 4.0767503E+00  3.2629642E+01
 4.0882502E+00  3.2895325E+01
 4.0997500E+00  3.2900551E+01
 4.1112504E+00  3.2831020E+01
 4.1227503E+00  3.2713619E+01
 4.1342502E+00  3.2720936E+01
 4.1457500E+00  3.2792686E+01
 4.1572504E+00  3.2832523E+01
 4.1687503E+00  3.2807686E+01
 4.1802502E+00  3.2646267E+01
 4.1917500E+00  3.2680492E+01
 4.2032504E+00  3.2672634E+01
 4.2147503E+00  3.2811588E+01
 4.2262502E+00  3.2758789E+01
 4.2377501E+00  3.2689999E+01
 4.2492504E+00  3.2520481E+01
 4.2607503E+00  3.2435722E+01
 4.2722502E+00  3.2196625E+01
 4.2837501E+00  3.2228439E+01
 4.2952504E+00  3.2134624E+01
 4.3067503E+00  3.2298252E+01
 4.3182502E+00  3.2366741E+01
 4.3297501E+00  3.2502129E+01
 4.3412504E+00  3.2585205E+01
 4.3527503E+00  3.2633286E+01
 4.3642502E+00  3.2747292E+01
 4.3757501E+00  3.2917439E+01
 4.3872504E+00  3.2840965E+01
 4.3987503E+00  3.2884251E+01
 4.4102502E+00  3.2853340E+01
 4.4217501E+00  3.2866211E+01
 4.4332504E+00  3.2980103E+01
 4.4447503E+00  3.2718170E+01
 4.4562502E+00  3.2821114E+01
 4.4677501E+00  3.2688229E+01
 4.4792504E+00  3.2910290E+01
 4.4907503E+00  3.2868809E+01
 4.5022502E+00  3.2868515E+01
 4.5137501E+00  3.2785610E+01
 4.5252504E+00  3.2916985E+01
 4.5367503E+00  3.2894699E+01
 4.5482502E+00  3.2963161E+01
 4.5597501E+00  3.2837807E+01
 4.5712504E+00  3.2885120E+01
 4.5827503E+00  3.2835987E+01
 4.5942502E+00  3.2925373E+01
 4.6057501E+00  3.2920612E+01
 4.6172504E+00  3.2901764E+01
 4.6287503E+00  3.2842262E+01
 4.6402502E+00  3.2861687E+01
 4.6517501E+00  3.2827438E+01
 4.6632504E+00  3.2992149E+01
 4.6747503E+00  3.2925499E+01
 4.6862502E+00  3.2979767E+01
 4.6977501E+00  3.2851173E+01
 4.7092505E+00  3.2964317E+01
 4.7207503E+00  3.2956261E+01
 4.7322502E+00  3.2911003E+01
 4.7437501E+00  3.2797722E+01
 4.7552505E+00  3.2694313E+01
 4.7667503E+00  3.2808643E+01
 4.7782502E+00  3.2731171E+01
 4.7897501E+00  3.2850998E+01
 4.8012505E+00  3.2749924E+01
 4.8127503E+00  3.2886902E+01
 4.8242502E+00  3.2995667E+01
 4.8357501E+00  3.3081661E+01
 4.8472505E+00  3.3139099E+01
 4.8587503E+00  3.3222305E+01
 4.8702502E+00  3.3208149E+01
 4.8817501E+00  3.3303070E+01
 4.8932505E+00  3.3288120E+01
 4.9047503E+00  3.3299881E+01
 4.9162502E+00  3.3376938E+01
 4.9277501E+00  3.3337559E+01
 4.9392505E+00  3.3456142E+01
 4.9507504E+00  3.3429668E+01
 4.9622502E+00  3.3388062E+01
 4.9737501E+00  3.3401337E+01
 4.9852505E+00  3.3440468E+01
 4.9967504E+00  3.3458057E+01
 5.0082502E+00  3.3545036E+01
 5.0197501E+00  3.3619205E+01
 5.0312505E+00  3.3783195E+01
 5.0427504E+00  3.3846573E+01
 5.0542502E+00  3.3788731E+01
 5.0657501E+00  3.3776638E+01
 5.0772505E+00  3.3746174E+01
 5.0887504E+00  3.3737461E+01
 5.1002502E+00  3.3748726E+01
 5.1117501E+00  3.3739082E+01
 5.1232505E+00  3.3723331E+01
 5.1347504E+00  3.3833538E+01
 5.1462502E+00  3.3878910E+01
 5.1577501E+00  3.3990734E+01
 5.1692505E+00  3.4035835E+01
 5.1807504E+00  3.4096043E+01
 5.1922503E+00  3.4232723E+01
 5.2037501E+00  3.4123577E+01
 5.2152505E+00  3.4050564E+01
 5.2267504E+00  3.3865143E+01
 5.2382503E+00  3.3978680E+01
 5.2497501E+00  3.4046814E+01
 5.2612505E+00  3.4242523E+01
 5.2727504E+00  3.4274883E+01
 5.2842503E+00  3.4434048E+01
 5.2957501E+00  3.4458511E+01
 5.3072500E+00  3.4462582E+01
 5.3187504E+00  3.4384510E+01
 5.3302503E+00  3.4475746E+01
 5.3417501E+00  3.4484871E+01
 5.3532500E+00  3.4485466E+01
 5.3647504E+00  3.4457596E+01
 5.3762503E+00  3.4581734E+01
 5.3877501E+00  3.4756306E+01
 5.3992500E+00  3.4919064E+01
 5.4107504E+00  3.4901440E+01
 5.4222503E+00  3.4946369E+01
 5.4337502E+00  3.4829521E+01
 5.4452500E+00  3.4912792E+01
 5.4567504E+00  3.4907150E+01
 5.4682503E+00  3.4931713E+01
 5.4797502E+00  3.4897331E+01
 5.4912500E+00  3.4846684E+01
 5.5027504E+00  3.4900234E+01
 5.5142503E+00  3.4967705E+01
 5.5257502E+00  3.5035343E+01
 5.5372500E+00  3.5003113E+01
 5.5487504E+00  3.4930981E+01
 5.5602503E+00  3.5035984E+01
 5.5717502E+00  3.5114254E+01
 5.5832500E+00  3.5258614E+01
 5.5947504E+00  3.5371101E+01
 5.6062503E+00  3.5471855E+01
 5.6177502E+00  3.5551060E+01
 5.6292500E+00  3.5549862E+01
 5.6407504E+00  3.5554779E+01
 5.6522503E+00  3.5625179E+01
 5.6637502E+00  3.5693169E+01
 5.6752501E+00  3.5809937E+01
 5.6867504E+00  3.5896820E+01
 5.6982503E+00  3.5808743E+01
 5.7097502E+00  3.5997375E+01
 5.7212501E+00  3.6032803E+01
 5.7327504E+00  3.6183384E+01
 5.7442503E+00  3.6169430E+01
 5.7557502E+00  3.6172482E+01
 5.7672501E+00  3.6251373E+01
 5.7787504E+00  3.6322559E+01
 5.7902503E+00  3.6376431E+01
 5.8017502E+00  3.6324108E+01
 5.8132501E+00  3.6267746E+01
 5.8247504E+00  3.6265495E+01
 5.8362503E+00  3.6320934E+01
 5.8477502E+00  3.6377220E+01
 5.8592501E+00  3.6461018E+01
 5.8707504E+00  3.6600319E+01
 5.8822503E+00  3.6806496E+01
 5.8937502E+00  3.6997517E+01
 5.9052501E+00  3.7322269E+01
 5.9167504E+00  3.7713238E+01
 5.9282503E+00  3.8285271E+01
 5.9397502E+00  3.9769474E+01
 5.9512501E+00  4.1181488E+01
 5.9627504E+00  4.2609474E+01
 5.9742503E+00  4.4199894E+01
 5.9857502E+00  4.4300541E+01
 5.9972501E+00  4.4077007E+01
 6.0087504E+00  4.2660378E+01
 6.0202503E+00  4.1401485E+01
 6.0317502E+00  4.0330879E+01
 6.0432501E+00  3.9184372E+01
 6.0547504E+00  3.8575546E+01
 6.0662503E+00  3.8065140E+01
 6.0777502E+00  3.7622299E+01
 6.0892501E+00  3.7454929E+01
 6.1007504E+00  3.7267002E+01
 6.1122503E+00  3.7254288E+01
 6.1237502E+00  3.7210716E+01
 6.1352501E+00  3.7140026E+01
 6.1467505E+00  3.7086403E+01
 6.1582503E+00  3.7103577E+01
 6.1697502E+00  3.7296047E+01
 6.1812501E+00  3.7299969E+01
 6.1927505E+00  3.7443863E+01
 6.2042503E+00  3.7484814E+01
 6.2157502E+00  3.7764507E+01
 6.2272501E+00  3.7820957E+01
 6.2387505E+00  3.7883732E+01
 6.2502503E+00  3.7894096E+01
 6.2617502E+00  3.8022797E+01
 6.2732501E+00  3.8130840E+01
 6.2847505E+00  3.8294174E+01
 6.2962503E+00  3.8378242E+01
 6.3077502E+00  3.8426922E+01
 6.3192501E+00  3.8449280E+01
 6.3307505E+00  3.8472549E+01
 6.3422503E+00  3.8536919E+01
 6.3537502E+00  3.8549282E+01
 6.3652501E+00  3.8574810E+01
 6.3767505E+00  3.8685791E+01
 6.3882504E+00  3.8789673E+01
 6.3997502E+00  3.8850090E+01
 6.4112501E+00  3.8906635E+01
 6.4227505E+00  3.8917202E+01
 6.4342504E+00  3.8945873E+01
 6.4457502E+00  3.8996723E+01
 6.4572501E+00  3.8981953E+01
 6.4687505E+00  3.9090019E+01
 6.4802504E+00  3.9144817E+01
 6.4917502E+00  3.9365269E+01
 6.5032501E+00  3.9521698E+01
 6.5147505E+00  3.9556149E+01
 6.5262504E+00  3.9598217E+01
 6.5377502E+00  3.9666534E+01
 6.5492501E+00  3.9770927E+01
 6.5607505E+00  3.9862560E+01
 6.5722504E+00  3.9889534E+01
 6.5837502E+00  3.9975708E+01
 6.5952501E+00  3.9970753E+01
 6.6067505E+00  4.0050220E+01
 6.6182504E+00  4.0150200E+01
 6.6297503E+00  4.0332676E+01
 6.6412501E+00  4.0452995E+01
 6.6527505E+00  4.0563808E+01
 6.6642504E+00  4.0624851E+01
 6.6757503E+00  4.0600239E+01
 6.6872501E+00  4.0524849E+01
 6.6987505E+00  4.0489880E+01
 6.7102504E+00  4.0587852E+01
 6.7217503E+00  4.0728409E+01
 6.7332501E+00  4.0936398E+01
 6.7447505E+00  4.1046169E+01
 6.7562504E+00  4.1172443E+01
 6.7677503E+00  4.1230705E+01
 6.7792501E+00  4.1335148E+01
 6.7907505E+00  4.1375431E+01
 6.8022504E+00  4.1504517E+01
 6.8137503E+00  4.1629604E+01
 6.8252501E+00  4.1745575E+01
 6.8367505E+00  4.1799850E+01
 6.8482504E+00  4.1894104E+01
 6.8597503E+00  4.1887074E+01
 6.8712502E+00  4.2043343E+01
 6.8827505E+00  4.2123768E+01
 6.8942504E+00  4.2328323E+01
 6.9057503E+00  4.2516464E+01
 6.9172502E+00  4.2570026E+01
 6.9287505E+00  4.2555317E+01
 6.9402504E+00  4.2508099E+01
 6.9517503E+00  4.2489460E+01
 6.9632502E+00  4.2453381E+01
 6.9747505E+00  4.2363197E+01
 6.9862504E+00  4.2379139E+01
 6.9977503E+00  4.2535942E+01
 7.0092502E+00  4.2739914E+01
 7.0207505E+00  4.2828262E+01
 7.0322504E+00  4.3058804E+01
 7.0437503E+00  4.3187263E+01
 7.0552502E+00  4.3336761E+01
 7.0667505E+00  4.3409084E+01
 7.0782504E+00  4.3378487E+01
 7.0897503E+00  4.3411926E+01
 7.1012502E+00  4.3357742E+01
 7.1127505E+00  4.3372322E+01
 7.1242504E+00  4.3493004E+01
 7.1357503E+00  4.3603241E+01
 7.1472502E+00  4.3631969E+01
 7.1587505E+00  4.3689373E+01
 7.1702504E+00  4.3691200E+01
 7.1817503E+00  4.3780334E+01
 7.1932502E+00  4.3955681E+01
 7.2047505E+00  4.4087955E+01
 7.2162504E+00  4.4280926E+01
 7.2277503E+00  4.4333584E+01
 7.2392502E+00  4.4327755E+01
 7.2507505E+00  4.4347431E+01
 7.2622504E+00  4.4298801E+01
 7.2737503E+00  4.4345230E+01
 7.2852502E+00  4.4323017E+01
 7.2967505E+00  4.4327286E+01
 7.3082504E+00  4.4351685E+01
 7.3197503E+00  4.4400158E+01
 7.3312502E+00  4.4424904E+01
 7.3427505E+00  4.4424759E+01
 7.3542504E+00  4.4480274E+01
 7.3657503E+00  4.4578503E+01
 7.3772502E+00  4.4633392E+01
 7.3887506E+00  4.4686367E+01
 7.4002504E+00  4.4665901E+01
 7.4117503E+00  4.4722942E+01
 7.4232502E+00  4.4688854E+01
 7.4347506E+00  4.4701965E+01
 7.4462504E+00  4.4725159E+01
 7.4577503E+00  4.4718807E+01
 7.4692502E+00  4.4744366E+01
 7.4807506E+00  4.4811417E+01
 7.4922504E+00  4.4896519E+01
 7.5037503E+00  4.4923653E+01
 7.5152502E+00  4.4853161E+01
 7.5267506E+00  4.4800159E+01
 7.5382504E+00  4.4774632E+01
 7.5497503E+00  4.4772614E+01
 7.5612502E+00  4.4812542E+01
 7.5727506E+00  4.4846043E+01
 7.5842505E+00  4.4918106E+01
 7.5957503E+00  4.4974667E+01
 7.6072502E+00  4.5050583E+01
 7.6187506E+00  4.4992603E+01
 7.6302505E+00  4.4961285E+01
 7.6417503E+00  4.4978153E+01
 7.6532502E+00  4.5017345E+01
 7.6647506E+00  4.5055752E+01
 7.6762505E+00  4.5036995E+01
 7.6877503E+00  4.5033390E+01
 7.6992502E+00  4.5085918E+01
 7.7107506E+00  4.5116543E+01
 7.7222505E+00  4.5188080E+01
 7.7337503E+00  4.5229256E+01
 7.7452502E+00  4.5164463E+01
 7.7567506E+00  4.5140747E+01
 7.7682505E+00  4.5098473E+01
 7.7797503E+00  4.5113171E+01
 7.7912502E+00  4.5138195E+01
 7.8027506E+00  4.5098251E+01
 7.8142505E+00  4.5004803E+01
 7.8257504E+00  4.4975529E+01
 7.8372502E+00  4.4835201E+01
 7.8487506E+00  4.4842796E+01
 7.8602505E+00  4.4651756E+01
 7.8717504E+00  4.4644848E+01
 7.8832502E+00  4.4594677E+01
 7.8947506E+00  4.4527256E+01
 7.9062505E+00  4.4518707E+01
 7.9177504E+00  4.4444107E+01
 7.9292502E+00  4.4423115E+01
 7.9407506E+00  4.4375015E+01
 7.9522505E+00  4.4350403E+01
 7.9637504E+00  4.4316044E+01
 7.9752502E+00  4.4294750E+01
 7.9867506E+00  4.4261456E+01
 7.9982505E+00  4.4295536E+01
 8.0097504E+00  4.4198719E+01
 8.0212507E+00  4.4198193E+01
 8.0327501E+00  4.4038605E+01
 8.0442505E+00  4.3883766E+01
 8.0557508E+00  4.3687302E+01
 8.0672503E+00  4.3649029E+01
 8.0787506E+00  4.3605797E+01
 8.0902500E+00  4.3646317E+01
 8.1017504E+00  4.3616745E+01
 8.1132507E+00  4.3669693E+01
 8.1247501E+00  4.3573502E+01
 8.1362505E+00  4.3504173E+01
 8.1477509E+00  4.3261688E+01
 8.1592503E+00  4.3060944E+01
 8.1707506E+00  4.2835556E+01
 8.1822500E+00  4.2713745E+01
 8.1937504E+00  4.2678894E+01
 8.2052507E+00  4.2595238E+01
 8.2167501E+00  4.2576199E+01
 8.2282505E+00  4.2444046E+01
 8.2397509E+00  4.2349236E+01
 8.2512503E+00  4.2220901E+01
 8.2627506E+00  4.2118755E+01
 8.2742500E+00  4.1941875E+01
 8.2857504E+00  4.1848946E+01
 8.2972507E+00  4.1656040E+01
 8.3087502E+00  4.1516098E+01
 8.3202505E+00  4.1406898E+01
 8.3317509E+00  4.1363682E+01
 8.3432503E+00  4.1242477E+01
 8.3547506E+00  4.0985245E+01
 8.3662500E+00  4.0830162E+01
 8.3777504E+00  4.0657547E+01
 8.3892508E+00  4.0537861E+01
 8.4007502E+00  4.0374680E+01
 8.4122505E+00  4.0281036E+01
 8.4237509E+00  4.0109512E+01
 8.4352503E+00  3.9918556E+01
 8.4467506E+00  3.9681076E+01
 8.4582500E+00  3.9513569E+01
 8.4697504E+00  3.9377430E+01
 8.4812508E+00  3.9187149E+01
 8.4927502E+00  3.8976665E+01
 8.5042505E+00  3.8729206E+01
 8.5157509E+00  3.8592651E+01
 8.5272503E+00  3.8488464E+01
 8.5387506E+00  3.8340256E+01
 8.5502501E+00  3.8141457E+01
 8.5617504E+00  3.7846992E+01
 8.5732508E+00  3.7659874E+01
 8.5847502E+00  3.7387615E+01
 8.5962505E+00  3.7240425E+01
 8.6077509E+00  3.6981159E+01
 8.6192503E+00  3.6865242E+01
 8.6307507E+00  3.6678471E+01
 8.6422501E+00  3.6528576E+01
 8.6537504E+00  3.6260349E+01
 8.6652508E+00  3.6114563E+01
 8.6767502E+00  3.5928864E+01
 8.6882505E+00  3.5898987E+01
 8.6997509E+00  3.5832314E+01
 8.7112503E+00  3.5704430E+01
 8.7227507E+00  3.5543770E+01
 8.7342501E+00  3.5281937E+01
 8.7457504E+00  3.5059517E+01
 8.7572508E+00  3.4827282E+01
 8.7687502E+00  3.4578468E+01
 8.7802505E+00  3.4462513E+01
 8.7917500E+00  3.4290070E+01
 8.8032503E+00  3.4223896E+01
 8.8147507E+00  3.4126160E+01
 8.8262501E+00  3.3979557E+01
 8.8377504E+00  3.3811302E+01
 8.8492508E+00  3.3589149E+01
 8.8607502E+00  3.3430389E+01
 8.8722506E+00  3.3330914E+01
 8.8837500E+00  3.3230316E+01
 8.8952503E+00  3.3107548E+01
 8.9067507E+00  3.2993690E+01
 8.9182501E+00  3.2768505E+01
 8.9297504E+00  3.2531448E+01
 8.9412508E+00  3.2304092E+01
 8.9527502E+00  3.2135326E+01
 8.9642506E+00  3.1988380E+01
 8.9757500E+00  3.1867739E+01
 8.9872503E+00  3.1761148E+01
 8.9987507E+00  3.1602160E+01
 9.0102501E+00  3.1405600E+01
 9.0217505E+00  3.1125748E+01
 9.0332508E+00  3.0955912E+01
 9.0447502E+00  3.0798145E+01
 9.0562506E+00  3.0654333E+01
 9.0677500E+00  3.0595131E+01
 9.0792503E+00  3.0495531E+01
 9.0907507E+00  3.0475653E+01
 9.1022501E+00  3.0383806E+01
 9.1137505E+00  3.0298126E+01
 9.1252508E+00  3.0188082E+01
 9.1367502E+00  3.0154449E+01
 9.1482506E+00  3.0026131E+01
 9.1597500E+00  2.9973057E+01
 9.1712503E+00  2.9747145E+01
 9.1827507E+00  2.9662766E+01
 9.1942501E+00  2.9506741E+01
 9.2057505E+00  2.9388561E+01
 9.2172508E+00  2.9305964E+01
 9.2287502E+00  2.9142220E+01
 9.2402506E+00  2.9049517E+01
 9.2517500E+00  2.8874325E+01
 9.2632504E+00  2.8731693E+01
 9.2747507E+00  2.8558846E+01
 9.2862501E+00  2.8487547E+01
 9.2977505E+00  2.8466686E+01
 9.3092508E+00  2.8491581E+01
 9.3207502E+00  2.8402212E+01
 9.3322506E+00  2.8331448E+01
 9.3437500E+00  2.8254728E+01
 9.3552504E+00  2.8103184E+01
 9.3667507E+00  2.8027571E+01
 9.3782501E+00  2.7893303E+01
 9.3897505E+00  2.7797354E+01
 9.4012508E+00  2.7694487E+01
 9.4127502E+00  2.7649078E+01
 9.4242506E+00  2.7600166E+01
 9.4357500E+00  2.7530394E+01
 9.4472504E+00  2.7463505E+01
 9.4587507E+00  2.7392996E+01
 9.4702501E+00  2.7337276E+01
 9.4817505E+00  2.7222956E+01
 9.4932508E+00  2.7133827E+01
 9.5047503E+00  2.7012789E+01
 9.5162506E+00  2.6915701E+01
 9.5277500E+00  2.6825603E+01
 9.5392504E+00  2.6752733E+01
 9.5507507E+00  2.6625216E+01
 9.5622501E+00  2.6645273E+01
 9.5737505E+00  2.6543041E+01
 9.5852509E+00  2.6498337E+01
 9.5967503E+00  2.6410126E+01
 9.6082506E+00  2.6404327E+01
 9.6197500E+00  2.6401833E+01
 9.6312504E+00  2.6370789E+01
 9.6427507E+00  2.6302080E+01
 9.6542501E+00  2.6255108E+01
 9.6657505E+00  2.6116274E+01
 9.6772509E+00  2.6032118E+01
 9.6887503E+00  2.5969629E+01
 9.7002506E+00  2.5981810E+01
 9.7117500E+00  2.6023449E+01
 9.7232504E+00  2.6071648E+01
 9.7347507E+00  2.6100864E+01
 9.7462502E+00  2.6080219E+01
 9.7577505E+00  2.6047201E+01
 9.7692509E+00  2.5949129E+01
 9.7807503E+00  2.5818827E+01
 9.7922506E+00  2.5663504E+01
 9.8037500E+00  2.5549833E+01
 9.8152504E+00  2.5512589E+01
 9.8267508E+00  2.5531105E+01
 9.8382502E+00  2.5492498E+01
 9.8497505E+00  2.5428703E+01
 9.8612509E+00  2.5350925E+01
 9.8727503E+00  2.5313065E+01
 9.8842506E+00  2.5304293E+01
 9.8957500E+00  2.5289438E+01
 9.9072504E+00  2.5274406E+01
 9.9187508E+00  2.5250441E+01
 9.9302502E+00  2.5149372E+01
 9.9417505E+00  2.5127420E+01
 9.9532509E+00  2.5087502E+01
 9.9647503E+00  2.5038574E+01
 9.9762506E+00  2.4965714E+01
 9.9877501E+00  2.4884296E+01
 9.9992504E+00  2.4906971E+01
 1.0010751E+01  2.4858709E+01
 1.0022250E+01  2.4832773E+01
 1.0033751E+01  2.4813877E+01
 1.0045251E+01  2.4815874E+01
 1.0056750E+01  2.4863377E+01
 1.0068251E+01  2.4855339E+01
 1.0079750E+01  2.4862576E+01
 1.0091250E+01  2.4802410E+01
 1.0102751E+01  2.4768177E+01
 1.0114250E+01  2.4702473E+01
 1.0125751E+01  2.4689472E+01
 1.0137251E+01  2.4634909E+01
 1.0148750E+01  2.4589729E+01
 1.0160251E+01  2.4523251E+01
 1.0171750E+01  2.4398224E+01
 1.0183250E+01  2.4338663E+01
 1.0194751E+01  2.4248598E+01
 1.0206250E+01  2.4237831E+01
 1.0217751E+01  2.4178242E+01
 1.0229251E+01  2.4208735E+01
 1.0240750E+01  2.4199261E+01
 1.0252251E+01  2.4231741E+01
 1.0263750E+01  2.4172075E+01
 1.0275250E+01  2.4125284E+01
 1.0286751E+01  2.4071129E+01
 1.0298250E+01  2.4090092E+01
 1.0309751E+01  2.4114269E+01
 1.0321251E+01  2.4100920E+01
 1.0332750E+01  2.4005968E+01
 1.0344251E+01  2.4010590E+01
 1.0355750E+01  2.3947580E+01
 1.0367250E+01  2.3930607E+01
 1.0378751E+01  2.3823048E+01
 1.0390250E+01  2.3810661E+01
 1.0401751E+01  2.3797518E+01
 1.0413251E+01  2.3785234E+01
 1.0424750E+01  2.3747154E+01
 1.0436251E+01  2.3741501E+01
 1.0447750E+01  2.3764307E+01
 1.0459250E+01  2.3764278E+01
 1.0470751E+01  2.3778240E+01
 1.0482250E+01  2.3719858E+01
 1.0493751E+01  2.3694271E+01
 1.0505251E+01  2.3637283E+01
 1.0516750E+01  2.3638077E+01
 1.0528251E+01  2.3590910E+01
 1.0539750E+01  2.3591219E+01
 1.0551250E+01  2.3608065E+01
 1.0562751E+01  2.3649862E+01
 1.0574250E+01  2.3597784E+01
 1.0585751E+01  2.3547997E+01
 1.0597251E+01  2.3513563E+01
 1.0608750E+01  2.3472694E+01
 1.0620251E+01  2.3443329E+01
 1.0631750E+01  2.3462364E+01
 1.0643250E+01  2.3498182E+01
 1.0654751E+01  2.3508850E+01
 1.0666250E+01  2.3508537E+01
 1.0677751E+01  2.3522985E+01
 1.0689251E+01  2.3517328E+01
 1.0700750E+01  2.3495312E+01
 1.0712251E+01  2.3480888E+01
 1.0723750E+01  2.3423742E+01
 1.0735250E+01  2.3368343E+01
 1.0746751E+01  2.3246162E+01
 1.0758250E+01  2.3210840E+01
 1.0769751E+01  2.3152340E+01
 1.0781251E+01  2.3208761E+01
 1.0792750E+01  2.3189529E+01
 1.0804251E+01  2.3193211E+01
 1.0815750E+01  2.3147989E+01
 1.0827250E+01  2.3157234E+01
 1.0838751E+01  2.3194891E+01
 1.0850250E+01  2.3179539E+01
 1.0861751E+01  2.3210508E+01
 1.0873251E+01  2.3201721E+01
 1.0884750E+01  2.3195190E+01
 1.0896251E+01  2.3121857E+01
 1.0907750E+01  2.3051355E+01
 1.0919250E+01  2.3022896E+01
 1.0930751E+01  2.3018118E+01
 1.0942250E+01  2.3012741E+01
 1.0953751E+01  2.3056671E+01
 1.0965251E+01  2.3030434E+01
 1.0976750E+01  2.3074190E+01
 1.0988251E+01  2.2981689E+01
 1.0999750E+01  2.2971804E+01
 1.1011250E+01  2.2890928E+01
 1.1022751E+01  2.2938253E+01
 1.1034250E+01  2.2959534E+01
 1.1045751E+01  2.2917297E+01
 1.1057251E+01  2.2875618E+01
 1.1068750E+01  2.2883410E+01
 1.1080251E+01  2.2922972E+01
 1.1091750E+01  2.2980722E+01
 1.1103251E+01  2.2999561E+01
 1.1114751E+01  2.3039431E+01
 1.1126250E+01  2.2991976E+01
 1.1137751E+01  2.2900471E+01
 1.1149251E+01  2.2856537E+01
 1.1160750E+01  2.2809147E+01
 1.1172251E+01  2.2789621E+01
 1.1183750E+01  2.2753942E+01
 1.1195251E+01  2.2734268E+01
 1.1206751E+01  2.2752697E+01
 1.1218250E+01  2.2723785E+01
 1.1229751E+01  2.2717609E+01
 1.1241251E+01  2.2730139E+01
 1.1252750E+01  2.2758720E+01
 1.1264251E+01  2.2735844E+01
 1.1275750E+01  2.2751993E+01
 1.1287251E+01  2.2716450E+01
 1.1298751E+01  2.2803238E+01
 1.1310250E+01  2.2799200E+01
 1.1321751E+01  2.2829500E+01
 1.1333251E+01  2.2787382E+01
 1.1344750E+01  2.2794083E+01
 1.1356251E+01  2.2768597E+01
 1.1367750E+01  2.2782497E+01
 1.1379251E+01  2.2826429E+01
 1.1390751E+01  2.2908796E+01
 1.1402250E+01  2.3091309E+01
 1.1413751E+01  2.3120329E+01
 1.1425251E+01  2.3161362E+01
 1.1436750E+01  2.3110970E+01
 1.1448251E+01  2.3114271E+01
 1.1459750E+01  2.3193514E+01
 1.1471251E+01  2.3196392E+01
 1.1482751E+01  2.3243986E+01
 1.1494250E+01  2.3329319E+01
 1.1505751E+01  2.3428810E+01
 1.1517251E+01  2.3673588E+01
 1.1528750E+01  2.4023211E+01
 1.1540251E+01  2.4637537E+01
 1.1551750E+01  2.5530119E+01
 1.1563251E+01  2.6509825E+01
 1.1574751E+01  2.7590843E+01
 1.1586250E+01  2.8156605E+01
 1.1597751E+01  2.8369633E+01
 1.1609251E+01  2.7775522E+01
 1.1620750E+01  2.7034199E+01
 1.1632251E+01  2.5935162E+01
 1.1643750E+01  2.5091415E+01
 1.1655251E+01  2.4320858E+01
 1.1666751E+01  2.3780300E+01
 1.1678250E+01  2.3382490E+01
 1.1689751E+01  2.3144291E+01
 1.1701251E+01  2.3068256E+01
 1.1712750E+01  2.3033043E+01
 1.1724251E+01  2.2977905E+01
 1.1735750E+01  2.2946617E+01
 1.1747251E+01  2.2901142E+01
 1.1758751E+01  2.2888517E+01
 1.1770250E+01  2.2829081E+01
 1.1781751E+01  2.2810314E+01
 1.1793251E+01  2.2799971E+01
 1.1804750E+01  2.2834379E+01
 1.1816251E+01  2.2875116E+01
 1.1827750E+01  2.2831612E+01
 1.1839251E+01  2.2812675E+01
 1.1850751E+01  2.2759186E+01
 1.1862250E+01  2.2797140E+01
 1.1873751E+01  2.2749468E+01
 1.1885251E+01  2.2730038E+01
 1.1896750E+01  2.2720884E+01
 1.1908251E+01  2.2801643E+01
 1.1919750E+01  2.2878185E+01
 1.1931251E+01  2.2974014E+01
 1.1942751E+01  2.3065781E+01
 1.1954250E+01  2.3189867E+01
 1.1965751E+01  2.3323145E+01
 1.1977251E+01  2.3394650E+01
 1.1988750E+01  2.3469776E+01
 1.2000251E+01  2.3376699E+01
 1.2011750E+01  2.3354401E+01
 1.2023251E+01  2.3240065E+01
 1.2034751E+01  2.3322344E+01
 1.2046250E+01  2.3417551E+01
 1.2057751E+01  2.3655384E+01
 1.2069251E+01  2.3966806E+01
 1.2080750E+01  2.4299725E+01
 1.2092251E+01  2.4629473E+01
 1.2103750E+01  2.4615421E+01
 1.2115251E+01  2.4420753E+01
 1.2126751E+01  2.4060854E+01
 1.2138250E+01  2.3807262E+01
 1.2149751E+01  2.3540934E+01
 1.2161251E+01  2.3324444E+01
 1.2172750E+01  2.3168451E+01
 1.2184251E+01  2.3060196E+01
 1.2195750E+01  2.2994255E+01
 1.2207251E+01  2.2931986E+01
 1.2218751E+01  2.2926132E+01
 1.2230250E+01  2.2890327E+01
 1.2241751E+01  2.2911869E+01
 1.2253251E+01  2.2903503E+01
 1.2264750E+01  2.2924477E+01
 1.2276251E+01  2.2872339E+01
 1.2287750E+01  2.2882732E+01
 1.2299251E+01  2.2851646E+01
 1.2310751E+01  2.2835749E+01
 1.2322250E+01  2.2767704E+01
 1.2333751E+01  2.2778027E+01
 1.2345250E+01  2.2769894E+01
 1.2356750E+01  2.2827221E+01
 1.2368251E+01  2.2831566E+01
 1.2379750E+01  2.2862764E+01
 1.2391251E+01  2.2812243E+01
 1.2402751E+01  2.2766966E+01
 1.2414250E+01  2.2785200E+01
 1.2425751E+01  2.2791986E+01
 1.2437250E+01  2.2874645E+01
 1.2448750E+01  2.2846876E+01
 1.2460251E+01  2.2904749E+01
 1.2471750E+01  2.2887072E+01
 1.2483251E+01  2.2944857E+01
 1.2494751E+01  2.2967104E+01
 1.2506250E+01  2.2972763E+01
 1.2517751E+01  2.2971928E+01
 1.2529250E+01  2.3001106E+01
 1.2540751E+01  2.3108980E+01
 1.2552251E+01  2.3145039E+01
 1.2563750E+01  2.3127663E+01
 1.2575251E+01  2.3092653E+01
 1.2586751E+01  2.3086565E+01
 1.2598250E+01  2.3121006E+01
 1.2609751E+01  2.3154913E+01
 1.2621250E+01  2.3240831E+01
 1.2632751E+01  2.3300720E+01
 1.2644251E+01  2.3255739E+01
 1.2655750E+01  2.3231853E+01
 1.2667251E+01  2.3167992E+01
 1.2678751E+01  2.3171446E+01
 1.2690250E+01  2.3183308E+01
 1.2701751E+01  2.3234999E+01
 1.2713250E+01  2.3291082E+01
 1.2724751E+01  2.3300140E+01
 1.2736251E+01  2.3310461E+01
 1.2747750E+01  2.3305216E+01
 1.2759251E+01  2.3275089E+01
 1.2770751E+01  2.3261227E+01
 1.2782250E+01  2.3258518E+01
 1.2793751E+01  2.3290649E+01
 1.2805250E+01  2.3396713E+01
 1.2816751E+01  2.3495607E+01
 1.2828251E+01  2.3619583E+01
 1.2839750E+01  2.3651344E+01
 1.2851251E+01  2.3740414E+01
 1.2862751E+01  2.3759272E+01
 1.2874250E+01  2.3820122E+01
 1.2885751E+01  2.3829731E+01
 1.2897250E+01  2.3869911E+01
 1.2908751E+01  2.3936991E+01
 1.2920251E+01  2.3939766E+01
 1.2931750E+01  2.4023470E+01
 1.2943251E+01  2.4011992E+01
 1.2954751E+01  2.4099699E+01
 1.2966250E+01  2.4135271E+01
 1.2977751E+01  2.4220079E+01
 1.2989250E+01  2.4271864E+01
 1.3000751E+01  2.4311394E+01
 1.3012251E+01  2.4365088E+01
 1.3023750E+01  2.4413855E+01
 1.3035251E+01  2.4466364E+01
 1.3046751E+01  2.4456766E+01
 1.3058250E+01  2.4556543E+01
 1.3069751E+01  2.4624258E+01
 1.3081250E+01  2.4779997E+01
 1.3092751E+01  2.4868593E+01
 1.3104251E+01  2.5059208E+01
 1.3115750E+01  2.5221462E+01
 1.3127251E+01  2.5377838E+01
 1.3138751E+01  2.5453268E+01
 1.3150250E+01  2.5549887E+01
 1.3161751E+01  2.5595844E+01
 1.3173250E+01  2.5708652E+01
 1.3184751E+01  2.5807167E+01
 1.3196251E+01  2.5948303E+01
 1.3207750E+01  2.6082792E+01
 1.3219251E+01  2.6216639E+01
 1.3230751E+01  2.6408735E+01
 1.3242250E+01  2.6605850E+01
 1.3253751E+01  2.6793604E+01
 1.3265250E+01  2.6967310E+01
 1.3276751E+01  2.7065573E+01
 1.3288251E+01  2.7218786E+01
 1.3299750E+01  2.7355280E+01
 1.3311251E+01  2.7507877E+01
 1.3322751E+01  2.7643766E+01
 1.3334250E+01  2.7756882E+01
 1.3345751E+01  2.7872091E+01
 1.3357250E+01  2.7992495E+01
 1.3368751E+01  2.8058113E+01
 1.3380251E+01  2.8188740E+01
 1.3391750E+01  2.8290792E+01
 1.3403251E+01  2.8513090E+01
 1.3414751E+01  2.8662266E+01
 1.3426250E+01  2.8785820E+01
 1.3437751E+01  2.8835209E+01
 1.3449250E+01  2.8935375E+01
 1.3460751E+01  2.9074635E+01
 1.3472251E+01  2.9204878E+01
 1.3483750E+01  2.9362036E+01
 1.3495251E+01  2.9448513E+01
 1.3506751E+01  2.9601488E+01
 1.3518250E+01  2.9670588E+01
 1.3529751E+01  2.9721682E+01
 1.3541250E+01  2.9782421E+01
 1.3552751E+01  2.9848635E+01
 1.3564251E+01  2.9975677E+01
 1.3575750E+01  3.0060547E+01
 1.3587251E+01  3.0169178E+01
 1.3598751E+01  3.0240782E+01
 1.3610250E+01  3.0293676E+01
 1.3621751E+01  3.0258930E+01
 1.3633250E+01  3.0228016E+01
 1.3644751E+01  3.0149662E+01
 1.3656251E+01  3.0127907E+01
 1.3667750E+01  3.0188797E+01
 1.3679251E+01  3.0244995E+01
 1.3690751E+01  3.0238766E+01
 1.3702250E+01  3.0131496E+01
 1.3713751E+01  2.9996286E+01
 1.3725250E+01  2.9972050E+01
 1.3736751E+01  2.9903894E+01
 1.3748251E+01  2.9831316E+01
 1.3759750E+01  2.9743721E+01
 1.3771251E+01  2.9715408E+01
 1.3782751E+01  2.9717968E+01
 1.3794250E+01  2.9656895E+01
 1.3805751E+01  2.9579576E+01
 1.3817250E+01  2.9479143E+01
 1.3828751E+01  2.9465143E+01
 1.3840251E+01  2.9517952E+01
 1.3851750E+01  2.9621668E+01
 1.3863251E+01  2.9798092E+01
 1.3874751E+01  3.0003273E+01
 1.3886250E+01  3.0345282E+01
 1.3897751E+01  3.1207693E+01
 1.3909250E+01  3.2140636E+01
 1.3920751E+01  3.3850544E+01
 1.3932251E+01  3.5570045E+01
 1.3943750E+01  3.7123344E+01
 1.3955251E+01  3.7774147E+01
 1.3966751E+01  3.7723045E+01
 1.3978251E+01  3.6302986E+01
 1.3989751E+01  3.4452766E+01
 1.4001250E+01  3.2297665E+01
 1.4012751E+01  3.1024500E+01
 1.4024251E+01  2.9730433E+01
 1.4035750E+01  2.9135630E+01
 1.4047251E+01  2.8782631E+01
 1.4058751E+01  2.8579977E+01
 1.4070251E+01  2.8434862E+01
 1.4081751E+01  2.8261189E+01
 1.4093250E+01  2.8146576E+01
 1.4104751E+01  2.7985809E+01
 1.4116251E+01  2.7910849E+01
 1.4127750E+01  2.7743404E+01
 1.4139251E+01  2.7656887E+01
 1.4150751E+01  2.7491579E+01
 1.4162251E+01  2.7415169E+01
 1.4173751E+01  2.7294897E+01
 1.4185250E+01  2.7220488E+01
 1.4196751E+01  2.7169830E+01
 1.4208251E+01  2.7186550E+01
 1.4219750E+01  2.7154434E+01
 1.4231251E+01  2.7048241E+01
 1.4242751E+01  2.6879230E+01
 1.4254251E+01  2.6794252E+01
 1.4265751E+01  2.6747017E+01
 1.4277250E+01  2.6743383E+01
 1.4288751E+01  2.6727848E+01
 1.4300251E+01  2.6705690E+01
 1.4311750E+01  2.6663862E+01
 1.4323251E+01  2.6663942E+01
 1.4334751E+01  2.6638802E+01
 1.4346251E+01  2.6627127E+01
 1.4357751E+01  2.6545763E+01
 1.4369250E+01  2.6527096E+01
 1.4380751E+01  2.6443604E+01
 1.4392251E+01  2.6435400E+01
 1.4403750E+01  2.6347137E+01
 1.4415251E+01  2.6304562E+01
 1.4426751E+01  2.6221920E+01
 1.4438251E+01  2.6190754E+01
 1.4449751E+01  2.6180967E+01
 1.4461250E+01  2.6146362E+01
 1.4472751E+01  2.6137241E+01
 1.4484251E+01  2.6070801E+01
 1.4495750E+01  2.6039625E+01
 1.4507251E+01  2.6018299E+01
 1.4518751E+01  2.5970797E+01
 1.4530251E+01  2.5927555E+01
 1.4541751E+01  2.5865662E+01
 1.4553250E+01  2.5885666E+01
 1.4564751E+01  2.5845955E+01
 1.4576251E+01  2.5848200E+01
 1.4587750E+01  2.5793652E+01
 1.4599251E+01  2.5810877E+01
 1.4610751E+01  2.5802359E+01
 1.4622251E+01  2.5774878E+01
 1.4633751E+01  2.5740705E+01
 1.4645250E+01  2.5684477E+01
 1.4656751E+01  2.5693594E+01
 1.4668251E+01  2.5637671E+01
 1.4679750E+01  2.5664423E+01
 1.4691251E+01  2.5677364E+01
 1.4702751E+01  2.5718491E+01
 1.4714251E+01  2.5704601E+01
 1.4725751E+01  2.5674942E+01
 1.4737250E+01  2.5605228E+01
 1.4748751E+01  2.5534189E+01
 1.4760251E+01  2.5468153E+01
 1.4771750E+01  2.5443764E+01
 1.4783251E+01  2.5410709E+01
 1.4794751E+01  2.5400723E+01
 1.4806251E+01  2.5355932E+01
 1.4817751E+01  2.5337166E+01
 1.4829250E+01  2.5347094E+01
 1.4840751E+01  2.5390980E+01
 1.4852251E+01  2.5389713E+01
 1.4863750E+01  2.5358585E+01
 1.4875251E+01  2.5355227E+01
 1.4886751E+01  2.5419098E+01
 1.4898251E+01  2.5498383E+01
 1.4909751E+01  2.5540140E+01
 1.4921250E+01  2.5498163E+01
 1.4932751E+01  2.5376976E+01
 1.4944251E+01  2.5244078E+01
 1.4955750E+01  2.5137135E+01
 1.4967251E+01  2.5109728E+01
 1.4978751E+01  2.5121897E+01
 1.4990251E+01  2.5136616E+01
 1.5001751E+01  2.5187143E+01
 1.5013250E+01  2.5254766E+01
 1.5024751E+01  2.5297321E+01
 1.5036251E+01  2.5229727E+01
 1.5047750E+01  2.5185974E+01
 1.5059251E+01  2.5153793E+01
 1.5070751E+01  2.5117685E+01
 1.5082251E+01  2.5040501E+01
 1.5093751E+01  2.4990049E+01
 1.5105250E+01  2.5056206E+01
 1.5116751E+01  2.5152468E+01
 1.5128251E+01  2.5257431E+01
 1.5139750E+01  2.5364664E+01
 1.5151251E+01  2.5473553E+01
 1.5162751E+01  2.5586689E+01
 1.5174251E+01  2.5722862E+01
 1.5185751E+01  2.5785223E+01
 1.5197250E+01  2.5896593E+01
 1.5208751E+01  2.5883471E+01
 1.5220251E+01  2.5853853E+01
 1.5231750E+01  2.5695719E+01
 1.5243251E+01  2.5481747E+01
 1.5254751E+01  2.5305109E+01
 1.5266251E+01  2.5091059E+01
 1.5277751E+01  2.4986670E+01
 1.5289250E+01  2.4940966E+01
 1.5300751E+01  2.4957600E+01
 1.5312251E+01  2.4974630E+01
 1.5323750E+01  2.4956749E+01
 1.5335251E+01  2.5004036E+01
 1.5346751E+01  2.5005529E+01
 1.5358251E+01  2.5056391E+01
 1.5369751E+01  2.5034576E+01
 1.5381250E+01  2.5029747E+01
 1.5392751E+01  2.4961527E+01
 1.5404251E+01  2.4980629E+01
 1.5415751E+01  2.4968441E+01
 1.5427251E+01  2.4984669E+01
 1.5438751E+01  2.4942278E+01
 1.5450251E+01  2.4900219E+01
 1.5461751E+01  2.4811596E+01
 1.5473250E+01  2.4744841E+01
 1.5484751E+01  2.4757603E+01
 1.5496251E+01  2.4785236E+01
 1.5507751E+01  2.4799528E+01
 1.5519251E+01  2.4811756E+01
 1.5530751E+01  2.4843189E+01
 1.5542251E+01  2.4857653E+01
 1.5553751E+01  2.4856359E+01
 1.5565250E+01  2.4907160E+01
 1.5576751E+01  2.4990900E+01
 1.5588251E+01  2.5040567E+01
 1.5599751E+01  2.5041935E+01
 1.5611251E+01  2.4993105E+01
 1.5622751E+01  2.4947634E+01
 1.5634251E+01  2.4930862E+01
 1.5645751E+01  2.4878378E+01
 1.5657250E+01  2.4892736E+01
 1.5668751E+01  2.4910885E+01
 1.5680251E+01  2.4963779E+01
 1.5691751E+01  2.4965969E+01
 1.5703251E+01  2.4931112E+01
 1.5714751E+01  2.4878946E+01
 1.5726251E+01  2.4866198E+01
 1.5737751E+01  2.4761221E+01
 1.5749250E+01  2.4788296E+01
 1.5760751E+01  2.4797461E+01
 1.5772251E+01  2.4899656E+01
 1.5783751E+01  2.4881924E+01
 1.5795251E+01  2.4915854E+01
 1.5806751E+01  2.4945894E+01
 1.5818251E+01  2.4953608E+01
 1.5829751E+01  2.4905470E+01
 1.5841250E+01  2.4802439E+01
 1.5852751E+01  2.4807344E+01
 1.5864251E+01  2.4789778E+01
 1.5875751E+01  2.4850237E+01
 1.5887251E+01  2.4859539E+01
 1.5898750E+01  2.4866207E+01
 1.5910251E+01  2.4873531E+01
 1.5921751E+01  2.4819038E+01
 1.5933250E+01  2.4815100E+01
 1.5944751E+01  2.4760345E+01
 1.5956251E+01  2.4783335E+01
 1.5967751E+01  2.4822987E+01
 1.5979251E+01  2.4896996E+01
 1.5990750E+01  2.4955826E+01
 1.6002251E+01  2.4967237E+01
 1.6013750E+01  2.4966539E+01
 1.6025251E+01  2.4967951E+01
 1.6036751E+01  2.5041296E+01
 1.6048250E+01  2.5105907E+01
 1.6059752E+01  2.5126369E+01
 1.6071251E+01  2.5069168E+01
 1.6082750E+01  2.5051125E+01
 1.6094252E+01  2.5006945E+01
 1.6105751E+01  2.5068352E+01
 1.6117250E+01  2.5063305E+01
 1.6128750E+01  2.5141438E+01
 1.6140251E+01  2.5247971E+01
 1.6151751E+01  2.5298157E+01
 1.6163250E+01  2.5517578E+01
 1.6174751E+01  2.5467768E+01
 1.6186251E+01  2.6089191E+01
 1.6197750E+01  2.6013226E+01
 1.6209251E+01  2.7294552E+01
 1.6220751E+01  2.7385063E+01
 1.6232250E+01  2.8686602E+01
 1.6243752E+01  2.8796215E+01
 1.6255251E+01  2.9095264E+01
 1.6266750E+01  2.8920223E+01
 1.6278252E+01  2.7870817E+01
 1.6289751E+01  2.7508160E+01
 1.6301250E+01  2.6191422E+01
 1.6312750E+01  2.6183004E+01
 1.6324251E+01  2.5506233E+01
 1.6335751E+01  2.5549963E+01
 1.6347250E+01  2.5307192E+01
 1.6358751E+01  2.5308496E+01
 1.6370251E+01  2.5200300E+01
 1.6381750E+01  2.5146240E+01
 1.6393251E+01  2.5119228E+01
 1.6404751E+01  2.5068331E+01
 1.6416250E+01  2.5087820E+01
 1.6427752E+01  2.5088650E+01
 1.6439251E+01  2.5150055E+01
 1.6450750E+01  2.5146997E+01
 1.6462252E+01  2.5154860E+01
 1.6473751E+01  2.5078625E+01
 1.6485250E+01  2.5039845E+01
 1.6496750E+01  2.5019459E+01
 1.6508251E+01  2.5013384E+01
 1.6519751E+01  2.4999887E+01
 1.6531250E+01  2.4977964E+01
 1.6542751E+01  2.5031790E+01
 1.6554251E+01  2.5018114E+01
 1.6565750E+01  2.5036188E+01
 1.6577251E+01  2.5018002E+01
 1.6588751E+01  2.5045252E+01
 1.6600250E+01  2.4995882E+01
 1.6611752E+01  2.4981070E+01
 1.6623251E+01  2.4886299E+01
 1.6634750E+01  2.4860287E+01
 1.6646252E+01  2.4810760E+01
 1.6657751E+01  2.4842823E+01
 1.6669250E+01  2.4854736E+01
 1.6680750E+01  2.4886034E+01
 1.6692251E+01  2.4930418E+01
 1.6703751E+01  2.4895863E+01
 1.6715250E+01  2.4946249E+01
 1.6726751E+01  2.4898924E+01
 1.6738251E+01  2.4993921E+01
 1.6749750E+01  2.4975950E+01
 1.6761251E+01  2.4984699E+01
 1.6772751E+01  2.4935444E+01
 1.6784250E+01  2.4935192E+01
 1.6795752E+01  2.4850719E+01
 1.6807251E+01  2.4817959E+01
 1.6818750E+01  2.4728951E+01
 1.6830252E+01  2.4701254E+01
 1.6841751E+01  2.4640715E+01
 1.6853251E+01  2.4634724E+01
 1.6864750E+01  2.4649563E+01
 1.6876251E+01  2.4671261E+01
 1.6887751E+01  2.4679262E+01
 1.6899250E+01  2.4642157E+01
 1.6910751E+01  2.4610390E+01
 1.6922251E+01  2.4614616E+01
 1.6933750E+01  2.4575636E+01
 1.6945251E+01  2.4558008E+01
 1.6956751E+01  2.4512201E+01
 1.6968250E+01  2.4523544E+01
 1.6979752E+01  2.4565176E+01
 1.6991251E+01  2.4569202E+01
 1.7002750E+01  2.4590271E+01
 1.7014252E+01  2.4561665E+01
 1.7025751E+01  2.4561686E+01
 1.7037251E+01  2.4544796E+01
 1.7048750E+01  2.4500885E+01
 1.7060251E+01  2.4489985E+01
 1.7071751E+01  2.4450609E+01
 1.7083250E+01  2.4491926E+01
 1.7094751E+01  2.4515116E+01
 1.7106251E+01  2.4554043E+01
 1.7117750E+01  2.4515392E+01
 1.7129251E+01  2.4502926E+01
 1.7140751E+01  2.4469025E+01
 1.7152250E+01  2.4474140E+01
 1.7163752E+01  2.4422422E+01
 1.7175251E+01  2.4396681E+01
 1.7186750E+01  2.4396130E+01
 1.7198252E+01  2.4477190E+01
 1.7209751E+01  2.4514244E+01
 1.7221251E+01  2.4538828E+01
 1.7232750E+01  2.4495897E+01
 1.7244251E+01  2.4504873E+01
 1.7255751E+01  2.4433529E+01
 1.7267250E+01  2.4447546E+01
 1.7278751E+01  2.4411570E+01
 1.7290251E+01  2.4453352E+01
 1.7301750E+01  2.4460213E+01
 1.7313251E+01  2.4432634E+01
 1.7324751E+01  2.4410330E+01
 1.7336250E+01  2.4355619E+01
 1.7347752E+01  2.4296711E+01
 1.7359251E+01  2.4240238E+01
 1.7370750E+01  2.4222689E+01
 1.7382252E+01  2.4211073E+01
 1.7393751E+01  2.4221266E+01
 1.7405251E+01  2.4217768E+01
 1.7416750E+01  2.4217113E+01
 1.7428251E+01  2.4207766E+01
 1.7439751E+01  2.4257395E+01
 1.7451250E+01  2.4270395E+01
 1.7462751E+01  2.4267254E+01
 1.7474251E+01  2.4234352E+01
 1.7485750E+01  2.4247009E+01
 1.7497252E+01  2.4218485E+01
 1.7508751E+01  2.4188347E+01
 1.7520250E+01  2.4168341E+01
 1.7531752E+01  2.4209068E+01
 1.7543251E+01  2.4245508E+01
 1.7554750E+01  2.4218447E+01
 1.7566252E+01  2.4174755E+01
 1.7577751E+01  2.4158819E+01
 1.7589251E+01  2.4149109E+01
 1.7600750E+01  2.4168375E+01
 1.7612251E+01  2.4154873E+01
 1.7623751E+01  2.4155830E+01
 1.7635250E+01  2.4101423E+01
 1.7646751E+01  2.4100151E+01
 1.7658251E+01  2.4084974E+01
 1.7669750E+01  2.4134804E+01
 1.7681252E+01  2.4149786E+01
 1.7692751E+01  2.4180079E+01
 1.7704250E+01  2.4178919E+01
 1.7715752E+01  2.4155104E+01
 1.7727251E+01  2.4134867E+01
 1.7738750E+01  2.4064072E+01
 1.7750252E+01  2.4021576E+01
 1.7761751E+01  2.3930992E+01
 1.7773251E+01  2.3980701E+01
 1.7784750E+01  2.4014462E+01
 1.7796251E+01  2.4087578E+01
 1.7807751E+01  2.4042826E+01
 1.7819250E+01  2.4013546E+01
 1.7830751E+01  2.4000563E+01
 1.7842251E+01  2.4035076E+01
 1.7853750E+01  2.4063316E+01
 1.7865252E+01  2.4053509E+01
 1.7876751E+01  2.4044495E+01
 1.7888250E+01  2.4016670E+01
 1.7899752E+01  2.4008377E+01
 1.7911251E+01  2.4011042E+01
 1.7922750E+01  2.4041710E+01
 1.7934252E+01  2.4095335E+01
 1.7945751E+01  2.4134052E+01
 1.7957251E+01  2.4128117E+01
 1.7968750E+01  2.4126347E+01
 1.7980251E+01  2.4124195E+01
 1.7991751E+01  2.4137182E+01
 1.8003250E+01  2.4176714E+01
 1.8014751E+01  2.4233835E+01
 1.8026251E+01  2.4275318E+01
 1.8037750E+01  2.4322924E+01
 1.8049252E+01  2.4370718E+01
 1.8060751E+01  2.4449934E+01
 1.8072250E+01  2.4500566E+01
 1.8083752E+01  2.4662933E+01
 1.8095251E+01  2.4747004E+01
 1.8106750E+01  2.4806679E+01
 1.8118252E+01  2.4739607E+01
 1.8129751E+01  2.4658819E+01
 1.8141251E+01  2.4474726E+01
 1.8152750E+01  2.4312452E+01
 1.8164251E+01  2.4166517E+01
 1.8175751E+01  2.4097317E+01
 1.8187250E+01  2.3995918E+01
 1.8198751E+01  2.4028637E+01
 1.8210251E+01  2.3963247E+01
 1.8221750E+01  2.4001076E+01
 1.8233252E+01  2.3937204E+01
 1.8244751E+01  2.3947754E+01
 1.8256250E+01  2.3884846E+01
 1.8267752E+01  2.3862247E+01
 1.8279251E+01  2.3875656E+01
 1.8290751E+01  2.3860901E+01
 1.8302252E+01  2.3897081E+01
 1.8313751E+01  2.3925783E+01
 1.8325251E+01  2.3968815E+01
 1.8336750E+01  2.4004110E+01
 1.8348251E+01  2.4044945E+01
 1.8359751E+01  2.4076790E+01
 1.8371250E+01  2.4042019E+01
 1.8382751E+01  2.4051147E+01
 1.8394251E+01  2.4059710E+01
 1.8405750E+01  2.4092627E+01
 1.8417252E+01  2.4086237E+01
 1.8428751E+01  2.4051369E+01
 1.8440250E+01  2.3964117E+01
 1.8451752E+01  2.3868637E+01
 1.8463251E+01  2.3833820E+01
 1.8474751E+01  2.3822561E+01
 1.8486252E+01  2.3794483E+01
 1.8497751E+01  2.3794029E+01
 1.8509251E+01  2.3806263E+01
 1.8520750E+01  2.3831949E+01
 1.8532251E+01  2.3834291E+01
 1.8543751E+01  2.3839983E+01
 1.8555250E+01  2.3810278E+01
 1.8566751E+01  2.3781433E+01
 1.8578251E+01  2.3779943E+01
 1.8589750E+01  2.3840673E+01
 1.8601252E+01  2.3891060E+01
 1.8612751E+01  2.3899414E+01
 1.8624250E+01  2.3870251E+01
 1.8635752E+01  2.3870737E+01
 1.8647251E+01  2.3885809E+01
 1.8658751E+01  2.3899015E+01
 1.8670252E+01  2.3885679E+01
 1.8681751E+01  2.3916039E+01
 1.8693251E+01  2.3893494E+01
 1.8704750E+01  2.3873123E+01
 1.8716251E+01  2.3847883E+01
 1.8727751E+01  2.3855089E+01
 1.8739250E+01  2.3898682E+01
 1.8750751E+01  2.3921869E+01
 1.8762251E+01  2.3943655E+01
 1.8773750E+01  2.3901346E+01
 1.8785252E+01  2.3885799E+01
 1.8796751E+01  2.3880299E+01
 1.8808250E+01  2.3812237E+01
 1.8819752E+01  2.3786180E+01
 1.8831251E+01  2.3756500E+01
 1.8842751E+01  2.3740135E+01
 1.8854252E+01  2.3711636E+01
 1.8865751E+01  2.3703257E+01
 1.8877251E+01  2.3715534E+01
 1.8888750E+01  2.3740597E+01
 1.8900251E+01  2.3787296E+01
 1.8911751E+01  2.3848448E+01
 1.8923250E+01  2.3884327E+01
 1.8934752E+01  2.3898893E+01
 1.8946251E+01  2.3846897E+01
 1.8957750E+01  2.3808847E+01
 1.8969252E+01  2.3752329E+01
 1.8980751E+01  2.3721525E+01
 1.8992250E+01  2.3666632E+01
 1.9003752E+01  2.3696280E+01
 1.9015251E+01  2.3680532E+01
 1.9026751E+01  2.3742632E+01
 1.9038252E+01  2.3798418E+01
 1.9049751E+01  2.3835272E+01
 1.9061251E+01  2.3867937E+01
 1.9072750E+01  2.3866854E+01
 1.9084251E+01  2.3886921E+01
 1.9095751E+01  2.3824343E+01
 1.9107250E+01  2.3823294E+01
 1.9118752E+01  2.3798405E+01
 1.9130251E+01  2.3862091E+01
 1.9141750E+01  2.3836716E+01
 1.9153252E+01  2.3866400E+01
 1.9164751E+01  2.3820007E+01
 1.9176250E+01  2.3872293E+01
 1.9187752E+01  2.3850574E+01
 1.9199251E+01  2.3886797E+01
 1.9210751E+01  2.3870451E+01
 1.9222252E+01  2.3770662E+01
 1.9233751E+01  2.3690289E+01
 1.9245251E+01  2.3671389E+01
 1.9256750E+01  2.3748817E+01
 1.9268251E+01  2.3802567E+01
 1.9279751E+01  2.3792459E+01
 1.9291250E+01  2.3811295E+01
 1.9302752E+01  2.3773804E+01
 1.9314251E+01  2.3723715E+01
 1.9325750E+01  2.3707882E+01
 1.9337252E+01  2.3773787E+01
 1.9348751E+01  2.3831394E+01
 1.9360250E+01  2.3851280E+01
 1.9371752E+01  2.3890898E+01
 1.9383251E+01  2.3937550E+01
 1.9394751E+01  2.3968416E+01
 1.9406250E+01  2.3942719E+01
 1.9417751E+01  2.3899570E+01
 1.9429251E+01  2.3883953E+01
 1.9440750E+01  2.3863737E+01
 1.9452251E+01  2.3844334E+01
 1.9463751E+01  2.3867025E+01
 1.9475250E+01  2.3885996E+01
 1.9486752E+01  2.3872608E+01
 1.9498251E+01  2.3855486E+01
 1.9509750E+01  2.3871719E+01
 1.9521252E+01  2.3876921E+01
 1.9532751E+01  2.3949753E+01
 1.9544250E+01  2.4010223E+01
 1.9555752E+01  2.4046780E+01
 1.9567251E+01  2.4054655E+01
 1.9578751E+01  2.4060030E+01
 1.9590250E+01  2.4033094E+01
 1.9601751E+01  2.3989981E+01
 1.9613251E+01  2.4006407E+01
 1.9624750E+01  2.4076399E+01
 1.9636251E+01  2.4190100E+01
 1.9647751E+01  2.4278402E+01
 1.9659250E+01  2.4434076E+01
 1.9670752E+01  2.4522890E+01
 1.9682251E+01  2.4685564E+01
 1.9693750E+01  2.4783293E+01
 1.9705252E+01  2.4946569E+01
 1.9716751E+01  2.5042696E+01
 1.9728251E+01  2.5069613E+01
 1.9739752E+01  2.5100470E+01
 1.9751251E+01  2.5047878E+01
 1.9762751E+01  2.5018705E+01
 1.9774250E+01  2.4906559E+01
 1.9785751E+01  2.4822990E+01
 1.9797251E+01  2.4813578E+01
 1.9808750E+01  2.4900740E+01
 1.9820251E+01  2.5018917E+01
 1.9831751E+01  2.5298134E+01
 1.9843250E+01  2.5450209E+01
 1.9854752E+01  2.5499182E+01
 1.9866251E+01  2.5375406E+01
 1.9877750E+01  2.5190298E+01
 1.9889252E+01  2.4979727E+01
 1.9900751E+01  2.4690186E+01
 1.9912251E+01  2.4563948E+01
 1.9923752E+01  2.4393736E+01
 1.9935251E+01  2.4330933E+01
 1.9946751E+01  2.4278959E+01
 1.9958250E+01  2.4201702E+01
 1.9969751E+01  2.4185986E+01
 1.9981251E+01  2.4118814E+01
 1.9992750E+01  2.4118885E+01
 2.0004251E+01  2.4066092E+01
 2.0015751E+01  2.4065893E+01
 2.0027250E+01  2.4037212E+01
 2.0038752E+01  2.4027744E+01
 2.0050251E+01  2.4044476E+01
 2.0061750E+01  2.4039688E+01
 2.0073252E+01  2.3994589E+01
 2.0084751E+01  2.3976492E+01
 2.0096251E+01  2.4001152E+01
 2.0107752E+01  2.4046759E+01
 2.0119251E+01  2.4079300E+01
 2.0130751E+01  2.4086205E+01
 2.0142250E+01  2.4084276E+01
 2.0153751E+01  2.4100599E+01
 2.0165251E+01  2.4129988E+01
 2.0176750E+01  2.4108820E+01
 2.0188251E+01  2.4041052E+01
 2.0199751E+01  2.4027210E+01
 2.0211250E+01  2.4057989E+01
 2.0222752E+01  2.4077360E+01
 2.0234251E+01  2.4064085E+01
 2.0245750E+01  2.4043734E+01
 2.0257252E+01  2.4022934E+01
 2.0268751E+01  2.4000189E+01
 2.0280251E+01  2.3994211E+01
 2.0291752E+01  2.3995543E+01
 2.0303251E+01  2.3935186E+01
 2.0314751E+01  2.3883331E+01
 2.0326250E+01  2.3827911E+01
 2.0337751E+01  2.3903154E+01
 2.0349251E+01  2.3983667E+01
 2.0360750E+01  2.4039316E+01
 2.0372252E+01  2.3995661E+01
 2.0383751E+01  2.3899151E+01
 2.0395250E+01  2.3879164E+01
 2.0406752E+01  2.3920383E+01
 2.0418251E+01  2.4012251E+01
 2.0429750E+01  2.4079605E+01
 2.0441252E+01  2.4104151E+01
 2.0452751E+01  2.4079327E+01
 2.0464251E+01  2.4031567E+01
 2.0475752E+01  2.4032719E+01
 2.0487251E+01  2.4020824E+01
 2.0498751E+01  2.4025999E+01
 2.0510250E+01  2.4022270E+01
 2.0521751E+01  2.4003025E+01
 2.0533251E+01  2.4016014E+01
 2.0544750E+01  2.4008152E+01
 2.0556252E+01  2.4063446E+01
 2.0567751E+01  2.4061430E+01
 2.0579250E+01  2.4037716E+01
 2.0590752E+01  2.4074705E+01
 2.0602251E+01  2.4119093E+01
 2.0613750E+01  2.4169106E+01
 2.0625252E+01  2.4188513E+01
 2.0636751E+01  2.4265209E+01
 2.0648251E+01  2.4324486E+01
 2.0659752E+01  2.4375534E+01
 2.0671251E+01  2.4422182E+01
 2.0682751E+01  2.4484331E+01
 2.0694250E+01  2.4552189E+01
 2.0705751E+01  2.4684231E+01
 2.0717251E+01  2.4840063E+01
 2.0728750E+01  2.4975292E+01
 2.0740252E+01  2.5082338E+01
 2.0751751E+01  2.5137186E+01
 2.0763250E+01  2.5183197E+01
 2.0774752E+01  2.5143606E+01
 2.0786251E+01  2.5015705E+01
 2.0797750E+01  2.4858389E+01
 2.0809252E+01  2.4691570E+01
 2.0820751E+01  2.4579035E+01
 2.0832251E+01  2.4407358E+01
 2.0843752E+01  2.4261345E+01
 2.0855251E+01  2.4202976E+01
 2.0866751E+01  2.4178549E+01
 2.0878250E+01  2.4194298E+01
 2.0889751E+01  2.4202847E+01
 2.0901251E+01  2.4259733E+01
 2.0912750E+01  2.4270634E+01
 2.0924252E+01  2.4293106E+01
 2.0935751E+01  2.4291838E+01
 2.0947250E+01  2.4286142E+01
 2.0958752E+01  2.4211065E+01
 2.0970251E+01  2.4138489E+01
 2.0981750E+01  2.4120415E+01
 2.0993252E+01  2.4167557E+01
 2.1004751E+01  2.4224024E+01
 2.1016251E+01  2.4220425E+01
 2.1027752E+01  2.4246307E+01
 2.1039251E+01  2.4169134E+01
 2.1050751E+01  2.4077625E+01
 2.1062250E+01  2.4017183E+01
 2.1073751E+01  2.4094316E+01
 2.1085251E+01  2.4114157E+01
 2.1096750E+01  2.4126190E+01
 2.1108252E+01  2.4111046E+01
 2.1119751E+01  2.4149200E+01
 2.1131250E+01  2.4140747E+01
 2.1142752E+01  2.4143721E+01
 2.1154251E+01  2.4115755E+01
 2.1165751E+01  2.4130917E+01
 2.1177252E+01  2.4164883E+01
 2.1188751E+01  2.4180462E+01
 2.1200251E+01  2.4158232E+01
 2.1211752E+01  2.4120981E+01
 2.1223251E+01  2.4076729E+01
 2.1234751E+01  2.4089115E+01
 2.1246250E+01  2.4174759E+01
 2.1257751E+01  2.4247061E+01
 2.1269251E+01  2.4261484E+01
 2.1280750E+01  2.4272747E+01
 2.1292252E+01  2.4278954E+01
 2.1303751E+01  2.4255167E+01
 2.1315250E+01  2.4181202E+01
 2.1326752E+01  2.4201807E+01
 2.1338251E+01  2.4275349E+01
 2.1349751E+01  2.4350197E+01
 2.1361252E+01  2.4347130E+01
 2.1372751E+01  2.4305279E+01
 2.1384251E+01  2.4215498E+01
 2.1395752E+01  2.4163132E+01
 2.1407251E+01  2.4096096E+01
 2.1418751E+01  2.4181360E+01
 2.1430250E+01  2.4229420E+01
 2.1441751E+01  2.4197021E+01
 2.1453251E+01  2.4197912E+01
 2.1464750E+01  2.4245964E+01
 2.1476252E+01  2.4312668E+01
 2.1487751E+01  2.4353107E+01
 2.1499250E+01  2.4360716E+01
 2.1510752E+01  2.4339804E+01
 2.1522251E+01  2.4310225E+01
 2.1533751E+01  2.4301264E+01
 2.1545252E+01  2.4284695E+01
 2.1556751E+01  2.4273577E+01
 2.1568251E+01  2.4289391E+01
 2.1579752E+01  2.4368418E+01
 2.1591251E+01  2.4429394E+01
 2.1602751E+01  2.4481670E+01
 2.1614250E+01  2.4457619E+01
 2.1625751E+01  2.4431498E+01
 2.1637251E+01  2.4401007E+01
 2.1648750E+01  2.4391207E+01
 2.1660252E+01  2.4376925E+01
 2.1671751E+01  2.4382357E+01
 2.1683250E+01  2.4399008E+01
 2.1694752E+01  2.4390491E+01
 2.1706251E+01  2.4379225E+01
 2.1717751E+01  2.4394747E+01
 2.1729252E+01  2.4431995E+01
 2.1740751E+01  2.4452795E+01
 2.1752251E+01  2.4437885E+01
 2.1763752E+01  2.4413349E+01
 2.1775251E+01  2.4435120E+01
 2.1786751E+01  2.4439333E+01
 2.1798250E+01  2.4477484E+01
 2.1809752E+01  2.4519770E+01
 2.1821251E+01  2.4537329E+01
 2.1832750E+01  2.4490889E+01
 2.1844252E+01  2.4455215E+01
 2.1855751E+01  2.4474281E+01
 2.1867250E+01  2.4488705E+01
 2.1878752E+01  2.4468534E+01
 2.1890251E+01  2.4435392E+01
 2.1901751E+01  2.4444710E+01
 2.1913252E+01  2.4488232E+01
 2.1924751E+01  2.4532005E+01
 2.1936251E+01  2.4547663E+01
 2.1947752E+01  2.4525772E+01
 2.1959251E+01  2.4530222E+01
 2.1970751E+01  2.4512371E+01
 2.1982250E+01  2.4462889E+01
 2.1993752E+01  2.4421862E+01
 2.2005251E+01  2.4402569E+01
 2.2016750E+01  2.4454401E+01
 2.2028252E+01  2.4491192E+01
 2.2039751E+01  2.4477501E+01
 2.2051250E+01  2.4466841E+01
 2.2062752E+01  2.4463032E+01
 2.2074251E+01  2.4510796E+01
 2.2085751E+01  2.4517307E+01
 2.2097252E+01  2.4538290E+01
 2.2108751E+01  2.4599604E+01
 2.2120251E+01  2.4642944E+01
 2.2131752E+01  2.4627281E+01
 2.2143251E+01  2.4608299E+01
 2.2154751E+01  2.4561203E+01
 2.2166250E+01  2.4548944E+01
 2.2177752E+01  2.4518503E+01
 2.2189251E+01  2.4486273E+01
 2.2200750E+01  2.4513083E+01
 2.2212252E+01  2.4581860E+01
 2.2223751E+01  2.4659687E+01
 2.2235250E+01  2.4638702E+01
 2.2246752E+01  2.4651476E+01
 2.2258251E+01  2.4619081E+01
 2.2269751E+01  2.4580166E+01
 2.2281252E+01  2.4581867E+01
 2.2292751E+01  2.4653233E+01
 2.2304251E+01  2.4718426E+01
 2.2315752E+01  2.4762442E+01
 2.2327251E+01  2.4778191E+01
 2.2338751E+01  2.4821407E+01
 2.2350250E+01  2.4840998E+01
 2.2361752E+01  2.4861353E+01
 2.2373251E+01  2.4861336E+01
 2.2384750E+01  2.4799698E+01
 2.2396252E+01  2.4782209E+01
 2.2407751E+01  2.4736095E+01
 2.2419250E+01  2.4736366E+01
 2.2430752E+01  2.4799494E+01
 2.2442251E+01  2.4883955E+01
 2.2453751E+01  2.4956375E+01
 2.2465252E+01  2.4956781E+01
 2.2476751E+01  2.4986387E+01
 2.2488251E+01  2.4984869E+01
 2.2499752E+01  2.4981945E+01
 2.2511251E+01  2.4985720E+01
 2.2522751E+01  2.4970146E+01
 2.2534250E+01  2.5012739E+01
 2.2545752E+01  2.5018425E+01
 2.2557251E+01  2.5018015E+01
 2.2568750E+01  2.5025644E+01
 2.2580252E+01  2.5080257E+01
 2.2591751E+01  2.5153769E+01
 2.2603251E+01  2.5153959E+01
 2.2614752E+01  2.5152721E+01
 2.2626251E+01  2.5130550E+01
 2.2637751E+01  2.5134943E+01
 2.2649252E+01  2.5143740E+01
 2.2660751E+01  2.5188177E+01
 2.2672251E+01  2.5230650E+01
 2.2683752E+01  2.5308105E+01
 2.2695251E+01  2.5335394E+01
 2.2706751E+01  2.5355692E+01
 2.2718250E+01  2.5396400E+01
 2.2729752E+01  2.5391987E+01
 2.2741251E+01  2.5395327E+01
 2.2752750E+01  2.5415068E+01
 2.2764252E+01  2.5453697E+01
 2.2775751E+01  2.5445215E+01
 2.2787251E+01  2.5439283E+01
 2.2798752E+01  2.5474203E+01
 2.2810251E+01  2.5550657E+01
 2.2821751E+01  2.5630325E+01
 2.2833252E+01  2.5743816E+01
 2.2844751E+01  2.5772684E+01
 2.2856251E+01  2.5718506E+01
 2.2867750E+01  2.5714539E+01
 2.2879251E+01  2.5757044E+01
 2.2890751E+01  2.5859625E+01
 2.2902250E+01  2.5911697E+01
 2.2913752E+01  2.6000246E+01
 2.2925251E+01  2.6072517E+01
 2.2936750E+01  2.6132162E+01
 2.2948252E+01  2.6146545E+01
 2.2959751E+01  2.6194166E+01
 2.2971251E+01  2.6381990E+01
 2.2982752E+01  2.6589336E+01
 2.2994251E+01  2.6703510E+01
