F:\20151113_APS_34IDE\\Brian\Particle1\OCV\Data_0017.tif
2-Theta Angle (Degrees)
Intensity
       2000
 5.7500005E-03  0.0000000E+00
 1.7250001E-02  0.0000000E+00
 2.8750001E-02  0.0000000E+00
 4.0250003E-02  0.0000000E+00
 5.1750004E-02  0.0000000E+00
 6.3250005E-02  0.0000000E+00
 7.4750006E-02  0.0000000E+00
 8.6250007E-02  0.0000000E+00
 9.7750008E-02  0.0000000E+00
 1.0925001E-01  0.0000000E+00
 1.2075000E-01  0.0000000E+00
 1.3225001E-01  0.0000000E+00
 1.4375001E-01  0.0000000E+00
 1.5525001E-01  0.0000000E+00
 1.6675001E-01  0.0000000E+00
 1.7825001E-01  0.0000000E+00
 1.8975002E-01  0.0000000E+00
 2.0125002E-01  0.0000000E+00
 2.1275002E-01  0.0000000E+00
 2.2425000E-01  0.0000000E+00
 2.3575000E-01  0.0000000E+00
 2.4725001E-01  0.0000000E+00
 2.5875002E-01  0.0000000E+00
 2.7025002E-01  0.0000000E+00
 2.8175002E-01  0.0000000E+00
 2.9325002E-01  0.0000000E+00
 3.0475003E-01  0.0000000E+00
 3.1625003E-01  0.0000000E+00
 3.2775003E-01  0.0000000E+00
 3.3925003E-01  0.0000000E+00
 3.5075003E-01  0.0000000E+00
 3.6225003E-01  0.0000000E+00
 3.7375003E-01  0.0000000E+00
 3.8525003E-01  0.0000000E+00
 3.9675003E-01  0.0000000E+00
 4.0825003E-01  0.0000000E+00
 4.1975003E-01  0.0000000E+00
 4.3125004E-01  0.0000000E+00
 4.4275001E-01  0.0000000E+00
 4.5425001E-01  0.0000000E+00
 4.6575001E-01  0.0000000E+00
 4.7725001E-01  0.0000000E+00
 4.8875001E-01  0.0000000E+00
 5.0025004E-01  0.0000000E+00
 5.1175004E-01  0.0000000E+00
 5.2325004E-01  0.0000000E+00
 5.3475004E-01  0.0000000E+00
 5.4625005E-01  0.0000000E+00
 5.5775005E-01  0.0000000E+00
 5.6925005E-01  0.0000000E+00
 5.8075005E-01  0.0000000E+00
 5.9225005E-01  0.0000000E+00
 6.0375005E-01  0.0000000E+00
 6.1525005E-01  0.0000000E+00
 6.2675005E-01  0.0000000E+00
 6.3825005E-01  0.0000000E+00
 6.4975005E-01  0.0000000E+00
 6.6125005E-01  0.0000000E+00
 6.7275006E-01  0.0000000E+00
 6.8425006E-01  0.0000000E+00
 6.9575006E-01  0.0000000E+00
 7.0725006E-01  0.0000000E+00
 7.1875006E-01  0.0000000E+00
 7.3025006E-01  0.0000000E+00
 7.4175006E-01  0.0000000E+00
 7.5325006E-01  0.0000000E+00
 7.6475006E-01  0.0000000E+00
 7.7625006E-01  0.0000000E+00
 7.8775007E-01  0.0000000E+00
 7.9925007E-01  0.0000000E+00
 8.1075007E-01  0.0000000E+00
 8.2225007E-01  0.0000000E+00
 8.3375007E-01  0.0000000E+00
 8.4525007E-01  0.0000000E+00
 8.5675007E-01  0.0000000E+00
 8.6825007E-01  0.0000000E+00
 8.7975001E-01  0.0000000E+00
 8.9125001E-01  0.0000000E+00
 9.0275002E-01  0.0000000E+00
 9.1425002E-01  0.0000000E+00
 9.2575002E-01  0.0000000E+00
 9.3725002E-01  0.0000000E+00
 9.4875002E-01  0.0000000E+00
 9.6025002E-01  0.0000000E+00
 9.7175002E-01  0.0000000E+00
 9.8325002E-01  0.0000000E+00
 9.9475002E-01  0.0000000E+00
 1.0062500E+00  0.0000000E+00
 1.0177500E+00  0.0000000E+00
 1.0292500E+00  0.0000000E+00
 1.0407500E+00  0.0000000E+00
 1.0522500E+00  0.0000000E+00
 1.0637500E+00  0.0000000E+00
 1.0752500E+00  0.0000000E+00
 1.0867500E+00  0.0000000E+00
 1.0982500E+00  0.0000000E+00
 1.1097500E+00  0.0000000E+00
 1.1212500E+00  0.0000000E+00
 1.1327500E+00  0.0000000E+00
 1.1442500E+00  0.0000000E+00
 1.1557500E+00  0.0000000E+00
 1.1672500E+00  0.0000000E+00
 1.1787500E+00  0.0000000E+00
 1.1902500E+00  0.0000000E+00
 1.2017500E+00  0.0000000E+00
 1.2132500E+00  0.0000000E+00
 1.2247500E+00  0.0000000E+00
 1.2362500E+00  0.0000000E+00
 1.2477500E+00  0.0000000E+00
 1.2592500E+00  0.0000000E+00
 1.2707500E+00  0.0000000E+00
 1.2822500E+00  0.0000000E+00
 1.2937500E+00  0.0000000E+00
 1.3052500E+00  0.0000000E+00
 1.3167500E+00  0.0000000E+00
 1.3282501E+00  0.0000000E+00
 1.3397501E+00  0.0000000E+00
 1.3512501E+00  0.0000000E+00
 1.3627501E+00  0.0000000E+00
 1.3742501E+00  0.0000000E+00
 1.3857501E+00  0.0000000E+00
 1.3972501E+00  0.0000000E+00
 1.4087501E+00  0.0000000E+00
 1.4202501E+00  0.0000000E+00
 1.4317501E+00  0.0000000E+00
 1.4432501E+00  0.0000000E+00
 1.4547501E+00  0.0000000E+00
 1.4662501E+00  0.0000000E+00
 1.4777501E+00  0.0000000E+00
 1.4892501E+00  0.0000000E+00
 1.5007501E+00  0.0000000E+00
 1.5122501E+00  0.0000000E+00
 1.5237501E+00  0.0000000E+00
 1.5352501E+00  0.0000000E+00
 1.5467501E+00  0.0000000E+00
 1.5582501E+00  0.0000000E+00
 1.5697501E+00  0.0000000E+00
 1.5812501E+00  0.0000000E+00
 1.5927501E+00  0.0000000E+00
 1.6042501E+00  0.0000000E+00
 1.6157501E+00  0.0000000E+00
 1.6272501E+00  0.0000000E+00
 1.6387501E+00  0.0000000E+00
 1.6502501E+00  0.0000000E+00
 1.6617501E+00  0.0000000E+00
 1.6732501E+00  0.0000000E+00
 1.6847501E+00  0.0000000E+00
 1.6962501E+00  0.0000000E+00
 1.7077501E+00  0.0000000E+00
 1.7192501E+00  0.0000000E+00
 1.7307501E+00  0.0000000E+00
 1.7422501E+00  0.0000000E+00
 1.7537501E+00  0.0000000E+00
 1.7652501E+00  0.0000000E+00
 1.7767501E+00  0.0000000E+00
 1.7882501E+00  0.0000000E+00
 1.7997501E+00  0.0000000E+00
 1.8112501E+00  0.0000000E+00
 1.8227501E+00  0.0000000E+00
 1.8342501E+00  0.0000000E+00
 1.8457501E+00  0.0000000E+00
 1.8572501E+00  0.0000000E+00
 1.8687501E+00  0.0000000E+00
 1.8802501E+00  0.0000000E+00
 1.8917501E+00  0.0000000E+00
 1.9032501E+00  0.0000000E+00
 1.9147501E+00  0.0000000E+00
 1.9262501E+00  0.0000000E+00
 1.9377501E+00  0.0000000E+00
 1.9492501E+00  0.0000000E+00
 1.9607501E+00  0.0000000E+00
 1.9722501E+00  0.0000000E+00
 1.9837501E+00  0.0000000E+00
 1.9952501E+00  0.0000000E+00
 2.0067501E+00  0.0000000E+00
 2.0182500E+00  0.0000000E+00
 2.0297501E+00  0.0000000E+00
 2.0412500E+00  0.0000000E+00
 2.0527501E+00  0.0000000E+00
 2.0642500E+00  0.0000000E+00
 2.0757501E+00  0.0000000E+00
 2.0872500E+00  0.0000000E+00
 2.0987501E+00  0.0000000E+00
 2.1102500E+00  0.0000000E+00
 2.1217501E+00  0.0000000E+00
 2.1332500E+00  0.0000000E+00
 2.1447501E+00  0.0000000E+00
 2.1562500E+00  0.0000000E+00
 2.1677501E+00  0.0000000E+00
 2.1792500E+00  0.0000000E+00
 2.1907501E+00  0.0000000E+00
 2.2022500E+00  0.0000000E+00
 2.2137501E+00  0.0000000E+00
 2.2252500E+00  0.0000000E+00
 2.2367501E+00  0.0000000E+00
 2.2482500E+00  0.0000000E+00
 2.2597501E+00  0.0000000E+00
 2.2712500E+00  0.0000000E+00
 2.2827501E+00  0.0000000E+00
 2.2942500E+00  0.0000000E+00
 2.3057501E+00  0.0000000E+00
 2.3172500E+00  0.0000000E+00
 2.3287501E+00  0.0000000E+00
 2.3402500E+00  0.0000000E+00
 2.3517501E+00  0.0000000E+00
 2.3632500E+00  0.0000000E+00
 2.3747501E+00  0.0000000E+00
 2.3862500E+00  0.0000000E+00
 2.3977501E+00  0.0000000E+00
 2.4092500E+00  0.0000000E+00
 2.4207501E+00  0.0000000E+00
 2.4322500E+00  0.0000000E+00
 2.4437501E+00  0.0000000E+00
 2.4552500E+00  0.0000000E+00
 2.4667501E+00  0.0000000E+00
 2.4782500E+00  0.0000000E+00
 2.4897501E+00  0.0000000E+00
 2.5012500E+00  0.0000000E+00
 2.5127501E+00  0.0000000E+00
 2.5242500E+00  0.0000000E+00
 2.5357502E+00  0.0000000E+00
 2.5472500E+00  0.0000000E+00
 2.5587502E+00  0.0000000E+00
 2.5702500E+00  0.0000000E+00
 2.5817502E+00  0.0000000E+00
 2.5932500E+00  0.0000000E+00
 2.6047502E+00  0.0000000E+00
 2.6162500E+00  0.0000000E+00
 2.6277502E+00  0.0000000E+00
 2.6392500E+00  0.0000000E+00
 2.6507502E+00  0.0000000E+00
 2.6622500E+00  0.0000000E+00
 2.6737502E+00  0.0000000E+00
 2.6852500E+00  0.0000000E+00
 2.6967502E+00  0.0000000E+00
 2.7082500E+00  0.0000000E+00
 2.7197502E+00  0.0000000E+00
 2.7312500E+00  0.0000000E+00
 2.7427502E+00  0.0000000E+00
 2.7542500E+00  0.0000000E+00
 2.7657502E+00  0.0000000E+00
 2.7772501E+00  0.0000000E+00
 2.7887502E+00  0.0000000E+00
 2.8002501E+00  0.0000000E+00
 2.8117502E+00  0.0000000E+00
 2.8232501E+00  3.2430767E+01
 2.8347502E+00  3.4522842E+01
 2.8462501E+00  3.4566315E+01
 2.8577502E+00  3.4502186E+01
 2.8692501E+00  3.4354610E+01
 2.8807502E+00  3.4578339E+01
 2.8922501E+00  3.4554405E+01
 2.9037502E+00  3.4904720E+01
 2.9152501E+00  3.4599739E+01
 2.9267502E+00  3.4734138E+01
 2.9382501E+00  3.4578880E+01
 2.9497502E+00  3.4349083E+01
 2.9612501E+00  3.4442593E+01
 2.9727502E+00  3.4362183E+01
 2.9842501E+00  3.4433651E+01
 2.9957502E+00  3.4868053E+01
 3.0072501E+00  3.5705223E+01
 3.0187502E+00  3.6291740E+01
 3.0302501E+00  3.6534767E+01
 3.0417502E+00  3.6317993E+01
 3.0532501E+00  3.6031864E+01
 3.0647502E+00  3.6010998E+01
 3.0762501E+00  3.5517509E+01
 3.0877502E+00  3.5530041E+01
 3.0992501E+00  3.5556942E+01
 3.1107502E+00  3.5526310E+01
 3.1222501E+00  3.5565506E+01
 3.1337502E+00  3.5569965E+01
 3.1452501E+00  3.5526073E+01
 3.1567502E+00  3.5810047E+01
 3.1682501E+00  3.5582954E+01
 3.1797502E+00  3.5708073E+01
 3.1912501E+00  3.5753193E+01
 3.2027502E+00  3.5473339E+01
 3.2142501E+00  3.5525139E+01
 3.2257502E+00  3.5243099E+01
 3.2372501E+00  3.4961319E+01
 3.2487502E+00  3.4671310E+01
 3.2602501E+00  3.4379787E+01
 3.2717502E+00  3.4438057E+01
 3.2832501E+00  3.4028610E+01
 3.2947502E+00  3.3867786E+01
 3.3062501E+00  3.3708416E+01
 3.3177502E+00  3.3641338E+01
 3.3292501E+00  3.3930477E+01
 3.3407502E+00  3.3973423E+01
 3.3522501E+00  3.4378700E+01
 3.3637502E+00  3.4422306E+01
 3.3752501E+00  3.4698425E+01
 3.3867502E+00  3.4923573E+01
 3.3982501E+00  3.5061432E+01
 3.4097502E+00  3.5124702E+01
 3.4212501E+00  3.4870430E+01
 3.4327502E+00  3.4717396E+01
 3.4442501E+00  3.4476524E+01
 3.4557502E+00  3.4482964E+01
 3.4672501E+00  3.4348259E+01
 3.4787502E+00  3.4401745E+01
 3.4902501E+00  3.4218166E+01
 3.5017502E+00  3.3927460E+01
 3.5132501E+00  3.3743896E+01
 3.5247502E+00  3.3494751E+01
 3.5362501E+00  3.3633118E+01
 3.5477502E+00  3.3684753E+01
 3.5592501E+00  3.3734425E+01
 3.5707502E+00  3.3653038E+01
 3.5822501E+00  3.3446095E+01
 3.5937502E+00  3.3376347E+01
 3.6052501E+00  3.3316498E+01
 3.6167502E+00  3.3238083E+01
 3.6282501E+00  3.3178844E+01
 3.6397502E+00  3.2929070E+01
 3.6512501E+00  3.3032978E+01
 3.6627502E+00  3.3145298E+01
 3.6742501E+00  3.3327625E+01
 3.6857502E+00  3.3543865E+01
 3.6972501E+00  3.3530373E+01
 3.7087502E+00  3.3425350E+01
 3.7202501E+00  3.3212040E+01
 3.7317502E+00  3.2970272E+01
 3.7432501E+00  3.3136322E+01
 3.7547503E+00  3.3201889E+01
 3.7662501E+00  3.3246189E+01
 3.7777503E+00  3.3054028E+01
 3.7892501E+00  3.2860214E+01
 3.8007503E+00  3.2670471E+01
 3.8122501E+00  3.2907871E+01
 3.8237503E+00  3.2974228E+01
 3.8352501E+00  3.3004951E+01
 3.8467503E+00  3.3016144E+01
 3.8582501E+00  3.2895996E+01
 3.8697503E+00  3.2925434E+01
 3.8812501E+00  3.2811066E+01
 3.8927503E+00  3.2707043E+01
 3.9042501E+00  3.2675373E+01
 3.9157503E+00  3.2740021E+01
 3.9272501E+00  3.2943802E+01
 3.9387503E+00  3.3056587E+01
 3.9502501E+00  3.3152317E+01
 3.9617503E+00  3.3164833E+01
 3.9732502E+00  3.3314911E+01
 3.9847503E+00  3.3214436E+01
 3.9962502E+00  3.3321129E+01
 4.0077500E+00  3.3248867E+01
 4.0192504E+00  3.3240162E+01
 4.0307503E+00  3.3014648E+01
 4.0422502E+00  3.2984451E+01
 4.0537500E+00  3.2797970E+01
 4.0652504E+00  3.2696613E+01
 4.0767503E+00  3.2577560E+01
 4.0882502E+00  3.2578583E+01
 4.0997500E+00  3.2631855E+01
 4.1112504E+00  3.2609776E+01
 4.1227503E+00  3.2624413E+01
 4.1342502E+00  3.2740761E+01
 4.1457500E+00  3.2766514E+01
 4.1572504E+00  3.2766071E+01
 4.1687503E+00  3.2645622E+01
 4.1802502E+00  3.2564919E+01
 4.1917500E+00  3.2661358E+01
 4.2032504E+00  3.2683922E+01
 4.2147503E+00  3.2708565E+01
 4.2262502E+00  3.2597389E+01
 4.2377501E+00  3.2334526E+01
 4.2492504E+00  3.2177410E+01
 4.2607503E+00  3.2100349E+01
 4.2722502E+00  3.2170124E+01
 4.2837501E+00  3.2306126E+01
 4.2952504E+00  3.2366352E+01
 4.3067503E+00  3.2395168E+01
 4.3182502E+00  3.2381344E+01
 4.3297501E+00  3.2415604E+01
 4.3412504E+00  3.2416626E+01
 4.3527503E+00  3.2620193E+01
 4.3642502E+00  3.2761654E+01
 4.3757501E+00  3.2825890E+01
 4.3872504E+00  3.2875912E+01
 4.3987503E+00  3.2677898E+01
 4.4102502E+00  3.2729805E+01
 4.4217501E+00  3.2575630E+01
 4.4332504E+00  3.2609493E+01
 4.4447503E+00  3.2475529E+01
 4.4562502E+00  3.2418716E+01
 4.4677501E+00  3.2382275E+01
 4.4792504E+00  3.2492359E+01
 4.4907503E+00  3.2501961E+01
 4.5022502E+00  3.2591309E+01
 4.5137501E+00  3.2647793E+01
 4.5252504E+00  3.2857529E+01
 4.5367503E+00  3.3040127E+01
 4.5482502E+00  3.3084599E+01
 4.5597501E+00  3.3073128E+01
 4.5712504E+00  3.3146053E+01
 4.5827503E+00  3.3125511E+01
 4.5942502E+00  3.3300110E+01
 4.6057501E+00  3.3270195E+01
 4.6172504E+00  3.3268932E+01
 4.6287503E+00  3.3125866E+01
 4.6402502E+00  3.3008614E+01
 4.6517501E+00  3.2912556E+01
 4.6632504E+00  3.2928566E+01
 4.6747503E+00  3.2861080E+01
 4.6862502E+00  3.2901859E+01
 4.6977501E+00  3.3034218E+01
 4.7092505E+00  3.3076633E+01
 4.7207503E+00  3.3162231E+01
 4.7322502E+00  3.3055252E+01
 4.7437501E+00  3.2956200E+01
 4.7552505E+00  3.2942661E+01
 4.7667503E+00  3.2829166E+01
 4.7782502E+00  3.2759430E+01
 4.7897501E+00  3.2697792E+01
 4.8012505E+00  3.2666393E+01
 4.8127503E+00  3.2754910E+01
 4.8242502E+00  3.2786690E+01
 4.8357501E+00  3.2853546E+01
 4.8472505E+00  3.2843456E+01
 4.8587503E+00  3.2932686E+01
 4.8702502E+00  3.2873314E+01
 4.8817501E+00  3.2891781E+01
 4.8932505E+00  3.2809784E+01
 4.9047503E+00  3.2893452E+01
 4.9162502E+00  3.2993320E+01
 4.9277501E+00  3.2992489E+01
 4.9392505E+00  3.3097061E+01
 4.9507504E+00  3.3053497E+01
 4.9622502E+00  3.3057732E+01
 4.9737501E+00  3.3069340E+01
 4.9852505E+00  3.3213352E+01
 4.9967504E+00  3.3453594E+01
 5.0082502E+00  3.3510635E+01
 5.0197501E+00  3.3430557E+01
 5.0312505E+00  3.3337093E+01
 5.0427504E+00  3.3233841E+01
 5.0542502E+00  3.3146301E+01
 5.0657501E+00  3.3160625E+01
 5.0772505E+00  3.3133778E+01
 5.0887504E+00  3.3188763E+01
 5.1002502E+00  3.3253445E+01
 5.1117501E+00  3.3346649E+01
 5.1232505E+00  3.3452904E+01
 5.1347504E+00  3.3463993E+01
 5.1462502E+00  3.3581181E+01
 5.1577501E+00  3.3730713E+01
 5.1692505E+00  3.3870884E+01
 5.1807504E+00  3.3973148E+01
 5.1922503E+00  3.4105766E+01
 5.2037501E+00  3.4217701E+01
 5.2152505E+00  3.4168556E+01
 5.2267504E+00  3.4223289E+01
 5.2382503E+00  3.4127590E+01
 5.2497501E+00  3.4105713E+01
 5.2612505E+00  3.4084484E+01
 5.2727504E+00  3.4127300E+01
 5.2842503E+00  3.4259834E+01
 5.2957501E+00  3.4428150E+01
 5.3072500E+00  3.4447399E+01
 5.3187504E+00  3.4519447E+01
 5.3302503E+00  3.4440121E+01
 5.3417501E+00  3.4392250E+01
 5.3532500E+00  3.4376423E+01
 5.3647504E+00  3.4282490E+01
 5.3762503E+00  3.4427097E+01
 5.3877501E+00  3.4525806E+01
 5.3992500E+00  3.4614883E+01
 5.4107504E+00  3.4587101E+01
 5.4222503E+00  3.4590858E+01
 5.4337502E+00  3.4608070E+01
 5.4452500E+00  3.4627544E+01
 5.4567504E+00  3.4652763E+01
 5.4682503E+00  3.4683376E+01
 5.4797502E+00  3.4721088E+01
 5.4912500E+00  3.4718250E+01
 5.5027504E+00  3.4852734E+01
 5.5142503E+00  3.4887360E+01
 5.5257502E+00  3.4952553E+01
 5.5372500E+00  3.4956230E+01
 5.5487504E+00  3.5104507E+01
 5.5602503E+00  3.5208267E+01
 5.5717502E+00  3.5278702E+01
 5.5832500E+00  3.5181374E+01
 5.5947504E+00  3.5225277E+01
 5.6062503E+00  3.5219589E+01
 5.6177502E+00  3.5361416E+01
 5.6292500E+00  3.5434082E+01
 5.6407504E+00  3.5600605E+01
 5.6522503E+00  3.5612835E+01
 5.6637502E+00  3.5785194E+01
 5.6752501E+00  3.5795300E+01
 5.6867504E+00  3.5802704E+01
 5.6982503E+00  3.5718292E+01
 5.7097502E+00  3.5747044E+01
 5.7212501E+00  3.5758820E+01
 5.7327504E+00  3.5740463E+01
 5.7442503E+00  3.5653503E+01
 5.7557502E+00  3.5567619E+01
 5.7672501E+00  3.5529194E+01
 5.7787504E+00  3.5538158E+01
 5.7902503E+00  3.5627159E+01
 5.8017502E+00  3.5742970E+01
 5.8132501E+00  3.5772224E+01
 5.8247504E+00  3.5883041E+01
 5.8362503E+00  3.6061367E+01
 5.8477502E+00  3.6369171E+01
 5.8592501E+00  3.6463066E+01
 5.8707504E+00  3.6638390E+01
 5.8822503E+00  3.6748863E+01
 5.8937502E+00  3.7046875E+01
 5.9052501E+00  3.7419342E+01
 5.9167504E+00  3.7970535E+01
 5.9282503E+00  3.8907993E+01
 5.9397502E+00  4.0392830E+01
 5.9512501E+00  4.2750172E+01
 5.9627504E+00  4.6055977E+01
 5.9742503E+00  4.8558121E+01
 5.9857502E+00  5.5174454E+01
 5.9972501E+00  5.5429688E+01
 6.0087504E+00  5.4155533E+01
 6.0202503E+00  4.8375122E+01
 6.0317502E+00  4.4522984E+01
 6.0432501E+00  4.2432781E+01
 6.0547504E+00  3.9923054E+01
 6.0662503E+00  3.8781261E+01
 6.0777502E+00  3.8246475E+01
 6.0892501E+00  3.7750057E+01
 6.1007504E+00  3.7414845E+01
 6.1122503E+00  3.7281036E+01
 6.1237502E+00  3.7059841E+01
 6.1352501E+00  3.6937527E+01
 6.1467505E+00  3.6829060E+01
 6.1582503E+00  3.6723064E+01
 6.1697502E+00  3.6693169E+01
 6.1812501E+00  3.6758030E+01
 6.1927505E+00  3.6819790E+01
 6.2042503E+00  3.6982925E+01
 6.2157502E+00  3.7045242E+01
 6.2272501E+00  3.7117840E+01
 6.2387505E+00  3.7186588E+01
 6.2502503E+00  3.7239048E+01
 6.2617502E+00  3.7382305E+01
 6.2732501E+00  3.7382446E+01
 6.2847505E+00  3.7465099E+01
 6.2962503E+00  3.7440186E+01
 6.3077502E+00  3.7565533E+01
 6.3192501E+00  3.7587765E+01
 6.3307505E+00  3.7700520E+01
 6.3422503E+00  3.7782475E+01
 6.3537502E+00  3.7944077E+01
 6.3652501E+00  3.8054874E+01
 6.3767505E+00  3.8167770E+01
 6.3882504E+00  3.8284119E+01
 6.3997502E+00  3.8376640E+01
 6.4112501E+00  3.8491940E+01
 6.4227505E+00  3.8536953E+01
 6.4342504E+00  3.8598286E+01
 6.4457502E+00  3.8507126E+01
 6.4572501E+00  3.8482262E+01
 6.4687505E+00  3.8445850E+01
 6.4802504E+00  3.8467472E+01
 6.4917502E+00  3.8571854E+01
 6.5032501E+00  3.8750889E+01
 6.5147505E+00  3.8935040E+01
 6.5262504E+00  3.9049007E+01
 6.5377502E+00  3.9147247E+01
 6.5492501E+00  3.9267014E+01
 6.5607505E+00  3.9346149E+01
 6.5722504E+00  3.9359577E+01
 6.5837502E+00  3.9408627E+01
 6.5952501E+00  3.9329445E+01
 6.6067505E+00  3.9354385E+01
 6.6182504E+00  3.9381916E+01
 6.6297503E+00  3.9595406E+01
 6.6412501E+00  3.9875645E+01
 6.6527505E+00  4.0088997E+01
 6.6642504E+00  4.0220688E+01
 6.6757503E+00  4.0255814E+01
 6.6872501E+00  4.0223423E+01
 6.6987505E+00  4.0315395E+01
 6.7102504E+00  4.0484505E+01
 6.7217503E+00  4.0695797E+01
 6.7332501E+00  4.0841400E+01
 6.7447505E+00  4.0899059E+01
 6.7562504E+00  4.1020061E+01
 6.7677503E+00  4.1017738E+01
 6.7792501E+00  4.1106987E+01
 6.7907505E+00  4.1113976E+01
 6.8022504E+00  4.1250328E+01
 6.8137503E+00  4.1363014E+01
 6.8252501E+00  4.1498234E+01
 6.8367505E+00  4.1637577E+01
 6.8482504E+00  4.1677628E+01
 6.8597503E+00  4.1712822E+01
 6.8712502E+00  4.1793705E+01
 6.8827505E+00  4.1920074E+01
 6.8942504E+00  4.2067764E+01
 6.9057503E+00  4.2084850E+01
 6.9172502E+00  4.2104565E+01
 6.9287505E+00  4.1997227E+01
 6.9402504E+00  4.1995934E+01
 6.9517503E+00  4.1981174E+01
 6.9632502E+00  4.2018734E+01
 6.9747505E+00  4.2066051E+01
 6.9862504E+00  4.2056049E+01
 6.9977503E+00  4.2036594E+01
 7.0092502E+00  4.2067123E+01
 7.0207505E+00  4.2253883E+01
 7.0322504E+00  4.2366993E+01
 7.0437503E+00  4.2417015E+01
 7.0552502E+00  4.2480167E+01
 7.0667505E+00  4.2560715E+01
 7.0782504E+00  4.2537376E+01
 7.0897503E+00  4.2627869E+01
 7.1012502E+00  4.2651127E+01
 7.1127505E+00  4.2849064E+01
 7.1242504E+00  4.2923336E+01
 7.1357503E+00  4.3020943E+01
 7.1472502E+00  4.3029751E+01
 7.1587505E+00  4.3014282E+01
 7.1702504E+00  4.3050144E+01
 7.1817503E+00  4.3173733E+01
 7.1932502E+00  4.3245781E+01
 7.2047505E+00  4.3337330E+01
 7.2162504E+00  4.3415730E+01
 7.2277503E+00  4.3452045E+01
 7.2392502E+00  4.3470722E+01
 7.2507505E+00  4.3539841E+01
 7.2622504E+00  4.3521526E+01
 7.2737503E+00  4.3607185E+01
 7.2852502E+00  4.3553020E+01
 7.2967505E+00  4.3573193E+01
 7.3082504E+00  4.3641891E+01
 7.3197503E+00  4.3690434E+01
 7.3312502E+00  4.3727558E+01
 7.3427505E+00  4.3742264E+01
 7.3542504E+00  4.3782524E+01
 7.3657503E+00  4.3912903E+01
 7.3772502E+00  4.4031784E+01
 7.3887506E+00  4.4195305E+01
 7.4002504E+00  4.4363457E+01
 7.4117503E+00  4.4404125E+01
 7.4232502E+00  4.4387844E+01
 7.4347506E+00  4.4360970E+01
 7.4462504E+00  4.4359600E+01
 7.4577503E+00  4.4389835E+01
 7.4692502E+00  4.4346649E+01
 7.4807506E+00  4.4373543E+01
 7.4922504E+00  4.4343414E+01
 7.5037503E+00  4.4420341E+01
 7.5152502E+00  4.4348774E+01
 7.5267506E+00  4.4364395E+01
 7.5382504E+00  4.4344170E+01
 7.5497503E+00  4.4433273E+01
 7.5612502E+00  4.4425175E+01
 7.5727506E+00  4.4433765E+01
 7.5842505E+00  4.4364960E+01
 7.5957503E+00  4.4370571E+01
 7.6072502E+00  4.4369198E+01
 7.6187506E+00  4.4456680E+01
 7.6302505E+00  4.4448494E+01
 7.6417503E+00  4.4496071E+01
 7.6532502E+00  4.4441872E+01
 7.6647506E+00  4.4481064E+01
 7.6762505E+00  4.4414070E+01
 7.6877503E+00  4.4422207E+01
 7.6992502E+00  4.4349312E+01
 7.7107506E+00  4.4454391E+01
 7.7222505E+00  4.4532330E+01
 7.7337503E+00  4.4681717E+01
 7.7452502E+00  4.4711437E+01
 7.7567506E+00  4.4784966E+01
 7.7682505E+00  4.4751152E+01
 7.7797503E+00  4.4761566E+01
 7.7912502E+00  4.4737900E+01
 7.8027506E+00  4.4722183E+01
 7.8142505E+00  4.4683338E+01
 7.8257504E+00  4.4569622E+01
 7.8372502E+00  4.4489208E+01
 7.8487506E+00  4.4362213E+01
 7.8602505E+00  4.4214046E+01
 7.8717504E+00  4.3964481E+01
 7.8832502E+00  4.3792450E+01
 7.8947506E+00  4.3691845E+01
 7.9062505E+00  4.3721317E+01
 7.9177504E+00  4.3841549E+01
 7.9292502E+00  4.3937210E+01
 7.9407506E+00  4.3981644E+01
 7.9522505E+00  4.3846645E+01
 7.9637504E+00  4.3824902E+01
 7.9752502E+00  4.3689293E+01
 7.9867506E+00  4.3785442E+01
 7.9982505E+00  4.3698162E+01
 8.0097504E+00  4.3679920E+01
 8.0212507E+00  4.3669739E+01
 8.0327501E+00  4.3530670E+01
 8.0442505E+00  4.3590855E+01
 8.0557508E+00  4.3506008E+01
 8.0672503E+00  4.3483192E+01
 8.0787506E+00  4.3429882E+01
 8.0902500E+00  4.3299824E+01
 8.1017504E+00  4.3268990E+01
 8.1132507E+00  4.3104031E+01
 8.1247501E+00  4.3039894E+01
 8.1362505E+00  4.2889160E+01
 8.1477509E+00  4.2775547E+01
 8.1592503E+00  4.2625935E+01
 8.1707506E+00  4.2507660E+01
 8.1822500E+00  4.2328445E+01
 8.1937504E+00  4.2178555E+01
 8.2052507E+00  4.1981243E+01
 8.2167501E+00  4.1921005E+01
 8.2282505E+00  4.1782806E+01
 8.2397509E+00  4.1555923E+01
 8.2512503E+00  4.1381680E+01
 8.2627506E+00  4.1146179E+01
 8.2742500E+00  4.1066338E+01
 8.2857504E+00  4.0936951E+01
 8.2972507E+00  4.0865742E+01
 8.3087502E+00  4.0775532E+01
 8.3202505E+00  4.0678497E+01
 8.3317509E+00  4.0510323E+01
 8.3432503E+00  4.0396412E+01
 8.3547506E+00  4.0253944E+01
 8.3662500E+00  4.0212387E+01
 8.3777504E+00  4.0020584E+01
 8.3892508E+00  3.9824516E+01
 8.4007502E+00  3.9576050E+01
 8.4122505E+00  3.9404198E+01
 8.4237509E+00  3.9291485E+01
 8.4352503E+00  3.9059231E+01
 8.4467506E+00  3.8966751E+01
 8.4582500E+00  3.8733555E+01
 8.4697504E+00  3.8622093E+01
 8.4812508E+00  3.8430695E+01
 8.4927502E+00  3.8178043E+01
 8.5042505E+00  3.8094646E+01
 8.5157509E+00  3.7827873E+01
 8.5272503E+00  3.7712807E+01
 8.5387506E+00  3.7476170E+01
 8.5502501E+00  3.7320072E+01
 8.5617504E+00  3.7227875E+01
 8.5732508E+00  3.7193386E+01
 8.5847502E+00  3.7162769E+01
 8.5962505E+00  3.7004559E+01
 8.6077509E+00  3.6777519E+01
 8.6192503E+00  3.6577366E+01
 8.6307507E+00  3.6385704E+01
 8.6422501E+00  3.6139664E+01
 8.6537504E+00  3.5895905E+01
 8.6652508E+00  3.5693474E+01
 8.6767502E+00  3.5495804E+01
 8.6882505E+00  3.5356354E+01
 8.6997509E+00  3.5268139E+01
 8.7112503E+00  3.5117805E+01
 8.7227507E+00  3.4956573E+01
 8.7342501E+00  3.4710110E+01
 8.7457504E+00  3.4558052E+01
 8.7572508E+00  3.4327000E+01
 8.7687502E+00  3.4161629E+01
 8.7802505E+00  3.4022606E+01
 8.7917500E+00  3.3942852E+01
 8.8032503E+00  3.3896618E+01
 8.8147507E+00  3.3827057E+01
 8.8262501E+00  3.3664066E+01
 8.8377504E+00  3.3453114E+01
 8.8492508E+00  3.3181679E+01
 8.8607502E+00  3.3018688E+01
 8.8722506E+00  3.2812778E+01
 8.8837500E+00  3.2625568E+01
 8.8952503E+00  3.2413898E+01
 8.9067507E+00  3.2194447E+01
 8.9182501E+00  3.2087765E+01
 8.9297504E+00  3.1939863E+01
 8.9412508E+00  3.1902716E+01
 8.9527502E+00  3.1685047E+01
 8.9642506E+00  3.1537209E+01
 8.9757500E+00  3.1240047E+01
 8.9872503E+00  3.1091227E+01
 8.9987507E+00  3.0890120E+01
 9.0102501E+00  3.0790739E+01
 9.0217505E+00  3.0635044E+01
 9.0332508E+00  3.0614344E+01
 9.0447502E+00  3.0519033E+01
 9.0562506E+00  3.0423769E+01
 9.0677500E+00  3.0245623E+01
 9.0792503E+00  3.0087759E+01
 9.0907507E+00  2.9968670E+01
 9.1022501E+00  2.9770992E+01
 9.1137505E+00  2.9605759E+01
 9.1252508E+00  2.9446699E+01
 9.1367502E+00  2.9369711E+01
 9.1482506E+00  2.9290825E+01
 9.1597500E+00  2.9194555E+01
 9.1712503E+00  2.9130266E+01
 9.1827507E+00  2.9071381E+01
 9.1942501E+00  2.8992973E+01
 9.2057505E+00  2.8852535E+01
 9.2172508E+00  2.8728661E+01
 9.2287502E+00  2.8560268E+01
 9.2402506E+00  2.8450188E+01
 9.2517500E+00  2.8354515E+01
 9.2632504E+00  2.8286266E+01
 9.2747507E+00  2.8195438E+01
 9.2862501E+00  2.8025497E+01
 9.2977505E+00  2.7881447E+01
 9.3092508E+00  2.7731083E+01
 9.3207502E+00  2.7584974E+01
 9.3322506E+00  2.7472027E+01
 9.3437500E+00  2.7386339E+01
 9.3552504E+00  2.7340773E+01
 9.3667507E+00  2.7362801E+01
 9.3782501E+00  2.7387787E+01
 9.3897505E+00  2.7365095E+01
 9.4012508E+00  2.7377449E+01
 9.4127502E+00  2.7335775E+01
 9.4242506E+00  2.7281921E+01
 9.4357500E+00  2.7122927E+01
 9.4472504E+00  2.7014135E+01
 9.4587507E+00  2.6981503E+01
 9.4702501E+00  2.6908007E+01
 9.4817505E+00  2.6888166E+01
 9.4932508E+00  2.6783352E+01
 9.5047503E+00  2.6699636E+01
 9.5162506E+00  2.6537535E+01
 9.5277500E+00  2.6427864E+01
 9.5392504E+00  2.6380816E+01
 9.5507507E+00  2.6287714E+01
 9.5622501E+00  2.6277308E+01
 9.5737505E+00  2.6164444E+01
 9.5852509E+00  2.6077139E+01
 9.5967503E+00  2.5976892E+01
 9.6082506E+00  2.5883812E+01
 9.6197500E+00  2.5857548E+01
 9.6312504E+00  2.5733694E+01
 9.6427507E+00  2.5640549E+01
 9.6542501E+00  2.5550339E+01
 9.6657505E+00  2.5549862E+01
 9.6772509E+00  2.5580059E+01
 9.6887503E+00  2.5547850E+01
 9.7002506E+00  2.5536552E+01
 9.7117500E+00  2.5507650E+01
 9.7232504E+00  2.5481277E+01
 9.7347507E+00  2.5375505E+01
 9.7462502E+00  2.5322617E+01
 9.7577505E+00  2.5267550E+01
 9.7692509E+00  2.5228916E+01
 9.7807503E+00  2.5181009E+01
 9.7922506E+00  2.5178335E+01
 9.8037500E+00  2.5196051E+01
 9.8152504E+00  2.5137770E+01
 9.8267508E+00  2.5069635E+01
 9.8382502E+00  2.4992323E+01
 9.8497505E+00  2.4937912E+01
 9.8612509E+00  2.4865040E+01
 9.8727503E+00  2.4864700E+01
 9.8842506E+00  2.4858217E+01
 9.8957500E+00  2.4883841E+01
 9.9072504E+00  2.4850733E+01
 9.9187508E+00  2.4852968E+01
 9.9302502E+00  2.4836731E+01
 9.9417505E+00  2.4829212E+01
 9.9532509E+00  2.4752899E+01
 9.9647503E+00  2.4701233E+01
 9.9762506E+00  2.4615671E+01
 9.9877501E+00  2.4616611E+01
 9.9992504E+00  2.4652494E+01
 1.0010751E+01  2.4602081E+01
 1.0022250E+01  2.4621931E+01
 1.0033751E+01  2.4558462E+01
 1.0045251E+01  2.4560465E+01
 1.0056750E+01  2.4462887E+01
 1.0068251E+01  2.4400927E+01
 1.0079750E+01  2.4308716E+01
 1.0091250E+01  2.4271870E+01
 1.0102751E+01  2.4239100E+01
 1.0114250E+01  2.4237820E+01
 1.0125751E+01  2.4209099E+01
 1.0137251E+01  2.4117668E+01
 1.0148750E+01  2.4117378E+01
 1.0160251E+01  2.4074690E+01
 1.0171750E+01  2.4095676E+01
 1.0183250E+01  2.4060978E+01
 1.0194751E+01  2.4043077E+01
 1.0206250E+01  2.3956005E+01
 1.0217751E+01  2.3955025E+01
 1.0229251E+01  2.3987961E+01
 1.0240750E+01  2.4046148E+01
 1.0252251E+01  2.4016249E+01
 1.0263750E+01  2.3960604E+01
 1.0275250E+01  2.3941160E+01
 1.0286751E+01  2.3942549E+01
 1.0298250E+01  2.3941593E+01
 1.0309751E+01  2.3914537E+01
 1.0321251E+01  2.3861212E+01
 1.0332750E+01  2.3813324E+01
 1.0344251E+01  2.3810471E+01
 1.0355750E+01  2.3761196E+01
 1.0367250E+01  2.3690523E+01
 1.0378751E+01  2.3655128E+01
 1.0390250E+01  2.3701008E+01
 1.0401751E+01  2.3727095E+01
 1.0413251E+01  2.3773344E+01
 1.0424750E+01  2.3718786E+01
 1.0436251E+01  2.3592484E+01
 1.0447750E+01  2.3433365E+01
 1.0459250E+01  2.3313885E+01
 1.0470751E+01  2.3339798E+01
 1.0482250E+01  2.3356976E+01
 1.0493751E+01  2.3408958E+01
 1.0505251E+01  2.3439394E+01
 1.0516750E+01  2.3432604E+01
 1.0528251E+01  2.3360060E+01
 1.0539750E+01  2.3344957E+01
 1.0551250E+01  2.3304710E+01
 1.0562751E+01  2.3390985E+01
 1.0574250E+01  2.3359383E+01
 1.0585751E+01  2.3367319E+01
 1.0597251E+01  2.3304531E+01
 1.0608750E+01  2.3238396E+01
 1.0620251E+01  2.3238377E+01
 1.0631750E+01  2.3207396E+01
 1.0643250E+01  2.3226309E+01
 1.0654751E+01  2.3192730E+01
 1.0666250E+01  2.3182444E+01
 1.0677751E+01  2.3165680E+01
 1.0689251E+01  2.3176798E+01
 1.0700750E+01  2.3216663E+01
 1.0712251E+01  2.3237324E+01
 1.0723750E+01  2.3277817E+01
 1.0735250E+01  2.3205154E+01
 1.0746751E+01  2.3253048E+01
 1.0758250E+01  2.3212126E+01
 1.0769751E+01  2.3214996E+01
 1.0781251E+01  2.3210308E+01
 1.0792750E+01  2.3177418E+01
 1.0804251E+01  2.3175287E+01
 1.0815750E+01  2.3087376E+01
 1.0827250E+01  2.3046715E+01
 1.0838751E+01  2.2990913E+01
 1.0850250E+01  2.2930468E+01
 1.0861751E+01  2.2863520E+01
 1.0873251E+01  2.2832590E+01
 1.0884750E+01  2.2842337E+01
 1.0896251E+01  2.2822557E+01
 1.0907750E+01  2.2829056E+01
 1.0919250E+01  2.2822428E+01
 1.0930751E+01  2.2854511E+01
 1.0942250E+01  2.2865730E+01
 1.0953751E+01  2.2885439E+01
 1.0965251E+01  2.2889854E+01
 1.0976750E+01  2.2861940E+01
 1.0988251E+01  2.2803213E+01
 1.0999750E+01  2.2755283E+01
 1.1011250E+01  2.2738039E+01
 1.1022751E+01  2.2763430E+01
 1.1034250E+01  2.2774176E+01
 1.1045751E+01  2.2736547E+01
 1.1057251E+01  2.2724045E+01
 1.1068750E+01  2.2755569E+01
 1.1080251E+01  2.2808578E+01
 1.1091750E+01  2.2775627E+01
 1.1103251E+01  2.2775908E+01
 1.1114751E+01  2.2811045E+01
 1.1126250E+01  2.2850752E+01
 1.1137751E+01  2.2816853E+01
 1.1149251E+01  2.2818045E+01
 1.1160750E+01  2.2832375E+01
 1.1172251E+01  2.2873863E+01
 1.1183750E+01  2.2862181E+01
 1.1195251E+01  2.2809517E+01
 1.1206751E+01  2.2767204E+01
 1.1218250E+01  2.2681971E+01
 1.1229751E+01  2.2673731E+01
 1.1241251E+01  2.2661495E+01
 1.1252750E+01  2.2688969E+01
 1.1264251E+01  2.2691025E+01
 1.1275750E+01  2.2709415E+01
 1.1287251E+01  2.2731634E+01
 1.1298751E+01  2.2770613E+01
 1.1310250E+01  2.2834738E+01
 1.1321751E+01  2.2905804E+01
 1.1333251E+01  2.2896435E+01
 1.1344750E+01  2.2918646E+01
 1.1356251E+01  2.2898024E+01
 1.1367750E+01  2.2969400E+01
 1.1379251E+01  2.2996801E+01
 1.1390751E+01  2.3044622E+01
 1.1402250E+01  2.3274029E+01
 1.1413751E+01  2.3301842E+01
 1.1425251E+01  2.3333715E+01
 1.1436750E+01  2.3222374E+01
 1.1448251E+01  2.3179440E+01
 1.1459750E+01  2.3241575E+01
 1.1471251E+01  2.3243132E+01
 1.1482751E+01  2.3370724E+01
 1.1494250E+01  2.3548042E+01
 1.1505751E+01  2.3836561E+01
 1.1517251E+01  2.4901844E+01
 1.1528750E+01  2.6338413E+01
 1.1540251E+01  2.8167889E+01
 1.1551750E+01  3.1837656E+01
 1.1563251E+01  3.4256226E+01
 1.1574751E+01  3.5599197E+01
 1.1586250E+01  3.5517506E+01
 1.1597751E+01  3.3815048E+01
 1.1609251E+01  3.1947559E+01
 1.1620750E+01  2.8368086E+01
 1.1632251E+01  2.6510328E+01
 1.1643750E+01  2.5117313E+01
 1.1655251E+01  2.4121609E+01
 1.1666751E+01  2.3668217E+01
 1.1678250E+01  2.3382732E+01
 1.1689751E+01  2.3161541E+01
 1.1701251E+01  2.2989050E+01
 1.1712750E+01  2.2887693E+01
 1.1724251E+01  2.2795103E+01
 1.1735750E+01  2.2816204E+01
 1.1747251E+01  2.2793900E+01
 1.1758751E+01  2.2799732E+01
 1.1770250E+01  2.2768244E+01
 1.1781751E+01  2.2747240E+01
 1.1793251E+01  2.2786169E+01
 1.1804750E+01  2.2823612E+01
 1.1816251E+01  2.2920641E+01
 1.1827750E+01  2.2953672E+01
 1.1839251E+01  2.2922125E+01
 1.1850751E+01  2.2751566E+01
 1.1862250E+01  2.2699837E+01
 1.1873751E+01  2.2648964E+01
 1.1885251E+01  2.2692862E+01
 1.1896750E+01  2.2699232E+01
 1.1908251E+01  2.2760851E+01
 1.1919750E+01  2.2883410E+01
 1.1931251E+01  2.3028522E+01
 1.1942751E+01  2.3190788E+01
 1.1954250E+01  2.3334373E+01
 1.1965751E+01  2.3408016E+01
 1.1977251E+01  2.3427238E+01
 1.1988750E+01  2.3472816E+01
 1.2000251E+01  2.3458275E+01
 1.2011750E+01  2.3462145E+01
 1.2023251E+01  2.3408792E+01
 1.2034751E+01  2.3446070E+01
 1.2046250E+01  2.3557379E+01
 1.2057751E+01  2.3807419E+01
 1.2069251E+01  2.4328205E+01
 1.2080750E+01  2.4932308E+01
 1.2092251E+01  2.5714153E+01
 1.2103750E+01  2.6174379E+01
 1.2115251E+01  2.6782383E+01
 1.2126751E+01  2.6780479E+01
 1.2138250E+01  2.6817652E+01
 1.2149751E+01  2.5769136E+01
 1.2161251E+01  2.4891106E+01
 1.2172750E+01  2.3813366E+01
 1.2184251E+01  2.3567102E+01
 1.2195750E+01  2.3334103E+01
 1.2207251E+01  2.3147667E+01
 1.2218751E+01  2.2901560E+01
 1.2230250E+01  2.2826199E+01
 1.2241751E+01  2.2846144E+01
 1.2253251E+01  2.2869770E+01
 1.2264750E+01  2.2816097E+01
 1.2276251E+01  2.2740276E+01
 1.2287750E+01  2.2738518E+01
 1.2299251E+01  2.2734516E+01
 1.2310751E+01  2.2804365E+01
 1.2322250E+01  2.2768810E+01
 1.2333751E+01  2.2811399E+01
 1.2345250E+01  2.2776392E+01
 1.2356750E+01  2.2812374E+01
 1.2368251E+01  2.2800884E+01
 1.2379750E+01  2.2810051E+01
 1.2391251E+01  2.2778727E+01
 1.2402751E+01  2.2767832E+01
 1.2414250E+01  2.2743626E+01
 1.2425751E+01  2.2753878E+01
 1.2437250E+01  2.2740614E+01
 1.2448750E+01  2.2737209E+01
 1.2460251E+01  2.2793917E+01
 1.2471750E+01  2.2792229E+01
 1.2483251E+01  2.2829479E+01
 1.2494751E+01  2.2771618E+01
 1.2506250E+01  2.2754826E+01
 1.2517751E+01  2.2721468E+01
 1.2529250E+01  2.2720461E+01
 1.2540751E+01  2.2744667E+01
 1.2552251E+01  2.2758478E+01
 1.2563750E+01  2.2740820E+01
 1.2575251E+01  2.2777695E+01
 1.2586751E+01  2.2811081E+01
 1.2598250E+01  2.2881990E+01
 1.2609751E+01  2.2902271E+01
 1.2621250E+01  2.2986362E+01
 1.2632751E+01  2.3018560E+01
 1.2644251E+01  2.3045557E+01
 1.2655750E+01  2.3014685E+01
 1.2667251E+01  2.3010376E+01
 1.2678751E+01  2.3033794E+01
 1.2690250E+01  2.3057194E+01
 1.2701751E+01  2.3161051E+01
 1.2713250E+01  2.3206852E+01
 1.2724751E+01  2.3209011E+01
 1.2736251E+01  2.3169195E+01
 1.2747750E+01  2.3166344E+01
 1.2759251E+01  2.3194586E+01
 1.2770751E+01  2.3195520E+01
 1.2782250E+01  2.3274788E+01
 1.2793751E+01  2.3325045E+01
 1.2805250E+01  2.3436613E+01
 1.2816751E+01  2.3503071E+01
 1.2828251E+01  2.3608397E+01
 1.2839750E+01  2.3613379E+01
 1.2851251E+01  2.3598265E+01
 1.2862751E+01  2.3612110E+01
 1.2874250E+01  2.3609884E+01
 1.2885751E+01  2.3619661E+01
 1.2897250E+01  2.3609859E+01
 1.2908751E+01  2.3709568E+01
 1.2920251E+01  2.3728920E+01
 1.2931750E+01  2.3789007E+01
 1.2943251E+01  2.3821432E+01
 1.2954751E+01  2.3924410E+01
 1.2966250E+01  2.4072540E+01
 1.2977751E+01  2.4157740E+01
 1.2989250E+01  2.4145475E+01
 1.3000751E+01  2.4105932E+01
 1.3012251E+01  2.4090309E+01
 1.3023750E+01  2.4125481E+01
 1.3035251E+01  2.4210207E+01
 1.3046751E+01  2.4287607E+01
 1.3058250E+01  2.4425367E+01
 1.3069751E+01  2.4433996E+01
 1.3081250E+01  2.4555466E+01
 1.3092751E+01  2.4680372E+01
 1.3104251E+01  2.4873703E+01
 1.3115750E+01  2.5046745E+01
 1.3127251E+01  2.5136736E+01
 1.3138751E+01  2.5185616E+01
 1.3150250E+01  2.5250963E+01
 1.3161751E+01  2.5326811E+01
 1.3173250E+01  2.5479374E+01
 1.3184751E+01  2.5555532E+01
 1.3196251E+01  2.5682953E+01
 1.3207750E+01  2.5807291E+01
 1.3219251E+01  2.5993980E+01
 1.3230751E+01  2.6239094E+01
 1.3242250E+01  2.6413050E+01
 1.3253751E+01  2.6552305E+01
 1.3265250E+01  2.6629204E+01
 1.3276751E+01  2.6779388E+01
 1.3288251E+01  2.6930330E+01
 1.3299750E+01  2.7083988E+01
 1.3311251E+01  2.7193209E+01
 1.3322751E+01  2.7351837E+01
 1.3334250E+01  2.7560654E+01
 1.3345751E+01  2.7708929E+01
 1.3357250E+01  2.7901157E+01
 1.3368751E+01  2.8001200E+01
 1.3380251E+01  2.8154055E+01
 1.3391750E+01  2.8246244E+01
 1.3403251E+01  2.8341759E+01
 1.3414751E+01  2.8407072E+01
 1.3426250E+01  2.8417608E+01
 1.3437751E+01  2.8503761E+01
 1.3449250E+01  2.8581627E+01
 1.3460751E+01  2.8750399E+01
 1.3472251E+01  2.8934448E+01
 1.3483750E+01  2.9148054E+01
 1.3495251E+01  2.9283287E+01
 1.3506751E+01  2.9397388E+01
 1.3518250E+01  2.9472288E+01
 1.3529751E+01  2.9520868E+01
 1.3541250E+01  2.9597130E+01
 1.3552751E+01  2.9674959E+01
 1.3564251E+01  2.9823988E+01
 1.3575750E+01  2.9920719E+01
 1.3587251E+01  3.0065594E+01
 1.3598751E+01  3.0138165E+01
 1.3610250E+01  3.0115870E+01
 1.3621751E+01  3.0031530E+01
 1.3633250E+01  2.9996613E+01
 1.3644751E+01  2.9990185E+01
 1.3656251E+01  3.0012299E+01
 1.3667750E+01  3.0041756E+01
 1.3679251E+01  3.0039965E+01
 1.3690751E+01  2.9985601E+01
 1.3702250E+01  2.9917833E+01
 1.3713751E+01  2.9897528E+01
 1.3725250E+01  2.9890572E+01
 1.3736751E+01  2.9879995E+01
 1.3748251E+01  2.9854641E+01
 1.3759750E+01  2.9775051E+01
 1.3771251E+01  2.9788582E+01
 1.3782751E+01  2.9761087E+01
 1.3794250E+01  2.9873693E+01
 1.3805751E+01  2.9850359E+01
 1.3817250E+01  2.9896780E+01
 1.3828751E+01  2.9906128E+01
 1.3840251E+01  3.0030657E+01
 1.3851750E+01  3.0475494E+01
 1.3863251E+01  3.1187906E+01
 1.3874751E+01  3.2661407E+01
 1.3886250E+01  3.5289089E+01
 1.3897751E+01  3.7895008E+01
 1.3909250E+01  4.0945313E+01
 1.3920751E+01  4.2771267E+01
 1.3932251E+01  4.3856148E+01
 1.3943750E+01  4.4569626E+01
 1.3955251E+01  4.3976604E+01
 1.3966751E+01  4.3342266E+01
 1.3978251E+01  4.0733944E+01
 1.3989751E+01  3.7952541E+01
 1.4001250E+01  3.5345409E+01
 1.4012751E+01  3.2735607E+01
 1.4024251E+01  3.1086031E+01
 1.4035750E+01  2.9765652E+01
 1.4047251E+01  2.9091541E+01
 1.4058751E+01  2.8620550E+01
 1.4070251E+01  2.8410202E+01
 1.4081751E+01  2.8184383E+01
 1.4093250E+01  2.8109476E+01
 1.4104751E+01  2.7908024E+01
 1.4116251E+01  2.7793650E+01
 1.4127750E+01  2.7575224E+01
 1.4139251E+01  2.7399883E+01
 1.4150751E+01  2.7282240E+01
 1.4162251E+01  2.7178699E+01
 1.4173751E+01  2.7181730E+01
 1.4185250E+01  2.7161995E+01
 1.4196751E+01  2.7123743E+01
 1.4208251E+01  2.6985996E+01
 1.4219750E+01  2.6897182E+01
 1.4231251E+01  2.6764410E+01
 1.4242751E+01  2.6720364E+01
 1.4254251E+01  2.6634087E+01
 1.4265751E+01  2.6655703E+01
 1.4277250E+01  2.6683182E+01
 1.4288751E+01  2.6672409E+01
 1.4300251E+01  2.6591793E+01
 1.4311750E+01  2.6475962E+01
 1.4323251E+01  2.6315956E+01
 1.4334751E+01  2.6227293E+01
 1.4346251E+01  2.6176460E+01
 1.4357751E+01  2.6217989E+01
 1.4369250E+01  2.6212620E+01
 1.4380751E+01  2.6224747E+01
 1.4392251E+01  2.6194826E+01
 1.4403750E+01  2.6108780E+01
 1.4415251E+01  2.6033527E+01
 1.4426751E+01  2.5970661E+01
 1.4438251E+01  2.5974909E+01
 1.4449751E+01  2.5918514E+01
 1.4461250E+01  2.5891863E+01
 1.4472751E+01  2.5823458E+01
 1.4484251E+01  2.5785906E+01
 1.4495750E+01  2.5796129E+01
 1.4507251E+01  2.5799297E+01
 1.4518751E+01  2.5820482E+01
 1.4530251E+01  2.5786926E+01
 1.4541751E+01  2.5797112E+01
 1.4553250E+01  2.5821993E+01
 1.4564751E+01  2.5812330E+01
 1.4576251E+01  2.5787981E+01
 1.4587750E+01  2.5730469E+01
 1.4599251E+01  2.5706114E+01
 1.4610751E+01  2.5657236E+01
 1.4622251E+01  2.5653578E+01
 1.4633751E+01  2.5649523E+01
 1.4645250E+01  2.5593119E+01
 1.4656751E+01  2.5487335E+01
 1.4668251E+01  2.5363447E+01
 1.4679750E+01  2.5331219E+01
 1.4691251E+01  2.5302530E+01
 1.4702751E+01  2.5286917E+01
 1.4714251E+01  2.5301783E+01
 1.4725751E+01  2.5339653E+01
 1.4737250E+01  2.5317242E+01
 1.4748751E+01  2.5305906E+01
 1.4760251E+01  2.5274710E+01
 1.4771750E+01  2.5283533E+01
 1.4783251E+01  2.5195147E+01
 1.4794751E+01  2.5190079E+01
 1.4806251E+01  2.5136999E+01
 1.4817751E+01  2.5113794E+01
 1.4829250E+01  2.5030907E+01
 1.4840751E+01  2.5041555E+01
 1.4852251E+01  2.5033028E+01
 1.4863750E+01  2.5053535E+01
 1.4875251E+01  2.5055597E+01
 1.4886751E+01  2.5095407E+01
 1.4898251E+01  2.5127911E+01
 1.4909751E+01  2.5185301E+01
 1.4921250E+01  2.5209925E+01
 1.4932751E+01  2.5181644E+01
 1.4944251E+01  2.5122711E+01
 1.4955750E+01  2.4992954E+01
 1.4967251E+01  2.4898924E+01
 1.4978751E+01  2.4792873E+01
 1.4990251E+01  2.4833958E+01
 1.5001751E+01  2.4897551E+01
 1.5013250E+01  2.5034246E+01
 1.5024751E+01  2.5114103E+01
 1.5036251E+01  2.5131311E+01
 1.5047750E+01  2.5102911E+01
 1.5059251E+01  2.5057695E+01
 1.5070751E+01  2.5055206E+01
 1.5082251E+01  2.4976934E+01
 1.5093751E+01  2.4950308E+01
 1.5105250E+01  2.4903845E+01
 1.5116751E+01  2.4985680E+01
 1.5128251E+01  2.5078327E+01
 1.5139750E+01  2.5440802E+01
 1.5151251E+01  2.5779421E+01
 1.5162751E+01  2.6276838E+01
 1.5174251E+01  2.6619833E+01
 1.5185751E+01  2.6934216E+01
 1.5197250E+01  2.6943233E+01
 1.5208751E+01  2.6857067E+01
 1.5220251E+01  2.6547815E+01
 1.5231750E+01  2.6191206E+01
 1.5243251E+01  2.5768431E+01
 1.5254751E+01  2.5447927E+01
 1.5266251E+01  2.5174635E+01
 1.5277751E+01  2.5034466E+01
 1.5289250E+01  2.4953669E+01
 1.5300751E+01  2.4861658E+01
 1.5312251E+01  2.4836176E+01
 1.5323750E+01  2.4831087E+01
 1.5335251E+01  2.4815105E+01
 1.5346751E+01  2.4753750E+01
 1.5358251E+01  2.4694012E+01
 1.5369751E+01  2.4680460E+01
 1.5381250E+01  2.4669394E+01
 1.5392751E+01  2.4676937E+01
 1.5404251E+01  2.4677050E+01
 1.5415751E+01  2.4654497E+01
 1.5427251E+01  2.4649061E+01
 1.5438751E+01  2.4621698E+01
 1.5450251E+01  2.4593441E+01
 1.5461751E+01  2.4527597E+01
 1.5473250E+01  2.4470383E+01
 1.5484751E+01  2.4459185E+01
 1.5496251E+01  2.4454540E+01
 1.5507751E+01  2.4482197E+01
 1.5519251E+01  2.4482304E+01
 1.5530751E+01  2.4527924E+01
 1.5542251E+01  2.4533241E+01
 1.5553751E+01  2.4518181E+01
 1.5565250E+01  2.4515270E+01
 1.5576751E+01  2.4503836E+01
 1.5588251E+01  2.4496485E+01
 1.5599751E+01  2.4484428E+01
 1.5611251E+01  2.4505228E+01
 1.5622751E+01  2.4500835E+01
 1.5634251E+01  2.4486774E+01
 1.5645751E+01  2.4452957E+01
 1.5657250E+01  2.4461937E+01
 1.5668751E+01  2.4476496E+01
 1.5680251E+01  2.4489645E+01
 1.5691751E+01  2.4505524E+01
 1.5703251E+01  2.4550259E+01
 1.5714751E+01  2.4595917E+01
 1.5726251E+01  2.4626884E+01
 1.5737751E+01  2.4613214E+01
 1.5749250E+01  2.4612553E+01
 1.5760751E+01  2.4611538E+01
 1.5772251E+01  2.4597658E+01
 1.5783751E+01  2.4577515E+01
 1.5795251E+01  2.4567930E+01
 1.5806751E+01  2.4588232E+01
 1.5818251E+01  2.4551308E+01
 1.5829751E+01  2.4528986E+01
 1.5841250E+01  2.4513372E+01
 1.5852751E+01  2.4566711E+01
 1.5864251E+01  2.4579418E+01
 1.5875751E+01  2.4649464E+01
 1.5887251E+01  2.4680246E+01
 1.5898750E+01  2.4723917E+01
 1.5910251E+01  2.4738182E+01
 1.5921751E+01  2.4764122E+01
 1.5933250E+01  2.4759865E+01
 1.5944751E+01  2.4692286E+01
 1.5956251E+01  2.4679480E+01
 1.5967751E+01  2.4718609E+01
 1.5979251E+01  2.4728983E+01
 1.5990750E+01  2.4775742E+01
 1.6002251E+01  2.4749573E+01
 1.6013750E+01  2.4812897E+01
 1.6025251E+01  2.4807764E+01
 1.6036751E+01  2.4839899E+01
 1.6048250E+01  2.4818960E+01
 1.6059752E+01  2.4796125E+01
 1.6071251E+01  2.4757717E+01
 1.6082750E+01  2.4806911E+01
 1.6094252E+01  2.4825190E+01
 1.6105751E+01  2.4882553E+01
 1.6117250E+01  2.4883032E+01
 1.6128750E+01  2.4901352E+01
 1.6140251E+01  2.4905806E+01
 1.6151751E+01  2.4886602E+01
 1.6163250E+01  2.4990097E+01
 1.6174751E+01  2.4987955E+01
 1.6186251E+01  2.5217701E+01
 1.6197750E+01  2.5159933E+01
 1.6209251E+01  2.5520761E+01
 1.6220751E+01  2.5444363E+01
 1.6232250E+01  2.5734526E+01
 1.6243752E+01  2.5729691E+01
 1.6255251E+01  2.5899401E+01
 1.6266750E+01  2.6024418E+01
 1.6278252E+01  2.5829012E+01
 1.6289751E+01  2.5893139E+01
 1.6301250E+01  2.5361656E+01
 1.6312750E+01  2.5436380E+01
 1.6324251E+01  2.5013546E+01
 1.6335751E+01  2.5018328E+01
 1.6347250E+01  2.4774395E+01
 1.6358751E+01  2.4744997E+01
 1.6370251E+01  2.4710442E+01
 1.6381750E+01  2.4712769E+01
 1.6393251E+01  2.4741575E+01
 1.6404751E+01  2.4756210E+01
 1.6416250E+01  2.4840254E+01
 1.6427752E+01  2.4875082E+01
 1.6439251E+01  2.4908718E+01
 1.6450750E+01  2.4794048E+01
 1.6462252E+01  2.4748623E+01
 1.6473751E+01  2.4636074E+01
 1.6485250E+01  2.4662338E+01
 1.6496750E+01  2.4653959E+01
 1.6508251E+01  2.4649845E+01
 1.6519751E+01  2.4640139E+01
 1.6531250E+01  2.4604565E+01
 1.6542751E+01  2.4663799E+01
 1.6554251E+01  2.4625856E+01
 1.6565750E+01  2.4651331E+01
 1.6577251E+01  2.4599171E+01
 1.6588751E+01  2.4621870E+01
 1.6600250E+01  2.4600718E+01
 1.6611752E+01  2.4630381E+01
 1.6623251E+01  2.4534321E+01
 1.6634750E+01  2.4545012E+01
 1.6646252E+01  2.4485802E+01
 1.6657751E+01  2.4477009E+01
 1.6669250E+01  2.4458652E+01
 1.6680750E+01  2.4494463E+01
 1.6692251E+01  2.4584621E+01
 1.6703751E+01  2.4599304E+01
 1.6715250E+01  2.4607803E+01
 1.6726751E+01  2.4585165E+01
 1.6738251E+01  2.4522217E+01
 1.6749750E+01  2.4472021E+01
 1.6761251E+01  2.4416948E+01
 1.6772751E+01  2.4396654E+01
 1.6784250E+01  2.4390852E+01
 1.6795752E+01  2.4406029E+01
 1.6807251E+01  2.4481220E+01
 1.6818750E+01  2.4539640E+01
 1.6830252E+01  2.4540514E+01
 1.6841751E+01  2.4500507E+01
 1.6853251E+01  2.4455137E+01
 1.6864750E+01  2.4436556E+01
 1.6876251E+01  2.4453136E+01
 1.6887751E+01  2.4459717E+01
 1.6899250E+01  2.4497232E+01
 1.6910751E+01  2.4464691E+01
 1.6922251E+01  2.4491228E+01
 1.6933750E+01  2.4485523E+01
 1.6945251E+01  2.4505322E+01
 1.6956751E+01  2.4515944E+01
 1.6968250E+01  2.4481260E+01
 1.6979752E+01  2.4458214E+01
 1.6991251E+01  2.4385136E+01
 1.7002750E+01  2.4360474E+01
 1.7014252E+01  2.4355589E+01
 1.7025751E+01  2.4350637E+01
 1.7037251E+01  2.4324726E+01
 1.7048750E+01  2.4308657E+01
 1.7060251E+01  2.4327749E+01
 1.7071751E+01  2.4368454E+01
 1.7083250E+01  2.4379133E+01
 1.7094751E+01  2.4321501E+01
 1.7106251E+01  2.4241283E+01
 1.7117750E+01  2.4183525E+01
 1.7129251E+01  2.4252333E+01
 1.7140751E+01  2.4287212E+01
 1.7152250E+01  2.4316587E+01
 1.7163752E+01  2.4290474E+01
 1.7175251E+01  2.4292347E+01
 1.7186750E+01  2.4224571E+01
 1.7198252E+01  2.4162664E+01
 1.7209751E+01  2.4107597E+01
 1.7221251E+01  2.4090193E+01
 1.7232750E+01  2.4027067E+01
 1.7244251E+01  2.4013720E+01
 1.7255751E+01  2.4002628E+01
 1.7267250E+01  2.4038460E+01
 1.7278751E+01  2.4085014E+01
 1.7290251E+01  2.4128702E+01
 1.7301750E+01  2.4218092E+01
 1.7313251E+01  2.4246666E+01
 1.7324751E+01  2.4291714E+01
 1.7336250E+01  2.4267771E+01
 1.7347752E+01  2.4271135E+01
 1.7359251E+01  2.4287258E+01
 1.7370750E+01  2.4285360E+01
 1.7382252E+01  2.4271910E+01
 1.7393751E+01  2.4256752E+01
 1.7405251E+01  2.4240503E+01
 1.7416750E+01  2.4208794E+01
 1.7428251E+01  2.4199650E+01
 1.7439751E+01  2.4176970E+01
 1.7451250E+01  2.4122570E+01
 1.7462751E+01  2.4087311E+01
 1.7474251E+01  2.4084696E+01
 1.7485750E+01  2.4099733E+01
 1.7497252E+01  2.4120123E+01
 1.7508751E+01  2.4127844E+01
 1.7520250E+01  2.4149647E+01
 1.7531752E+01  2.4089193E+01
 1.7543251E+01  2.4072519E+01
 1.7554750E+01  2.3978729E+01
 1.7566252E+01  2.3958521E+01
 1.7577751E+01  2.3952456E+01
 1.7589251E+01  2.3957018E+01
 1.7600750E+01  2.3932064E+01
 1.7612251E+01  2.3918175E+01
 1.7623751E+01  2.3950504E+01
 1.7635250E+01  2.3931799E+01
 1.7646751E+01  2.3937613E+01
 1.7658251E+01  2.3891273E+01
 1.7669750E+01  2.3922493E+01
 1.7681252E+01  2.3918379E+01
 1.7692751E+01  2.4003834E+01
 1.7704250E+01  2.4023335E+01
 1.7715752E+01  2.4037216E+01
 1.7727251E+01  2.4000778E+01
 1.7738750E+01  2.3961563E+01
 1.7750252E+01  2.3929026E+01
 1.7761751E+01  2.3945940E+01
 1.7773251E+01  2.3981358E+01
 1.7784750E+01  2.4013603E+01
 1.7796251E+01  2.4021175E+01
 1.7807751E+01  2.3973442E+01
 1.7819250E+01  2.3925383E+01
 1.7830751E+01  2.3845222E+01
 1.7842251E+01  2.3845417E+01
 1.7853750E+01  2.3861118E+01
 1.7865252E+01  2.3897655E+01
 1.7876751E+01  2.3956760E+01
 1.7888250E+01  2.3960014E+01
 1.7899752E+01  2.3978296E+01
 1.7911251E+01  2.3960075E+01
 1.7922750E+01  2.3994574E+01
 1.7934252E+01  2.4019735E+01
 1.7945751E+01  2.4063313E+01
 1.7957251E+01  2.4139750E+01
 1.7968750E+01  2.4208778E+01
 1.7980251E+01  2.4368263E+01
 1.7991751E+01  2.4575750E+01
 1.8003250E+01  2.4825077E+01
 1.8014751E+01  2.5337505E+01
 1.8026251E+01  2.5840317E+01
 1.8037750E+01  2.6267246E+01
 1.8049252E+01  2.6648243E+01
 1.8060751E+01  2.6694632E+01
 1.8072250E+01  2.6785370E+01
 1.8083752E+01  2.6825281E+01
 1.8095251E+01  2.6928293E+01
 1.8106750E+01  2.6923357E+01
 1.8118252E+01  2.6773565E+01
 1.8129751E+01  2.6502115E+01
 1.8141251E+01  2.6080257E+01
 1.8152750E+01  2.5562996E+01
 1.8164251E+01  2.5054331E+01
 1.8175751E+01  2.4608747E+01
 1.8187250E+01  2.4255035E+01
 1.8198751E+01  2.4037853E+01
 1.8210251E+01  2.3916199E+01
 1.8221750E+01  2.3864300E+01
 1.8233252E+01  2.3831938E+01
 1.8244751E+01  2.3837271E+01
 1.8256250E+01  2.3827877E+01
 1.8267752E+01  2.3905512E+01
 1.8279251E+01  2.3910629E+01
 1.8290751E+01  2.3927248E+01
 1.8302252E+01  2.3870724E+01
 1.8313751E+01  2.3824385E+01
 1.8325251E+01  2.3733948E+01
 1.8336750E+01  2.3732243E+01
 1.8348251E+01  2.3753807E+01
 1.8359751E+01  2.3778215E+01
 1.8371250E+01  2.3789150E+01
 1.8382751E+01  2.3776934E+01
 1.8394251E+01  2.3781656E+01
 1.8405750E+01  2.3808008E+01
 1.8417252E+01  2.3839668E+01
 1.8428751E+01  2.3834505E+01
 1.8440250E+01  2.3823759E+01
 1.8451752E+01  2.3772066E+01
 1.8463251E+01  2.3734629E+01
 1.8474751E+01  2.3707554E+01
 1.8486252E+01  2.3691015E+01
 1.8497751E+01  2.3712265E+01
 1.8509251E+01  2.3717602E+01
 1.8520750E+01  2.3679625E+01
 1.8532251E+01  2.3628590E+01
 1.8543751E+01  2.3593893E+01
 1.8555250E+01  2.3616352E+01
 1.8566751E+01  2.3610765E+01
 1.8578251E+01  2.3671009E+01
 1.8589750E+01  2.3725235E+01
 1.8601252E+01  2.3785965E+01
 1.8612751E+01  2.3758295E+01
 1.8624250E+01  2.3713202E+01
 1.8635752E+01  2.3693897E+01
 1.8647251E+01  2.3603954E+01
 1.8658751E+01  2.3559219E+01
 1.8670252E+01  2.3519510E+01
 1.8681751E+01  2.3582640E+01
 1.8693251E+01  2.3630766E+01
 1.8704750E+01  2.3691261E+01
 1.8716251E+01  2.3756670E+01
 1.8727751E+01  2.3742584E+01
 1.8739250E+01  2.3726215E+01
 1.8750751E+01  2.3692627E+01
 1.8762251E+01  2.3706656E+01
 1.8773750E+01  2.3693716E+01
 1.8785252E+01  2.3673557E+01
 1.8796751E+01  2.3698290E+01
 1.8808250E+01  2.3693201E+01
 1.8819752E+01  2.3716299E+01
 1.8831251E+01  2.3654863E+01
 1.8842751E+01  2.3639870E+01
 1.8854252E+01  2.3603107E+01
 1.8865751E+01  2.3640322E+01
 1.8877251E+01  2.3663177E+01
 1.8888750E+01  2.3654274E+01
 1.8900251E+01  2.3638378E+01
 1.8911751E+01  2.3638962E+01
 1.8923250E+01  2.3655989E+01
 1.8934752E+01  2.3693768E+01
 1.8946251E+01  2.3748491E+01
 1.8957750E+01  2.3729492E+01
 1.8969252E+01  2.3654678E+01
 1.8980751E+01  2.3592960E+01
 1.8992250E+01  2.3534159E+01
 1.9003752E+01  2.3536676E+01
 1.9015251E+01  2.3546532E+01
 1.9026751E+01  2.3594425E+01
 1.9038252E+01  2.3577473E+01
 1.9049751E+01  2.3558500E+01
 1.9061251E+01  2.3565268E+01
 1.9072750E+01  2.3588018E+01
 1.9084251E+01  2.3596645E+01
 1.9095751E+01  2.3546782E+01
 1.9107250E+01  2.3522173E+01
 1.9118752E+01  2.3522057E+01
 1.9130251E+01  2.3591866E+01
 1.9141750E+01  2.3580776E+01
 1.9153252E+01  2.3583664E+01
 1.9164751E+01  2.3544949E+01
 1.9176250E+01  2.3564690E+01
 1.9187752E+01  2.3586153E+01
 1.9199251E+01  2.3626467E+01
 1.9210751E+01  2.3626287E+01
 1.9222252E+01  2.3608168E+01
 1.9233751E+01  2.3617769E+01
 1.9245251E+01  2.3601166E+01
 1.9256750E+01  2.3649118E+01
 1.9268251E+01  2.3665556E+01
 1.9279751E+01  2.3699566E+01
 1.9291250E+01  2.3717941E+01
 1.9302752E+01  2.3752089E+01
 1.9314251E+01  2.3789593E+01
 1.9325750E+01  2.3775732E+01
 1.9337252E+01  2.3811440E+01
 1.9348751E+01  2.3820229E+01
 1.9360250E+01  2.3819656E+01
 1.9371752E+01  2.3813496E+01
 1.9383251E+01  2.3763184E+01
 1.9394751E+01  2.3741652E+01
 1.9406250E+01  2.3695715E+01
 1.9417751E+01  2.3659292E+01
 1.9429251E+01  2.3652384E+01
 1.9440750E+01  2.3632313E+01
 1.9452251E+01  2.3749527E+01
 1.9463751E+01  2.3816399E+01
 1.9475250E+01  2.3973440E+01
 1.9486752E+01  2.3987061E+01
 1.9498251E+01  2.4022463E+01
 1.9509750E+01  2.4004396E+01
 1.9521252E+01  2.4005730E+01
 1.9532751E+01  2.4078272E+01
 1.9544250E+01  2.4475157E+01
 1.9555752E+01  2.4522501E+01
 1.9567251E+01  2.4743502E+01
 1.9578751E+01  2.4306189E+01
 1.9590250E+01  2.4397108E+01
 1.9601751E+01  2.4237942E+01
 1.9613251E+01  2.4338820E+01
 1.9624750E+01  2.4476511E+01
 1.9636251E+01  2.4605976E+01
 1.9647751E+01  2.4892811E+01
 1.9659250E+01  2.5165737E+01
 1.9670752E+01  2.5611294E+01
 1.9682251E+01  2.6331165E+01
 1.9693750E+01  2.7323195E+01
 1.9705252E+01  2.8441526E+01
 1.9716751E+01  2.9683750E+01
 1.9728251E+01  2.9933203E+01
 1.9739752E+01  3.0424370E+01
 1.9751251E+01  2.9720940E+01
 1.9762751E+01  2.8885809E+01
 1.9774250E+01  2.7109037E+01
 1.9785751E+01  2.6303988E+01
 1.9797251E+01  2.5730547E+01
 1.9808750E+01  2.5369165E+01
 1.9820251E+01  2.5585344E+01
 1.9831751E+01  2.5833567E+01
 1.9843250E+01  2.6111986E+01
 1.9854752E+01  2.6607430E+01
 1.9866251E+01  2.6581532E+01
 1.9877750E+01  2.6689768E+01
 1.9889252E+01  2.6263161E+01
 1.9900751E+01  2.6025158E+01
 1.9912251E+01  2.5362858E+01
 1.9923752E+01  2.4999096E+01
 1.9935251E+01  2.4698328E+01
 1.9946751E+01  2.4426533E+01
 1.9958250E+01  2.4332630E+01
 1.9969751E+01  2.4239576E+01
 1.9981251E+01  2.4121479E+01
 1.9992750E+01  2.4057865E+01
 2.0004251E+01  2.3971865E+01
 2.0015751E+01  2.3947054E+01
 2.0027250E+01  2.3903046E+01
 2.0038752E+01  2.3884497E+01
 2.0050251E+01  2.3910730E+01
 2.0061750E+01  2.3875116E+01
 2.0073252E+01  2.3885267E+01
 2.0084751E+01  2.3838242E+01
 2.0096251E+01  2.3835735E+01
 2.0107752E+01  2.3793444E+01
 2.0119251E+01  2.3776958E+01
 2.0130751E+01  2.3779165E+01
 2.0142250E+01  2.3788713E+01
 2.0153751E+01  2.3830912E+01
 2.0165251E+01  2.3824244E+01
 2.0176750E+01  2.3853701E+01
 2.0188251E+01  2.3844925E+01
 2.0199751E+01  2.3872856E+01
 2.0211250E+01  2.3857426E+01
 2.0222752E+01  2.3871859E+01
 2.0234251E+01  2.3843761E+01
 2.0245750E+01  2.3802286E+01
 2.0257252E+01  2.3772493E+01
 2.0268751E+01  2.3796555E+01
 2.0280251E+01  2.3859924E+01
 2.0291752E+01  2.3884657E+01
 2.0303251E+01  2.3825603E+01
 2.0314751E+01  2.3780504E+01
 2.0326250E+01  2.3751301E+01
 2.0337751E+01  2.3765814E+01
 2.0349251E+01  2.3730627E+01
 2.0360750E+01  2.3750000E+01
 2.0372252E+01  2.3722723E+01
 2.0383751E+01  2.3750040E+01
 2.0395250E+01  2.3769781E+01
 2.0406752E+01  2.3881845E+01
 2.0418251E+01  2.3954096E+01
 2.0429750E+01  2.4022398E+01
 2.0441252E+01  2.3973366E+01
 2.0452751E+01  2.3928459E+01
 2.0464251E+01  2.3863762E+01
 2.0475752E+01  2.3839739E+01
 2.0487251E+01  2.3839535E+01
 2.0498751E+01  2.3831932E+01
 2.0510250E+01  2.3789003E+01
 2.0521751E+01  2.3752190E+01
 2.0533251E+01  2.3712778E+01
 2.0544750E+01  2.3764156E+01
 2.0556252E+01  2.3872353E+01
 2.0567751E+01  2.3944588E+01
 2.0579250E+01  2.3958580E+01
 2.0590752E+01  2.4036020E+01
 2.0602251E+01  2.4102940E+01
 2.0613750E+01  2.4115273E+01
 2.0625252E+01  2.4104473E+01
 2.0636751E+01  2.4075178E+01
 2.0648251E+01  2.4046967E+01
 2.0659752E+01  2.4050306E+01
 2.0671251E+01  2.4133448E+01
 2.0682751E+01  2.4260853E+01
 2.0694250E+01  2.4407726E+01
 2.0705751E+01  2.4797499E+01
 2.0717251E+01  2.5096277E+01
 2.0728750E+01  2.5561106E+01
 2.0740252E+01  2.5944513E+01
 2.0751751E+01  2.6089540E+01
 2.0763250E+01  2.6118263E+01
 2.0774752E+01  2.5923525E+01
 2.0786251E+01  2.5739687E+01
 2.0797750E+01  2.5278185E+01
 2.0809252E+01  2.4972775E+01
 2.0820751E+01  2.4648699E+01
 2.0832251E+01  2.4446650E+01
 2.0843752E+01  2.4286528E+01
 2.0855251E+01  2.4179419E+01
 2.0866751E+01  2.4102324E+01
 2.0878250E+01  2.4050404E+01
 2.0889751E+01  2.3973270E+01
 2.0901251E+01  2.3916491E+01
 2.0912750E+01  2.3912058E+01
 2.0924252E+01  2.3993824E+01
 2.0935751E+01  2.4032505E+01
 2.0947250E+01  2.4072382E+01
 2.0958752E+01  2.4067013E+01
 2.0970251E+01  2.4091970E+01
 2.0981750E+01  2.4087179E+01
 2.0993252E+01  2.4051247E+01
 2.1004751E+01  2.4004595E+01
 2.1016251E+01  2.3953606E+01
 2.1027752E+01  2.3924047E+01
 2.1039251E+01  2.3914471E+01
 2.1050751E+01  2.3887644E+01
 2.1062250E+01  2.3865330E+01
 2.1073751E+01  2.3855623E+01
 2.1085251E+01  2.3847046E+01
 2.1096750E+01  2.3838848E+01
 2.1108252E+01  2.3857723E+01
 2.1119751E+01  2.3921743E+01
 2.1131250E+01  2.3981930E+01
 2.1142752E+01  2.3984119E+01
 2.1154251E+01  2.3929155E+01
 2.1165751E+01  2.3931257E+01
 2.1177252E+01  2.3957525E+01
 2.1188751E+01  2.4007118E+01
 2.1200251E+01  2.4072660E+01
 2.1211752E+01  2.4098606E+01
 2.1223251E+01  2.4055605E+01
 2.1234751E+01  2.3995977E+01
 2.1246250E+01  2.4004799E+01
 2.1257751E+01  2.4005884E+01
 2.1269251E+01  2.4033718E+01
 2.1280750E+01  2.4038473E+01
 2.1292252E+01  2.4033003E+01
 2.1303751E+01  2.3988628E+01
 2.1315250E+01  2.3984550E+01
 2.1326752E+01  2.4046837E+01
 2.1338251E+01  2.4083921E+01
 2.1349751E+01  2.4100588E+01
 2.1361252E+01  2.4069857E+01
 2.1372751E+01  2.4100868E+01
 2.1384251E+01  2.4071121E+01
 2.1395752E+01  2.4044542E+01
 2.1407251E+01  2.4055643E+01
 2.1418751E+01  2.4095289E+01
 2.1430250E+01  2.4101128E+01
 2.1441751E+01  2.4056421E+01
 2.1453251E+01  2.4035971E+01
 2.1464750E+01  2.4022692E+01
 2.1476252E+01  2.4032196E+01
 2.1487751E+01  2.4126570E+01
 2.1499250E+01  2.4202547E+01
 2.1510752E+01  2.4227901E+01
 2.1522251E+01  2.4195320E+01
 2.1533751E+01  2.4202261E+01
 2.1545252E+01  2.4191978E+01
 2.1556751E+01  2.4185823E+01
 2.1568251E+01  2.4158554E+01
 2.1579752E+01  2.4182699E+01
 2.1591251E+01  2.4181480E+01
 2.1602751E+01  2.4180578E+01
 2.1614250E+01  2.4171892E+01
 2.1625751E+01  2.4197433E+01
 2.1637251E+01  2.4235392E+01
 2.1648750E+01  2.4247650E+01
 2.1660252E+01  2.4260809E+01
 2.1671751E+01  2.4209112E+01
 2.1683250E+01  2.4172434E+01
 2.1694752E+01  2.4147375E+01
 2.1706251E+01  2.4164711E+01
 2.1717751E+01  2.4170246E+01
 2.1729252E+01  2.4188231E+01
 2.1740751E+01  2.4187611E+01
 2.1752251E+01  2.4205143E+01
 2.1763752E+01  2.4228878E+01
 2.1775251E+01  2.4301891E+01
 2.1786751E+01  2.4309441E+01
 2.1798250E+01  2.4290596E+01
 2.1809752E+01  2.4249268E+01
 2.1821251E+01  2.4259453E+01
 2.1832750E+01  2.4165373E+01
 2.1844252E+01  2.4110929E+01
 2.1855751E+01  2.4078951E+01
 2.1867250E+01  2.4150705E+01
 2.1878752E+01  2.4188122E+01
 2.1890251E+01  2.4170734E+01
 2.1901751E+01  2.4197372E+01
 2.1913252E+01  2.4228926E+01
 2.1924751E+01  2.4260698E+01
 2.1936251E+01  2.4225994E+01
 2.1947752E+01  2.4246626E+01
 2.1959251E+01  2.4256285E+01
 2.1970751E+01  2.4292063E+01
 2.1982250E+01  2.4290419E+01
 2.1993752E+01  2.4305927E+01
 2.2005251E+01  2.4286819E+01
 2.2016750E+01  2.4280479E+01
 2.2028252E+01  2.4292171E+01
 2.2039751E+01  2.4293543E+01
 2.2051250E+01  2.4326826E+01
 2.2062752E+01  2.4341160E+01
 2.2074251E+01  2.4377886E+01
 2.2085751E+01  2.4374748E+01
 2.2097252E+01  2.4381672E+01
 2.2108751E+01  2.4393236E+01
 2.2120251E+01  2.4435379E+01
 2.2131752E+01  2.4410561E+01
 2.2143251E+01  2.4396147E+01
 2.2154751E+01  2.4359798E+01
 2.2166250E+01  2.4362835E+01
 2.2177752E+01  2.4334219E+01
 2.2189251E+01  2.4293045E+01
 2.2200750E+01  2.4355827E+01
 2.2212252E+01  2.4383955E+01
 2.2223751E+01  2.4454630E+01
 2.2235250E+01  2.4463472E+01
 2.2246752E+01  2.4479277E+01
 2.2258251E+01  2.4422482E+01
 2.2269751E+01  2.4413862E+01
 2.2281252E+01  2.4456455E+01
 2.2292751E+01  2.4496988E+01
 2.2304251E+01  2.4528870E+01
 2.2315752E+01  2.4532724E+01
 2.2327251E+01  2.4538216E+01
 2.2338751E+01  2.4545052E+01
 2.2350250E+01  2.4602428E+01
 2.2361752E+01  2.4633711E+01
 2.2373251E+01  2.4635462E+01
 2.2384750E+01  2.4550041E+01
 2.2396252E+01  2.4499233E+01
 2.2407751E+01  2.4441610E+01
 2.2419250E+01  2.4503370E+01
 2.2430752E+01  2.4598791E+01
 2.2442251E+01  2.4736683E+01
 2.2453751E+01  2.4847460E+01
 2.2465252E+01  2.4907578E+01
 2.2476751E+01  2.4890442E+01
 2.2488251E+01  2.4848028E+01
 2.2499752E+01  2.4841887E+01
 2.2511251E+01  2.4873253E+01
 2.2522751E+01  2.4888897E+01
 2.2534250E+01  2.4850000E+01
 2.2545752E+01  2.4852957E+01
 2.2557251E+01  2.4875858E+01
 2.2568750E+01  2.4926413E+01
 2.2580252E+01  2.4904198E+01
 2.2591751E+01  2.4901987E+01
 2.2603251E+01  2.4865265E+01
 2.2614752E+01  2.4893658E+01
 2.2626251E+01  2.4913469E+01
 2.2637751E+01  2.4949873E+01
 2.2649252E+01  2.4964331E+01
 2.2660751E+01  2.4988543E+01
 2.2672251E+01  2.5011572E+01
 2.2683752E+01  2.5082529E+01
 2.2695251E+01  2.5159229E+01
 2.2706751E+01  2.5197735E+01
 2.2718250E+01  2.5251188E+01
 2.2729752E+01  2.5252441E+01
 2.2741251E+01  2.5275276E+01
 2.2752750E+01  2.5287186E+01
 2.2764252E+01  2.5335033E+01
 2.2775751E+01  2.5311876E+01
 2.2787251E+01  2.5326475E+01
 2.2798752E+01  2.5408184E+01
 2.2810251E+01  2.5501326E+01
 2.2821751E+01  2.5472219E+01
 2.2833252E+01  2.5466269E+01
 2.2844751E+01  2.5493132E+01
 2.2856251E+01  2.5541037E+01
 2.2867750E+01  2.5590118E+01
 2.2879251E+01  2.5632397E+01
 2.2890751E+01  2.5742146E+01
 2.2902250E+01  2.5806538E+01
 2.2913752E+01  2.5904650E+01
 2.2925251E+01  2.5956842E+01
 2.2936750E+01  2.5936415E+01
 2.2948252E+01  2.5896955E+01
 2.2959751E+01  2.5933691E+01
 2.2971251E+01  2.6096348E+01
 2.2982752E+01  2.6230738E+01
 2.2994251E+01  2.6351255E+01
