F:\20151113_APS_34IDE\\Brian\Particle1\OCV\Data_0119.tif
2-Theta Angle (Degrees)
Intensity
       2000
 5.7500005E-03  0.0000000E+00
 1.7250001E-02  0.0000000E+00
 2.8750001E-02  0.0000000E+00
 4.0250003E-02  0.0000000E+00
 5.1750004E-02  0.0000000E+00
 6.3250005E-02  0.0000000E+00
 7.4750006E-02  0.0000000E+00
 8.6250007E-02  0.0000000E+00
 9.7750008E-02  0.0000000E+00
 1.0925001E-01  0.0000000E+00
 1.2075000E-01  0.0000000E+00
 1.3225001E-01  0.0000000E+00
 1.4375001E-01  0.0000000E+00
 1.5525001E-01  0.0000000E+00
 1.6675001E-01  0.0000000E+00
 1.7825001E-01  0.0000000E+00
 1.8975002E-01  0.0000000E+00
 2.0125002E-01  0.0000000E+00
 2.1275002E-01  0.0000000E+00
 2.2425000E-01  0.0000000E+00
 2.3575000E-01  0.0000000E+00
 2.4725001E-01  0.0000000E+00
 2.5875002E-01  0.0000000E+00
 2.7025002E-01  0.0000000E+00
 2.8175002E-01  0.0000000E+00
 2.9325002E-01  0.0000000E+00
 3.0475003E-01  0.0000000E+00
 3.1625003E-01  0.0000000E+00
 3.2775003E-01  0.0000000E+00
 3.3925003E-01  0.0000000E+00
 3.5075003E-01  0.0000000E+00
 3.6225003E-01  0.0000000E+00
 3.7375003E-01  0.0000000E+00
 3.8525003E-01  0.0000000E+00
 3.9675003E-01  0.0000000E+00
 4.0825003E-01  0.0000000E+00
 4.1975003E-01  0.0000000E+00
 4.3125004E-01  0.0000000E+00
 4.4275001E-01  0.0000000E+00
 4.5425001E-01  0.0000000E+00
 4.6575001E-01  0.0000000E+00
 4.7725001E-01  0.0000000E+00
 4.8875001E-01  0.0000000E+00
 5.0025004E-01  0.0000000E+00
 5.1175004E-01  0.0000000E+00
 5.2325004E-01  0.0000000E+00
 5.3475004E-01  0.0000000E+00
 5.4625005E-01  0.0000000E+00
 5.5775005E-01  0.0000000E+00
 5.6925005E-01  0.0000000E+00
 5.8075005E-01  0.0000000E+00
 5.9225005E-01  0.0000000E+00
 6.0375005E-01  0.0000000E+00
 6.1525005E-01  0.0000000E+00
 6.2675005E-01  0.0000000E+00
 6.3825005E-01  0.0000000E+00
 6.4975005E-01  0.0000000E+00
 6.6125005E-01  0.0000000E+00
 6.7275006E-01  0.0000000E+00
 6.8425006E-01  0.0000000E+00
 6.9575006E-01  0.0000000E+00
 7.0725006E-01  0.0000000E+00
 7.1875006E-01  0.0000000E+00
 7.3025006E-01  0.0000000E+00
 7.4175006E-01  0.0000000E+00
 7.5325006E-01  0.0000000E+00
 7.6475006E-01  0.0000000E+00
 7.7625006E-01  0.0000000E+00
 7.8775007E-01  0.0000000E+00
 7.9925007E-01  0.0000000E+00
 8.1075007E-01  0.0000000E+00
 8.2225007E-01  0.0000000E+00
 8.3375007E-01  0.0000000E+00
 8.4525007E-01  0.0000000E+00
 8.5675007E-01  0.0000000E+00
 8.6825007E-01  0.0000000E+00
 8.7975001E-01  0.0000000E+00
 8.9125001E-01  0.0000000E+00
 9.0275002E-01  0.0000000E+00
 9.1425002E-01  0.0000000E+00
 9.2575002E-01  0.0000000E+00
 9.3725002E-01  0.0000000E+00
 9.4875002E-01  0.0000000E+00
 9.6025002E-01  0.0000000E+00
 9.7175002E-01  0.0000000E+00
 9.8325002E-01  0.0000000E+00
 9.9475002E-01  0.0000000E+00
 1.0062500E+00  0.0000000E+00
 1.0177500E+00  0.0000000E+00
 1.0292500E+00  0.0000000E+00
 1.0407500E+00  0.0000000E+00
 1.0522500E+00  0.0000000E+00
 1.0637500E+00  0.0000000E+00
 1.0752500E+00  0.0000000E+00
 1.0867500E+00  0.0000000E+00
 1.0982500E+00  0.0000000E+00
 1.1097500E+00  0.0000000E+00
 1.1212500E+00  0.0000000E+00
 1.1327500E+00  0.0000000E+00
 1.1442500E+00  0.0000000E+00
 1.1557500E+00  0.0000000E+00
 1.1672500E+00  0.0000000E+00
 1.1787500E+00  0.0000000E+00
 1.1902500E+00  0.0000000E+00
 1.2017500E+00  0.0000000E+00
 1.2132500E+00  0.0000000E+00
 1.2247500E+00  0.0000000E+00
 1.2362500E+00  0.0000000E+00
 1.2477500E+00  0.0000000E+00
 1.2592500E+00  0.0000000E+00
 1.2707500E+00  0.0000000E+00
 1.2822500E+00  0.0000000E+00
 1.2937500E+00  0.0000000E+00
 1.3052500E+00  0.0000000E+00
 1.3167500E+00  0.0000000E+00
 1.3282501E+00  0.0000000E+00
 1.3397501E+00  0.0000000E+00
 1.3512501E+00  0.0000000E+00
 1.3627501E+00  0.0000000E+00
 1.3742501E+00  0.0000000E+00
 1.3857501E+00  0.0000000E+00
 1.3972501E+00  0.0000000E+00
 1.4087501E+00  0.0000000E+00
 1.4202501E+00  0.0000000E+00
 1.4317501E+00  0.0000000E+00
 1.4432501E+00  0.0000000E+00
 1.4547501E+00  0.0000000E+00
 1.4662501E+00  0.0000000E+00
 1.4777501E+00  0.0000000E+00
 1.4892501E+00  0.0000000E+00
 1.5007501E+00  0.0000000E+00
 1.5122501E+00  0.0000000E+00
 1.5237501E+00  0.0000000E+00
 1.5352501E+00  0.0000000E+00
 1.5467501E+00  0.0000000E+00
 1.5582501E+00  0.0000000E+00
 1.5697501E+00  0.0000000E+00
 1.5812501E+00  0.0000000E+00
 1.5927501E+00  0.0000000E+00
 1.6042501E+00  0.0000000E+00
 1.6157501E+00  0.0000000E+00
 1.6272501E+00  0.0000000E+00
 1.6387501E+00  0.0000000E+00
 1.6502501E+00  0.0000000E+00
 1.6617501E+00  0.0000000E+00
 1.6732501E+00  0.0000000E+00
 1.6847501E+00  0.0000000E+00
 1.6962501E+00  0.0000000E+00
 1.7077501E+00  0.0000000E+00
 1.7192501E+00  0.0000000E+00
 1.7307501E+00  0.0000000E+00
 1.7422501E+00  0.0000000E+00
 1.7537501E+00  0.0000000E+00
 1.7652501E+00  0.0000000E+00
 1.7767501E+00  0.0000000E+00
 1.7882501E+00  0.0000000E+00
 1.7997501E+00  0.0000000E+00
 1.8112501E+00  0.0000000E+00
 1.8227501E+00  0.0000000E+00
 1.8342501E+00  0.0000000E+00
 1.8457501E+00  0.0000000E+00
 1.8572501E+00  0.0000000E+00
 1.8687501E+00  0.0000000E+00
 1.8802501E+00  0.0000000E+00
 1.8917501E+00  0.0000000E+00
 1.9032501E+00  0.0000000E+00
 1.9147501E+00  0.0000000E+00
 1.9262501E+00  0.0000000E+00
 1.9377501E+00  0.0000000E+00
 1.9492501E+00  0.0000000E+00
 1.9607501E+00  0.0000000E+00
 1.9722501E+00  0.0000000E+00
 1.9837501E+00  0.0000000E+00
 1.9952501E+00  0.0000000E+00
 2.0067501E+00  0.0000000E+00
 2.0182500E+00  0.0000000E+00
 2.0297501E+00  0.0000000E+00
 2.0412500E+00  0.0000000E+00
 2.0527501E+00  0.0000000E+00
 2.0642500E+00  0.0000000E+00
 2.0757501E+00  0.0000000E+00
 2.0872500E+00  0.0000000E+00
 2.0987501E+00  0.0000000E+00
 2.1102500E+00  0.0000000E+00
 2.1217501E+00  0.0000000E+00
 2.1332500E+00  0.0000000E+00
 2.1447501E+00  0.0000000E+00
 2.1562500E+00  0.0000000E+00
 2.1677501E+00  0.0000000E+00
 2.1792500E+00  0.0000000E+00
 2.1907501E+00  0.0000000E+00
 2.2022500E+00  0.0000000E+00
 2.2137501E+00  0.0000000E+00
 2.2252500E+00  0.0000000E+00
 2.2367501E+00  0.0000000E+00
 2.2482500E+00  0.0000000E+00
 2.2597501E+00  0.0000000E+00
 2.2712500E+00  0.0000000E+00
 2.2827501E+00  0.0000000E+00
 2.2942500E+00  0.0000000E+00
 2.3057501E+00  0.0000000E+00
 2.3172500E+00  0.0000000E+00
 2.3287501E+00  0.0000000E+00
 2.3402500E+00  0.0000000E+00
 2.3517501E+00  0.0000000E+00
 2.3632500E+00  0.0000000E+00
 2.3747501E+00  0.0000000E+00
 2.3862500E+00  0.0000000E+00
 2.3977501E+00  0.0000000E+00
 2.4092500E+00  0.0000000E+00
 2.4207501E+00  0.0000000E+00
 2.4322500E+00  0.0000000E+00
 2.4437501E+00  0.0000000E+00
 2.4552500E+00  0.0000000E+00
 2.4667501E+00  0.0000000E+00
 2.4782500E+00  0.0000000E+00
 2.4897501E+00  0.0000000E+00
 2.5012500E+00  0.0000000E+00
 2.5127501E+00  0.0000000E+00
 2.5242500E+00  0.0000000E+00
 2.5357502E+00  0.0000000E+00
 2.5472500E+00  0.0000000E+00
 2.5587502E+00  0.0000000E+00
 2.5702500E+00  0.0000000E+00
 2.5817502E+00  0.0000000E+00
 2.5932500E+00  0.0000000E+00
 2.6047502E+00  0.0000000E+00
 2.6162500E+00  0.0000000E+00
 2.6277502E+00  0.0000000E+00
 2.6392500E+00  0.0000000E+00
 2.6507502E+00  0.0000000E+00
 2.6622500E+00  0.0000000E+00
 2.6737502E+00  0.0000000E+00
 2.6852500E+00  0.0000000E+00
 2.6967502E+00  0.0000000E+00
 2.7082500E+00  0.0000000E+00
 2.7197502E+00  0.0000000E+00
 2.7312500E+00  0.0000000E+00
 2.7427502E+00  0.0000000E+00
 2.7542500E+00  0.0000000E+00
 2.7657502E+00  0.0000000E+00
 2.7772501E+00  0.0000000E+00
 2.7887502E+00  0.0000000E+00
 2.8002501E+00  0.0000000E+00
 2.8117502E+00  0.0000000E+00
 2.8232501E+00  3.4063175E+01
 2.8347502E+00  3.4561131E+01
 2.8462501E+00  3.3976254E+01
 2.8577502E+00  3.3657326E+01
 2.8692501E+00  3.3145844E+01
 2.8807502E+00  3.2963463E+01
 2.8922501E+00  3.3200153E+01
 2.9037502E+00  3.3896492E+01
 2.9152501E+00  3.4685749E+01
 2.9267502E+00  3.5314251E+01
 2.9382501E+00  3.5650444E+01
 2.9497502E+00  3.6224949E+01
 2.9612501E+00  3.6075298E+01
 2.9727502E+00  3.6483326E+01
 2.9842501E+00  3.6085632E+01
 2.9957502E+00  3.6306789E+01
 3.0072501E+00  3.6194744E+01
 3.0187502E+00  3.6394215E+01
 3.0302501E+00  3.6225693E+01
 3.0417502E+00  3.6123222E+01
 3.0532501E+00  3.5546078E+01
 3.0647502E+00  3.5190102E+01
 3.0762501E+00  3.5013233E+01
 3.0877502E+00  3.4848915E+01
 3.0992501E+00  3.5007267E+01
 3.1107502E+00  3.4712555E+01
 3.1222501E+00  3.4585857E+01
 3.1337502E+00  3.4413208E+01
 3.1452501E+00  3.4352818E+01
 3.1567502E+00  3.4336941E+01
 3.1682501E+00  3.4488400E+01
 3.1797502E+00  3.4492249E+01
 3.1912501E+00  3.4344055E+01
 3.2027502E+00  3.4470543E+01
 3.2142501E+00  3.4495453E+01
 3.2257502E+00  3.4484798E+01
 3.2372501E+00  3.4409027E+01
 3.2487502E+00  3.3870461E+01
 3.2602501E+00  3.4046066E+01
 3.2717502E+00  3.3900875E+01
 3.2832501E+00  3.4088966E+01
 3.2947502E+00  3.4169636E+01
 3.3062501E+00  3.4219196E+01
 3.3177502E+00  3.4118988E+01
 3.3292501E+00  3.3947124E+01
 3.3407502E+00  3.3896950E+01
 3.3522501E+00  3.3963253E+01
 3.3637502E+00  3.4377777E+01
 3.3752501E+00  3.4553734E+01
 3.3867502E+00  3.4840744E+01
 3.3982501E+00  3.4695801E+01
 3.4097502E+00  3.4761841E+01
 3.4212501E+00  3.4277596E+01
 3.4327502E+00  3.3937977E+01
 3.4442501E+00  3.3731041E+01
 3.4557502E+00  3.3599888E+01
 3.4672501E+00  3.3748840E+01
 3.4787502E+00  3.3556629E+01
 3.4902501E+00  3.3616848E+01
 3.5017502E+00  3.3591759E+01
 3.5132501E+00  3.3323307E+01
 3.5247502E+00  3.3259407E+01
 3.5362501E+00  3.3036663E+01
 3.5477502E+00  3.3101215E+01
 3.5592501E+00  3.3034668E+01
 3.5707502E+00  3.3136501E+01
 3.5822501E+00  3.3137192E+01
 3.5937502E+00  3.3159168E+01
 3.6052501E+00  3.3028172E+01
 3.6167502E+00  3.3099571E+01
 3.6282501E+00  3.3013119E+01
 3.6397502E+00  3.2984657E+01
 3.6512501E+00  3.3001350E+01
 3.6627502E+00  3.3029568E+01
 3.6742501E+00  3.3099415E+01
 3.6857502E+00  3.3203094E+01
 3.6972501E+00  3.3152145E+01
 3.7087502E+00  3.3013760E+01
 3.7202501E+00  3.2924175E+01
 3.7317502E+00  3.2844547E+01
 3.7432501E+00  3.2862919E+01
 3.7547503E+00  3.2876884E+01
 3.7662501E+00  3.2650276E+01
 3.7777503E+00  3.2493233E+01
 3.7892501E+00  3.2252964E+01
 3.8007503E+00  3.2172737E+01
 3.8122501E+00  3.2380562E+01
 3.8237503E+00  3.2373505E+01
 3.8352501E+00  3.2453213E+01
 3.8467503E+00  3.2343136E+01
 3.8582501E+00  3.2322128E+01
 3.8697503E+00  3.2431374E+01
 3.8812501E+00  3.2552223E+01
 3.8927503E+00  3.2607445E+01
 3.9042501E+00  3.2431068E+01
 3.9157503E+00  3.2397751E+01
 3.9272501E+00  3.2312557E+01
 3.9387503E+00  3.2459911E+01
 3.9502501E+00  3.2427879E+01
 3.9617503E+00  3.2480530E+01
 3.9732502E+00  3.2490196E+01
 3.9847503E+00  3.2563259E+01
 3.9962502E+00  3.2617775E+01
 4.0077500E+00  3.2538494E+01
 4.0192504E+00  3.2361179E+01
 4.0307503E+00  3.2150173E+01
 4.0422502E+00  3.2134212E+01
 4.0537500E+00  3.2045979E+01
 4.0652504E+00  3.2095253E+01
 4.0767503E+00  3.2198112E+01
 4.0882502E+00  3.2424156E+01
 4.0997500E+00  3.2606155E+01
 4.1112504E+00  3.2508762E+01
 4.1227503E+00  3.2475552E+01
 4.1342502E+00  3.2358822E+01
 4.1457500E+00  3.2582916E+01
 4.1572504E+00  3.2513493E+01
 4.1687503E+00  3.2475250E+01
 4.1802502E+00  3.2267818E+01
 4.1917500E+00  3.2259396E+01
 4.2032504E+00  3.2187622E+01
 4.2147503E+00  3.2157780E+01
 4.2262502E+00  3.2165173E+01
 4.2377501E+00  3.2224545E+01
 4.2492504E+00  3.2167358E+01
 4.2607503E+00  3.2147358E+01
 4.2722502E+00  3.2125427E+01
 4.2837501E+00  3.2278233E+01
 4.2952504E+00  3.2365562E+01
 4.3067503E+00  3.2599064E+01
 4.3182502E+00  3.2718651E+01
 4.3297501E+00  3.2778431E+01
 4.3412504E+00  3.2775829E+01
 4.3527503E+00  3.2744884E+01
 4.3642502E+00  3.2734425E+01
 4.3757501E+00  3.2654636E+01
 4.3872504E+00  3.2625725E+01
 4.3987503E+00  3.2569546E+01
 4.4102502E+00  3.2496109E+01
 4.4217501E+00  3.2397266E+01
 4.4332504E+00  3.2208565E+01
 4.4447503E+00  3.2104137E+01
 4.4562502E+00  3.2080811E+01
 4.4677501E+00  3.2211735E+01
 4.4792504E+00  3.2484161E+01
 4.4907503E+00  3.2532101E+01
 4.5022502E+00  3.2469421E+01
 4.5137501E+00  3.2331882E+01
 4.5252504E+00  3.2288204E+01
 4.5367503E+00  3.2265820E+01
 4.5482502E+00  3.2228024E+01
 4.5597501E+00  3.2279018E+01
 4.5712504E+00  3.2450722E+01
 4.5827503E+00  3.2539108E+01
 4.5942502E+00  3.2538368E+01
 4.6057501E+00  3.2455929E+01
 4.6172504E+00  3.2368725E+01
 4.6287503E+00  3.2385395E+01
 4.6402502E+00  3.2416492E+01
 4.6517501E+00  3.2480431E+01
 4.6632504E+00  3.2559387E+01
 4.6747503E+00  3.2613354E+01
 4.6862502E+00  3.2696156E+01
 4.6977501E+00  3.2762314E+01
 4.7092505E+00  3.2822247E+01
 4.7207503E+00  3.2763550E+01
 4.7322502E+00  3.2514393E+01
 4.7437501E+00  3.2377167E+01
 4.7552505E+00  3.2265049E+01
 4.7667503E+00  3.2299870E+01
 4.7782502E+00  3.2141777E+01
 4.7897501E+00  3.2101727E+01
 4.8012505E+00  3.1993065E+01
 4.8127503E+00  3.2067154E+01
 4.8242502E+00  3.2075073E+01
 4.8357501E+00  3.2224609E+01
 4.8472505E+00  3.2355949E+01
 4.8587503E+00  3.2513165E+01
 4.8702502E+00  3.2570839E+01
 4.8817501E+00  3.2457409E+01
 4.8932505E+00  3.2510765E+01
 4.9047503E+00  3.2487103E+01
 4.9162502E+00  3.2648247E+01
 4.9277501E+00  3.2577644E+01
 4.9392505E+00  3.2597893E+01
 4.9507504E+00  3.2589252E+01
 4.9622502E+00  3.2646111E+01
 4.9737501E+00  3.2741234E+01
 4.9852505E+00  3.2786098E+01
 4.9967504E+00  3.2915421E+01
 5.0082502E+00  3.2972298E+01
 5.0197501E+00  3.3079399E+01
 5.0312505E+00  3.3083218E+01
 5.0427504E+00  3.3167976E+01
 5.0542502E+00  3.3248089E+01
 5.0657501E+00  3.3341049E+01
 5.0772505E+00  3.3341370E+01
 5.0887504E+00  3.3260532E+01
 5.1002502E+00  3.3274612E+01
 5.1117501E+00  3.3187836E+01
 5.1232505E+00  3.3188850E+01
 5.1347504E+00  3.3240536E+01
 5.1462502E+00  3.3419506E+01
 5.1577501E+00  3.3629559E+01
 5.1692505E+00  3.3826027E+01
 5.1807504E+00  3.3886917E+01
 5.1922503E+00  3.3964710E+01
 5.2037501E+00  3.3876446E+01
 5.2152505E+00  3.3852676E+01
 5.2267504E+00  3.3851326E+01
 5.2382503E+00  3.3853958E+01
 5.2497501E+00  3.3877502E+01
 5.2612505E+00  3.3915989E+01
 5.2727504E+00  3.3919411E+01
 5.2842503E+00  3.4010334E+01
 5.2957501E+00  3.4016174E+01
 5.3072500E+00  3.4083282E+01
 5.3187504E+00  3.4162937E+01
 5.3302503E+00  3.4047188E+01
 5.3417501E+00  3.4058083E+01
 5.3532500E+00  3.3975990E+01
 5.3647504E+00  3.4023628E+01
 5.3762503E+00  3.4151051E+01
 5.3877501E+00  3.4303944E+01
 5.3992500E+00  3.4501198E+01
 5.4107504E+00  3.4447247E+01
 5.4222503E+00  3.4500378E+01
 5.4337502E+00  3.4429081E+01
 5.4452500E+00  3.4544640E+01
 5.4567504E+00  3.4619923E+01
 5.4682503E+00  3.4736431E+01
 5.4797502E+00  3.4762222E+01
 5.4912500E+00  3.4687172E+01
 5.5027504E+00  3.4628620E+01
 5.5142503E+00  3.4621826E+01
 5.5257502E+00  3.4502003E+01
 5.5372500E+00  3.4512436E+01
 5.5487504E+00  3.4485798E+01
 5.5602503E+00  3.4560024E+01
 5.5717502E+00  3.4667423E+01
 5.5832500E+00  3.4774048E+01
 5.5947504E+00  3.4963341E+01
 5.6062503E+00  3.5097507E+01
 5.6177502E+00  3.5107109E+01
 5.6292500E+00  3.5119030E+01
 5.6407504E+00  3.4921051E+01
 5.6522503E+00  3.4825607E+01
 5.6637502E+00  3.4823227E+01
 5.6752501E+00  3.4981640E+01
 5.6867504E+00  3.5180462E+01
 5.6982503E+00  3.5160400E+01
 5.7097502E+00  3.5346199E+01
 5.7212501E+00  3.5403545E+01
 5.7327504E+00  3.5457329E+01
 5.7442503E+00  3.5305378E+01
 5.7557502E+00  3.5107910E+01
 5.7672501E+00  3.5041267E+01
 5.7787504E+00  3.4954220E+01
 5.7902503E+00  3.5027866E+01
 5.8017502E+00  3.4963589E+01
 5.8132501E+00  3.5031094E+01
 5.8247504E+00  3.5034119E+01
 5.8362503E+00  3.5116467E+01
 5.8477502E+00  3.5195839E+01
 5.8592501E+00  3.5194744E+01
 5.8707504E+00  3.5236458E+01
 5.8822503E+00  3.5330620E+01
 5.8937502E+00  3.5456047E+01
 5.9052501E+00  3.5658775E+01
 5.9167504E+00  3.5731388E+01
 5.9282503E+00  3.5910557E+01
 5.9397502E+00  3.6246323E+01
 5.9512501E+00  3.6884411E+01
 5.9627504E+00  3.7402428E+01
 5.9742503E+00  3.7812065E+01
 5.9857502E+00  3.8010239E+01
 5.9972501E+00  3.7966721E+01
 6.0087504E+00  3.7676090E+01
 6.0202503E+00  3.7217533E+01
 6.0317502E+00  3.6837318E+01
 6.0432501E+00  3.6552734E+01
 6.0547504E+00  3.6339180E+01
 6.0662503E+00  3.6363190E+01
 6.0777502E+00  3.6350285E+01
 6.0892501E+00  3.6521996E+01
 6.1007504E+00  3.6411098E+01
 6.1122503E+00  3.6518631E+01
 6.1237502E+00  3.6399071E+01
 6.1352501E+00  3.6402729E+01
 6.1467505E+00  3.6357712E+01
 6.1582503E+00  3.6432213E+01
 6.1697502E+00  3.6536201E+01
 6.1812501E+00  3.6548248E+01
 6.1927505E+00  3.6476677E+01
 6.2042503E+00  3.6365303E+01
 6.2157502E+00  3.6353111E+01
 6.2272501E+00  3.6382240E+01
 6.2387505E+00  3.6460556E+01
 6.2502503E+00  3.6602852E+01
 6.2617502E+00  3.6833046E+01
 6.2732501E+00  3.7056374E+01
 6.2847505E+00  3.7296776E+01
 6.2962503E+00  3.7319202E+01
 6.3077502E+00  3.7352711E+01
 6.3192501E+00  3.7402008E+01
 6.3307505E+00  3.7589840E+01
 6.3422503E+00  3.7774128E+01
 6.3537502E+00  3.7812927E+01
 6.3652501E+00  3.7813206E+01
 6.3767505E+00  3.7713642E+01
 6.3882504E+00  3.7752750E+01
 6.3997502E+00  3.7770363E+01
 6.4112501E+00  3.7852898E+01
 6.4227505E+00  3.7952209E+01
 6.4342504E+00  3.8035500E+01
 6.4457502E+00  3.8176659E+01
 6.4572501E+00  3.8246529E+01
 6.4687505E+00  3.8326706E+01
 6.4802504E+00  3.8421654E+01
 6.4917502E+00  3.8495274E+01
 6.5032501E+00  3.8678127E+01
 6.5147505E+00  3.8830734E+01
 6.5262504E+00  3.8931355E+01
 6.5377502E+00  3.8994019E+01
 6.5492501E+00  3.8947716E+01
 6.5607505E+00  3.8878922E+01
 6.5722504E+00  3.8910027E+01
 6.5837502E+00  3.9044514E+01
 6.5952501E+00  3.9210644E+01
 6.6067505E+00  3.9420170E+01
 6.6182504E+00  3.9503799E+01
 6.6297503E+00  3.9624012E+01
 6.6412501E+00  3.9619781E+01
 6.6527505E+00  3.9633251E+01
 6.6642504E+00  3.9780605E+01
 6.6757503E+00  3.9854397E+01
 6.6872501E+00  3.9933613E+01
 6.6987505E+00  3.9926212E+01
 6.7102504E+00  3.9995129E+01
 6.7217503E+00  4.0052940E+01
 6.7332501E+00  4.0119831E+01
 6.7447505E+00  4.0248158E+01
 6.7562504E+00  4.0395641E+01
 6.7677503E+00  4.0558147E+01
 6.7792501E+00  4.0677689E+01
 6.7907505E+00  4.0739674E+01
 6.8022504E+00  4.0911537E+01
 6.8137503E+00  4.1034222E+01
 6.8252501E+00  4.1198624E+01
 6.8367505E+00  4.1216797E+01
 6.8482504E+00  4.1375202E+01
 6.8597503E+00  4.1354755E+01
 6.8712502E+00  4.1404507E+01
 6.8827505E+00  4.1309246E+01
 6.8942504E+00  4.1329807E+01
 6.9057503E+00  4.1408031E+01
 6.9172502E+00  4.1450249E+01
 6.9287505E+00  4.1567421E+01
 6.9402504E+00  4.1660141E+01
 6.9517503E+00  4.1733505E+01
 6.9632502E+00  4.1730659E+01
 6.9747505E+00  4.1808041E+01
 6.9862504E+00  4.1757668E+01
 6.9977503E+00  4.1826691E+01
 7.0092502E+00  4.1864380E+01
 7.0207505E+00  4.2030647E+01
 7.0322504E+00  4.2109566E+01
 7.0437503E+00  4.2132172E+01
 7.0552502E+00  4.2185219E+01
 7.0667505E+00  4.2301956E+01
 7.0782504E+00  4.2338161E+01
 7.0897503E+00  4.2346226E+01
 7.1012502E+00  4.2408237E+01
 7.1127505E+00  4.2471565E+01
 7.1242504E+00  4.2626553E+01
 7.1357503E+00  4.2570477E+01
 7.1472502E+00  4.2681370E+01
 7.1587505E+00  4.2734940E+01
 7.1702504E+00  4.2796612E+01
 7.1817503E+00  4.2752670E+01
 7.1932502E+00  4.2752247E+01
 7.2047505E+00  4.2714981E+01
 7.2162504E+00  4.2814854E+01
 7.2277503E+00  4.2824574E+01
 7.2392502E+00  4.3069317E+01
 7.2507505E+00  4.3123074E+01
 7.2622504E+00  4.3221268E+01
 7.2737503E+00  4.3209686E+01
 7.2852502E+00  4.3299309E+01
 7.2967505E+00  4.3206764E+01
 7.3082504E+00  4.3136063E+01
 7.3197503E+00  4.3128651E+01
 7.3312502E+00  4.3177025E+01
 7.3427505E+00  4.3291752E+01
 7.3542504E+00  4.3282269E+01
 7.3657503E+00  4.3342232E+01
 7.3772502E+00  4.3403511E+01
 7.3887506E+00  4.3432732E+01
 7.4002504E+00  4.3440075E+01
 7.4117503E+00  4.3506763E+01
 7.4232502E+00  4.3463581E+01
 7.4347506E+00  4.3503380E+01
 7.4462504E+00  4.3411808E+01
 7.4577503E+00  4.3444443E+01
 7.4692502E+00  4.3436886E+01
 7.4807506E+00  4.3534504E+01
 7.4922504E+00  4.3634472E+01
 7.5037503E+00  4.3829422E+01
 7.5152502E+00  4.3861507E+01
 7.5267506E+00  4.3904343E+01
 7.5382504E+00  4.3845242E+01
 7.5497503E+00  4.3829090E+01
 7.5612502E+00  4.3911510E+01
 7.5727506E+00  4.3957054E+01
 7.5842505E+00  4.4018639E+01
 7.5957503E+00  4.3967823E+01
 7.6072502E+00  4.3961044E+01
 7.6187506E+00  4.4002045E+01
 7.6302505E+00  4.3988235E+01
 7.6417503E+00  4.4093056E+01
 7.6532502E+00  4.4077267E+01
 7.6647506E+00  4.4006622E+01
 7.6762505E+00  4.3912823E+01
 7.6877503E+00  4.3849693E+01
 7.6992502E+00  4.3919418E+01
 7.7107506E+00  4.3876369E+01
 7.7222505E+00  4.3877525E+01
 7.7337503E+00  4.3953091E+01
 7.7452502E+00  4.4024078E+01
 7.7567506E+00  4.4019745E+01
 7.7682505E+00  4.3976112E+01
 7.7797503E+00  4.3831573E+01
 7.7912502E+00  4.3732140E+01
 7.8027506E+00  4.3686199E+01
 7.8142505E+00  4.3607468E+01
 7.8257504E+00  4.3641399E+01
 7.8372502E+00  4.3579544E+01
 7.8487506E+00  4.3555115E+01
 7.8602505E+00  4.3534004E+01
 7.8717504E+00  4.3450207E+01
 7.8832502E+00  4.3408936E+01
 7.8947506E+00  4.3391994E+01
 7.9062505E+00  4.3381779E+01
 7.9177504E+00  4.3454018E+01
 7.9292502E+00  4.3434013E+01
 7.9407506E+00  4.3452759E+01
 7.9522505E+00  4.3371948E+01
 7.9637504E+00  4.3212360E+01
 7.9752502E+00  4.3090439E+01
 7.9867506E+00  4.3004078E+01
 7.9982505E+00  4.2918510E+01
 8.0097504E+00  4.2757725E+01
 8.0212507E+00  4.2571560E+01
 8.0327501E+00  4.2496151E+01
 8.0442505E+00  4.2505482E+01
 8.0557508E+00  4.2578499E+01
 8.0672503E+00  4.2612083E+01
 8.0787506E+00  4.2535221E+01
 8.0902500E+00  4.2508472E+01
 8.1017504E+00  4.2415089E+01
 8.1132507E+00  4.2368645E+01
 8.1247501E+00  4.2214680E+01
 8.1362505E+00  4.2112701E+01
 8.1477509E+00  4.1980762E+01
 8.1592503E+00  4.1879616E+01
 8.1707506E+00  4.1753094E+01
 8.1822500E+00  4.1648361E+01
 8.1937504E+00  4.1540710E+01
 8.2052507E+00  4.1442760E+01
 8.2167501E+00  4.1230019E+01
 8.2282505E+00  4.1014465E+01
 8.2397509E+00  4.0765816E+01
 8.2512503E+00  4.0668308E+01
 8.2627506E+00  4.0520447E+01
 8.2742500E+00  4.0380642E+01
 8.2857504E+00  4.0204483E+01
 8.2972507E+00  4.0087090E+01
 8.3087502E+00  4.0035080E+01
 8.3202505E+00  3.9989140E+01
 8.3317509E+00  3.9900749E+01
 8.3432503E+00  3.9727600E+01
 8.3547506E+00  3.9615067E+01
 8.3662500E+00  3.9437214E+01
 8.3777504E+00  3.9263416E+01
 8.3892508E+00  3.9083218E+01
 8.4007502E+00  3.8902088E+01
 8.4122505E+00  3.8784012E+01
 8.4237509E+00  3.8553085E+01
 8.4352503E+00  3.8287777E+01
 8.4467506E+00  3.8136658E+01
 8.4582500E+00  3.7951885E+01
 8.4697504E+00  3.7904266E+01
 8.4812508E+00  3.7769089E+01
 8.4927502E+00  3.7708973E+01
 8.5042505E+00  3.7670555E+01
 8.5157509E+00  3.7590351E+01
 8.5272503E+00  3.7347179E+01
 8.5387506E+00  3.7066967E+01
 8.5502501E+00  3.6739849E+01
 8.5617504E+00  3.6510719E+01
 8.5732508E+00  3.6239346E+01
 8.5847502E+00  3.6008789E+01
 8.5962505E+00  3.5789841E+01
 8.6077509E+00  3.5613205E+01
 8.6192503E+00  3.5595539E+01
 8.6307507E+00  3.5514668E+01
 8.6422501E+00  3.5437363E+01
 8.6537504E+00  3.5171085E+01
 8.6652508E+00  3.4986977E+01
 8.6767502E+00  3.4909924E+01
 8.6882505E+00  3.4780392E+01
 8.6997509E+00  3.4635647E+01
 8.7112503E+00  3.4371002E+01
 8.7227507E+00  3.4176304E+01
 8.7342501E+00  3.3952221E+01
 8.7457504E+00  3.3739689E+01
 8.7572508E+00  3.3531738E+01
 8.7687502E+00  3.3394859E+01
 8.7802505E+00  3.3296329E+01
 8.7917500E+00  3.3206856E+01
 8.8032503E+00  3.3166878E+01
 8.8147507E+00  3.3068924E+01
 8.8262501E+00  3.2872566E+01
 8.8377504E+00  3.2719872E+01
 8.8492508E+00  3.2552517E+01
 8.8607502E+00  3.2540726E+01
 8.8722506E+00  3.2368275E+01
 8.8837500E+00  3.2129639E+01
 8.8952503E+00  3.1784103E+01
 8.9067507E+00  3.1507444E+01
 8.9182501E+00  3.1286568E+01
 8.9297504E+00  3.1131107E+01
 8.9412508E+00  3.0971241E+01
 8.9527502E+00  3.0832911E+01
 8.9642506E+00  3.0716059E+01
 8.9757500E+00  3.0576433E+01
 8.9872503E+00  3.0354656E+01
 8.9987507E+00  3.0172688E+01
 9.0102501E+00  2.9965086E+01
 9.0217505E+00  2.9935873E+01
 9.0332508E+00  2.9861511E+01
 9.0447502E+00  2.9791918E+01
 9.0562506E+00  2.9668766E+01
 9.0677500E+00  2.9488239E+01
 9.0792503E+00  2.9391703E+01
 9.0907507E+00  2.9256134E+01
 9.1022501E+00  2.9119308E+01
 9.1137505E+00  2.9009439E+01
 9.1252508E+00  2.8920496E+01
 9.1367502E+00  2.8863560E+01
 9.1482506E+00  2.8852123E+01
 9.1597500E+00  2.8745897E+01
 9.1712503E+00  2.8589071E+01
 9.1827507E+00  2.8320547E+01
 9.1942501E+00  2.8163738E+01
 9.2057505E+00  2.7970751E+01
 9.2172508E+00  2.7831812E+01
 9.2287502E+00  2.7652802E+01
 9.2402506E+00  2.7596807E+01
 9.2517500E+00  2.7519855E+01
 9.2632504E+00  2.7448393E+01
 9.2747507E+00  2.7395966E+01
 9.2862501E+00  2.7332293E+01
 9.2977505E+00  2.7278913E+01
 9.3092508E+00  2.7208609E+01
 9.3207502E+00  2.7120049E+01
 9.3322506E+00  2.7064192E+01
 9.3437500E+00  2.6922842E+01
 9.3552504E+00  2.6782003E+01
 9.3667507E+00  2.6633005E+01
 9.3782501E+00  2.6562975E+01
 9.3897505E+00  2.6486988E+01
 9.4012508E+00  2.6457630E+01
 9.4127502E+00  2.6426477E+01
 9.4242506E+00  2.6440489E+01
 9.4357500E+00  2.6402056E+01
 9.4472504E+00  2.6260698E+01
 9.4587507E+00  2.6176638E+01
 9.4702501E+00  2.6059677E+01
 9.4817505E+00  2.6078756E+01
 9.4932508E+00  2.5968475E+01
 9.5047503E+00  2.5900560E+01
 9.5162506E+00  2.5839811E+01
 9.5277500E+00  2.5859804E+01
 9.5392504E+00  2.5802750E+01
 9.5507507E+00  2.5708202E+01
 9.5622501E+00  2.5572111E+01
 9.5737505E+00  2.5535479E+01
 9.5852509E+00  2.5430103E+01
 9.5967503E+00  2.5447378E+01
 9.6082506E+00  2.5413252E+01
 9.6197500E+00  2.5481215E+01
 9.6312504E+00  2.5440191E+01
 9.6427507E+00  2.5410257E+01
 9.6542501E+00  2.5297447E+01
 9.6657505E+00  2.5182152E+01
 9.6772509E+00  2.5030138E+01
 9.6887503E+00  2.4940739E+01
 9.7002506E+00  2.4863539E+01
 9.7117500E+00  2.4842861E+01
 9.7232504E+00  2.4779577E+01
 9.7347507E+00  2.4708385E+01
 9.7462502E+00  2.4638748E+01
 9.7577505E+00  2.4530397E+01
 9.7692509E+00  2.4517744E+01
 9.7807503E+00  2.4476242E+01
 9.7922506E+00  2.4504856E+01
 9.8037500E+00  2.4481297E+01
 9.8152504E+00  2.4454388E+01
 9.8267508E+00  2.4348291E+01
 9.8382502E+00  2.4329311E+01
 9.8497505E+00  2.4302141E+01
 9.8612509E+00  2.4340389E+01
 9.8727503E+00  2.4284847E+01
 9.8842506E+00  2.4234571E+01
 9.8957500E+00  2.4223858E+01
 9.9072504E+00  2.4239754E+01
 9.9187508E+00  2.4210621E+01
 9.9302502E+00  2.4090380E+01
 9.9417505E+00  2.3944878E+01
 9.9532509E+00  2.3867048E+01
 9.9647503E+00  2.3819910E+01
 9.9762506E+00  2.3799385E+01
 9.9877501E+00  2.3721581E+01
 9.9992504E+00  2.3718071E+01
 1.0010751E+01  2.3606319E+01
 1.0022250E+01  2.3569881E+01
 1.0033751E+01  2.3515316E+01
 1.0045251E+01  2.3495029E+01
 1.0056750E+01  2.3486063E+01
 1.0068251E+01  2.3457245E+01
 1.0079750E+01  2.3408154E+01
 1.0091250E+01  2.3400658E+01
 1.0102751E+01  2.3353550E+01
 1.0114250E+01  2.3336140E+01
 1.0125751E+01  2.3310909E+01
 1.0137251E+01  2.3288952E+01
 1.0148750E+01  2.3317274E+01
 1.0160251E+01  2.3295788E+01
 1.0171750E+01  2.3290916E+01
 1.0183250E+01  2.3341259E+01
 1.0194751E+01  2.3315142E+01
 1.0206250E+01  2.3375385E+01
 1.0217751E+01  2.3403343E+01
 1.0229251E+01  2.3395674E+01
 1.0240750E+01  2.3311886E+01
 1.0252251E+01  2.3172586E+01
 1.0263750E+01  2.3135138E+01
 1.0275250E+01  2.3048716E+01
 1.0286751E+01  2.3029068E+01
 1.0298250E+01  2.2954845E+01
 1.0309751E+01  2.2937710E+01
 1.0321251E+01  2.2861759E+01
 1.0332750E+01  2.2851933E+01
 1.0344251E+01  2.2844028E+01
 1.0355750E+01  2.2855528E+01
 1.0367250E+01  2.2822458E+01
 1.0378751E+01  2.2813686E+01
 1.0390250E+01  2.2811424E+01
 1.0401751E+01  2.2866865E+01
 1.0413251E+01  2.2939144E+01
 1.0424750E+01  2.2938789E+01
 1.0436251E+01  2.2934143E+01
 1.0447750E+01  2.2871099E+01
 1.0459250E+01  2.2877077E+01
 1.0470751E+01  2.2923172E+01
 1.0482250E+01  2.2969913E+01
 1.0493751E+01  2.3000731E+01
 1.0505251E+01  2.2918304E+01
 1.0516750E+01  2.2895248E+01
 1.0528251E+01  2.2852598E+01
 1.0539750E+01  2.2876945E+01
 1.0551250E+01  2.2842413E+01
 1.0562751E+01  2.2819113E+01
 1.0574250E+01  2.2706993E+01
 1.0585751E+01  2.2650465E+01
 1.0597251E+01  2.2544748E+01
 1.0608750E+01  2.2560919E+01
 1.0620251E+01  2.2565218E+01
 1.0631750E+01  2.2601349E+01
 1.0643250E+01  2.2639143E+01
 1.0654751E+01  2.2622225E+01
 1.0666250E+01  2.2652765E+01
 1.0677751E+01  2.2588335E+01
 1.0689251E+01  2.2568554E+01
 1.0700750E+01  2.2521284E+01
 1.0712251E+01  2.2468178E+01
 1.0723750E+01  2.2427830E+01
 1.0735250E+01  2.2349094E+01
 1.0746751E+01  2.2346966E+01
 1.0758250E+01  2.2338758E+01
 1.0769751E+01  2.2425673E+01
 1.0781251E+01  2.2448597E+01
 1.0792750E+01  2.2466782E+01
 1.0804251E+01  2.2435207E+01
 1.0815750E+01  2.2435291E+01
 1.0827250E+01  2.2427473E+01
 1.0838751E+01  2.2412729E+01
 1.0850250E+01  2.2399122E+01
 1.0861751E+01  2.2428850E+01
 1.0873251E+01  2.2459534E+01
 1.0884750E+01  2.2447922E+01
 1.0896251E+01  2.2366762E+01
 1.0907750E+01  2.2316662E+01
 1.0919250E+01  2.2307779E+01
 1.0930751E+01  2.2279579E+01
 1.0942250E+01  2.2214615E+01
 1.0953751E+01  2.2173092E+01
 1.0965251E+01  2.2157755E+01
 1.0976750E+01  2.2199581E+01
 1.0988251E+01  2.2196859E+01
 1.0999750E+01  2.2166925E+01
 1.1011250E+01  2.2103626E+01
 1.1022751E+01  2.2111176E+01
 1.1034250E+01  2.2116663E+01
 1.1045751E+01  2.2132442E+01
 1.1057251E+01  2.2100594E+01
 1.1068750E+01  2.2126091E+01
 1.1080251E+01  2.2130415E+01
 1.1091750E+01  2.2154646E+01
 1.1103251E+01  2.2146694E+01
 1.1114751E+01  2.2099497E+01
 1.1126250E+01  2.2077312E+01
 1.1137751E+01  2.2038963E+01
 1.1149251E+01  2.2013042E+01
 1.1160750E+01  2.1962641E+01
 1.1172251E+01  2.1910877E+01
 1.1183750E+01  2.1877481E+01
 1.1195251E+01  2.1828074E+01
 1.1206751E+01  2.1893345E+01
 1.1218250E+01  2.1939253E+01
 1.1229751E+01  2.1944281E+01
 1.1241251E+01  2.1947136E+01
 1.1252750E+01  2.1986324E+01
 1.1264251E+01  2.2017818E+01
 1.1275750E+01  2.2012438E+01
 1.1287251E+01  2.1959305E+01
 1.1298751E+01  2.1995899E+01
 1.1310250E+01  2.1996290E+01
 1.1321751E+01  2.2061390E+01
 1.1333251E+01  2.2054968E+01
 1.1344750E+01  2.2077597E+01
 1.1356251E+01  2.2077881E+01
 1.1367750E+01  2.2161667E+01
 1.1379251E+01  2.2193913E+01
 1.1390751E+01  2.2227270E+01
 1.1402250E+01  2.2274632E+01
 1.1413751E+01  2.2253962E+01
 1.1425251E+01  2.2230631E+01
 1.1436750E+01  2.2143965E+01
 1.1448251E+01  2.2111923E+01
 1.1459750E+01  2.2080517E+01
 1.1471251E+01  2.2046844E+01
 1.1482751E+01  2.2001978E+01
 1.1494250E+01  2.2004969E+01
 1.1505751E+01  2.1978554E+01
 1.1517251E+01  2.2036987E+01
 1.1528750E+01  2.2172209E+01
 1.1540251E+01  2.2345547E+01
 1.1551750E+01  2.2565834E+01
 1.1563251E+01  2.2723679E+01
 1.1574751E+01  2.2883644E+01
 1.1586250E+01  2.2970709E+01
 1.1597751E+01  2.2973944E+01
 1.1609251E+01  2.2873528E+01
 1.1620750E+01  2.2702822E+01
 1.1632251E+01  2.2568468E+01
 1.1643750E+01  2.2403008E+01
 1.1655251E+01  2.2295855E+01
 1.1666751E+01  2.2104561E+01
 1.1678250E+01  2.1995338E+01
 1.1689751E+01  2.1898542E+01
 1.1701251E+01  2.1845980E+01
 1.1712750E+01  2.1842319E+01
 1.1724251E+01  2.1823059E+01
 1.1735750E+01  2.1840599E+01
 1.1747251E+01  2.1875576E+01
 1.1758751E+01  2.1947081E+01
 1.1770250E+01  2.1926620E+01
 1.1781751E+01  2.1926855E+01
 1.1793251E+01  2.1887600E+01
 1.1804750E+01  2.1888857E+01
 1.1816251E+01  2.1835686E+01
 1.1827750E+01  2.1781628E+01
 1.1839251E+01  2.1790630E+01
 1.1850751E+01  2.1774975E+01
 1.1862250E+01  2.1826544E+01
 1.1873751E+01  2.1812855E+01
 1.1885251E+01  2.1880327E+01
 1.1896750E+01  2.1892324E+01
 1.1908251E+01  2.2006060E+01
 1.1919750E+01  2.2070107E+01
 1.1931251E+01  2.2152889E+01
 1.1942751E+01  2.2163012E+01
 1.1954250E+01  2.2161438E+01
 1.1965751E+01  2.2150677E+01
 1.1977251E+01  2.2078470E+01
 1.1988750E+01  2.2041307E+01
 1.2000251E+01  2.2004091E+01
 1.2011750E+01  2.1994404E+01
 1.2023251E+01  2.2044737E+01
 1.2034751E+01  2.2101990E+01
 1.2046250E+01  2.2180738E+01
 1.2057751E+01  2.2206007E+01
 1.2069251E+01  2.2219299E+01
 1.2080750E+01  2.2321051E+01
 1.2092251E+01  2.2340891E+01
 1.2103750E+01  2.2430490E+01
 1.2115251E+01  2.2318100E+01
 1.2126751E+01  2.2283163E+01
 1.2138250E+01  2.2163706E+01
 1.2149751E+01  2.2141802E+01
 1.2161251E+01  2.2068884E+01
 1.2172750E+01  2.2026827E+01
 1.2184251E+01  2.1996140E+01
 1.2195750E+01  2.2046780E+01
 1.2207251E+01  2.2028399E+01
 1.2218751E+01  2.2042587E+01
 1.2230250E+01  2.1997688E+01
 1.2241751E+01  2.1994471E+01
 1.2253251E+01  2.1972296E+01
 1.2264750E+01  2.1963161E+01
 1.2276251E+01  2.1975399E+01
 1.2287750E+01  2.2017126E+01
 1.2299251E+01  2.2061529E+01
 1.2310751E+01  2.2163162E+01
 1.2322250E+01  2.2130039E+01
 1.2333751E+01  2.2139814E+01
 1.2345250E+01  2.2047068E+01
 1.2356750E+01  2.2096167E+01
 1.2368251E+01  2.2067188E+01
 1.2379750E+01  2.2100721E+01
 1.2391251E+01  2.2103813E+01
 1.2402751E+01  2.2079758E+01
 1.2414250E+01  2.2057066E+01
 1.2425751E+01  2.2022276E+01
 1.2437250E+01  2.2045975E+01
 1.2448750E+01  2.2047535E+01
 1.2460251E+01  2.2050312E+01
 1.2471750E+01  2.2006239E+01
 1.2483251E+01  2.2051910E+01
 1.2494751E+01  2.2035049E+01
 1.2506250E+01  2.2087046E+01
 1.2517751E+01  2.2068735E+01
 1.2529250E+01  2.2170538E+01
 1.2540751E+01  2.2246468E+01
 1.2552251E+01  2.2329033E+01
 1.2563750E+01  2.2333996E+01
 1.2575251E+01  2.2312103E+01
 1.2586751E+01  2.2238165E+01
 1.2598250E+01  2.2213152E+01
 1.2609751E+01  2.2242044E+01
 1.2621250E+01  2.2289822E+01
 1.2632751E+01  2.2299583E+01
 1.2644251E+01  2.2225351E+01
 1.2655750E+01  2.2211546E+01
 1.2667251E+01  2.2256086E+01
 1.2678751E+01  2.2362661E+01
 1.2690250E+01  2.2498098E+01
 1.2701751E+01  2.2583082E+01
 1.2713250E+01  2.2615969E+01
 1.2724751E+01  2.2577150E+01
 1.2736251E+01  2.2514418E+01
 1.2747750E+01  2.2424545E+01
 1.2759251E+01  2.2346251E+01
 1.2770751E+01  2.2299984E+01
 1.2782250E+01  2.2388414E+01
 1.2793751E+01  2.2412760E+01
 1.2805250E+01  2.2530891E+01
 1.2816751E+01  2.2584791E+01
 1.2828251E+01  2.2739309E+01
 1.2839750E+01  2.2835682E+01
 1.2851251E+01  2.2913933E+01
 1.2862751E+01  2.2913961E+01
 1.2874250E+01  2.2909019E+01
 1.2885751E+01  2.2921747E+01
 1.2897250E+01  2.2943254E+01
 1.2908751E+01  2.2976242E+01
 1.2920251E+01  2.3009970E+01
 1.2931750E+01  2.3090845E+01
 1.2943251E+01  2.3161972E+01
 1.2954751E+01  2.3193186E+01
 1.2966250E+01  2.3220047E+01
 1.2977751E+01  2.3319120E+01
 1.2989250E+01  2.3385426E+01
 1.3000751E+01  2.3505669E+01
 1.3012251E+01  2.3547396E+01
 1.3023750E+01  2.3656734E+01
 1.3035251E+01  2.3740290E+01
 1.3046751E+01  2.3810581E+01
 1.3058250E+01  2.3926252E+01
 1.3069751E+01  2.3972183E+01
 1.3081250E+01  2.4067579E+01
 1.3092751E+01  2.4124155E+01
 1.3104251E+01  2.4272385E+01
 1.3115750E+01  2.4404182E+01
 1.3127251E+01  2.4604456E+01
 1.3138751E+01  2.4687357E+01
 1.3150250E+01  2.4803709E+01
 1.3161751E+01  2.4847769E+01
 1.3173250E+01  2.4953588E+01
 1.3184751E+01  2.5042580E+01
 1.3196251E+01  2.5184780E+01
 1.3207750E+01  2.5370291E+01
 1.3219251E+01  2.5554577E+01
 1.3230751E+01  2.5685347E+01
 1.3242250E+01  2.5775019E+01
 1.3253751E+01  2.5802538E+01
 1.3265250E+01  2.5932135E+01
 1.3276751E+01  2.6036318E+01
 1.3288251E+01  2.6245575E+01
 1.3299750E+01  2.6402584E+01
 1.3311251E+01  2.6560877E+01
 1.3322751E+01  2.6730637E+01
 1.3334250E+01  2.6867321E+01
 1.3345751E+01  2.7009403E+01
 1.3357250E+01  2.7114882E+01
 1.3368751E+01  2.7207315E+01
 1.3380251E+01  2.7340849E+01
 1.3391750E+01  2.7452591E+01
 1.3403251E+01  2.7638855E+01
 1.3414751E+01  2.7783834E+01
 1.3426250E+01  2.7948977E+01
 1.3437751E+01  2.8037304E+01
 1.3449250E+01  2.8150068E+01
 1.3460751E+01  2.8208958E+01
 1.3472251E+01  2.8321577E+01
 1.3483750E+01  2.8441446E+01
 1.3495251E+01  2.8620707E+01
 1.3506751E+01  2.8810019E+01
 1.3518250E+01  2.8973131E+01
 1.3529751E+01  2.9117334E+01
 1.3541250E+01  2.9223192E+01
 1.3552751E+01  2.9379776E+01
 1.3564251E+01  2.9427853E+01
 1.3575750E+01  2.9525446E+01
 1.3587251E+01  2.9554974E+01
 1.3598751E+01  2.9576811E+01
 1.3610250E+01  2.9493240E+01
 1.3621751E+01  2.9397066E+01
 1.3633250E+01  2.9337175E+01
 1.3644751E+01  2.9294062E+01
 1.3656251E+01  2.9256451E+01
 1.3667750E+01  2.9254902E+01
 1.3679251E+01  2.9214380E+01
 1.3690751E+01  2.9149052E+01
 1.3702250E+01  2.9054518E+01
 1.3713751E+01  2.8995152E+01
 1.3725250E+01  2.8969788E+01
 1.3736751E+01  2.8965509E+01
 1.3748251E+01  2.8944893E+01
 1.3759750E+01  2.8893776E+01
 1.3771251E+01  2.8883184E+01
 1.3782751E+01  2.8856247E+01
 1.3794250E+01  2.8800934E+01
 1.3805751E+01  2.8741716E+01
 1.3817250E+01  2.8680969E+01
 1.3828751E+01  2.8648935E+01
 1.3840251E+01  2.8548965E+01
 1.3851750E+01  2.8473856E+01
 1.3863251E+01  2.8448555E+01
 1.3874751E+01  2.8495506E+01
 1.3886250E+01  2.8619314E+01
 1.3897751E+01  2.8858822E+01
 1.3909250E+01  2.9117029E+01
 1.3920751E+01  2.9414272E+01
 1.3932251E+01  2.9689209E+01
 1.3943750E+01  2.9964790E+01
 1.3955251E+01  3.0047537E+01
 1.3966751E+01  2.9976517E+01
 1.3978251E+01  2.9734697E+01
 1.3989751E+01  2.9293964E+01
 1.4001250E+01  2.8815874E+01
 1.4012751E+01  2.8276583E+01
 1.4024251E+01  2.7942776E+01
 1.4035750E+01  2.7578226E+01
 1.4047251E+01  2.7371975E+01
 1.4058751E+01  2.7132225E+01
 1.4070251E+01  2.7051863E+01
 1.4081751E+01  2.6965792E+01
 1.4093250E+01  2.6922541E+01
 1.4104751E+01  2.6845520E+01
 1.4116251E+01  2.6780668E+01
 1.4127750E+01  2.6735401E+01
 1.4139251E+01  2.6719095E+01
 1.4150751E+01  2.6634432E+01
 1.4162251E+01  2.6572882E+01
 1.4173751E+01  2.6420139E+01
 1.4185250E+01  2.6325741E+01
 1.4196751E+01  2.6237888E+01
 1.4208251E+01  2.6170790E+01
 1.4219750E+01  2.6128998E+01
 1.4231251E+01  2.6010649E+01
 1.4242751E+01  2.5919073E+01
 1.4254251E+01  2.5832069E+01
 1.4265751E+01  2.5797531E+01
 1.4277250E+01  2.5724998E+01
 1.4288751E+01  2.5724045E+01
 1.4300251E+01  2.5706812E+01
 1.4311750E+01  2.5702150E+01
 1.4323251E+01  2.5630939E+01
 1.4334751E+01  2.5580576E+01
 1.4346251E+01  2.5557718E+01
 1.4357751E+01  2.5542534E+01
 1.4369250E+01  2.5550343E+01
 1.4380751E+01  2.5508471E+01
 1.4392251E+01  2.5513212E+01
 1.4403750E+01  2.5484016E+01
 1.4415251E+01  2.5500267E+01
 1.4426751E+01  2.5414951E+01
 1.4438251E+01  2.5399002E+01
 1.4449751E+01  2.5316008E+01
 1.4461250E+01  2.5268791E+01
 1.4472751E+01  2.5189373E+01
 1.4484251E+01  2.5148447E+01
 1.4495750E+01  2.5154455E+01
 1.4507251E+01  2.5182352E+01
 1.4518751E+01  2.5142984E+01
 1.4530251E+01  2.5132641E+01
 1.4541751E+01  2.5085815E+01
 1.4553250E+01  2.5129566E+01
 1.4564751E+01  2.5135670E+01
 1.4576251E+01  2.5094845E+01
 1.4587750E+01  2.5059729E+01
 1.4599251E+01  2.4955870E+01
 1.4610751E+01  2.4912552E+01
 1.4622251E+01  2.4838285E+01
 1.4633751E+01  2.4792034E+01
 1.4645250E+01  2.4757175E+01
 1.4656751E+01  2.4700439E+01
 1.4668251E+01  2.4667042E+01
 1.4679750E+01  2.4619240E+01
 1.4691251E+01  2.4607286E+01
 1.4702751E+01  2.4604519E+01
 1.4714251E+01  2.4620001E+01
 1.4725751E+01  2.4639412E+01
 1.4737250E+01  2.4637514E+01
 1.4748751E+01  2.4623285E+01
 1.4760251E+01  2.4532616E+01
 1.4771750E+01  2.4476912E+01
 1.4783251E+01  2.4418184E+01
 1.4794751E+01  2.4408447E+01
 1.4806251E+01  2.4423290E+01
 1.4817751E+01  2.4427977E+01
 1.4829250E+01  2.4594534E+01
 1.4840751E+01  2.4657804E+01
 1.4852251E+01  2.4686411E+01
 1.4863750E+01  2.4610498E+01
 1.4875251E+01  2.4520544E+01
 1.4886751E+01  2.4453423E+01
 1.4898251E+01  2.4341444E+01
 1.4909751E+01  2.4310564E+01
 1.4921250E+01  2.4295906E+01
 1.4932751E+01  2.4291759E+01
 1.4944251E+01  2.4300926E+01
 1.4955750E+01  2.4344574E+01
 1.4967251E+01  2.4340683E+01
 1.4978751E+01  2.4415684E+01
 1.4990251E+01  2.4480568E+01
 1.5001751E+01  2.4522984E+01
 1.5013250E+01  2.4536718E+01
 1.5024751E+01  2.4516018E+01
 1.5036251E+01  2.4473494E+01
 1.5047750E+01  2.4379982E+01
 1.5059251E+01  2.4363644E+01
 1.5070751E+01  2.4374844E+01
 1.5082251E+01  2.4349813E+01
 1.5093751E+01  2.4322245E+01
 1.5105250E+01  2.4338650E+01
 1.5116751E+01  2.4385014E+01
 1.5128251E+01  2.4345819E+01
 1.5139750E+01  2.4411634E+01
 1.5151251E+01  2.4447618E+01
 1.5162751E+01  2.4572989E+01
 1.5174251E+01  2.4639036E+01
 1.5185751E+01  2.4657862E+01
 1.5197250E+01  2.4657284E+01
 1.5208751E+01  2.4660011E+01
 1.5220251E+01  2.4645332E+01
 1.5231750E+01  2.4577759E+01
 1.5243251E+01  2.4440033E+01
 1.5254751E+01  2.4334143E+01
 1.5266251E+01  2.4177040E+01
 1.5277751E+01  2.4121317E+01
 1.5289250E+01  2.4099710E+01
 1.5300751E+01  2.4148403E+01
 1.5312251E+01  2.4180086E+01
 1.5323750E+01  2.4188837E+01
 1.5335251E+01  2.4188330E+01
 1.5346751E+01  2.4187859E+01
 1.5358251E+01  2.4183781E+01
 1.5369751E+01  2.4195513E+01
 1.5381250E+01  2.4099979E+01
 1.5392751E+01  2.4133463E+01
 1.5404251E+01  2.4088638E+01
 1.5415751E+01  2.4095552E+01
 1.5427251E+01  2.4040434E+01
 1.5438751E+01  2.4002359E+01
 1.5450251E+01  2.3986719E+01
 1.5461751E+01  2.3936344E+01
 1.5473250E+01  2.3878750E+01
 1.5484751E+01  2.3858393E+01
 1.5496251E+01  2.3886906E+01
 1.5507751E+01  2.3926033E+01
 1.5519251E+01  2.3984512E+01
 1.5530751E+01  2.4012756E+01
 1.5542251E+01  2.4039230E+01
 1.5553751E+01  2.4036320E+01
 1.5565250E+01  2.4076038E+01
 1.5576751E+01  2.4133469E+01
 1.5588251E+01  2.4145308E+01
 1.5599751E+01  2.4162907E+01
 1.5611251E+01  2.4145113E+01
 1.5622751E+01  2.4202724E+01
 1.5634251E+01  2.4202753E+01
 1.5645751E+01  2.4247725E+01
 1.5657250E+01  2.4206705E+01
 1.5668751E+01  2.4183477E+01
 1.5680251E+01  2.4092863E+01
 1.5691751E+01  2.4108377E+01
 1.5703251E+01  2.4146196E+01
 1.5714751E+01  2.4157974E+01
 1.5726251E+01  2.4135431E+01
 1.5737751E+01  2.4047354E+01
 1.5749250E+01  2.4081482E+01
 1.5760751E+01  2.4091642E+01
 1.5772251E+01  2.4186657E+01
 1.5783751E+01  2.4140326E+01
 1.5795251E+01  2.4153717E+01
 1.5806751E+01  2.4139708E+01
 1.5818251E+01  2.4204489E+01
 1.5829751E+01  2.4193363E+01
 1.5841250E+01  2.4212700E+01
 1.5852751E+01  2.4219139E+01
 1.5864251E+01  2.4229330E+01
 1.5875751E+01  2.4265451E+01
 1.5887251E+01  2.4278358E+01
 1.5898750E+01  2.4323380E+01
 1.5910251E+01  2.4306538E+01
 1.5921751E+01  2.4261835E+01
 1.5933250E+01  2.4176683E+01
 1.5944751E+01  2.4090149E+01
 1.5956251E+01  2.4065598E+01
 1.5967751E+01  2.4073093E+01
 1.5979251E+01  2.4100769E+01
 1.5990750E+01  2.4092173E+01
 1.6002251E+01  2.4111198E+01
 1.6013750E+01  2.4141111E+01
 1.6025251E+01  2.4151810E+01
 1.6036751E+01  2.4186581E+01
 1.6048250E+01  2.4231527E+01
 1.6059752E+01  2.4267715E+01
 1.6071251E+01  2.4263334E+01
 1.6082750E+01  2.4306875E+01
 1.6094252E+01  2.4322739E+01
 1.6105751E+01  2.4321899E+01
 1.6117250E+01  2.4278137E+01
 1.6128750E+01  2.4251066E+01
 1.6140251E+01  2.4264763E+01
 1.6151751E+01  2.4280285E+01
 1.6163250E+01  2.4363007E+01
 1.6174751E+01  2.4359266E+01
 1.6186251E+01  2.4479294E+01
 1.6197750E+01  2.4485785E+01
 1.6209251E+01  2.4617878E+01
 1.6220751E+01  2.4588039E+01
 1.6232250E+01  2.4728687E+01
 1.6243752E+01  2.4781996E+01
 1.6255251E+01  2.4873655E+01
 1.6266750E+01  2.4995369E+01
 1.6278252E+01  2.4895452E+01
 1.6289751E+01  2.4955727E+01
 1.6301250E+01  2.4579077E+01
 1.6312750E+01  2.4632658E+01
 1.6324251E+01  2.4335144E+01
 1.6335751E+01  2.4348555E+01
 1.6347250E+01  2.4186436E+01
 1.6358751E+01  2.4188284E+01
 1.6370251E+01  2.4137197E+01
 1.6381750E+01  2.4140482E+01
 1.6393251E+01  2.4191326E+01
 1.6404751E+01  2.4273582E+01
 1.6416250E+01  2.4341690E+01
 1.6427752E+01  2.4319674E+01
 1.6439251E+01  2.4316074E+01
 1.6450750E+01  2.4291739E+01
 1.6462252E+01  2.4247301E+01
 1.6473751E+01  2.4155672E+01
 1.6485250E+01  2.4141399E+01
 1.6496750E+01  2.4176912E+01
 1.6508251E+01  2.4218636E+01
 1.6519751E+01  2.4185335E+01
 1.6531250E+01  2.4134716E+01
 1.6542751E+01  2.4104389E+01
 1.6554251E+01  2.4125525E+01
 1.6565750E+01  2.4118780E+01
 1.6577251E+01  2.4099377E+01
 1.6588751E+01  2.4131357E+01
 1.6600250E+01  2.4159603E+01
 1.6611752E+01  2.4189558E+01
 1.6623251E+01  2.4125406E+01
 1.6634750E+01  2.4136211E+01
 1.6646252E+01  2.4084667E+01
 1.6657751E+01  2.4079948E+01
 1.6669250E+01  2.4083139E+01
 1.6680750E+01  2.4095903E+01
 1.6692251E+01  2.4038935E+01
 1.6703751E+01  2.3987194E+01
 1.6715250E+01  2.3967562E+01
 1.6726751E+01  2.4044743E+01
 1.6738251E+01  2.4146105E+01
 1.6749750E+01  2.4252035E+01
 1.6761251E+01  2.4225441E+01
 1.6772751E+01  2.4197929E+01
 1.6784250E+01  2.4085346E+01
 1.6795752E+01  2.4087404E+01
 1.6807251E+01  2.4055510E+01
 1.6818750E+01  2.4012112E+01
 1.6830252E+01  2.3918737E+01
 1.6841751E+01  2.3923067E+01
 1.6853251E+01  2.3919893E+01
 1.6864750E+01  2.3964016E+01
 1.6876251E+01  2.3963346E+01
 1.6887751E+01  2.3974913E+01
 1.6899250E+01  2.3955177E+01
 1.6910751E+01  2.3929298E+01
 1.6922251E+01  2.3900404E+01
 1.6933750E+01  2.3801317E+01
 1.6945251E+01  2.3772381E+01
 1.6956751E+01  2.3768368E+01
 1.6968250E+01  2.3791313E+01
 1.6979752E+01  2.3753933E+01
 1.6991251E+01  2.3776228E+01
 1.7002750E+01  2.3746691E+01
 1.7014252E+01  2.3752707E+01
 1.7025751E+01  2.3751329E+01
 1.7037251E+01  2.3757372E+01
 1.7048750E+01  2.3714035E+01
 1.7060251E+01  2.3670357E+01
 1.7071751E+01  2.3665224E+01
 1.7083250E+01  2.3642368E+01
 1.7094751E+01  2.3636600E+01
 1.7106251E+01  2.3695822E+01
 1.7117750E+01  2.3711103E+01
 1.7129251E+01  2.3764648E+01
 1.7140751E+01  2.3785856E+01
 1.7152250E+01  2.3838743E+01
 1.7163752E+01  2.3855190E+01
 1.7175251E+01  2.3857203E+01
 1.7186750E+01  2.3843540E+01
 1.7198252E+01  2.3816957E+01
 1.7209751E+01  2.3787718E+01
 1.7221251E+01  2.3736832E+01
 1.7232750E+01  2.3692207E+01
 1.7244251E+01  2.3640722E+01
 1.7255751E+01  2.3575502E+01
 1.7267250E+01  2.3516687E+01
 1.7278751E+01  2.3528728E+01
 1.7290251E+01  2.3557219E+01
 1.7301750E+01  2.3592596E+01
 1.7313251E+01  2.3614597E+01
 1.7324751E+01  2.3664764E+01
 1.7336250E+01  2.3714148E+01
 1.7347752E+01  2.3710228E+01
 1.7359251E+01  2.3678972E+01
 1.7370750E+01  2.3614183E+01
 1.7382252E+01  2.3542965E+01
 1.7393751E+01  2.3505684E+01
 1.7405251E+01  2.3502304E+01
 1.7416750E+01  2.3534788E+01
 1.7428251E+01  2.3538231E+01
 1.7439751E+01  2.3531075E+01
 1.7451250E+01  2.3495609E+01
 1.7462751E+01  2.3493345E+01
 1.7474251E+01  2.3454082E+01
 1.7485750E+01  2.3470352E+01
 1.7497252E+01  2.3395210E+01
 1.7508751E+01  2.3396664E+01
 1.7520250E+01  2.3303162E+01
 1.7531752E+01  2.3324026E+01
 1.7543251E+01  2.3360132E+01
 1.7554750E+01  2.3355070E+01
 1.7566252E+01  2.3311460E+01
 1.7577751E+01  2.3246426E+01
 1.7589251E+01  2.3240452E+01
 1.7600750E+01  2.3268488E+01
 1.7612251E+01  2.3333941E+01
 1.7623751E+01  2.3430742E+01
 1.7635250E+01  2.3423985E+01
 1.7646751E+01  2.3383377E+01
 1.7658251E+01  2.3310453E+01
 1.7669750E+01  2.3330681E+01
 1.7681252E+01  2.3323666E+01
 1.7692751E+01  2.3358200E+01
 1.7704250E+01  2.3313026E+01
 1.7715752E+01  2.3312737E+01
 1.7727251E+01  2.3287590E+01
 1.7738750E+01  2.3320948E+01
 1.7750252E+01  2.3273411E+01
 1.7761751E+01  2.3242136E+01
 1.7773251E+01  2.3206135E+01
 1.7784750E+01  2.3219790E+01
 1.7796251E+01  2.3253664E+01
 1.7807751E+01  2.3256588E+01
 1.7819250E+01  2.3278715E+01
 1.7830751E+01  2.3278023E+01
 1.7842251E+01  2.3273016E+01
 1.7853750E+01  2.3282452E+01
 1.7865252E+01  2.3275642E+01
 1.7876751E+01  2.3278477E+01
 1.7888250E+01  2.3293434E+01
 1.7899752E+01  2.3337088E+01
 1.7911251E+01  2.3395208E+01
 1.7922750E+01  2.3425039E+01
 1.7934252E+01  2.3428820E+01
 1.7945751E+01  2.3354939E+01
 1.7957251E+01  2.3268644E+01
 1.7968750E+01  2.3191181E+01
 1.7980251E+01  2.3254889E+01
 1.7991751E+01  2.3259058E+01
 1.8003250E+01  2.3277847E+01
 1.8014751E+01  2.3219135E+01
 1.8026251E+01  2.3198915E+01
 1.8037750E+01  2.3149912E+01
 1.8049252E+01  2.3170166E+01
 1.8060751E+01  2.3244116E+01
 1.8072250E+01  2.3252560E+01
 1.8083752E+01  2.3303808E+01
 1.8095251E+01  2.3309202E+01
 1.8106750E+01  2.3277617E+01
 1.8118252E+01  2.3273277E+01
 1.8129751E+01  2.3291019E+01
 1.8141251E+01  2.3327021E+01
 1.8152750E+01  2.3246071E+01
 1.8164251E+01  2.3185452E+01
 1.8175751E+01  2.3097542E+01
 1.8187250E+01  2.3033192E+01
 1.8198751E+01  2.2995667E+01
 1.8210251E+01  2.3064590E+01
 1.8221750E+01  2.3118040E+01
 1.8233252E+01  2.3136110E+01
 1.8244751E+01  2.3085638E+01
 1.8256250E+01  2.3122961E+01
 1.8267752E+01  2.3102831E+01
 1.8279251E+01  2.3137926E+01
 1.8290751E+01  2.3129042E+01
 1.8302252E+01  2.3184885E+01
 1.8313751E+01  2.3186571E+01
 1.8325251E+01  2.3158981E+01
 1.8336750E+01  2.3162016E+01
 1.8348251E+01  2.3112892E+01
 1.8359751E+01  2.3099991E+01
 1.8371250E+01  2.3063419E+01
 1.8382751E+01  2.3078171E+01
 1.8394251E+01  2.3101080E+01
 1.8405750E+01  2.3153063E+01
 1.8417252E+01  2.3104921E+01
 1.8428751E+01  2.3076252E+01
 1.8440250E+01  2.3063189E+01
 1.8451752E+01  2.3074522E+01
 1.8463251E+01  2.3077669E+01
 1.8474751E+01  2.3067629E+01
 1.8486252E+01  2.3035685E+01
 1.8497751E+01  2.2985872E+01
 1.8509251E+01  2.2906389E+01
 1.8520750E+01  2.2858498E+01
 1.8532251E+01  2.2827589E+01
 1.8543751E+01  2.2813799E+01
 1.8555250E+01  2.2819054E+01
 1.8566751E+01  2.2850697E+01
 1.8578251E+01  2.2898514E+01
 1.8589750E+01  2.2964727E+01
 1.8601252E+01  2.2998987E+01
 1.8612751E+01  2.3029646E+01
 1.8624250E+01  2.3027773E+01
 1.8635752E+01  2.3051691E+01
 1.8647251E+01  2.3024199E+01
 1.8658751E+01  2.2972603E+01
 1.8670252E+01  2.2978481E+01
 1.8681751E+01  2.3098417E+01
 1.8693251E+01  2.3137148E+01
 1.8704750E+01  2.3108244E+01
 1.8716251E+01  2.3001020E+01
 1.8727751E+01  2.2994423E+01
 1.8739250E+01  2.2925343E+01
 1.8750751E+01  2.2960375E+01
 1.8762251E+01  2.2985153E+01
 1.8773750E+01  2.3016104E+01
 1.8785252E+01  2.3035614E+01
 1.8796751E+01  2.3044708E+01
 1.8808250E+01  2.3080521E+01
 1.8819752E+01  2.3079350E+01
 1.8831251E+01  2.3061384E+01
 1.8842751E+01  2.3028780E+01
 1.8854252E+01  2.2990406E+01
 1.8865751E+01  2.2921171E+01
 1.8877251E+01  2.2914572E+01
 1.8888750E+01  2.2931368E+01
 1.8900251E+01  2.3003445E+01
 1.8911751E+01  2.3048334E+01
 1.8923250E+01  2.3082941E+01
 1.8934752E+01  2.3077835E+01
 1.8946251E+01  2.3056713E+01
 1.8957750E+01  2.3015863E+01
 1.8969252E+01  2.3011311E+01
 1.8980751E+01  2.3023212E+01
 1.8992250E+01  2.3030151E+01
 1.9003752E+01  2.2992519E+01
 1.9015251E+01  2.2939299E+01
 1.9026751E+01  2.2981285E+01
 1.9038252E+01  2.3021717E+01
 1.9049751E+01  2.3050381E+01
 1.9061251E+01  2.3024763E+01
 1.9072750E+01  2.3060059E+01
 1.9084251E+01  2.3059055E+01
 1.9095751E+01  2.3062298E+01
 1.9107250E+01  2.3016899E+01
 1.9118752E+01  2.2971195E+01
 1.9130251E+01  2.2979435E+01
 1.9141750E+01  2.2967110E+01
 1.9153252E+01  2.3020874E+01
 1.9164751E+01  2.2981804E+01
 1.9176250E+01  2.2965443E+01
 1.9187752E+01  2.2932425E+01
 1.9199251E+01  2.2952297E+01
 1.9210751E+01  2.2954611E+01
 1.9222252E+01  2.2955505E+01
 1.9233751E+01  2.2939583E+01
 1.9245251E+01  2.2948040E+01
 1.9256750E+01  2.2950655E+01
 1.9268251E+01  2.2933636E+01
 1.9279751E+01  2.2925354E+01
 1.9291250E+01  2.2960947E+01
 1.9302752E+01  2.2985855E+01
 1.9314251E+01  2.3010399E+01
 1.9325750E+01  2.3029581E+01
 1.9337252E+01  2.3087044E+01
 1.9348751E+01  2.3113485E+01
 1.9360250E+01  2.3119009E+01
 1.9371752E+01  2.3222321E+01
 1.9383251E+01  2.3202724E+01
 1.9394751E+01  2.3251413E+01
 1.9406250E+01  2.3196381E+01
 1.9417751E+01  2.3190538E+01
 1.9429251E+01  2.3102060E+01
 1.9440750E+01  2.3047400E+01
 1.9452251E+01  2.3018116E+01
 1.9463751E+01  2.2992147E+01
 1.9475250E+01  2.2999321E+01
 1.9486752E+01  2.2999289E+01
 1.9498251E+01  2.2997126E+01
 1.9509750E+01  2.2970181E+01
 1.9521252E+01  2.2942116E+01
 1.9532751E+01  2.2964914E+01
 1.9544250E+01  2.3003963E+01
 1.9555752E+01  2.3031664E+01
 1.9567251E+01  2.3042011E+01
 1.9578751E+01  2.3104004E+01
 1.9590250E+01  2.3082958E+01
 1.9601751E+01  2.3036144E+01
 1.9613251E+01  2.3068167E+01
 1.9624750E+01  2.3152306E+01
 1.9636251E+01  2.3223988E+01
 1.9647751E+01  2.3223780E+01
 1.9659250E+01  2.3334249E+01
 1.9670752E+01  2.3421175E+01
 1.9682251E+01  2.3487385E+01
 1.9693750E+01  2.3516939E+01
 1.9705252E+01  2.3577862E+01
 1.9716751E+01  2.3645594E+01
 1.9728251E+01  2.3681259E+01
 1.9739752E+01  2.3669664E+01
 1.9751251E+01  2.3620735E+01
 1.9762751E+01  2.3580267E+01
 1.9774250E+01  2.3556980E+01
 1.9785751E+01  2.3560951E+01
 1.9797251E+01  2.3490248E+01
 1.9808750E+01  2.3415413E+01
 1.9820251E+01  2.3415382E+01
 1.9831751E+01  2.3519073E+01
 1.9843250E+01  2.3585859E+01
 1.9854752E+01  2.3660116E+01
 1.9866251E+01  2.3676420E+01
 1.9877750E+01  2.3669815E+01
 1.9889252E+01  2.3598742E+01
 1.9900751E+01  2.3565674E+01
 1.9912251E+01  2.3518387E+01
 1.9923752E+01  2.3372511E+01
 1.9935251E+01  2.3217003E+01
 1.9946751E+01  2.3118778E+01
 1.9958250E+01  2.3135239E+01
 1.9969751E+01  2.3197947E+01
 1.9981251E+01  2.3219559E+01
 1.9992750E+01  2.3277121E+01
 2.0004251E+01  2.3241018E+01
 2.0015751E+01  2.3210432E+01
 2.0027250E+01  2.3125870E+01
 2.0038752E+01  2.3082905E+01
 2.0050251E+01  2.3076790E+01
 2.0061750E+01  2.3069242E+01
 2.0073252E+01  2.3111740E+01
 2.0084751E+01  2.3128807E+01
 2.0096251E+01  2.3185955E+01
 2.0107752E+01  2.3198179E+01
 2.0119251E+01  2.3215214E+01
 2.0130751E+01  2.3179260E+01
 2.0142250E+01  2.3157284E+01
 2.0153751E+01  2.3138273E+01
 2.0165251E+01  2.3148531E+01
 2.0176750E+01  2.3141510E+01
 2.0188251E+01  2.3096170E+01
 2.0199751E+01  2.3077597E+01
 2.0211250E+01  2.3125679E+01
 2.0222752E+01  2.3187037E+01
 2.0234251E+01  2.3221989E+01
 2.0245750E+01  2.3215977E+01
 2.0257252E+01  2.3148336E+01
 2.0268751E+01  2.3082960E+01
 2.0280251E+01  2.3100309E+01
 2.0291752E+01  2.3136122E+01
 2.0303251E+01  2.3147535E+01
 2.0314751E+01  2.3137508E+01
 2.0326250E+01  2.3112377E+01
 2.0337751E+01  2.3110720E+01
 2.0349251E+01  2.3084215E+01
 2.0360750E+01  2.3105791E+01
 2.0372252E+01  2.3102947E+01
 2.0383751E+01  2.3093987E+01
 2.0395250E+01  2.3097441E+01
 2.0406752E+01  2.3129686E+01
 2.0418251E+01  2.3170984E+01
 2.0429750E+01  2.3181692E+01
 2.0441252E+01  2.3167576E+01
 2.0452751E+01  2.3193703E+01
 2.0464251E+01  2.3189928E+01
 2.0475752E+01  2.3130600E+01
 2.0487251E+01  2.3079386E+01
 2.0498751E+01  2.3081863E+01
 2.0510250E+01  2.3045126E+01
 2.0521751E+01  2.3025457E+01
 2.0533251E+01  2.3005524E+01
 2.0544750E+01  2.3077278E+01
 2.0556252E+01  2.3176722E+01
 2.0567751E+01  2.3202562E+01
 2.0579250E+01  2.3146969E+01
 2.0590752E+01  2.3111816E+01
 2.0602251E+01  2.3141066E+01
 2.0613750E+01  2.3170784E+01
 2.0625252E+01  2.3172937E+01
 2.0636751E+01  2.3148813E+01
 2.0648251E+01  2.3113350E+01
 2.0659752E+01  2.3100584E+01
 2.0671251E+01  2.3129543E+01
 2.0682751E+01  2.3186094E+01
 2.0694250E+01  2.3321491E+01
 2.0705751E+01  2.3413506E+01
 2.0717251E+01  2.3544680E+01
 2.0728750E+01  2.3548544E+01
 2.0740252E+01  2.3570072E+01
 2.0751751E+01  2.3868307E+01
 2.0763250E+01  2.3973740E+01
 2.0774752E+01  2.4199215E+01
 2.0786251E+01  2.3959148E+01
 2.0797750E+01  2.3855974E+01
 2.0809252E+01  2.3629362E+01
 2.0820751E+01  2.3437231E+01
 2.0832251E+01  2.3349606E+01
 2.0843752E+01  2.3309782E+01
 2.0855251E+01  2.3333082E+01
 2.0866751E+01  2.3369133E+01
 2.0878250E+01  2.3395584E+01
 2.0889751E+01  2.3362818E+01
 2.0901251E+01  2.3336082E+01
 2.0912750E+01  2.3369612E+01
 2.0924252E+01  2.3397802E+01
 2.0935751E+01  2.3415483E+01
 2.0947250E+01  2.3388271E+01
 2.0958752E+01  2.3407656E+01
 2.0970251E+01  2.3420580E+01
 2.0981750E+01  2.3442125E+01
 2.0993252E+01  2.3402206E+01
 2.1004751E+01  2.3438477E+01
 2.1016251E+01  2.3424078E+01
 2.1027752E+01  2.3463953E+01
 2.1039251E+01  2.3483362E+01
 2.1050751E+01  2.3470335E+01
 2.1062250E+01  2.3435688E+01
 2.1073751E+01  2.3409103E+01
 2.1085251E+01  2.3408766E+01
 2.1096750E+01  2.3320480E+01
 2.1108252E+01  2.3267199E+01
 2.1119751E+01  2.3263441E+01
 2.1131250E+01  2.3306032E+01
 2.1142752E+01  2.3350790E+01
 2.1154251E+01  2.3275381E+01
 2.1165751E+01  2.3242840E+01
 2.1177252E+01  2.3220592E+01
 2.1188751E+01  2.3247776E+01
 2.1200251E+01  2.3265701E+01
 2.1211752E+01  2.3310205E+01
 2.1223251E+01  2.3362616E+01
 2.1234751E+01  2.3338957E+01
 2.1246250E+01  2.3333967E+01
 2.1257751E+01  2.3333126E+01
 2.1269251E+01  2.3345407E+01
 2.1280750E+01  2.3370710E+01
 2.1292252E+01  2.3358047E+01
 2.1303751E+01  2.3316198E+01
 2.1315250E+01  2.3275917E+01
 2.1326752E+01  2.3289825E+01
 2.1338251E+01  2.3378664E+01
 2.1349751E+01  2.3462307E+01
 2.1361252E+01  2.3520084E+01
 2.1372751E+01  2.3462910E+01
 2.1384251E+01  2.3388605E+01
 2.1395752E+01  2.3308868E+01
 2.1407251E+01  2.3301125E+01
 2.1418751E+01  2.3344284E+01
 2.1430250E+01  2.3402809E+01
 2.1441751E+01  2.3453753E+01
 2.1453251E+01  2.3408337E+01
 2.1464750E+01  2.3373936E+01
 2.1476252E+01  2.3355076E+01
 2.1487751E+01  2.3509783E+01
 2.1499250E+01  2.3582800E+01
 2.1510752E+01  2.3595968E+01
 2.1522251E+01  2.3548952E+01
 2.1533751E+01  2.3529247E+01
 2.1545252E+01  2.3527203E+01
 2.1556751E+01  2.3527983E+01
 2.1568251E+01  2.3553522E+01
 2.1579752E+01  2.3524279E+01
 2.1591251E+01  2.3540606E+01
 2.1602751E+01  2.3563419E+01
 2.1614250E+01  2.3590349E+01
 2.1625751E+01  2.3620010E+01
 2.1637251E+01  2.3598139E+01
 2.1648750E+01  2.3615181E+01
 2.1660252E+01  2.3556360E+01
 2.1671751E+01  2.3596745E+01
 2.1683250E+01  2.3543695E+01
 2.1694752E+01  2.3526556E+01
 2.1706251E+01  2.3519201E+01
 2.1717751E+01  2.3542126E+01
 2.1729252E+01  2.3551189E+01
 2.1740751E+01  2.3561661E+01
 2.1752251E+01  2.3573685E+01
 2.1763752E+01  2.3569017E+01
 2.1775251E+01  2.3589184E+01
 2.1786751E+01  2.3603029E+01
 2.1798250E+01  2.3596138E+01
 2.1809752E+01  2.3617868E+01
 2.1821251E+01  2.3615175E+01
 2.1832750E+01  2.3610643E+01
 2.1844252E+01  2.3582890E+01
 2.1855751E+01  2.3580170E+01
 2.1867250E+01  2.3572758E+01
 2.1878752E+01  2.3606089E+01
 2.1890251E+01  2.3608282E+01
 2.1901751E+01  2.3626400E+01
 2.1913252E+01  2.3648027E+01
 2.1924751E+01  2.3650019E+01
 2.1936251E+01  2.3690699E+01
 2.1947752E+01  2.3740417E+01
 2.1959251E+01  2.3750975E+01
 2.1970751E+01  2.3710367E+01
 2.1982250E+01  2.3694378E+01
 2.1993752E+01  2.3660515E+01
 2.2005251E+01  2.3672218E+01
 2.2016750E+01  2.3716660E+01
 2.2028252E+01  2.3727627E+01
 2.2039751E+01  2.3689203E+01
 2.2051250E+01  2.3717737E+01
 2.2062752E+01  2.3701353E+01
 2.2074251E+01  2.3733988E+01
 2.2085751E+01  2.3716688E+01
 2.2097252E+01  2.3720989E+01
 2.2108751E+01  2.3729662E+01
 2.2120251E+01  2.3846075E+01
 2.2131752E+01  2.3906038E+01
 2.2143251E+01  2.3912981E+01
 2.2154751E+01  2.3868301E+01
 2.2166250E+01  2.3874580E+01
 2.2177752E+01  2.3857149E+01
 2.2189251E+01  2.3845385E+01
 2.2200750E+01  2.3893835E+01
 2.2212252E+01  2.3917807E+01
 2.2223751E+01  2.3940321E+01
 2.2235250E+01  2.3897991E+01
 2.2246752E+01  2.3856749E+01
 2.2258251E+01  2.3766796E+01
 2.2269751E+01  2.3750658E+01
 2.2281252E+01  2.3765297E+01
 2.2292751E+01  2.3818872E+01
 2.2304251E+01  2.3891628E+01
 2.2315752E+01  2.3968939E+01
 2.2327251E+01  2.3942150E+01
 2.2338751E+01  2.3957582E+01
 2.2350250E+01  2.3982996E+01
 2.2361752E+01  2.4030857E+01
 2.2373251E+01  2.4012592E+01
 2.2384750E+01  2.3961334E+01
 2.2396252E+01  2.3940729E+01
 2.2407751E+01  2.3952026E+01
 2.2419250E+01  2.3974478E+01
 2.2430752E+01  2.3997017E+01
 2.2442251E+01  2.4000202E+01
 2.2453751E+01  2.4029615E+01
 2.2465252E+01  2.4037014E+01
 2.2476751E+01  2.4051062E+01
 2.2488251E+01  2.4070427E+01
 2.2499752E+01  2.4158903E+01
 2.2511251E+01  2.4253679E+01
 2.2522751E+01  2.4308195E+01
 2.2534250E+01  2.4318781E+01
 2.2545752E+01  2.4306353E+01
 2.2557251E+01  2.4312124E+01
 2.2568750E+01  2.4298550E+01
 2.2580252E+01  2.4312372E+01
 2.2591751E+01  2.4325792E+01
 2.2603251E+01  2.4370979E+01
 2.2614752E+01  2.4434092E+01
 2.2626251E+01  2.4424715E+01
 2.2637751E+01  2.4427595E+01
 2.2649252E+01  2.4387024E+01
 2.2660751E+01  2.4399433E+01
 2.2672251E+01  2.4450098E+01
 2.2683752E+01  2.4530268E+01
 2.2695251E+01  2.4601940E+01
 2.2706751E+01  2.4617723E+01
 2.2718250E+01  2.4665928E+01
 2.2729752E+01  2.4670614E+01
 2.2741251E+01  2.4711132E+01
 2.2752750E+01  2.4711189E+01
 2.2764252E+01  2.4737972E+01
 2.2775751E+01  2.4750980E+01
 2.2787251E+01  2.4779196E+01
 2.2798752E+01  2.4818033E+01
 2.2810251E+01  2.4875507E+01
 2.2821751E+01  2.4948093E+01
 2.2833252E+01  2.4954741E+01
 2.2844751E+01  2.4960129E+01
 2.2856251E+01  2.4949368E+01
 2.2867750E+01  2.5038181E+01
 2.2879251E+01  2.5080908E+01
 2.2890751E+01  2.5169481E+01
 2.2902250E+01  2.5178413E+01
 2.2913752E+01  2.5260017E+01
 2.2925251E+01  2.5295284E+01
 2.2936750E+01  2.5346340E+01
 2.2948252E+01  2.5390549E+01
 2.2959751E+01  2.5383734E+01
 2.2971251E+01  2.5456139E+01
 2.2982752E+01  2.5519119E+01
 2.2994251E+01  2.5631458E+01
