F:\20151113_APS_34IDE\\Brian\Particle1\OCV\Data_0012.tif
2-Theta Angle (Degrees)
Intensity
       2000
 5.7500005E-03  0.0000000E+00
 1.7250001E-02  0.0000000E+00
 2.8750001E-02  0.0000000E+00
 4.0250003E-02  0.0000000E+00
 5.1750004E-02  0.0000000E+00
 6.3250005E-02  0.0000000E+00
 7.4750006E-02  0.0000000E+00
 8.6250007E-02  0.0000000E+00
 9.7750008E-02  0.0000000E+00
 1.0925001E-01  0.0000000E+00
 1.2075000E-01  0.0000000E+00
 1.3225001E-01  0.0000000E+00
 1.4375001E-01  0.0000000E+00
 1.5525001E-01  0.0000000E+00
 1.6675001E-01  0.0000000E+00
 1.7825001E-01  0.0000000E+00
 1.8975002E-01  0.0000000E+00
 2.0125002E-01  0.0000000E+00
 2.1275002E-01  0.0000000E+00
 2.2425000E-01  0.0000000E+00
 2.3575000E-01  0.0000000E+00
 2.4725001E-01  0.0000000E+00
 2.5875002E-01  0.0000000E+00
 2.7025002E-01  0.0000000E+00
 2.8175002E-01  0.0000000E+00
 2.9325002E-01  0.0000000E+00
 3.0475003E-01  0.0000000E+00
 3.1625003E-01  0.0000000E+00
 3.2775003E-01  0.0000000E+00
 3.3925003E-01  0.0000000E+00
 3.5075003E-01  0.0000000E+00
 3.6225003E-01  0.0000000E+00
 3.7375003E-01  0.0000000E+00
 3.8525003E-01  0.0000000E+00
 3.9675003E-01  0.0000000E+00
 4.0825003E-01  0.0000000E+00
 4.1975003E-01  0.0000000E+00
 4.3125004E-01  0.0000000E+00
 4.4275001E-01  0.0000000E+00
 4.5425001E-01  0.0000000E+00
 4.6575001E-01  0.0000000E+00
 4.7725001E-01  0.0000000E+00
 4.8875001E-01  0.0000000E+00
 5.0025004E-01  0.0000000E+00
 5.1175004E-01  0.0000000E+00
 5.2325004E-01  0.0000000E+00
 5.3475004E-01  0.0000000E+00
 5.4625005E-01  0.0000000E+00
 5.5775005E-01  0.0000000E+00
 5.6925005E-01  0.0000000E+00
 5.8075005E-01  0.0000000E+00
 5.9225005E-01  0.0000000E+00
 6.0375005E-01  0.0000000E+00
 6.1525005E-01  0.0000000E+00
 6.2675005E-01  0.0000000E+00
 6.3825005E-01  0.0000000E+00
 6.4975005E-01  0.0000000E+00
 6.6125005E-01  0.0000000E+00
 6.7275006E-01  0.0000000E+00
 6.8425006E-01  0.0000000E+00
 6.9575006E-01  0.0000000E+00
 7.0725006E-01  0.0000000E+00
 7.1875006E-01  0.0000000E+00
 7.3025006E-01  0.0000000E+00
 7.4175006E-01  0.0000000E+00
 7.5325006E-01  0.0000000E+00
 7.6475006E-01  0.0000000E+00
 7.7625006E-01  0.0000000E+00
 7.8775007E-01  0.0000000E+00
 7.9925007E-01  0.0000000E+00
 8.1075007E-01  0.0000000E+00
 8.2225007E-01  0.0000000E+00
 8.3375007E-01  0.0000000E+00
 8.4525007E-01  0.0000000E+00
 8.5675007E-01  0.0000000E+00
 8.6825007E-01  0.0000000E+00
 8.7975001E-01  0.0000000E+00
 8.9125001E-01  0.0000000E+00
 9.0275002E-01  0.0000000E+00
 9.1425002E-01  0.0000000E+00
 9.2575002E-01  0.0000000E+00
 9.3725002E-01  0.0000000E+00
 9.4875002E-01  0.0000000E+00
 9.6025002E-01  0.0000000E+00
 9.7175002E-01  0.0000000E+00
 9.8325002E-01  0.0000000E+00
 9.9475002E-01  0.0000000E+00
 1.0062500E+00  0.0000000E+00
 1.0177500E+00  0.0000000E+00
 1.0292500E+00  0.0000000E+00
 1.0407500E+00  0.0000000E+00
 1.0522500E+00  0.0000000E+00
 1.0637500E+00  0.0000000E+00
 1.0752500E+00  0.0000000E+00
 1.0867500E+00  0.0000000E+00
 1.0982500E+00  0.0000000E+00
 1.1097500E+00  0.0000000E+00
 1.1212500E+00  0.0000000E+00
 1.1327500E+00  0.0000000E+00
 1.1442500E+00  0.0000000E+00
 1.1557500E+00  0.0000000E+00
 1.1672500E+00  0.0000000E+00
 1.1787500E+00  0.0000000E+00
 1.1902500E+00  0.0000000E+00
 1.2017500E+00  0.0000000E+00
 1.2132500E+00  0.0000000E+00
 1.2247500E+00  0.0000000E+00
 1.2362500E+00  0.0000000E+00
 1.2477500E+00  0.0000000E+00
 1.2592500E+00  0.0000000E+00
 1.2707500E+00  0.0000000E+00
 1.2822500E+00  0.0000000E+00
 1.2937500E+00  0.0000000E+00
 1.3052500E+00  0.0000000E+00
 1.3167500E+00  0.0000000E+00
 1.3282501E+00  0.0000000E+00
 1.3397501E+00  0.0000000E+00
 1.3512501E+00  0.0000000E+00
 1.3627501E+00  0.0000000E+00
 1.3742501E+00  0.0000000E+00
 1.3857501E+00  0.0000000E+00
 1.3972501E+00  0.0000000E+00
 1.4087501E+00  0.0000000E+00
 1.4202501E+00  0.0000000E+00
 1.4317501E+00  0.0000000E+00
 1.4432501E+00  0.0000000E+00
 1.4547501E+00  0.0000000E+00
 1.4662501E+00  0.0000000E+00
 1.4777501E+00  0.0000000E+00
 1.4892501E+00  0.0000000E+00
 1.5007501E+00  0.0000000E+00
 1.5122501E+00  0.0000000E+00
 1.5237501E+00  0.0000000E+00
 1.5352501E+00  0.0000000E+00
 1.5467501E+00  0.0000000E+00
 1.5582501E+00  0.0000000E+00
 1.5697501E+00  0.0000000E+00
 1.5812501E+00  0.0000000E+00
 1.5927501E+00  0.0000000E+00
 1.6042501E+00  0.0000000E+00
 1.6157501E+00  0.0000000E+00
 1.6272501E+00  0.0000000E+00
 1.6387501E+00  0.0000000E+00
 1.6502501E+00  0.0000000E+00
 1.6617501E+00  0.0000000E+00
 1.6732501E+00  0.0000000E+00
 1.6847501E+00  0.0000000E+00
 1.6962501E+00  0.0000000E+00
 1.7077501E+00  0.0000000E+00
 1.7192501E+00  0.0000000E+00
 1.7307501E+00  0.0000000E+00
 1.7422501E+00  0.0000000E+00
 1.7537501E+00  0.0000000E+00
 1.7652501E+00  0.0000000E+00
 1.7767501E+00  0.0000000E+00
 1.7882501E+00  0.0000000E+00
 1.7997501E+00  0.0000000E+00
 1.8112501E+00  0.0000000E+00
 1.8227501E+00  0.0000000E+00
 1.8342501E+00  0.0000000E+00
 1.8457501E+00  0.0000000E+00
 1.8572501E+00  0.0000000E+00
 1.8687501E+00  0.0000000E+00
 1.8802501E+00  0.0000000E+00
 1.8917501E+00  0.0000000E+00
 1.9032501E+00  0.0000000E+00
 1.9147501E+00  0.0000000E+00
 1.9262501E+00  0.0000000E+00
 1.9377501E+00  0.0000000E+00
 1.9492501E+00  0.0000000E+00
 1.9607501E+00  0.0000000E+00
 1.9722501E+00  0.0000000E+00
 1.9837501E+00  0.0000000E+00
 1.9952501E+00  0.0000000E+00
 2.0067501E+00  0.0000000E+00
 2.0182500E+00  0.0000000E+00
 2.0297501E+00  0.0000000E+00
 2.0412500E+00  0.0000000E+00
 2.0527501E+00  0.0000000E+00
 2.0642500E+00  0.0000000E+00
 2.0757501E+00  0.0000000E+00
 2.0872500E+00  0.0000000E+00
 2.0987501E+00  0.0000000E+00
 2.1102500E+00  0.0000000E+00
 2.1217501E+00  0.0000000E+00
 2.1332500E+00  0.0000000E+00
 2.1447501E+00  0.0000000E+00
 2.1562500E+00  0.0000000E+00
 2.1677501E+00  0.0000000E+00
 2.1792500E+00  0.0000000E+00
 2.1907501E+00  0.0000000E+00
 2.2022500E+00  0.0000000E+00
 2.2137501E+00  0.0000000E+00
 2.2252500E+00  0.0000000E+00
 2.2367501E+00  0.0000000E+00
 2.2482500E+00  0.0000000E+00
 2.2597501E+00  0.0000000E+00
 2.2712500E+00  0.0000000E+00
 2.2827501E+00  0.0000000E+00
 2.2942500E+00  0.0000000E+00
 2.3057501E+00  0.0000000E+00
 2.3172500E+00  0.0000000E+00
 2.3287501E+00  0.0000000E+00
 2.3402500E+00  0.0000000E+00
 2.3517501E+00  0.0000000E+00
 2.3632500E+00  0.0000000E+00
 2.3747501E+00  0.0000000E+00
 2.3862500E+00  0.0000000E+00
 2.3977501E+00  0.0000000E+00
 2.4092500E+00  0.0000000E+00
 2.4207501E+00  0.0000000E+00
 2.4322500E+00  0.0000000E+00
 2.4437501E+00  0.0000000E+00
 2.4552500E+00  0.0000000E+00
 2.4667501E+00  0.0000000E+00
 2.4782500E+00  0.0000000E+00
 2.4897501E+00  0.0000000E+00
 2.5012500E+00  0.0000000E+00
 2.5127501E+00  0.0000000E+00
 2.5242500E+00  0.0000000E+00
 2.5357502E+00  0.0000000E+00
 2.5472500E+00  0.0000000E+00
 2.5587502E+00  0.0000000E+00
 2.5702500E+00  0.0000000E+00
 2.5817502E+00  0.0000000E+00
 2.5932500E+00  0.0000000E+00
 2.6047502E+00  0.0000000E+00
 2.6162500E+00  0.0000000E+00
 2.6277502E+00  0.0000000E+00
 2.6392500E+00  0.0000000E+00
 2.6507502E+00  0.0000000E+00
 2.6622500E+00  0.0000000E+00
 2.6737502E+00  0.0000000E+00
 2.6852500E+00  0.0000000E+00
 2.6967502E+00  0.0000000E+00
 2.7082500E+00  0.0000000E+00
 2.7197502E+00  0.0000000E+00
 2.7312500E+00  0.0000000E+00
 2.7427502E+00  0.0000000E+00
 2.7542500E+00  0.0000000E+00
 2.7657502E+00  0.0000000E+00
 2.7772501E+00  0.0000000E+00
 2.7887502E+00  0.0000000E+00
 2.8002501E+00  0.0000000E+00
 2.8117502E+00  0.0000000E+00
 2.8232501E+00  3.6142776E+01
 2.8347502E+00  3.4827660E+01
 2.8462501E+00  3.5102383E+01
 2.8577502E+00  3.5184040E+01
 2.8692501E+00  3.5485134E+01
 2.8807502E+00  3.5843117E+01
 2.8922501E+00  3.5420170E+01
 2.9037502E+00  3.5100494E+01
 2.9152501E+00  3.4667912E+01
 2.9267502E+00  3.4269318E+01
 2.9382501E+00  3.4401520E+01
 2.9497502E+00  3.4606037E+01
 2.9612501E+00  3.4796623E+01
 2.9727502E+00  3.4823902E+01
 2.9842501E+00  3.4882198E+01
 2.9957502E+00  3.5544495E+01
 3.0072501E+00  3.6212055E+01
 3.0187502E+00  3.6707012E+01
 3.0302501E+00  3.6836231E+01
 3.0417502E+00  3.6831921E+01
 3.0532501E+00  3.6725227E+01
 3.0647502E+00  3.6629620E+01
 3.0762501E+00  3.6358101E+01
 3.0877502E+00  3.6230030E+01
 3.0992501E+00  3.6133423E+01
 3.1107502E+00  3.6168884E+01
 3.1222501E+00  3.6310406E+01
 3.1337502E+00  3.6273403E+01
 3.1452501E+00  3.6391598E+01
 3.1567502E+00  3.6185490E+01
 3.1682501E+00  3.5964207E+01
 3.1797502E+00  3.5654671E+01
 3.1912501E+00  3.5260651E+01
 3.2027502E+00  3.5451538E+01
 3.2142501E+00  3.5546753E+01
 3.2257502E+00  3.5608093E+01
 3.2372501E+00  3.6001858E+01
 3.2487502E+00  3.5531925E+01
 3.2602501E+00  3.5635719E+01
 3.2717502E+00  3.4982712E+01
 3.2832501E+00  3.4816467E+01
 3.2947502E+00  3.4554451E+01
 3.3062501E+00  3.4208118E+01
 3.3177502E+00  3.4273735E+01
 3.3292501E+00  3.4211639E+01
 3.3407502E+00  3.4735233E+01
 3.3522501E+00  3.5245506E+01
 3.3637502E+00  3.5480335E+01
 3.3752501E+00  3.5523758E+01
 3.3867502E+00  3.5134319E+01
 3.3982501E+00  3.4977158E+01
 3.4097502E+00  3.4755508E+01
 3.4212501E+00  3.4714993E+01
 3.4327502E+00  3.4547440E+01
 3.4442501E+00  3.4514717E+01
 3.4557502E+00  3.4627117E+01
 3.4672501E+00  3.4873146E+01
 3.4787502E+00  3.4973347E+01
 3.4902501E+00  3.4987907E+01
 3.5017502E+00  3.4560791E+01
 3.5132501E+00  3.4188133E+01
 3.5247502E+00  3.3997715E+01
 3.5362501E+00  3.3910114E+01
 3.5477502E+00  3.4171097E+01
 3.5592501E+00  3.4207748E+01
 3.5707502E+00  3.4119095E+01
 3.5822501E+00  3.3961864E+01
 3.5937502E+00  3.3821850E+01
 3.6052501E+00  3.3637905E+01
 3.6167502E+00  3.3721188E+01
 3.6282501E+00  3.3557247E+01
 3.6397502E+00  3.3616646E+01
 3.6512501E+00  3.3546230E+01
 3.6627502E+00  3.3508698E+01
 3.6742501E+00  3.3561893E+01
 3.6857502E+00  3.3533562E+01
 3.6972501E+00  3.3379963E+01
 3.7087502E+00  3.3120411E+01
 3.7202501E+00  3.2896412E+01
 3.7317502E+00  3.2980824E+01
 3.7432501E+00  3.3098434E+01
 3.7547503E+00  3.3226051E+01
 3.7662501E+00  3.3207554E+01
 3.7777503E+00  3.3189537E+01
 3.7892501E+00  3.3187115E+01
 3.8007503E+00  3.3069973E+01
 3.8122501E+00  3.3089409E+01
 3.8237503E+00  3.2972935E+01
 3.8352501E+00  3.3027153E+01
 3.8467503E+00  3.3054653E+01
 3.8582501E+00  3.3076233E+01
 3.8697503E+00  3.3242188E+01
 3.8812501E+00  3.3277397E+01
 3.8927503E+00  3.3429081E+01
 3.9042501E+00  3.3315201E+01
 3.9157503E+00  3.3200203E+01
 3.9272501E+00  3.3088249E+01
 3.9387503E+00  3.2953083E+01
 3.9502501E+00  3.2877613E+01
 3.9617503E+00  3.2749660E+01
 3.9732502E+00  3.2691097E+01
 3.9847503E+00  3.2651554E+01
 3.9962502E+00  3.2801998E+01
 4.0077500E+00  3.2853436E+01
 4.0192504E+00  3.2939331E+01
 4.0307503E+00  3.2739712E+01
 4.0422502E+00  3.2712128E+01
 4.0537500E+00  3.2668892E+01
 4.0652504E+00  3.2675507E+01
 4.0767503E+00  3.2730019E+01
 4.0882502E+00  3.2714630E+01
 4.0997500E+00  3.2770267E+01
 4.1112504E+00  3.2640537E+01
 4.1227503E+00  3.2659882E+01
 4.1342502E+00  3.2592304E+01
 4.1457500E+00  3.2723648E+01
 4.1572504E+00  3.2589283E+01
 4.1687503E+00  3.2532921E+01
 4.1802502E+00  3.2344212E+01
 4.1917500E+00  3.2453056E+01
 4.2032504E+00  3.2374470E+01
 4.2147503E+00  3.2444466E+01
 4.2262502E+00  3.2418041E+01
 4.2377501E+00  3.2454178E+01
 4.2492504E+00  3.2476177E+01
 4.2607503E+00  3.2455124E+01
 4.2722502E+00  3.2699322E+01
 4.2837501E+00  3.2990486E+01
 4.2952504E+00  3.3103092E+01
 4.3067503E+00  3.3068253E+01
 4.3182502E+00  3.3115047E+01
 4.3297501E+00  3.3110661E+01
 4.3412504E+00  3.3235134E+01
 4.3527503E+00  3.3075554E+01
 4.3642502E+00  3.3129944E+01
 4.3757501E+00  3.2980690E+01
 4.3872504E+00  3.2951572E+01
 4.3987503E+00  3.2880997E+01
 4.4102502E+00  3.2913719E+01
 4.4217501E+00  3.2784042E+01
 4.4332504E+00  3.2886696E+01
 4.4447503E+00  3.2880070E+01
 4.4562502E+00  3.3017559E+01
 4.4677501E+00  3.2959808E+01
 4.4792504E+00  3.2854774E+01
 4.4907503E+00  3.2626110E+01
 4.5022502E+00  3.2489025E+01
 4.5137501E+00  3.2414558E+01
 4.5252504E+00  3.2510761E+01
 4.5367503E+00  3.2588253E+01
 4.5482502E+00  3.2745411E+01
 4.5597501E+00  3.2932827E+01
 4.5712504E+00  3.3064377E+01
 4.5827503E+00  3.3093956E+01
 4.5942502E+00  3.3098701E+01
 4.6057501E+00  3.3023125E+01
 4.6172504E+00  3.2879299E+01
 4.6287503E+00  3.2696156E+01
 4.6402502E+00  3.2667881E+01
 4.6517501E+00  3.2671936E+01
 4.6632504E+00  3.2790306E+01
 4.6747503E+00  3.2859230E+01
 4.6862502E+00  3.2919586E+01
 4.6977501E+00  3.3048962E+01
 4.7092505E+00  3.3108356E+01
 4.7207503E+00  3.3071495E+01
 4.7322502E+00  3.2949387E+01
 4.7437501E+00  3.2841251E+01
 4.7552505E+00  3.2691982E+01
 4.7667503E+00  3.2565525E+01
 4.7782502E+00  3.2523499E+01
 4.7897501E+00  3.2535580E+01
 4.8012505E+00  3.2638309E+01
 4.8127503E+00  3.2624458E+01
 4.8242502E+00  3.2642071E+01
 4.8357501E+00  3.2715046E+01
 4.8472505E+00  3.2728451E+01
 4.8587503E+00  3.2915958E+01
 4.8702502E+00  3.2949886E+01
 4.8817501E+00  3.2967201E+01
 4.8932505E+00  3.2926949E+01
 4.9047503E+00  3.2850567E+01
 4.9162502E+00  3.2934242E+01
 4.9277501E+00  3.2990765E+01
 4.9392505E+00  3.3043510E+01
 4.9507504E+00  3.3004185E+01
 4.9622502E+00  3.2906193E+01
 4.9737501E+00  3.2916767E+01
 4.9852505E+00  3.2996880E+01
 4.9967504E+00  3.3032429E+01
 5.0082502E+00  3.3190918E+01
 5.0197501E+00  3.3255817E+01
 5.0312505E+00  3.3446175E+01
 5.0427504E+00  3.3555840E+01
 5.0542502E+00  3.3683853E+01
 5.0657501E+00  3.3835289E+01
 5.0772505E+00  3.3786282E+01
 5.0887504E+00  3.3808212E+01
 5.1002502E+00  3.3772125E+01
 5.1117501E+00  3.3786598E+01
 5.1232505E+00  3.3652981E+01
 5.1347504E+00  3.3661781E+01
 5.1462502E+00  3.3700363E+01
 5.1577501E+00  3.3907974E+01
 5.1692505E+00  3.3930168E+01
 5.1807504E+00  3.3945030E+01
 5.1922503E+00  3.4027134E+01
 5.2037501E+00  3.4168800E+01
 5.2152505E+00  3.4289909E+01
 5.2267504E+00  3.4375919E+01
 5.2382503E+00  3.4368187E+01
 5.2497501E+00  3.4366943E+01
 5.2612505E+00  3.4224060E+01
 5.2727504E+00  3.4080727E+01
 5.2842503E+00  3.4041019E+01
 5.2957501E+00  3.4109241E+01
 5.3072500E+00  3.4195927E+01
 5.3187504E+00  3.4375793E+01
 5.3302503E+00  3.4417686E+01
 5.3417501E+00  3.4612812E+01
 5.3532500E+00  3.4604038E+01
 5.3647504E+00  3.4712910E+01
 5.3762503E+00  3.4769169E+01
 5.3877501E+00  3.4938892E+01
 5.3992500E+00  3.5026367E+01
 5.4107504E+00  3.5038094E+01
 5.4222503E+00  3.5003601E+01
 5.4337502E+00  3.4895439E+01
 5.4452500E+00  3.4940975E+01
 5.4567504E+00  3.4987946E+01
 5.4682503E+00  3.5080505E+01
 5.4797502E+00  3.5031212E+01
 5.4912500E+00  3.5047848E+01
 5.5027504E+00  3.5039566E+01
 5.5142503E+00  3.5159939E+01
 5.5257502E+00  3.5113205E+01
 5.5372500E+00  3.5046143E+01
 5.5487504E+00  3.5059753E+01
 5.5602503E+00  3.5013138E+01
 5.5717502E+00  3.5178856E+01
 5.5832500E+00  3.5169857E+01
 5.5947504E+00  3.5210598E+01
 5.6062503E+00  3.5241241E+01
 5.6177502E+00  3.5147778E+01
 5.6292500E+00  3.5291466E+01
 5.6407504E+00  3.5331608E+01
 5.6522503E+00  3.5543274E+01
 5.6637502E+00  3.5714966E+01
 5.6752501E+00  3.5755356E+01
 5.6867504E+00  3.5788963E+01
 5.6982503E+00  3.5833969E+01
 5.7097502E+00  3.5949539E+01
 5.7212501E+00  3.6074127E+01
 5.7327504E+00  3.6157375E+01
 5.7442503E+00  3.6210720E+01
 5.7557502E+00  3.6138798E+01
 5.7672501E+00  3.5978531E+01
 5.7787504E+00  3.5850204E+01
 5.7902503E+00  3.5829655E+01
 5.8017502E+00  3.5816784E+01
 5.8132501E+00  3.5901131E+01
 5.8247504E+00  3.5953655E+01
 5.8362503E+00  3.5989380E+01
 5.8477502E+00  3.5973431E+01
 5.8592501E+00  3.5925179E+01
 5.8707504E+00  3.6007168E+01
 5.8822503E+00  3.6118675E+01
 5.8937502E+00  3.6393921E+01
 5.9052501E+00  3.6614525E+01
 5.9167504E+00  3.7059616E+01
 5.9282503E+00  3.7623154E+01
 5.9397502E+00  3.8984859E+01
 5.9512501E+00  4.0571377E+01
 5.9627504E+00  4.2080624E+01
 5.9742503E+00  4.3419376E+01
 5.9857502E+00  4.3547092E+01
 5.9972501E+00  4.3528618E+01
 6.0087504E+00  4.2281593E+01
 6.0202503E+00  4.0726372E+01
 6.0317502E+00  3.8899811E+01
 6.0432501E+00  3.7843758E+01
 6.0547504E+00  3.7345173E+01
 6.0662503E+00  3.7080841E+01
 6.0777502E+00  3.6848534E+01
 6.0892501E+00  3.6866806E+01
 6.1007504E+00  3.6878391E+01
 6.1122503E+00  3.6938934E+01
 6.1237502E+00  3.6935188E+01
 6.1352501E+00  3.6901993E+01
 6.1467505E+00  3.6955593E+01
 6.1582503E+00  3.7102810E+01
 6.1697502E+00  3.7232571E+01
 6.1812501E+00  3.7326981E+01
 6.1927505E+00  3.7313061E+01
 6.2042503E+00  3.7271690E+01
 6.2157502E+00  3.7275787E+01
 6.2272501E+00  3.7311840E+01
 6.2387505E+00  3.7385719E+01
 6.2502503E+00  3.7472366E+01
 6.2617502E+00  3.7489239E+01
 6.2732501E+00  3.7638115E+01
 6.2847505E+00  3.7785252E+01
 6.2962503E+00  3.7835758E+01
 6.3077502E+00  3.7945427E+01
 6.3192501E+00  3.8008865E+01
 6.3307505E+00  3.8116905E+01
 6.3422503E+00  3.8195084E+01
 6.3537502E+00  3.8210464E+01
 6.3652501E+00  3.8324184E+01
 6.3767505E+00  3.8413090E+01
 6.3882504E+00  3.8507420E+01
 6.3997502E+00  3.8638996E+01
 6.4112501E+00  3.8758072E+01
 6.4227505E+00  3.8822277E+01
 6.4342504E+00  3.8870770E+01
 6.4457502E+00  3.8863029E+01
 6.4572501E+00  3.8839783E+01
 6.4687505E+00  3.8852665E+01
 6.4802504E+00  3.8821770E+01
 6.4917502E+00  3.8977707E+01
 6.5032501E+00  3.9119705E+01
 6.5147505E+00  3.9364017E+01
 6.5262504E+00  3.9400719E+01
 6.5377502E+00  3.9443649E+01
 6.5492501E+00  3.9431149E+01
 6.5607505E+00  3.9549553E+01
 6.5722504E+00  3.9696346E+01
 6.5837502E+00  3.9903133E+01
 6.5952501E+00  4.0033955E+01
 6.6067505E+00  4.0193432E+01
 6.6182504E+00  4.0228363E+01
 6.6297503E+00  4.0271065E+01
 6.6412501E+00  4.0215065E+01
 6.6527505E+00  4.0217216E+01
 6.6642504E+00  4.0291843E+01
 6.6757503E+00  4.0317562E+01
 6.6872501E+00  4.0306030E+01
 6.6987505E+00  4.0310806E+01
 6.7102504E+00  4.0458473E+01
 6.7217503E+00  4.0577915E+01
 6.7332501E+00  4.0676338E+01
 6.7447505E+00  4.0688286E+01
 6.7562504E+00  4.0858944E+01
 6.7677503E+00  4.1094109E+01
 6.7792501E+00  4.1332386E+01
 6.7907505E+00  4.1540138E+01
 6.8022504E+00  4.1609436E+01
 6.8137503E+00  4.1716545E+01
 6.8252501E+00  4.1806366E+01
 6.8367505E+00  4.1897312E+01
 6.8482504E+00  4.2123764E+01
 6.8597503E+00  4.2146355E+01
 6.8712502E+00  4.2236683E+01
 6.8827505E+00  4.2213417E+01
 6.8942504E+00  4.2246056E+01
 6.9057503E+00  4.2323948E+01
 6.9172502E+00  4.2355614E+01
 6.9287505E+00  4.2419960E+01
 6.9402504E+00  4.2502220E+01
 6.9517503E+00  4.2576294E+01
 6.9632502E+00  4.2759686E+01
 6.9747505E+00  4.2852139E+01
 6.9862504E+00  4.2948551E+01
 6.9977503E+00  4.2960957E+01
 7.0092502E+00  4.2969597E+01
 7.0207505E+00  4.2992081E+01
 7.0322504E+00  4.2903767E+01
 7.0437503E+00  4.2902699E+01
 7.0552502E+00  4.2838696E+01
 7.0667505E+00  4.2882492E+01
 7.0782504E+00  4.2847004E+01
 7.0897503E+00  4.2932907E+01
 7.1012502E+00  4.3079216E+01
 7.1127505E+00  4.3283157E+01
 7.1242504E+00  4.3425766E+01
 7.1357503E+00  4.3561405E+01
 7.1472502E+00  4.3629566E+01
 7.1587505E+00  4.3706505E+01
 7.1702504E+00  4.3665283E+01
 7.1817503E+00  4.3666298E+01
 7.1932502E+00  4.3764332E+01
 7.2047505E+00  4.3820614E+01
 7.2162504E+00  4.3828571E+01
 7.2277503E+00  4.3787388E+01
 7.2392502E+00  4.3769691E+01
 7.2507505E+00  4.3869205E+01
 7.2622504E+00  4.3846851E+01
 7.2737503E+00  4.3909096E+01
 7.2852502E+00  4.3889626E+01
 7.2967505E+00  4.3909355E+01
 7.3082504E+00  4.3902561E+01
 7.3197503E+00  4.4075626E+01
 7.3312502E+00  4.4169147E+01
 7.3427505E+00  4.4417042E+01
 7.3542504E+00  4.4572815E+01
 7.3657503E+00  4.4729954E+01
 7.3772502E+00  4.4804340E+01
 7.3887506E+00  4.4838814E+01
 7.4002504E+00  4.4907261E+01
 7.4117503E+00  4.5011791E+01
 7.4232502E+00  4.4997200E+01
 7.4347506E+00  4.4999268E+01
 7.4462504E+00  4.4895878E+01
 7.4577503E+00  4.4895248E+01
 7.4692502E+00  4.4898499E+01
 7.4807506E+00  4.5007927E+01
 7.4922504E+00  4.4967857E+01
 7.5037503E+00  4.5114300E+01
 7.5152502E+00  4.4990849E+01
 7.5267506E+00  4.5121708E+01
 7.5382504E+00  4.5018177E+01
 7.5497503E+00  4.5049656E+01
 7.5612502E+00  4.5089596E+01
 7.5727506E+00  4.5031754E+01
 7.5842505E+00  4.5006123E+01
 7.5957503E+00  4.4970451E+01
 7.6072502E+00  4.4891171E+01
 7.6187506E+00  4.4826618E+01
 7.6302505E+00  4.4654972E+01
 7.6417503E+00  4.4657429E+01
 7.6532502E+00  4.4735580E+01
 7.6647506E+00  4.4806263E+01
 7.6762505E+00  4.4861897E+01
 7.6877503E+00  4.4876476E+01
 7.6992502E+00  4.4819374E+01
 7.7107506E+00  4.4797604E+01
 7.7222505E+00  4.4816959E+01
 7.7337503E+00  4.4927242E+01
 7.7452502E+00  4.4983173E+01
 7.7567506E+00  4.5013721E+01
 7.7682505E+00  4.5088436E+01
 7.7797503E+00  4.5076397E+01
 7.7912502E+00  4.5059189E+01
 7.8027506E+00  4.4951923E+01
 7.8142505E+00  4.4890182E+01
 7.8257504E+00  4.4804253E+01
 7.8372502E+00  4.4713173E+01
 7.8487506E+00  4.4730537E+01
 7.8602505E+00  4.4657154E+01
 7.8717504E+00  4.4579491E+01
 7.8832502E+00  4.4489586E+01
 7.8947506E+00  4.4417461E+01
 7.9062505E+00  4.4483612E+01
 7.9177504E+00  4.4466217E+01
 7.9292502E+00  4.4492931E+01
 7.9407506E+00  4.4461811E+01
 7.9522505E+00  4.4381207E+01
 7.9637504E+00  4.4275852E+01
 7.9752502E+00  4.4102505E+01
 7.9867506E+00  4.3961109E+01
 7.9982505E+00  4.3836254E+01
 8.0097504E+00  4.3741131E+01
 8.0212507E+00  4.3643627E+01
 8.0327501E+00  4.3609997E+01
 8.0442505E+00  4.3640125E+01
 8.0557508E+00  4.3669529E+01
 8.0672503E+00  4.3649223E+01
 8.0787506E+00  4.3562828E+01
 8.0902500E+00  4.3482342E+01
 8.1017504E+00  4.3418301E+01
 8.1132507E+00  4.3294201E+01
 8.1247501E+00  4.3147282E+01
 8.1362505E+00  4.3008785E+01
 8.1477509E+00  4.2939503E+01
 8.1592503E+00  4.2805531E+01
 8.1707506E+00  4.2785954E+01
 8.1822500E+00  4.2597149E+01
 8.1937504E+00  4.2574287E+01
 8.2052507E+00  4.2453297E+01
 8.2167501E+00  4.2389317E+01
 8.2282505E+00  4.2301407E+01
 8.2397509E+00  4.2112770E+01
 8.2512503E+00  4.2089409E+01
 8.2627506E+00  4.1963203E+01
 8.2742500E+00  4.1895927E+01
 8.2857504E+00  4.1717899E+01
 8.2972507E+00  4.1552479E+01
 8.3087502E+00  4.1474022E+01
 8.3202505E+00  4.1333942E+01
 8.3317509E+00  4.1132290E+01
 8.3432503E+00  4.0913368E+01
 8.3547506E+00  4.0712448E+01
 8.3662500E+00  4.0649750E+01
 8.3777504E+00  4.0424179E+01
 8.3892508E+00  4.0285351E+01
 8.4007502E+00  4.0062965E+01
 8.4122505E+00  3.9982254E+01
 8.4237509E+00  3.9842739E+01
 8.4352503E+00  3.9642067E+01
 8.4467506E+00  3.9422344E+01
 8.4582500E+00  3.9270218E+01
 8.4697504E+00  3.9141506E+01
 8.4812508E+00  3.9064014E+01
 8.4927502E+00  3.8875057E+01
 8.5042505E+00  3.8689388E+01
 8.5157509E+00  3.8479244E+01
 8.5272503E+00  3.8269085E+01
 8.5387506E+00  3.8187820E+01
 8.5502501E+00  3.7941681E+01
 8.5617504E+00  3.7783138E+01
 8.5732508E+00  3.7510792E+01
 8.5847502E+00  3.7340263E+01
 8.5962505E+00  3.7174217E+01
 8.6077509E+00  3.6977001E+01
 8.6192503E+00  3.6811050E+01
 8.6307507E+00  3.6573555E+01
 8.6422501E+00  3.6392750E+01
 8.6537504E+00  3.6178787E+01
 8.6652508E+00  3.6030323E+01
 8.6767502E+00  3.5822884E+01
 8.6882505E+00  3.5709583E+01
 8.6997509E+00  3.5557266E+01
 8.7112503E+00  3.5456928E+01
 8.7227507E+00  3.5360691E+01
 8.7342501E+00  3.5190731E+01
 8.7457504E+00  3.5024700E+01
 8.7572508E+00  3.4757038E+01
 8.7687502E+00  3.4531113E+01
 8.7802505E+00  3.4357624E+01
 8.7917500E+00  3.4172512E+01
 8.8032503E+00  3.4051060E+01
 8.8147507E+00  3.3913189E+01
 8.8262501E+00  3.3786121E+01
 8.8377504E+00  3.3590504E+01
 8.8492508E+00  3.3376488E+01
 8.8607502E+00  3.3243519E+01
 8.8722506E+00  3.3127159E+01
 8.8837500E+00  3.3016945E+01
 8.8952503E+00  3.2729176E+01
 8.9067507E+00  3.2527706E+01
 8.9182501E+00  3.2271355E+01
 8.9297504E+00  3.2120892E+01
 8.9412508E+00  3.1940987E+01
 8.9527502E+00  3.1809114E+01
 8.9642506E+00  3.1681822E+01
 8.9757500E+00  3.1569429E+01
 8.9872503E+00  3.1439875E+01
 8.9987507E+00  3.1292137E+01
 9.0102501E+00  3.1086754E+01
 9.0217505E+00  3.0931616E+01
 9.0332508E+00  3.0888624E+01
 9.0447502E+00  3.0824083E+01
 9.0562506E+00  3.0724476E+01
 9.0677500E+00  3.0555418E+01
 9.0792503E+00  3.0415447E+01
 9.0907507E+00  3.0206577E+01
 9.1022501E+00  2.9988394E+01
 9.1137505E+00  2.9797979E+01
 9.1252508E+00  2.9730244E+01
 9.1367502E+00  2.9626759E+01
 9.1482506E+00  2.9622156E+01
 9.1597500E+00  2.9560520E+01
 9.1712503E+00  2.9526657E+01
 9.1827507E+00  2.9411222E+01
 9.1942501E+00  2.9287529E+01
 9.2057505E+00  2.9152882E+01
 9.2172508E+00  2.8995323E+01
 9.2287502E+00  2.8880444E+01
 9.2402506E+00  2.8809948E+01
 9.2517500E+00  2.8746901E+01
 9.2632504E+00  2.8685549E+01
 9.2747507E+00  2.8584867E+01
 9.2862501E+00  2.8547348E+01
 9.2977505E+00  2.8459127E+01
 9.3092508E+00  2.8289242E+01
 9.3207502E+00  2.8091965E+01
 9.3322506E+00  2.7841986E+01
 9.3437500E+00  2.7704885E+01
 9.3552504E+00  2.7571236E+01
 9.3667507E+00  2.7491985E+01
 9.3782501E+00  2.7486721E+01
 9.3897505E+00  2.7498388E+01
 9.4012508E+00  2.7533222E+01
 9.4127502E+00  2.7508017E+01
 9.4242506E+00  2.7461451E+01
 9.4357500E+00  2.7324917E+01
 9.4472504E+00  2.7139378E+01
 9.4587507E+00  2.6955761E+01
 9.4702501E+00  2.6855040E+01
 9.4817505E+00  2.6785898E+01
 9.4932508E+00  2.6704239E+01
 9.5047503E+00  2.6645403E+01
 9.5162506E+00  2.6625734E+01
 9.5277500E+00  2.6611092E+01
 9.5392504E+00  2.6559752E+01
 9.5507507E+00  2.6449060E+01
 9.5622501E+00  2.6329372E+01
 9.5737505E+00  2.6209572E+01
 9.5852509E+00  2.6157656E+01
 9.5967503E+00  2.6127510E+01
 9.6082506E+00  2.6087610E+01
 9.6197500E+00  2.6057690E+01
 9.6312504E+00  2.6014706E+01
 9.6427507E+00  2.5944973E+01
 9.6542501E+00  2.5879112E+01
 9.6657505E+00  2.5827166E+01
 9.6772509E+00  2.5842325E+01
 9.6887503E+00  2.5784069E+01
 9.7002506E+00  2.5808489E+01
 9.7117500E+00  2.5787973E+01
 9.7232504E+00  2.5826159E+01
 9.7347507E+00  2.5712162E+01
 9.7462502E+00  2.5623322E+01
 9.7577505E+00  2.5487001E+01
 9.7692509E+00  2.5441078E+01
 9.7807503E+00  2.5345167E+01
 9.7922506E+00  2.5323814E+01
 9.8037500E+00  2.5230234E+01
 9.8152504E+00  2.5175179E+01
 9.8267508E+00  2.5038622E+01
 9.8382502E+00  2.4966887E+01
 9.8497505E+00  2.4877012E+01
 9.8612509E+00  2.4859129E+01
 9.8727503E+00  2.4847885E+01
 9.8842506E+00  2.4850027E+01
 9.8957500E+00  2.4900282E+01
 9.9072504E+00  2.4913736E+01
 9.9187508E+00  2.4916183E+01
 9.9302502E+00  2.4852636E+01
 9.9417505E+00  2.4786589E+01
 9.9532509E+00  2.4750595E+01
 9.9647503E+00  2.4784586E+01
 9.9762506E+00  2.4826738E+01
 9.9877501E+00  2.4858252E+01
 9.9992504E+00  2.4888285E+01
 1.0010751E+01  2.4898603E+01
 1.0022250E+01  2.4834925E+01
 1.0033751E+01  2.4755594E+01
 1.0045251E+01  2.4593046E+01
 1.0056750E+01  2.4482481E+01
 1.0068251E+01  2.4376581E+01
 1.0079750E+01  2.4286057E+01
 1.0091250E+01  2.4273174E+01
 1.0102751E+01  2.4239325E+01
 1.0114250E+01  2.4254887E+01
 1.0125751E+01  2.4265493E+01
 1.0137251E+01  2.4182198E+01
 1.0148750E+01  2.4202429E+01
 1.0160251E+01  2.4161039E+01
 1.0171750E+01  2.4202675E+01
 1.0183250E+01  2.4184740E+01
 1.0194751E+01  2.4138374E+01
 1.0206250E+01  2.4123266E+01
 1.0217751E+01  2.4086720E+01
 1.0229251E+01  2.4039438E+01
 1.0240750E+01  2.4056707E+01
 1.0252251E+01  2.4002319E+01
 1.0263750E+01  2.4035923E+01
 1.0275250E+01  2.3957552E+01
 1.0286751E+01  2.3968002E+01
 1.0298250E+01  2.3834330E+01
 1.0309751E+01  2.3728064E+01
 1.0321251E+01  2.3587612E+01
 1.0332750E+01  2.3584579E+01
 1.0344251E+01  2.3588066E+01
 1.0355750E+01  2.3593105E+01
 1.0367250E+01  2.3550602E+01
 1.0378751E+01  2.3542732E+01
 1.0390250E+01  2.3579720E+01
 1.0401751E+01  2.3576391E+01
 1.0413251E+01  2.3570852E+01
 1.0424750E+01  2.3535000E+01
 1.0436251E+01  2.3559969E+01
 1.0447750E+01  2.3521437E+01
 1.0459250E+01  2.3478086E+01
 1.0470751E+01  2.3445240E+01
 1.0482250E+01  2.3427702E+01
 1.0493751E+01  2.3441086E+01
 1.0505251E+01  2.3433147E+01
 1.0516750E+01  2.3428713E+01
 1.0528251E+01  2.3328751E+01
 1.0539750E+01  2.3249577E+01
 1.0551250E+01  2.3222729E+01
 1.0562751E+01  2.3337202E+01
 1.0574250E+01  2.3390230E+01
 1.0585751E+01  2.3418955E+01
 1.0597251E+01  2.3360193E+01
 1.0608750E+01  2.3373657E+01
 1.0620251E+01  2.3305967E+01
 1.0631750E+01  2.3300028E+01
 1.0643250E+01  2.3243591E+01
 1.0654751E+01  2.3270075E+01
 1.0666250E+01  2.3200066E+01
 1.0677751E+01  2.3189127E+01
 1.0689251E+01  2.3153933E+01
 1.0700750E+01  2.3157259E+01
 1.0712251E+01  2.3175920E+01
 1.0723750E+01  2.3194090E+01
 1.0735250E+01  2.3182991E+01
 1.0746751E+01  2.3191448E+01
 1.0758250E+01  2.3141150E+01
 1.0769751E+01  2.3139032E+01
 1.0781251E+01  2.3105433E+01
 1.0792750E+01  2.3114613E+01
 1.0804251E+01  2.3087503E+01
 1.0815750E+01  2.3074982E+01
 1.0827250E+01  2.3043303E+01
 1.0838751E+01  2.3022121E+01
 1.0850250E+01  2.3007980E+01
 1.0861751E+01  2.3016068E+01
 1.0873251E+01  2.3047272E+01
 1.0884750E+01  2.2967560E+01
 1.0896251E+01  2.2974016E+01
 1.0907750E+01  2.2974728E+01
 1.0919250E+01  2.3005705E+01
 1.0930751E+01  2.2969093E+01
 1.0942250E+01  2.2889925E+01
 1.0953751E+01  2.2874086E+01
 1.0965251E+01  2.2841059E+01
 1.0976750E+01  2.2842863E+01
 1.0988251E+01  2.2853029E+01
 1.0999750E+01  2.2842854E+01
 1.1011250E+01  2.2812685E+01
 1.1022751E+01  2.2771086E+01
 1.1034250E+01  2.2732212E+01
 1.1045751E+01  2.2683859E+01
 1.1057251E+01  2.2638569E+01
 1.1068750E+01  2.2631950E+01
 1.1080251E+01  2.2699579E+01
 1.1091750E+01  2.2801142E+01
 1.1103251E+01  2.2850822E+01
 1.1114751E+01  2.2896090E+01
 1.1126250E+01  2.2905603E+01
 1.1137751E+01  2.2853800E+01
 1.1149251E+01  2.2825642E+01
 1.1160750E+01  2.2778261E+01
 1.1172251E+01  2.2769001E+01
 1.1183750E+01  2.2769674E+01
 1.1195251E+01  2.2748287E+01
 1.1206751E+01  2.2794872E+01
 1.1218250E+01  2.2745268E+01
 1.1229751E+01  2.2720512E+01
 1.1241251E+01  2.2665817E+01
 1.1252750E+01  2.2649218E+01
 1.1264251E+01  2.2591940E+01
 1.1275750E+01  2.2583069E+01
 1.1287251E+01  2.2552891E+01
 1.1298751E+01  2.2531445E+01
 1.1310250E+01  2.2496899E+01
 1.1321751E+01  2.2520105E+01
 1.1333251E+01  2.2538326E+01
 1.1344750E+01  2.2529278E+01
 1.1356251E+01  2.2538771E+01
 1.1367750E+01  2.2589401E+01
 1.1379251E+01  2.2649233E+01
 1.1390751E+01  2.2697454E+01
 1.1402250E+01  2.2783190E+01
 1.1413751E+01  2.2779997E+01
 1.1425251E+01  2.2760988E+01
 1.1436750E+01  2.2696928E+01
 1.1448251E+01  2.2715197E+01
 1.1459750E+01  2.2762968E+01
 1.1471251E+01  2.2751926E+01
 1.1482751E+01  2.2772966E+01
 1.1494250E+01  2.2759327E+01
 1.1505751E+01  2.2761236E+01
 1.1517251E+01  2.2813391E+01
 1.1528750E+01  2.2888430E+01
 1.1540251E+01  2.3025089E+01
 1.1551750E+01  2.3210709E+01
 1.1563251E+01  2.3361315E+01
 1.1574751E+01  2.3579988E+01
 1.1586250E+01  2.3692986E+01
 1.1597751E+01  2.3691681E+01
 1.1609251E+01  2.3525362E+01
 1.1620750E+01  2.3255079E+01
 1.1632251E+01  2.3052713E+01
 1.1643750E+01  2.2892433E+01
 1.1655251E+01  2.2785967E+01
 1.1666751E+01  2.2684328E+01
 1.1678250E+01  2.2597582E+01
 1.1689751E+01  2.2522846E+01
 1.1701251E+01  2.2501062E+01
 1.1712750E+01  2.2482756E+01
 1.1724251E+01  2.2523975E+01
 1.1735750E+01  2.2547470E+01
 1.1747251E+01  2.2581507E+01
 1.1758751E+01  2.2594173E+01
 1.1770250E+01  2.2592402E+01
 1.1781751E+01  2.2621538E+01
 1.1793251E+01  2.2624998E+01
 1.1804750E+01  2.2647579E+01
 1.1816251E+01  2.2633001E+01
 1.1827750E+01  2.2617266E+01
 1.1839251E+01  2.2614304E+01
 1.1850751E+01  2.2631081E+01
 1.1862250E+01  2.2686300E+01
 1.1873751E+01  2.2698469E+01
 1.1885251E+01  2.2674488E+01
 1.1896750E+01  2.2601023E+01
 1.1908251E+01  2.2597843E+01
 1.1919750E+01  2.2621788E+01
 1.1931251E+01  2.2668791E+01
 1.1942751E+01  2.2660191E+01
 1.1954250E+01  2.2715281E+01
 1.1965751E+01  2.2747675E+01
 1.1977251E+01  2.2809719E+01
 1.1988750E+01  2.2815432E+01
 1.2000251E+01  2.2793776E+01
 1.2011750E+01  2.2756624E+01
 1.2023251E+01  2.2713886E+01
 1.2034751E+01  2.2715912E+01
 1.2046250E+01  2.2748753E+01
 1.2057751E+01  2.2705164E+01
 1.2069251E+01  2.2735319E+01
 1.2080750E+01  2.2715614E+01
 1.2092251E+01  2.2809685E+01
 1.2103750E+01  2.2859726E+01
 1.2115251E+01  2.2890593E+01
 1.2126751E+01  2.2831545E+01
 1.2138250E+01  2.2791735E+01
 1.2149751E+01  2.2704962E+01
 1.2161251E+01  2.2672253E+01
 1.2172750E+01  2.2610458E+01
 1.2184251E+01  2.2642092E+01
 1.2195750E+01  2.2633116E+01
 1.2207251E+01  2.2599360E+01
 1.2218751E+01  2.2572428E+01
 1.2230250E+01  2.2533739E+01
 1.2241751E+01  2.2478394E+01
 1.2253251E+01  2.2442785E+01
 1.2264750E+01  2.2421677E+01
 1.2276251E+01  2.2393791E+01
 1.2287750E+01  2.2421389E+01
 1.2299251E+01  2.2481417E+01
 1.2310751E+01  2.2615391E+01
 1.2322250E+01  2.2639494E+01
 1.2333751E+01  2.2681999E+01
 1.2345250E+01  2.2691797E+01
 1.2356750E+01  2.2707911E+01
 1.2368251E+01  2.2716774E+01
 1.2379750E+01  2.2728210E+01
 1.2391251E+01  2.2720001E+01
 1.2402751E+01  2.2666983E+01
 1.2414250E+01  2.2646149E+01
 1.2425751E+01  2.2605196E+01
 1.2437250E+01  2.2623369E+01
 1.2448750E+01  2.2623447E+01
 1.2460251E+01  2.2678118E+01
 1.2471750E+01  2.2711031E+01
 1.2483251E+01  2.2776623E+01
 1.2494751E+01  2.2801359E+01
 1.2506250E+01  2.2828581E+01
 1.2517751E+01  2.2779686E+01
 1.2529250E+01  2.2769510E+01
 1.2540751E+01  2.2809826E+01
 1.2552251E+01  2.2830797E+01
 1.2563750E+01  2.2878170E+01
 1.2575251E+01  2.2892834E+01
 1.2586751E+01  2.2943871E+01
 1.2598250E+01  2.2984398E+01
 1.2609751E+01  2.3014652E+01
 1.2621250E+01  2.3044750E+01
 1.2632751E+01  2.3069139E+01
 1.2644251E+01  2.3067768E+01
 1.2655750E+01  2.3039814E+01
 1.2667251E+01  2.3076986E+01
 1.2678751E+01  2.3108997E+01
 1.2690250E+01  2.3168459E+01
 1.2701751E+01  2.3176756E+01
 1.2713250E+01  2.3207632E+01
 1.2724751E+01  2.3182768E+01
 1.2736251E+01  2.3131250E+01
 1.2747750E+01  2.3098902E+01
 1.2759251E+01  2.3135750E+01
 1.2770751E+01  2.3160036E+01
 1.2782250E+01  2.3215673E+01
 1.2793751E+01  2.3255648E+01
 1.2805250E+01  2.3331846E+01
 1.2816751E+01  2.3359184E+01
 1.2828251E+01  2.3389675E+01
 1.2839750E+01  2.3408573E+01
 1.2851251E+01  2.3445383E+01
 1.2862751E+01  2.3531256E+01
 1.2874250E+01  2.3582514E+01
 1.2885751E+01  2.3588076E+01
 1.2897250E+01  2.3572950E+01
 1.2908751E+01  2.3591864E+01
 1.2920251E+01  2.3644070E+01
 1.2931750E+01  2.3721043E+01
 1.2943251E+01  2.3820335E+01
 1.2954751E+01  2.3844725E+01
 1.2966250E+01  2.3863914E+01
 1.2977751E+01  2.3904995E+01
 1.2989250E+01  2.3945560E+01
 1.3000751E+01  2.4007324E+01
 1.3012251E+01  2.4059690E+01
 1.3023750E+01  2.4174522E+01
 1.3035251E+01  2.4258259E+01
 1.3046751E+01  2.4349529E+01
 1.3058250E+01  2.4461081E+01
 1.3069751E+01  2.4556347E+01
 1.3081250E+01  2.4664345E+01
 1.3092751E+01  2.4833170E+01
 1.3104251E+01  2.4961653E+01
 1.3115750E+01  2.5124149E+01
 1.3127251E+01  2.5223566E+01
 1.3138751E+01  2.5315836E+01
 1.3150250E+01  2.5388676E+01
 1.3161751E+01  2.5480595E+01
 1.3173250E+01  2.5581057E+01
 1.3184751E+01  2.5675718E+01
 1.3196251E+01  2.5760063E+01
 1.3207750E+01  2.5897346E+01
 1.3219251E+01  2.6068214E+01
 1.3230751E+01  2.6241581E+01
 1.3242250E+01  2.6442556E+01
 1.3253751E+01  2.6539478E+01
 1.3265250E+01  2.6680189E+01
 1.3276751E+01  2.6804745E+01
 1.3288251E+01  2.7018778E+01
 1.3299750E+01  2.7261194E+01
 1.3311251E+01  2.7432693E+01
 1.3322751E+01  2.7628649E+01
 1.3334250E+01  2.7835794E+01
 1.3345751E+01  2.7983408E+01
 1.3357250E+01  2.8122375E+01
 1.3368751E+01  2.8105284E+01
 1.3380251E+01  2.8243410E+01
 1.3391750E+01  2.8356655E+01
 1.3403251E+01  2.8544874E+01
 1.3414751E+01  2.8697168E+01
 1.3426250E+01  2.8766188E+01
 1.3437751E+01  2.8805367E+01
 1.3449250E+01  2.8829605E+01
 1.3460751E+01  2.8942410E+01
 1.3472251E+01  2.9061291E+01
 1.3483750E+01  2.9187590E+01
 1.3495251E+01  2.9337584E+01
 1.3506751E+01  2.9493263E+01
 1.3518250E+01  2.9614088E+01
 1.3529751E+01  2.9693434E+01
 1.3541250E+01  2.9790115E+01
 1.3552751E+01  2.9842003E+01
 1.3564251E+01  2.9865383E+01
 1.3575750E+01  2.9872070E+01
 1.3587251E+01  2.9908670E+01
 1.3598751E+01  2.9945831E+01
 1.3610250E+01  2.9960258E+01
 1.3621751E+01  2.9979988E+01
 1.3633250E+01  2.9955105E+01
 1.3644751E+01  2.9914354E+01
 1.3656251E+01  2.9869339E+01
 1.3667750E+01  2.9907766E+01
 1.3679251E+01  2.9940758E+01
 1.3690751E+01  2.9921368E+01
 1.3702250E+01  2.9820557E+01
 1.3713751E+01  2.9671465E+01
 1.3725250E+01  2.9553534E+01
 1.3736751E+01  2.9467516E+01
 1.3748251E+01  2.9440355E+01
 1.3759750E+01  2.9376173E+01
 1.3771251E+01  2.9377789E+01
 1.3782751E+01  2.9403177E+01
 1.3794250E+01  2.9413837E+01
 1.3805751E+01  2.9391930E+01
 1.3817250E+01  2.9326485E+01
 1.3828751E+01  2.9241451E+01
 1.3840251E+01  2.9143064E+01
 1.3851750E+01  2.9037766E+01
 1.3863251E+01  2.8974014E+01
 1.3874751E+01  2.8965300E+01
 1.3886250E+01  2.9018089E+01
 1.3897751E+01  2.9254478E+01
 1.3909250E+01  2.9416409E+01
 1.3920751E+01  2.9688393E+01
 1.3932251E+01  3.0073668E+01
 1.3943750E+01  3.0283373E+01
 1.3955251E+01  3.0591066E+01
 1.3966751E+01  3.0517387E+01
 1.3978251E+01  3.0300825E+01
 1.3989751E+01  2.9822264E+01
 1.4001250E+01  2.9216366E+01
 1.4012751E+01  2.8857384E+01
 1.4024251E+01  2.8405298E+01
 1.4035750E+01  2.8185509E+01
 1.4047251E+01  2.7964569E+01
 1.4058751E+01  2.7833466E+01
 1.4070251E+01  2.7774843E+01
 1.4081751E+01  2.7661133E+01
 1.4093250E+01  2.7563332E+01
 1.4104751E+01  2.7427191E+01
 1.4116251E+01  2.7306732E+01
 1.4127750E+01  2.7221380E+01
 1.4139251E+01  2.7154375E+01
 1.4150751E+01  2.7124716E+01
 1.4162251E+01  2.7093756E+01
 1.4173751E+01  2.7101057E+01
 1.4185250E+01  2.7116734E+01
 1.4196751E+01  2.7105875E+01
 1.4208251E+01  2.7131474E+01
 1.4219750E+01  2.7069042E+01
 1.4231251E+01  2.6921888E+01
 1.4242751E+01  2.6776533E+01
 1.4254251E+01  2.6668617E+01
 1.4265751E+01  2.6598394E+01
 1.4277250E+01  2.6492517E+01
 1.4288751E+01  2.6453842E+01
 1.4300251E+01  2.6345369E+01
 1.4311750E+01  2.6317556E+01
 1.4323251E+01  2.6223782E+01
 1.4334751E+01  2.6256439E+01
 1.4346251E+01  2.6232756E+01
 1.4357751E+01  2.6269468E+01
 1.4369250E+01  2.6255648E+01
 1.4380751E+01  2.6244547E+01
 1.4392251E+01  2.6184195E+01
 1.4403750E+01  2.6139971E+01
 1.4415251E+01  2.6071695E+01
 1.4426751E+01  2.6045216E+01
 1.4438251E+01  2.6030472E+01
 1.4449751E+01  2.6020063E+01
 1.4461250E+01  2.5932791E+01
 1.4472751E+01  2.5803659E+01
 1.4484251E+01  2.5718378E+01
 1.4495750E+01  2.5685978E+01
 1.4507251E+01  2.5725672E+01
 1.4518751E+01  2.5712091E+01
 1.4530251E+01  2.5755514E+01
 1.4541751E+01  2.5738457E+01
 1.4553250E+01  2.5695446E+01
 1.4564751E+01  2.5600513E+01
 1.4576251E+01  2.5463070E+01
 1.4587750E+01  2.5413952E+01
 1.4599251E+01  2.5350958E+01
 1.4610751E+01  2.5403162E+01
 1.4622251E+01  2.5399643E+01
 1.4633751E+01  2.5440231E+01
 1.4645250E+01  2.5416019E+01
 1.4656751E+01  2.5346655E+01
 1.4668251E+01  2.5288406E+01
 1.4679750E+01  2.5280285E+01
 1.4691251E+01  2.5324301E+01
 1.4702751E+01  2.5317493E+01
 1.4714251E+01  2.5309242E+01
 1.4725751E+01  2.5276106E+01
 1.4737250E+01  2.5277159E+01
 1.4748751E+01  2.5200529E+01
 1.4760251E+01  2.5160444E+01
 1.4771750E+01  2.5126957E+01
 1.4783251E+01  2.5133001E+01
 1.4794751E+01  2.5149715E+01
 1.4806251E+01  2.5185196E+01
 1.4817751E+01  2.5125647E+01
 1.4829250E+01  2.5112654E+01
 1.4840751E+01  2.5059950E+01
 1.4852251E+01  2.5055231E+01
 1.4863750E+01  2.5015629E+01
 1.4875251E+01  2.4950563E+01
 1.4886751E+01  2.4994390E+01
 1.4898251E+01  2.5019989E+01
 1.4909751E+01  2.5045406E+01
 1.4921250E+01  2.5053358E+01
 1.4932751E+01  2.5012882E+01
 1.4944251E+01  2.4996847E+01
 1.4955750E+01  2.4976561E+01
 1.4967251E+01  2.4974705E+01
 1.4978751E+01  2.4979753E+01
 1.4990251E+01  2.4987715E+01
 1.5001751E+01  2.4975155E+01
 1.5013250E+01  2.4989702E+01
 1.5024751E+01  2.4932541E+01
 1.5036251E+01  2.4875540E+01
 1.5047750E+01  2.4807863E+01
 1.5059251E+01  2.4818596E+01
 1.5070751E+01  2.4857208E+01
 1.5082251E+01  2.4846378E+01
 1.5093751E+01  2.4861490E+01
 1.5105250E+01  2.4895252E+01
 1.5116751E+01  2.4940390E+01
 1.5128251E+01  2.4882723E+01
 1.5139750E+01  2.4902077E+01
 1.5151251E+01  2.5023043E+01
 1.5162751E+01  2.5197697E+01
 1.5174251E+01  2.5335243E+01
 1.5185751E+01  2.5390779E+01
 1.5197250E+01  2.5404150E+01
 1.5208751E+01  2.5421280E+01
 1.5220251E+01  2.5303318E+01
 1.5231750E+01  2.5171122E+01
 1.5243251E+01  2.4977913E+01
 1.5254751E+01  2.4880388E+01
 1.5266251E+01  2.4775894E+01
 1.5277751E+01  2.4786705E+01
 1.5289250E+01  2.4809286E+01
 1.5300751E+01  2.4832399E+01
 1.5312251E+01  2.4828644E+01
 1.5323750E+01  2.4848021E+01
 1.5335251E+01  2.4867559E+01
 1.5346751E+01  2.4835070E+01
 1.5358251E+01  2.4800539E+01
 1.5369751E+01  2.4803116E+01
 1.5381250E+01  2.4757334E+01
 1.5392751E+01  2.4770569E+01
 1.5404251E+01  2.4764603E+01
 1.5415751E+01  2.4793627E+01
 1.5427251E+01  2.4733597E+01
 1.5438751E+01  2.4699127E+01
 1.5450251E+01  2.4641037E+01
 1.5461751E+01  2.4582180E+01
 1.5473250E+01  2.4530804E+01
 1.5484751E+01  2.4516050E+01
 1.5496251E+01  2.4532721E+01
 1.5507751E+01  2.4558403E+01
 1.5519251E+01  2.4593689E+01
 1.5530751E+01  2.4593597E+01
 1.5542251E+01  2.4582983E+01
 1.5553751E+01  2.4592161E+01
 1.5565250E+01  2.4680265E+01
 1.5576751E+01  2.4688225E+01
 1.5588251E+01  2.4708900E+01
 1.5599751E+01  2.4671268E+01
 1.5611251E+01  2.4699173E+01
 1.5622751E+01  2.4708630E+01
 1.5634251E+01  2.4698063E+01
 1.5645751E+01  2.4767178E+01
 1.5657250E+01  2.4788898E+01
 1.5668751E+01  2.4794378E+01
 1.5680251E+01  2.4713175E+01
 1.5691751E+01  2.4705965E+01
 1.5703251E+01  2.4735132E+01
 1.5714751E+01  2.4721203E+01
 1.5726251E+01  2.4728481E+01
 1.5737751E+01  2.4660910E+01
 1.5749250E+01  2.4678347E+01
 1.5760751E+01  2.4670309E+01
 1.5772251E+01  2.4695681E+01
 1.5783751E+01  2.4671446E+01
 1.5795251E+01  2.4660732E+01
 1.5806751E+01  2.4660666E+01
 1.5818251E+01  2.4668331E+01
 1.5829751E+01  2.4629339E+01
 1.5841250E+01  2.4659086E+01
 1.5852751E+01  2.4661345E+01
 1.5864251E+01  2.4662882E+01
 1.5875751E+01  2.4670382E+01
 1.5887251E+01  2.4721972E+01
 1.5898750E+01  2.4793558E+01
 1.5910251E+01  2.4764858E+01
 1.5921751E+01  2.4770386E+01
 1.5933250E+01  2.4749279E+01
 1.5944751E+01  2.4747581E+01
 1.5956251E+01  2.4750187E+01
 1.5967751E+01  2.4725538E+01
 1.5979251E+01  2.4761154E+01
 1.5990750E+01  2.4769625E+01
 1.6002251E+01  2.4795803E+01
 1.6013750E+01  2.4769337E+01
 1.6025251E+01  2.4737389E+01
 1.6036751E+01  2.4750992E+01
 1.6048250E+01  2.4780113E+01
 1.6059752E+01  2.4839298E+01
 1.6071251E+01  2.4857401E+01
 1.6082750E+01  2.4932333E+01
 1.6094252E+01  2.4971418E+01
 1.6105751E+01  2.5081007E+01
 1.6117250E+01  2.5084642E+01
 1.6128750E+01  2.5062113E+01
 1.6140251E+01  2.5108738E+01
 1.6151751E+01  2.5096283E+01
 1.6163250E+01  2.5260429E+01
 1.6174751E+01  2.5180307E+01
 1.6186251E+01  2.5802177E+01
 1.6197750E+01  2.5807182E+01
 1.6209251E+01  2.7243954E+01
 1.6220751E+01  2.7529076E+01
 1.6232250E+01  2.9287470E+01
 1.6243752E+01  2.9974421E+01
 1.6255251E+01  3.0623648E+01
 1.6266750E+01  3.0595905E+01
 1.6278252E+01  2.8945894E+01
 1.6289751E+01  2.8298487E+01
 1.6301250E+01  2.6349234E+01
 1.6312750E+01  2.6244413E+01
 1.6324251E+01  2.5427055E+01
 1.6335751E+01  2.5529173E+01
 1.6347250E+01  2.5180506E+01
 1.6358751E+01  2.5120998E+01
 1.6370251E+01  2.5006987E+01
 1.6381750E+01  2.5001095E+01
 1.6393251E+01  2.5025192E+01
 1.6404751E+01  2.4995382E+01
 1.6416250E+01  2.5037050E+01
 1.6427752E+01  2.4916494E+01
 1.6439251E+01  2.4894573E+01
 1.6450750E+01  2.4837379E+01
 1.6462252E+01  2.4852642E+01
 1.6473751E+01  2.4859329E+01
 1.6485250E+01  2.4914600E+01
 1.6496750E+01  2.4934956E+01
 1.6508251E+01  2.4914078E+01
 1.6519751E+01  2.4895288E+01
 1.6531250E+01  2.4874372E+01
 1.6542751E+01  2.4924379E+01
 1.6554251E+01  2.4895958E+01
 1.6565750E+01  2.4847050E+01
 1.6577251E+01  2.4800226E+01
 1.6588751E+01  2.4799524E+01
 1.6600250E+01  2.4811193E+01
 1.6611752E+01  2.4817686E+01
 1.6623251E+01  2.4787743E+01
 1.6634750E+01  2.4789541E+01
 1.6646252E+01  2.4759598E+01
 1.6657751E+01  2.4766409E+01
 1.6669250E+01  2.4761793E+01
 1.6680750E+01  2.4748642E+01
 1.6692251E+01  2.4786623E+01
 1.6703751E+01  2.4797628E+01
 1.6715250E+01  2.4806164E+01
 1.6726751E+01  2.4739912E+01
 1.6738251E+01  2.4714880E+01
 1.6749750E+01  2.4696421E+01
 1.6761251E+01  2.4659555E+01
 1.6772751E+01  2.4631258E+01
 1.6784250E+01  2.4589008E+01
 1.6795752E+01  2.4607670E+01
 1.6807251E+01  2.4604269E+01
 1.6818750E+01  2.4615007E+01
 1.6830252E+01  2.4644302E+01
 1.6841751E+01  2.4673838E+01
 1.6853251E+01  2.4638676E+01
 1.6864750E+01  2.4579712E+01
 1.6876251E+01  2.4593731E+01
 1.6887751E+01  2.4628262E+01
 1.6899250E+01  2.4650919E+01
 1.6910751E+01  2.4635162E+01
 1.6922251E+01  2.4644131E+01
 1.6933750E+01  2.4583263E+01
 1.6945251E+01  2.4521959E+01
 1.6956751E+01  2.4453671E+01
 1.6968250E+01  2.4402744E+01
 1.6979752E+01  2.4353544E+01
 1.6991251E+01  2.4371649E+01
 1.7002750E+01  2.4389172E+01
 1.7014252E+01  2.4403152E+01
 1.7025751E+01  2.4308949E+01
 1.7037251E+01  2.4251184E+01
 1.7048750E+01  2.4180857E+01
 1.7060251E+01  2.4154964E+01
 1.7071751E+01  2.4182760E+01
 1.7083250E+01  2.4287720E+01
 1.7094751E+01  2.4369940E+01
 1.7106251E+01  2.4429401E+01
 1.7117750E+01  2.4429371E+01
 1.7129251E+01  2.4427183E+01
 1.7140751E+01  2.4373434E+01
 1.7152250E+01  2.4333567E+01
 1.7163752E+01  2.4282206E+01
 1.7175251E+01  2.4258167E+01
 1.7186750E+01  2.4268969E+01
 1.7198252E+01  2.4263556E+01
 1.7209751E+01  2.4286913E+01
 1.7221251E+01  2.4255623E+01
 1.7232750E+01  2.4307644E+01
 1.7244251E+01  2.4280664E+01
 1.7255751E+01  2.4267820E+01
 1.7267250E+01  2.4242380E+01
 1.7278751E+01  2.4245096E+01
 1.7290251E+01  2.4210945E+01
 1.7301750E+01  2.4174623E+01
 1.7313251E+01  2.4136562E+01
 1.7324751E+01  2.4173786E+01
 1.7336250E+01  2.4166164E+01
 1.7347752E+01  2.4163397E+01
 1.7359251E+01  2.4158361E+01
 1.7370750E+01  2.4144283E+01
 1.7382252E+01  2.4116125E+01
 1.7393751E+01  2.4063675E+01
 1.7405251E+01  2.4032948E+01
 1.7416750E+01  2.4004902E+01
 1.7428251E+01  2.4033815E+01
 1.7439751E+01  2.4089294E+01
 1.7451250E+01  2.4129942E+01
 1.7462751E+01  2.4140446E+01
 1.7474251E+01  2.4114128E+01
 1.7485750E+01  2.4110348E+01
 1.7497252E+01  2.4037319E+01
 1.7508751E+01  2.4002647E+01
 1.7520250E+01  2.3953184E+01
 1.7531752E+01  2.3968168E+01
 1.7543251E+01  2.3968479E+01
 1.7554750E+01  2.3955381E+01
 1.7566252E+01  2.3906046E+01
 1.7577751E+01  2.3902271E+01
 1.7589251E+01  2.3874899E+01
 1.7600750E+01  2.3908152E+01
 1.7612251E+01  2.3929478E+01
 1.7623751E+01  2.4000698E+01
 1.7635250E+01  2.3937073E+01
 1.7646751E+01  2.3882299E+01
 1.7658251E+01  2.3834763E+01
 1.7669750E+01  2.3817333E+01
 1.7681252E+01  2.3782261E+01
 1.7692751E+01  2.3782869E+01
 1.7704250E+01  2.3798073E+01
 1.7715752E+01  2.3801224E+01
 1.7727251E+01  2.3793175E+01
 1.7738750E+01  2.3770655E+01
 1.7750252E+01  2.3752226E+01
 1.7761751E+01  2.3713633E+01
 1.7773251E+01  2.3710913E+01
 1.7784750E+01  2.3695841E+01
 1.7796251E+01  2.3730223E+01
 1.7807751E+01  2.3721474E+01
 1.7819250E+01  2.3742954E+01
 1.7830751E+01  2.3712780E+01
 1.7842251E+01  2.3739914E+01
 1.7853750E+01  2.3760687E+01
 1.7865252E+01  2.3832560E+01
 1.7876751E+01  2.3866293E+01
 1.7888250E+01  2.3867304E+01
 1.7899752E+01  2.3885269E+01
 1.7911251E+01  2.3896807E+01
 1.7922750E+01  2.3909527E+01
 1.7934252E+01  2.3797152E+01
 1.7945751E+01  2.3766596E+01
 1.7957251E+01  2.3717384E+01
 1.7968750E+01  2.3762348E+01
 1.7980251E+01  2.3804665E+01
 1.7991751E+01  2.3829491E+01
 1.8003250E+01  2.3834188E+01
 1.8014751E+01  2.3823885E+01
 1.8026251E+01  2.3860899E+01
 1.8037750E+01  2.3933380E+01
 1.8049252E+01  2.4053652E+01
 1.8060751E+01  2.4140394E+01
 1.8072250E+01  2.4195276E+01
 1.8083752E+01  2.4225100E+01
 1.8095251E+01  2.4253313E+01
 1.8106750E+01  2.4256643E+01
 1.8118252E+01  2.4213747E+01
 1.8129751E+01  2.4136751E+01
 1.8141251E+01  2.4012274E+01
 1.8152750E+01  2.3913614E+01
 1.8164251E+01  2.3859362E+01
 1.8175751E+01  2.3800936E+01
 1.8187250E+01  2.3745735E+01
 1.8198751E+01  2.3746317E+01
 1.8210251E+01  2.3741261E+01
 1.8221750E+01  2.3748106E+01
 1.8233252E+01  2.3722496E+01
 1.8244751E+01  2.3742220E+01
 1.8256250E+01  2.3749802E+01
 1.8267752E+01  2.3784718E+01
 1.8279251E+01  2.3802467E+01
 1.8290751E+01  2.3803955E+01
 1.8302252E+01  2.3745903E+01
 1.8313751E+01  2.3679790E+01
 1.8325251E+01  2.3636799E+01
 1.8336750E+01  2.3669226E+01
 1.8348251E+01  2.3715191E+01
 1.8359751E+01  2.3740280E+01
 1.8371250E+01  2.3706635E+01
 1.8382751E+01  2.3716888E+01
 1.8394251E+01  2.3713440E+01
 1.8405750E+01  2.3714527E+01
 1.8417252E+01  2.3690121E+01
 1.8428751E+01  2.3693962E+01
 1.8440250E+01  2.3643009E+01
 1.8451752E+01  2.3634430E+01
 1.8463251E+01  2.3634556E+01
 1.8474751E+01  2.3681356E+01
 1.8486252E+01  2.3622469E+01
 1.8497751E+01  2.3624882E+01
 1.8509251E+01  2.3625179E+01
 1.8520750E+01  2.3662535E+01
 1.8532251E+01  2.3659136E+01
 1.8543751E+01  2.3677904E+01
 1.8555250E+01  2.3707312E+01
 1.8566751E+01  2.3675158E+01
 1.8578251E+01  2.3681721E+01
 1.8589750E+01  2.3691109E+01
 1.8601252E+01  2.3720192E+01
 1.8612751E+01  2.3697937E+01
 1.8624250E+01  2.3602507E+01
 1.8635752E+01  2.3577158E+01
 1.8647251E+01  2.3514042E+01
 1.8658751E+01  2.3525074E+01
 1.8670252E+01  2.3526783E+01
 1.8681751E+01  2.3565191E+01
 1.8693251E+01  2.3564417E+01
 1.8704750E+01  2.3581085E+01
 1.8716251E+01  2.3559139E+01
 1.8727751E+01  2.3553911E+01
 1.8739250E+01  2.3507109E+01
 1.8750751E+01  2.3505064E+01
 1.8762251E+01  2.3517925E+01
 1.8773750E+01  2.3549362E+01
 1.8785252E+01  2.3603340E+01
 1.8796751E+01  2.3640146E+01
 1.8808250E+01  2.3622496E+01
 1.8819752E+01  2.3595816E+01
 1.8831251E+01  2.3558060E+01
 1.8842751E+01  2.3505390E+01
 1.8854252E+01  2.3487486E+01
 1.8865751E+01  2.3493996E+01
 1.8877251E+01  2.3535646E+01
 1.8888750E+01  2.3544910E+01
 1.8900251E+01  2.3525677E+01
 1.8911751E+01  2.3546106E+01
 1.8923250E+01  2.3608185E+01
 1.8934752E+01  2.3674358E+01
 1.8946251E+01  2.3682213E+01
 1.8957750E+01  2.3633095E+01
 1.8969252E+01  2.3579971E+01
 1.8980751E+01  2.3510986E+01
 1.8992250E+01  2.3494625E+01
 1.9003752E+01  2.3505424E+01
 1.9015251E+01  2.3537781E+01
 1.9026751E+01  2.3586744E+01
 1.9038252E+01  2.3624012E+01
 1.9049751E+01  2.3671427E+01
 1.9061251E+01  2.3681223E+01
 1.9072750E+01  2.3655235E+01
 1.9084251E+01  2.3592245E+01
 1.9095751E+01  2.3543945E+01
 1.9107250E+01  2.3535297E+01
 1.9118752E+01  2.3488226E+01
 1.9130251E+01  2.3484377E+01
 1.9141750E+01  2.3493879E+01
 1.9153252E+01  2.3524839E+01
 1.9164751E+01  2.3531342E+01
 1.9176250E+01  2.3522100E+01
 1.9187752E+01  2.3569332E+01
 1.9199251E+01  2.3596880E+01
 1.9210751E+01  2.3614342E+01
 1.9222252E+01  2.3653858E+01
 1.9233751E+01  2.3687389E+01
 1.9245251E+01  2.3728533E+01
 1.9256750E+01  2.3759304E+01
 1.9268251E+01  2.3742876E+01
 1.9279751E+01  2.3695347E+01
 1.9291250E+01  2.3675949E+01
 1.9302752E+01  2.3675745E+01
 1.9314251E+01  2.3641836E+01
 1.9325750E+01  2.3605377E+01
 1.9337252E+01  2.3624813E+01
 1.9348751E+01  2.3650160E+01
 1.9360250E+01  2.3652885E+01
 1.9371752E+01  2.3692266E+01
 1.9383251E+01  2.3695820E+01
 1.9394751E+01  2.3726330E+01
 1.9406250E+01  2.3702845E+01
 1.9417751E+01  2.3720194E+01
 1.9429251E+01  2.3697559E+01
 1.9440750E+01  2.3648314E+01
 1.9452251E+01  2.3585663E+01
 1.9463751E+01  2.3505404E+01
 1.9475250E+01  2.3469975E+01
 1.9486752E+01  2.3436640E+01
 1.9498251E+01  2.3499052E+01
 1.9509750E+01  2.3615339E+01
 1.9521252E+01  2.3707191E+01
 1.9532751E+01  2.3740725E+01
 1.9544250E+01  2.3747700E+01
 1.9555752E+01  2.3709789E+01
 1.9567251E+01  2.3649017E+01
 1.9578751E+01  2.3664200E+01
 1.9590250E+01  2.3674423E+01
 1.9601751E+01  2.3727036E+01
 1.9613251E+01  2.3732042E+01
 1.9624750E+01  2.3779461E+01
 1.9636251E+01  2.3829332E+01
 1.9647751E+01  2.3906796E+01
 1.9659250E+01  2.3972231E+01
 1.9670752E+01  2.3990133E+01
 1.9682251E+01  2.4016771E+01
 1.9693750E+01  2.4047180E+01
 1.9705252E+01  2.4060291E+01
 1.9716751E+01  2.4058340E+01
 1.9728251E+01  2.4057135E+01
 1.9739752E+01  2.4035938E+01
 1.9751251E+01  2.4042728E+01
 1.9762751E+01  2.3996059E+01
 1.9774250E+01  2.3965279E+01
 1.9785751E+01  2.3871279E+01
 1.9797251E+01  2.3905697E+01
 1.9808750E+01  2.3935287E+01
 1.9820251E+01  2.3963268E+01
 1.9831751E+01  2.4075329E+01
 1.9843250E+01  2.4200836E+01
 1.9854752E+01  2.4295252E+01
 1.9866251E+01  2.4311630E+01
 1.9877750E+01  2.4294493E+01
 1.9889252E+01  2.4202948E+01
 1.9900751E+01  2.4104095E+01
 1.9912251E+01  2.3986364E+01
 1.9923752E+01  2.3870169E+01
 1.9935251E+01  2.3769655E+01
 1.9946751E+01  2.3725677E+01
 1.9958250E+01  2.3723572E+01
 1.9969751E+01  2.3752697E+01
 1.9981251E+01  2.3777958E+01
 1.9992750E+01  2.3786165E+01
 2.0004251E+01  2.3779171E+01
 2.0015751E+01  2.3757147E+01
 2.0027250E+01  2.3739607E+01
 2.0038752E+01  2.3741966E+01
 2.0050251E+01  2.3748987E+01
 2.0061750E+01  2.3780918E+01
 2.0073252E+01  2.3750214E+01
 2.0084751E+01  2.3762667E+01
 2.0096251E+01  2.3708754E+01
 2.0107752E+01  2.3720676E+01
 2.0119251E+01  2.3732542E+01
 2.0130751E+01  2.3796776E+01
 2.0142250E+01  2.3810297E+01
 2.0153751E+01  2.3852186E+01
 2.0165251E+01  2.3836834E+01
 2.0176750E+01  2.3862080E+01
 2.0188251E+01  2.3828665E+01
 2.0199751E+01  2.3818964E+01
 2.0211250E+01  2.3771347E+01
 2.0222752E+01  2.3755041E+01
 2.0234251E+01  2.3742901E+01
 2.0245750E+01  2.3759966E+01
 2.0257252E+01  2.3745058E+01
 2.0268751E+01  2.3747244E+01
 2.0280251E+01  2.3799786E+01
 2.0291752E+01  2.3845741E+01
 2.0303251E+01  2.3836649E+01
 2.0314751E+01  2.3794537E+01
 2.0326250E+01  2.3805620E+01
 2.0337751E+01  2.3825264E+01
 2.0349251E+01  2.3801182E+01
 2.0360750E+01  2.3780869E+01
 2.0372252E+01  2.3799995E+01
 2.0383751E+01  2.3824032E+01
 2.0395250E+01  2.3824127E+01
 2.0406752E+01  2.3794497E+01
 2.0418251E+01  2.3817295E+01
 2.0429750E+01  2.3808073E+01
 2.0441252E+01  2.3781664E+01
 2.0452751E+01  2.3736647E+01
 2.0464251E+01  2.3729637E+01
 2.0475752E+01  2.3695276E+01
 2.0487251E+01  2.3738125E+01
 2.0498751E+01  2.3807657E+01
 2.0510250E+01  2.3800922E+01
 2.0521751E+01  2.3779337E+01
 2.0533251E+01  2.3701551E+01
 2.0544750E+01  2.3704123E+01
 2.0556252E+01  2.3770515E+01
 2.0567751E+01  2.3807028E+01
 2.0579250E+01  2.3818935E+01
 2.0590752E+01  2.3798037E+01
 2.0602251E+01  2.3833557E+01
 2.0613750E+01  2.3829807E+01
 2.0625252E+01  2.3862993E+01
 2.0636751E+01  2.3879694E+01
 2.0648251E+01  2.3883240E+01
 2.0659752E+01  2.3845434E+01
 2.0671251E+01  2.3873161E+01
 2.0682751E+01  2.3901030E+01
 2.0694250E+01  2.3926043E+01
 2.0705751E+01  2.3977180E+01
 2.0717251E+01  2.4094835E+01
 2.0728750E+01  2.4120602E+01
 2.0740252E+01  2.4157169E+01
 2.0751751E+01  2.4157251E+01
 2.0763250E+01  2.4192934E+01
 2.0774752E+01  2.4174046E+01
 2.0786251E+01  2.4083616E+01
 2.0797750E+01  2.4026279E+01
 2.0809252E+01  2.3986050E+01
 2.0820751E+01  2.3948145E+01
 2.0832251E+01  2.3881893E+01
 2.0843752E+01  2.3837868E+01
 2.0855251E+01  2.3844591E+01
 2.0866751E+01  2.3815783E+01
 2.0878250E+01  2.3796013E+01
 2.0889751E+01  2.3813141E+01
 2.0901251E+01  2.3844393E+01
 2.0912750E+01  2.3892744E+01
 2.0924252E+01  2.3925352E+01
 2.0935751E+01  2.3955563E+01
 2.0947250E+01  2.3941265E+01
 2.0958752E+01  2.3915737E+01
 2.0970251E+01  2.3847614E+01
 2.0981750E+01  2.3806694E+01
 2.0993252E+01  2.3819832E+01
 2.1004751E+01  2.3898911E+01
 2.1016251E+01  2.3948391E+01
 2.1027752E+01  2.3994881E+01
 2.1039251E+01  2.4004259E+01
 2.1050751E+01  2.3986139E+01
 2.1062250E+01  2.3989061E+01
 2.1073751E+01  2.4002234E+01
 2.1085251E+01  2.4001709E+01
 2.1096750E+01  2.3921926E+01
 2.1108252E+01  2.3929367E+01
 2.1119751E+01  2.3947483E+01
 2.1131250E+01  2.4007017E+01
 2.1142752E+01  2.3987078E+01
 2.1154251E+01  2.3935661E+01
 2.1165751E+01  2.3923370E+01
 2.1177252E+01  2.3977051E+01
 2.1188751E+01  2.4025837E+01
 2.1200251E+01  2.4020910E+01
 2.1211752E+01  2.4006273E+01
 2.1223251E+01  2.4008362E+01
 2.1234751E+01  2.3987988E+01
 2.1246250E+01  2.3992460E+01
 2.1257751E+01  2.3989895E+01
 2.1269251E+01  2.3978680E+01
 2.1280750E+01  2.3952950E+01
 2.1292252E+01  2.3938726E+01
 2.1303751E+01  2.3922800E+01
 2.1315250E+01  2.3941263E+01
 2.1326752E+01  2.3998240E+01
 2.1338251E+01  2.4028486E+01
 2.1349751E+01  2.4070814E+01
 2.1361252E+01  2.4110521E+01
 2.1372751E+01  2.4132252E+01
 2.1384251E+01  2.4104719E+01
 2.1395752E+01  2.4035410E+01
 2.1407251E+01  2.3993494E+01
 2.1418751E+01  2.3973993E+01
 2.1430250E+01  2.3985525E+01
 2.1441751E+01  2.3995943E+01
 2.1453251E+01  2.4037905E+01
 2.1464750E+01  2.4086649E+01
 2.1476252E+01  2.4074305E+01
 2.1487751E+01  2.4073708E+01
 2.1499250E+01  2.4027548E+01
 2.1510752E+01  2.4059496E+01
 2.1522251E+01  2.4075592E+01
 2.1533751E+01  2.4108149E+01
 2.1545252E+01  2.4124666E+01
 2.1556751E+01  2.4110003E+01
 2.1568251E+01  2.4062067E+01
 2.1579752E+01  2.4035143E+01
 2.1591251E+01  2.4087746E+01
 2.1602751E+01  2.4137020E+01
 2.1614250E+01  2.4171692E+01
 2.1625751E+01  2.4155743E+01
 2.1637251E+01  2.4169292E+01
 2.1648750E+01  2.4129786E+01
 2.1660252E+01  2.4187214E+01
 2.1671751E+01  2.4196072E+01
 2.1683250E+01  2.4224461E+01
 2.1694752E+01  2.4241896E+01
 2.1706251E+01  2.4301437E+01
 2.1717751E+01  2.4296125E+01
 2.1729252E+01  2.4264017E+01
 2.1740751E+01  2.4237402E+01
 2.1752251E+01  2.4229603E+01
 2.1763752E+01  2.4178391E+01
 2.1775251E+01  2.4138704E+01
 2.1786751E+01  2.4137905E+01
 2.1798250E+01  2.4126051E+01
 2.1809752E+01  2.4150951E+01
 2.1821251E+01  2.4204195E+01
 2.1832750E+01  2.4202133E+01
 2.1844252E+01  2.4206606E+01
 2.1855751E+01  2.4235003E+01
 2.1867250E+01  2.4287315E+01
 2.1878752E+01  2.4331961E+01
 2.1890251E+01  2.4312962E+01
 2.1901751E+01  2.4308784E+01
 2.1913252E+01  2.4282572E+01
 2.1924751E+01  2.4257851E+01
 2.1936251E+01  2.4222980E+01
 2.1947752E+01  2.4228256E+01
 2.1959251E+01  2.4251299E+01
 2.1970751E+01  2.4254271E+01
 2.1982250E+01  2.4285936E+01
 2.1993752E+01  2.4315308E+01
 2.2005251E+01  2.4315512E+01
 2.2016750E+01  2.4354588E+01
 2.2028252E+01  2.4362059E+01
 2.2039751E+01  2.4359516E+01
 2.2051250E+01  2.4331799E+01
 2.2062752E+01  2.4315340E+01
 2.2074251E+01  2.4325933E+01
 2.2085751E+01  2.4346924E+01
 2.2097252E+01  2.4363529E+01
 2.2108751E+01  2.4379257E+01
 2.2120251E+01  2.4477333E+01
 2.2131752E+01  2.4650469E+01
 2.2143251E+01  2.4723249E+01
 2.2154751E+01  2.4752731E+01
 2.2166250E+01  2.4595856E+01
 2.2177752E+01  2.4434837E+01
 2.2189251E+01  2.4321161E+01
 2.2200750E+01  2.4278257E+01
 2.2212252E+01  2.4270285E+01
 2.2223751E+01  2.4297077E+01
 2.2235250E+01  2.4329430E+01
 2.2246752E+01  2.4373480E+01
 2.2258251E+01  2.4408092E+01
 2.2269751E+01  2.4446297E+01
 2.2281252E+01  2.4500345E+01
 2.2292751E+01  2.4525194E+01
 2.2304251E+01  2.4572956E+01
 2.2315752E+01  2.4577953E+01
 2.2327251E+01  2.4584318E+01
 2.2338751E+01  2.4580669E+01
 2.2350250E+01  2.4592846E+01
 2.2361752E+01  2.4601048E+01
 2.2373251E+01  2.4611526E+01
 2.2384750E+01  2.4563522E+01
 2.2396252E+01  2.4512159E+01
 2.2407751E+01  2.4461100E+01
 2.2419250E+01  2.4498991E+01
 2.2430752E+01  2.4621811E+01
 2.2442251E+01  2.4699223E+01
 2.2453751E+01  2.4720909E+01
 2.2465252E+01  2.4684332E+01
 2.2476751E+01  2.4651951E+01
 2.2488251E+01  2.4689734E+01
 2.2499752E+01  2.4733503E+01
 2.2511251E+01  2.4794594E+01
 2.2522751E+01  2.4846712E+01
 2.2534250E+01  2.4853079E+01
 2.2545752E+01  2.4820467E+01
 2.2557251E+01  2.4804596E+01
 2.2568750E+01  2.4818155E+01
 2.2580252E+01  2.4829386E+01
 2.2591751E+01  2.4871677E+01
 2.2603251E+01  2.4910715E+01
 2.2614752E+01  2.4957169E+01
 2.2626251E+01  2.4990559E+01
 2.2637751E+01  2.4997286E+01
 2.2649252E+01  2.5017822E+01
 2.2660751E+01  2.5017086E+01
 2.2672251E+01  2.5079260E+01
 2.2683752E+01  2.5140562E+01
 2.2695251E+01  2.5228941E+01
 2.2706751E+01  2.5222864E+01
 2.2718250E+01  2.5212769E+01
 2.2729752E+01  2.5209328E+01
 2.2741251E+01  2.5264338E+01
 2.2752750E+01  2.5272665E+01
 2.2764252E+01  2.5322836E+01
 2.2775751E+01  2.5374273E+01
 2.2787251E+01  2.5401752E+01
 2.2798752E+01  2.5419821E+01
 2.2810251E+01  2.5431091E+01
 2.2821751E+01  2.5487463E+01
 2.2833252E+01  2.5550629E+01
 2.2844751E+01  2.5607380E+01
 2.2856251E+01  2.5586815E+01
 2.2867750E+01  2.5624964E+01
 2.2879251E+01  2.5666088E+01
 2.2890751E+01  2.5741398E+01
 2.2902250E+01  2.5780617E+01
 2.2913752E+01  2.5848318E+01
 2.2925251E+01  2.5896957E+01
 2.2936750E+01  2.5974396E+01
 2.2948252E+01  2.5998713E+01
 2.2959751E+01  2.6001286E+01
 2.2971251E+01  2.6064028E+01
 2.2982752E+01  2.6123556E+01
 2.2994251E+01  2.6192436E+01
