F:\20151113_APS_34IDE\\Brian\Particle1\OCV\Data_0065.tif
2-Theta Angle (Degrees)
Intensity
       2000
 5.7500005E-03  0.0000000E+00
 1.7250001E-02  0.0000000E+00
 2.8750001E-02  0.0000000E+00
 4.0250003E-02  0.0000000E+00
 5.1750004E-02  0.0000000E+00
 6.3250005E-02  0.0000000E+00
 7.4750006E-02  0.0000000E+00
 8.6250007E-02  0.0000000E+00
 9.7750008E-02  0.0000000E+00
 1.0925001E-01  0.0000000E+00
 1.2075000E-01  0.0000000E+00
 1.3225001E-01  0.0000000E+00
 1.4375001E-01  0.0000000E+00
 1.5525001E-01  0.0000000E+00
 1.6675001E-01  0.0000000E+00
 1.7825001E-01  0.0000000E+00
 1.8975002E-01  0.0000000E+00
 2.0125002E-01  0.0000000E+00
 2.1275002E-01  0.0000000E+00
 2.2425000E-01  0.0000000E+00
 2.3575000E-01  0.0000000E+00
 2.4725001E-01  0.0000000E+00
 2.5875002E-01  0.0000000E+00
 2.7025002E-01  0.0000000E+00
 2.8175002E-01  0.0000000E+00
 2.9325002E-01  0.0000000E+00
 3.0475003E-01  0.0000000E+00
 3.1625003E-01  0.0000000E+00
 3.2775003E-01  0.0000000E+00
 3.3925003E-01  0.0000000E+00
 3.5075003E-01  0.0000000E+00
 3.6225003E-01  0.0000000E+00
 3.7375003E-01  0.0000000E+00
 3.8525003E-01  0.0000000E+00
 3.9675003E-01  0.0000000E+00
 4.0825003E-01  0.0000000E+00
 4.1975003E-01  0.0000000E+00
 4.3125004E-01  0.0000000E+00
 4.4275001E-01  0.0000000E+00
 4.5425001E-01  0.0000000E+00
 4.6575001E-01  0.0000000E+00
 4.7725001E-01  0.0000000E+00
 4.8875001E-01  0.0000000E+00
 5.0025004E-01  0.0000000E+00
 5.1175004E-01  0.0000000E+00
 5.2325004E-01  0.0000000E+00
 5.3475004E-01  0.0000000E+00
 5.4625005E-01  0.0000000E+00
 5.5775005E-01  0.0000000E+00
 5.6925005E-01  0.0000000E+00
 5.8075005E-01  0.0000000E+00
 5.9225005E-01  0.0000000E+00
 6.0375005E-01  0.0000000E+00
 6.1525005E-01  0.0000000E+00
 6.2675005E-01  0.0000000E+00
 6.3825005E-01  0.0000000E+00
 6.4975005E-01  0.0000000E+00
 6.6125005E-01  0.0000000E+00
 6.7275006E-01  0.0000000E+00
 6.8425006E-01  0.0000000E+00
 6.9575006E-01  0.0000000E+00
 7.0725006E-01  0.0000000E+00
 7.1875006E-01  0.0000000E+00
 7.3025006E-01  0.0000000E+00
 7.4175006E-01  0.0000000E+00
 7.5325006E-01  0.0000000E+00
 7.6475006E-01  0.0000000E+00
 7.7625006E-01  0.0000000E+00
 7.8775007E-01  0.0000000E+00
 7.9925007E-01  0.0000000E+00
 8.1075007E-01  0.0000000E+00
 8.2225007E-01  0.0000000E+00
 8.3375007E-01  0.0000000E+00
 8.4525007E-01  0.0000000E+00
 8.5675007E-01  0.0000000E+00
 8.6825007E-01  0.0000000E+00
 8.7975001E-01  0.0000000E+00
 8.9125001E-01  0.0000000E+00
 9.0275002E-01  0.0000000E+00
 9.1425002E-01  0.0000000E+00
 9.2575002E-01  0.0000000E+00
 9.3725002E-01  0.0000000E+00
 9.4875002E-01  0.0000000E+00
 9.6025002E-01  0.0000000E+00
 9.7175002E-01  0.0000000E+00
 9.8325002E-01  0.0000000E+00
 9.9475002E-01  0.0000000E+00
 1.0062500E+00  0.0000000E+00
 1.0177500E+00  0.0000000E+00
 1.0292500E+00  0.0000000E+00
 1.0407500E+00  0.0000000E+00
 1.0522500E+00  0.0000000E+00
 1.0637500E+00  0.0000000E+00
 1.0752500E+00  0.0000000E+00
 1.0867500E+00  0.0000000E+00
 1.0982500E+00  0.0000000E+00
 1.1097500E+00  0.0000000E+00
 1.1212500E+00  0.0000000E+00
 1.1327500E+00  0.0000000E+00
 1.1442500E+00  0.0000000E+00
 1.1557500E+00  0.0000000E+00
 1.1672500E+00  0.0000000E+00
 1.1787500E+00  0.0000000E+00
 1.1902500E+00  0.0000000E+00
 1.2017500E+00  0.0000000E+00
 1.2132500E+00  0.0000000E+00
 1.2247500E+00  0.0000000E+00
 1.2362500E+00  0.0000000E+00
 1.2477500E+00  0.0000000E+00
 1.2592500E+00  0.0000000E+00
 1.2707500E+00  0.0000000E+00
 1.2822500E+00  0.0000000E+00
 1.2937500E+00  0.0000000E+00
 1.3052500E+00  0.0000000E+00
 1.3167500E+00  0.0000000E+00
 1.3282501E+00  0.0000000E+00
 1.3397501E+00  0.0000000E+00
 1.3512501E+00  0.0000000E+00
 1.3627501E+00  0.0000000E+00
 1.3742501E+00  0.0000000E+00
 1.3857501E+00  0.0000000E+00
 1.3972501E+00  0.0000000E+00
 1.4087501E+00  0.0000000E+00
 1.4202501E+00  0.0000000E+00
 1.4317501E+00  0.0000000E+00
 1.4432501E+00  0.0000000E+00
 1.4547501E+00  0.0000000E+00
 1.4662501E+00  0.0000000E+00
 1.4777501E+00  0.0000000E+00
 1.4892501E+00  0.0000000E+00
 1.5007501E+00  0.0000000E+00
 1.5122501E+00  0.0000000E+00
 1.5237501E+00  0.0000000E+00
 1.5352501E+00  0.0000000E+00
 1.5467501E+00  0.0000000E+00
 1.5582501E+00  0.0000000E+00
 1.5697501E+00  0.0000000E+00
 1.5812501E+00  0.0000000E+00
 1.5927501E+00  0.0000000E+00
 1.6042501E+00  0.0000000E+00
 1.6157501E+00  0.0000000E+00
 1.6272501E+00  0.0000000E+00
 1.6387501E+00  0.0000000E+00
 1.6502501E+00  0.0000000E+00
 1.6617501E+00  0.0000000E+00
 1.6732501E+00  0.0000000E+00
 1.6847501E+00  0.0000000E+00
 1.6962501E+00  0.0000000E+00
 1.7077501E+00  0.0000000E+00
 1.7192501E+00  0.0000000E+00
 1.7307501E+00  0.0000000E+00
 1.7422501E+00  0.0000000E+00
 1.7537501E+00  0.0000000E+00
 1.7652501E+00  0.0000000E+00
 1.7767501E+00  0.0000000E+00
 1.7882501E+00  0.0000000E+00
 1.7997501E+00  0.0000000E+00
 1.8112501E+00  0.0000000E+00
 1.8227501E+00  0.0000000E+00
 1.8342501E+00  0.0000000E+00
 1.8457501E+00  0.0000000E+00
 1.8572501E+00  0.0000000E+00
 1.8687501E+00  0.0000000E+00
 1.8802501E+00  0.0000000E+00
 1.8917501E+00  0.0000000E+00
 1.9032501E+00  0.0000000E+00
 1.9147501E+00  0.0000000E+00
 1.9262501E+00  0.0000000E+00
 1.9377501E+00  0.0000000E+00
 1.9492501E+00  0.0000000E+00
 1.9607501E+00  0.0000000E+00
 1.9722501E+00  0.0000000E+00
 1.9837501E+00  0.0000000E+00
 1.9952501E+00  0.0000000E+00
 2.0067501E+00  0.0000000E+00
 2.0182500E+00  0.0000000E+00
 2.0297501E+00  0.0000000E+00
 2.0412500E+00  0.0000000E+00
 2.0527501E+00  0.0000000E+00
 2.0642500E+00  0.0000000E+00
 2.0757501E+00  0.0000000E+00
 2.0872500E+00  0.0000000E+00
 2.0987501E+00  0.0000000E+00
 2.1102500E+00  0.0000000E+00
 2.1217501E+00  0.0000000E+00
 2.1332500E+00  0.0000000E+00
 2.1447501E+00  0.0000000E+00
 2.1562500E+00  0.0000000E+00
 2.1677501E+00  0.0000000E+00
 2.1792500E+00  0.0000000E+00
 2.1907501E+00  0.0000000E+00
 2.2022500E+00  0.0000000E+00
 2.2137501E+00  0.0000000E+00
 2.2252500E+00  0.0000000E+00
 2.2367501E+00  0.0000000E+00
 2.2482500E+00  0.0000000E+00
 2.2597501E+00  0.0000000E+00
 2.2712500E+00  0.0000000E+00
 2.2827501E+00  0.0000000E+00
 2.2942500E+00  0.0000000E+00
 2.3057501E+00  0.0000000E+00
 2.3172500E+00  0.0000000E+00
 2.3287501E+00  0.0000000E+00
 2.3402500E+00  0.0000000E+00
 2.3517501E+00  0.0000000E+00
 2.3632500E+00  0.0000000E+00
 2.3747501E+00  0.0000000E+00
 2.3862500E+00  0.0000000E+00
 2.3977501E+00  0.0000000E+00
 2.4092500E+00  0.0000000E+00
 2.4207501E+00  0.0000000E+00
 2.4322500E+00  0.0000000E+00
 2.4437501E+00  0.0000000E+00
 2.4552500E+00  0.0000000E+00
 2.4667501E+00  0.0000000E+00
 2.4782500E+00  0.0000000E+00
 2.4897501E+00  0.0000000E+00
 2.5012500E+00  0.0000000E+00
 2.5127501E+00  0.0000000E+00
 2.5242500E+00  0.0000000E+00
 2.5357502E+00  0.0000000E+00
 2.5472500E+00  0.0000000E+00
 2.5587502E+00  0.0000000E+00
 2.5702500E+00  0.0000000E+00
 2.5817502E+00  0.0000000E+00
 2.5932500E+00  0.0000000E+00
 2.6047502E+00  0.0000000E+00
 2.6162500E+00  0.0000000E+00
 2.6277502E+00  0.0000000E+00
 2.6392500E+00  0.0000000E+00
 2.6507502E+00  0.0000000E+00
 2.6622500E+00  0.0000000E+00
 2.6737502E+00  0.0000000E+00
 2.6852500E+00  0.0000000E+00
 2.6967502E+00  0.0000000E+00
 2.7082500E+00  0.0000000E+00
 2.7197502E+00  0.0000000E+00
 2.7312500E+00  0.0000000E+00
 2.7427502E+00  0.0000000E+00
 2.7542500E+00  0.0000000E+00
 2.7657502E+00  0.0000000E+00
 2.7772501E+00  0.0000000E+00
 2.7887502E+00  0.0000000E+00
 2.8002501E+00  0.0000000E+00
 2.8117502E+00  0.0000000E+00
 2.8232501E+00  3.5688465E+01
 2.8347502E+00  3.5392166E+01
 2.8462501E+00  3.5838478E+01
 2.8577502E+00  3.5795940E+01
 2.8692501E+00  3.5877987E+01
 2.8807502E+00  3.6473072E+01
 2.8922501E+00  3.5892456E+01
 2.9037502E+00  3.5843372E+01
 2.9152501E+00  3.5369892E+01
 2.9267502E+00  3.5410767E+01
 2.9382501E+00  3.5716251E+01
 2.9497502E+00  3.5859810E+01
 2.9612501E+00  3.6081203E+01
 2.9727502E+00  3.5873547E+01
 2.9842501E+00  3.5319782E+01
 2.9957502E+00  3.4949009E+01
 3.0072501E+00  3.4827995E+01
 3.0187502E+00  3.5037098E+01
 3.0302501E+00  3.5110306E+01
 3.0417502E+00  3.5288280E+01
 3.0532501E+00  3.4843510E+01
 3.0647502E+00  3.4677811E+01
 3.0762501E+00  3.4500931E+01
 3.0877502E+00  3.4621902E+01
 3.0992501E+00  3.4997051E+01
 3.1107502E+00  3.4945713E+01
 3.1222501E+00  3.4869305E+01
 3.1337502E+00  3.4839558E+01
 3.1452501E+00  3.4981201E+01
 3.1567502E+00  3.5295429E+01
 3.1682501E+00  3.5326061E+01
 3.1797502E+00  3.5283958E+01
 3.1912501E+00  3.5447819E+01
 3.2027502E+00  3.5332565E+01
 3.2142501E+00  3.5606651E+01
 3.2257502E+00  3.5635677E+01
 3.2372501E+00  3.5634663E+01
 3.2487502E+00  3.5621819E+01
 3.2602501E+00  3.5490952E+01
 3.2717502E+00  3.5202171E+01
 3.2832501E+00  3.4768044E+01
 3.2947502E+00  3.4725372E+01
 3.3062501E+00  3.4987339E+01
 3.3177502E+00  3.5021282E+01
 3.3292501E+00  3.4831985E+01
 3.3407502E+00  3.4557213E+01
 3.3522501E+00  3.4308613E+01
 3.3637502E+00  3.3999245E+01
 3.3752501E+00  3.4093849E+01
 3.3867502E+00  3.4262680E+01
 3.3982501E+00  3.4318005E+01
 3.4097502E+00  3.4143093E+01
 3.4212501E+00  3.4040100E+01
 3.4327502E+00  3.3966003E+01
 3.4442501E+00  3.3850014E+01
 3.4557502E+00  3.3854805E+01
 3.4672501E+00  3.3926132E+01
 3.4787502E+00  3.4105507E+01
 3.4902501E+00  3.4015545E+01
 3.5017502E+00  3.4240940E+01
 3.5132501E+00  3.3932987E+01
 3.5247502E+00  3.3783878E+01
 3.5362501E+00  3.3920616E+01
 3.5477502E+00  3.4007198E+01
 3.5592501E+00  3.4317711E+01
 3.5707502E+00  3.3900177E+01
 3.5822501E+00  3.3680359E+01
 3.5937502E+00  3.3412636E+01
 3.6052501E+00  3.3388344E+01
 3.6167502E+00  3.3450287E+01
 3.6282501E+00  3.3640793E+01
 3.6397502E+00  3.3550205E+01
 3.6512501E+00  3.3745880E+01
 3.6627502E+00  3.3599743E+01
 3.6742501E+00  3.3377605E+01
 3.6857502E+00  3.3048038E+01
 3.6972501E+00  3.2793671E+01
 3.7087502E+00  3.2556858E+01
 3.7202501E+00  3.2504383E+01
 3.7317502E+00  3.2421799E+01
 3.7432501E+00  3.2741146E+01
 3.7547503E+00  3.2842480E+01
 3.7662501E+00  3.2899860E+01
 3.7777503E+00  3.2965714E+01
 3.7892501E+00  3.2805809E+01
 3.8007503E+00  3.2607712E+01
 3.8122501E+00  3.2405884E+01
 3.8237503E+00  3.2415028E+01
 3.8352501E+00  3.2433411E+01
 3.8467503E+00  3.2476345E+01
 3.8582501E+00  3.2530769E+01
 3.8697503E+00  3.2650539E+01
 3.8812501E+00  3.2772640E+01
 3.8927503E+00  3.2727489E+01
 3.9042501E+00  3.2764141E+01
 3.9157503E+00  3.2571514E+01
 3.9272501E+00  3.2595592E+01
 3.9387503E+00  3.2522526E+01
 3.9502501E+00  3.2440372E+01
 3.9617503E+00  3.2248779E+01
 3.9732502E+00  3.2427021E+01
 3.9847503E+00  3.2625618E+01
 3.9962502E+00  3.2927826E+01
 4.0077500E+00  3.2814907E+01
 4.0192504E+00  3.2826180E+01
 4.0307503E+00  3.2539486E+01
 4.0422502E+00  3.2499630E+01
 4.0537500E+00  3.2448910E+01
 4.0652504E+00  3.2394062E+01
 4.0767503E+00  3.2316261E+01
 4.0882502E+00  3.2306145E+01
 4.0997500E+00  3.2408840E+01
 4.1112504E+00  3.2375713E+01
 4.1227503E+00  3.2249870E+01
 4.1342502E+00  3.2217667E+01
 4.1457500E+00  3.2142025E+01
 4.1572504E+00  3.1970249E+01
 4.1687503E+00  3.1813387E+01
 4.1802502E+00  3.1734545E+01
 4.1917500E+00  3.1846416E+01
 4.2032504E+00  3.1810389E+01
 4.2147503E+00  3.1847158E+01
 4.2262502E+00  3.1814297E+01
 4.2377501E+00  3.1821726E+01
 4.2492504E+00  3.1802483E+01
 4.2607503E+00  3.1944422E+01
 4.2722502E+00  3.1892233E+01
 4.2837501E+00  3.1982380E+01
 4.2952504E+00  3.1947786E+01
 4.3067503E+00  3.1954597E+01
 4.3182502E+00  3.1989597E+01
 4.3297501E+00  3.2002537E+01
 4.3412504E+00  3.2063118E+01
 4.3527503E+00  3.2038860E+01
 4.3642502E+00  3.1835793E+01
 4.3757501E+00  3.1948328E+01
 4.3872504E+00  3.2031742E+01
 4.3987503E+00  3.1967033E+01
 4.4102502E+00  3.1899101E+01
 4.4217501E+00  3.1694279E+01
 4.4332504E+00  3.1821308E+01
 4.4447503E+00  3.1729986E+01
 4.4562502E+00  3.1856068E+01
 4.4677501E+00  3.1851858E+01
 4.4792504E+00  3.2066017E+01
 4.4907503E+00  3.1930210E+01
 4.5022502E+00  3.1948999E+01
 4.5137501E+00  3.1766674E+01
 4.5252504E+00  3.1881935E+01
 4.5367503E+00  3.1968781E+01
 4.5482502E+00  3.2097897E+01
 4.5597501E+00  3.2270523E+01
 4.5712504E+00  3.2473694E+01
 4.5827503E+00  3.2503345E+01
 4.5942502E+00  3.2581528E+01
 4.6057501E+00  3.2467232E+01
 4.6172504E+00  3.2450386E+01
 4.6287503E+00  3.2351269E+01
 4.6402502E+00  3.2324478E+01
 4.6517501E+00  3.2363831E+01
 4.6632504E+00  3.2414200E+01
 4.6747503E+00  3.2483189E+01
 4.6862502E+00  3.2518658E+01
 4.6977501E+00  3.2671051E+01
 4.7092505E+00  3.2786789E+01
 4.7207503E+00  3.2804996E+01
 4.7322502E+00  3.2542767E+01
 4.7437501E+00  3.2408810E+01
 4.7552505E+00  3.2262974E+01
 4.7667503E+00  3.2297543E+01
 4.7782502E+00  3.2184738E+01
 4.7897501E+00  3.2269390E+01
 4.8012505E+00  3.2176991E+01
 4.8127503E+00  3.2258072E+01
 4.8242502E+00  3.2233910E+01
 4.8357501E+00  3.2316872E+01
 4.8472505E+00  3.2366386E+01
 4.8587503E+00  3.2442528E+01
 4.8702502E+00  3.2411495E+01
 4.8817501E+00  3.2471893E+01
 4.8932505E+00  3.2450523E+01
 4.9047503E+00  3.2510700E+01
 4.9162502E+00  3.2479527E+01
 4.9277501E+00  3.2434311E+01
 4.9392505E+00  3.2453556E+01
 4.9507504E+00  3.2515491E+01
 4.9622502E+00  3.2460030E+01
 4.9737501E+00  3.2442501E+01
 4.9852505E+00  3.2427242E+01
 4.9967504E+00  3.2488411E+01
 5.0082502E+00  3.2672543E+01
 5.0197501E+00  3.2815571E+01
 5.0312505E+00  3.3008583E+01
 5.0427504E+00  3.3173569E+01
 5.0542502E+00  3.3211540E+01
 5.0657501E+00  3.3301144E+01
 5.0772505E+00  3.3288364E+01
 5.0887504E+00  3.3286861E+01
 5.1002502E+00  3.3267441E+01
 5.1117501E+00  3.3130985E+01
 5.1232505E+00  3.3165787E+01
 5.1347504E+00  3.3294472E+01
 5.1462502E+00  3.3479443E+01
 5.1577501E+00  3.3567051E+01
 5.1692505E+00  3.3458454E+01
 5.1807504E+00  3.3459251E+01
 5.1922503E+00  3.3473305E+01
 5.2037501E+00  3.3446167E+01
 5.2152505E+00  3.3374638E+01
 5.2267504E+00  3.3297932E+01
 5.2382503E+00  3.3331738E+01
 5.2497501E+00  3.3381077E+01
 5.2612505E+00  3.3547962E+01
 5.2727504E+00  3.3665634E+01
 5.2842503E+00  3.3845749E+01
 5.2957501E+00  3.3983456E+01
 5.3072500E+00  3.3984264E+01
 5.3187504E+00  3.4055756E+01
 5.3302503E+00  3.3909004E+01
 5.3417501E+00  3.3951496E+01
 5.3532500E+00  3.3939781E+01
 5.3647504E+00  3.4106987E+01
 5.3762503E+00  3.4281494E+01
 5.3877501E+00  3.4479752E+01
 5.3992500E+00  3.4585495E+01
 5.4107504E+00  3.4559731E+01
 5.4222503E+00  3.4516617E+01
 5.4337502E+00  3.4356899E+01
 5.4452500E+00  3.4354439E+01
 5.4567504E+00  3.4301735E+01
 5.4682503E+00  3.4341122E+01
 5.4797502E+00  3.4366272E+01
 5.4912500E+00  3.4333771E+01
 5.5027504E+00  3.4356480E+01
 5.5142503E+00  3.4415245E+01
 5.5257502E+00  3.4498615E+01
 5.5372500E+00  3.4476776E+01
 5.5487504E+00  3.4599686E+01
 5.5602503E+00  3.4564148E+01
 5.5717502E+00  3.4728699E+01
 5.5832500E+00  3.4725376E+01
 5.5947504E+00  3.4841850E+01
 5.6062503E+00  3.4873520E+01
 5.6177502E+00  3.4848690E+01
 5.6292500E+00  3.4808842E+01
 5.6407504E+00  3.4746700E+01
 5.6522503E+00  3.4668846E+01
 5.6637502E+00  3.4689350E+01
 5.6752501E+00  3.4665947E+01
 5.6867504E+00  3.4716991E+01
 5.6982503E+00  3.4787258E+01
 5.7097502E+00  3.4871140E+01
 5.7212501E+00  3.5010529E+01
 5.7327504E+00  3.5060955E+01
 5.7442503E+00  3.5184464E+01
 5.7557502E+00  3.5110355E+01
 5.7672501E+00  3.5198036E+01
 5.7787504E+00  3.5327477E+01
 5.7902503E+00  3.5390121E+01
 5.8017502E+00  3.5338520E+01
 5.8132501E+00  3.5179779E+01
 5.8247504E+00  3.5165203E+01
 5.8362503E+00  3.5229801E+01
 5.8477502E+00  3.5274075E+01
 5.8592501E+00  3.5340340E+01
 5.8707504E+00  3.5455765E+01
 5.8822503E+00  3.5649120E+01
 5.8937502E+00  3.5882381E+01
 5.9052501E+00  3.6066895E+01
 5.9167504E+00  3.6179340E+01
 5.9282503E+00  3.6390869E+01
 5.9397502E+00  3.6919315E+01
 5.9512501E+00  3.7592800E+01
 5.9627504E+00  3.8397514E+01
 5.9742503E+00  3.8851524E+01
 5.9857502E+00  3.9018742E+01
 5.9972501E+00  3.8846802E+01
 6.0087504E+00  3.8392471E+01
 6.0202503E+00  3.7794331E+01
 6.0317502E+00  3.7232452E+01
 6.0432501E+00  3.6804955E+01
 6.0547504E+00  3.6509663E+01
 6.0662503E+00  3.6414433E+01
 6.0777502E+00  3.6368320E+01
 6.0892501E+00  3.6351761E+01
 6.1007504E+00  3.6377697E+01
 6.1122503E+00  3.6346989E+01
 6.1237502E+00  3.6397884E+01
 6.1352501E+00  3.6266819E+01
 6.1467505E+00  3.6112312E+01
 6.1582503E+00  3.6114826E+01
 6.1697502E+00  3.6147121E+01
 6.1812501E+00  3.6341629E+01
 6.1927505E+00  3.6447639E+01
 6.2042503E+00  3.6556320E+01
 6.2157502E+00  3.6758911E+01
 6.2272501E+00  3.6855034E+01
 6.2387505E+00  3.7015739E+01
 6.2502503E+00  3.7017437E+01
 6.2617502E+00  3.7071938E+01
 6.2732501E+00  3.7175671E+01
 6.2847505E+00  3.7233646E+01
 6.2962503E+00  3.7308399E+01
 6.3077502E+00  3.7349266E+01
 6.3192501E+00  3.7392700E+01
 6.3307505E+00  3.7500565E+01
 6.3422503E+00  3.7507526E+01
 6.3537502E+00  3.7597187E+01
 6.3652501E+00  3.7570042E+01
 6.3767505E+00  3.7624584E+01
 6.3882504E+00  3.7682285E+01
 6.3997502E+00  3.7805794E+01
 6.4112501E+00  3.7859413E+01
 6.4227505E+00  3.7900917E+01
 6.4342504E+00  3.7897770E+01
 6.4457502E+00  3.7997116E+01
 6.4572501E+00  3.8023117E+01
 6.4687505E+00  3.8046124E+01
 6.4802504E+00  3.8104549E+01
 6.4917502E+00  3.8270416E+01
 6.5032501E+00  3.8427879E+01
 6.5147505E+00  3.8542393E+01
 6.5262504E+00  3.8556946E+01
 6.5377502E+00  3.8695789E+01
 6.5492501E+00  3.8759125E+01
 6.5607505E+00  3.8946293E+01
 6.5722504E+00  3.9018978E+01
 6.5837502E+00  3.9064655E+01
 6.5952501E+00  3.9028160E+01
 6.6067505E+00  3.8925369E+01
 6.6182504E+00  3.8933716E+01
 6.6297503E+00  3.9013748E+01
 6.6412501E+00  3.9164242E+01
 6.6527505E+00  3.9374226E+01
 6.6642504E+00  3.9542473E+01
 6.6757503E+00  3.9591835E+01
 6.6872501E+00  3.9656624E+01
 6.6987505E+00  3.9641914E+01
 6.7102504E+00  3.9803349E+01
 6.7217503E+00  3.9866810E+01
 6.7332501E+00  3.9998734E+01
 6.7447505E+00  4.0093513E+01
 6.7562504E+00  4.0169655E+01
 6.7677503E+00  4.0229633E+01
 6.7792501E+00  4.0239563E+01
 6.7907505E+00  4.0378056E+01
 6.8022504E+00  4.0459572E+01
 6.8137503E+00  4.0615307E+01
 6.8252501E+00  4.0640141E+01
 6.8367505E+00  4.0789780E+01
 6.8482504E+00  4.0932327E+01
 6.8597503E+00  4.1042793E+01
 6.8712502E+00  4.1071495E+01
 6.8827505E+00  4.1171070E+01
 6.8942504E+00  4.1282223E+01
 6.9057503E+00  4.1400726E+01
 6.9172502E+00  4.1414936E+01
 6.9287505E+00  4.1490635E+01
 6.9402504E+00  4.1584503E+01
 6.9517503E+00  4.1627228E+01
 6.9632502E+00  4.1744202E+01
 6.9747505E+00  4.1770050E+01
 6.9862504E+00  4.1777313E+01
 6.9977503E+00  4.1728298E+01
 7.0092502E+00  4.1689182E+01
 7.0207505E+00  4.1760548E+01
 7.0322504E+00  4.1818764E+01
 7.0437503E+00  4.1826584E+01
 7.0552502E+00  4.1849026E+01
 7.0667505E+00  4.1775555E+01
 7.0782504E+00  4.1825226E+01
 7.0897503E+00  4.1827614E+01
 7.1012502E+00  4.1979675E+01
 7.1127505E+00  4.2053314E+01
 7.1242504E+00  4.2232639E+01
 7.1357503E+00  4.2210644E+01
 7.1472502E+00  4.2258221E+01
 7.1587505E+00  4.2270180E+01
 7.1702504E+00  4.2451977E+01
 7.1817503E+00  4.2669701E+01
 7.1932502E+00  4.2737679E+01
 7.2047505E+00  4.2821800E+01
 7.2162504E+00  4.2795635E+01
 7.2277503E+00  4.2902718E+01
 7.2392502E+00  4.2895401E+01
 7.2507505E+00  4.2982819E+01
 7.2622504E+00  4.2976143E+01
 7.2737503E+00  4.3055073E+01
 7.2852502E+00  4.3204483E+01
 7.2967505E+00  4.3221699E+01
 7.3082504E+00  4.3357540E+01
 7.3197503E+00  4.3224285E+01
 7.3312502E+00  4.3355347E+01
 7.3427505E+00  4.3252480E+01
 7.3542504E+00  4.3252819E+01
 7.3657503E+00  4.3139519E+01
 7.3772502E+00  4.3204601E+01
 7.3887506E+00  4.3256901E+01
 7.4002504E+00  4.3353859E+01
 7.4117503E+00  4.3417179E+01
 7.4232502E+00  4.3438217E+01
 7.4347506E+00  4.3502884E+01
 7.4462504E+00  4.3482449E+01
 7.4577503E+00  4.3492920E+01
 7.4692502E+00  4.3425751E+01
 7.4807506E+00  4.3448780E+01
 7.4922504E+00  4.3427883E+01
 7.5037503E+00  4.3520317E+01
 7.5152502E+00  4.3517166E+01
 7.5267506E+00  4.3585709E+01
 7.5382504E+00  4.3588528E+01
 7.5497503E+00  4.3586983E+01
 7.5612502E+00  4.3539692E+01
 7.5727506E+00  4.3452461E+01
 7.5842505E+00  4.3511467E+01
 7.5957503E+00  4.3534119E+01
 7.6072502E+00  4.3572712E+01
 7.6187506E+00  4.3623539E+01
 7.6302505E+00  4.3725262E+01
 7.6417503E+00  4.3842602E+01
 7.6532502E+00  4.3909599E+01
 7.6647506E+00  4.3898647E+01
 7.6762505E+00  4.3861603E+01
 7.6877503E+00  4.3725101E+01
 7.6992502E+00  4.3522301E+01
 7.7107506E+00  4.3452332E+01
 7.7222505E+00  4.3431026E+01
 7.7337503E+00  4.3468964E+01
 7.7452502E+00  4.3521420E+01
 7.7567506E+00  4.3533951E+01
 7.7682505E+00  4.3563339E+01
 7.7797503E+00  4.3666893E+01
 7.7912502E+00  4.3700722E+01
 7.8027506E+00  4.3794258E+01
 7.8142505E+00  4.3742176E+01
 7.8257504E+00  4.3715179E+01
 7.8372502E+00  4.3754162E+01
 7.8487506E+00  4.3742912E+01
 7.8602505E+00  4.3706215E+01
 7.8717504E+00  4.3481682E+01
 7.8832502E+00  4.3274830E+01
 7.8947506E+00  4.3110405E+01
 7.9062505E+00  4.3090038E+01
 7.9177504E+00  4.3113766E+01
 7.9292502E+00  4.3129791E+01
 7.9407506E+00  4.3164001E+01
 7.9522505E+00  4.3092678E+01
 7.9637504E+00  4.3097588E+01
 7.9752502E+00  4.3106228E+01
 7.9867506E+00  4.3145916E+01
 7.9982505E+00  4.3110687E+01
 8.0097504E+00  4.2982403E+01
 8.0212507E+00  4.2944260E+01
 8.0327501E+00  4.2944340E+01
 8.0442505E+00  4.2843208E+01
 8.0557508E+00  4.2679157E+01
 8.0672503E+00  4.2401299E+01
 8.0787506E+00  4.2271183E+01
 8.0902500E+00  4.2134933E+01
 8.1017504E+00  4.2048840E+01
 8.1132507E+00  4.1993870E+01
 8.1247501E+00  4.1895294E+01
 8.1362505E+00  4.1894928E+01
 8.1477509E+00  4.1877583E+01
 8.1592503E+00  4.1850578E+01
 8.1707506E+00  4.1772003E+01
 8.1822500E+00  4.1593418E+01
 8.1937504E+00  4.1493042E+01
 8.2052507E+00  4.1313232E+01
 8.2167501E+00  4.1215801E+01
 8.2282505E+00  4.1099869E+01
 8.2397509E+00  4.1035809E+01
 8.2512503E+00  4.0986988E+01
 8.2627506E+00  4.0855824E+01
 8.2742500E+00  4.0663277E+01
 8.2857504E+00  4.0368370E+01
 8.2972507E+00  4.0104343E+01
 8.3087502E+00  3.9912251E+01
 8.3202505E+00  3.9794277E+01
 8.3317509E+00  3.9704853E+01
 8.3432503E+00  3.9672249E+01
 8.3547506E+00  3.9528549E+01
 8.3662500E+00  3.9405041E+01
 8.3777504E+00  3.9228100E+01
 8.3892508E+00  3.9162189E+01
 8.4007502E+00  3.9066505E+01
 8.4122505E+00  3.8991844E+01
 8.4237509E+00  3.8807983E+01
 8.4352503E+00  3.8583439E+01
 8.4467506E+00  3.8378735E+01
 8.4582500E+00  3.8139019E+01
 8.4697504E+00  3.8023045E+01
 8.4812508E+00  3.7838753E+01
 8.4927502E+00  3.7642372E+01
 8.5042505E+00  3.7438446E+01
 8.5157509E+00  3.7229008E+01
 8.5272503E+00  3.7027534E+01
 8.5387506E+00  3.6811314E+01
 8.5502501E+00  3.6538342E+01
 8.5617504E+00  3.6343449E+01
 8.5732508E+00  3.6176945E+01
 8.5847502E+00  3.6037544E+01
 8.5962505E+00  3.5928188E+01
 8.6077509E+00  3.5822590E+01
 8.6192503E+00  3.5713890E+01
 8.6307507E+00  3.5581928E+01
 8.6422501E+00  3.5346478E+01
 8.6537504E+00  3.5111256E+01
 8.6652508E+00  3.4958206E+01
 8.6767502E+00  3.4726311E+01
 8.6882505E+00  3.4583946E+01
 8.6997509E+00  3.4363251E+01
 8.7112503E+00  3.4235519E+01
 8.7227507E+00  3.4109978E+01
 8.7342501E+00  3.3939236E+01
 8.7457504E+00  3.3746441E+01
 8.7572508E+00  3.3530430E+01
 8.7687502E+00  3.3323574E+01
 8.7802505E+00  3.3154591E+01
 8.7917500E+00  3.2980507E+01
 8.8032503E+00  3.2829361E+01
 8.8147507E+00  3.2660957E+01
 8.8262501E+00  3.2452465E+01
 8.8377504E+00  3.2288666E+01
 8.8492508E+00  3.2097961E+01
 8.8607502E+00  3.2042889E+01
 8.8722506E+00  3.1904034E+01
 8.8837500E+00  3.1807117E+01
 8.8952503E+00  3.1629253E+01
 8.9067507E+00  3.1413351E+01
 8.9182501E+00  3.1250370E+01
 8.9297504E+00  3.1114740E+01
 8.9412508E+00  3.1019419E+01
 8.9527502E+00  3.0892422E+01
 8.9642506E+00  3.0789890E+01
 8.9757500E+00  3.0621271E+01
 8.9872503E+00  3.0487822E+01
 8.9987507E+00  3.0210125E+01
 9.0102501E+00  3.0055515E+01
 9.0217505E+00  2.9836929E+01
 9.0332508E+00  2.9775106E+01
 9.0447502E+00  2.9692091E+01
 9.0562506E+00  2.9624367E+01
 9.0677500E+00  2.9577724E+01
 9.0792503E+00  2.9529116E+01
 9.0907507E+00  2.9474218E+01
 9.1022501E+00  2.9343866E+01
 9.1137505E+00  2.9197512E+01
 9.1252508E+00  2.9098682E+01
 9.1367502E+00  2.8989220E+01
 9.1482506E+00  2.8851688E+01
 9.1597500E+00  2.8694418E+01
 9.1712503E+00  2.8603088E+01
 9.1827507E+00  2.8492401E+01
 9.1942501E+00  2.8436829E+01
 9.2057505E+00  2.8314651E+01
 9.2172508E+00  2.8318132E+01
 9.2287502E+00  2.8179865E+01
 9.2402506E+00  2.8089117E+01
 9.2517500E+00  2.7944901E+01
 9.2632504E+00  2.7873562E+01
 9.2747507E+00  2.7782951E+01
 9.2862501E+00  2.7612989E+01
 9.2977505E+00  2.7493170E+01
 9.3092508E+00  2.7347340E+01
 9.3207502E+00  2.7286760E+01
 9.3322506E+00  2.7171682E+01
 9.3437500E+00  2.7050447E+01
 9.3552504E+00  2.6986895E+01
 9.3667507E+00  2.6933378E+01
 9.3782501E+00  2.6850458E+01
 9.3897505E+00  2.6715620E+01
 9.4012508E+00  2.6598883E+01
 9.4127502E+00  2.6517805E+01
 9.4242506E+00  2.6484268E+01
 9.4357500E+00  2.6462801E+01
 9.4472504E+00  2.6437397E+01
 9.4587507E+00  2.6349871E+01
 9.4702501E+00  2.6283474E+01
 9.4817505E+00  2.6226929E+01
 9.4932508E+00  2.6139353E+01
 9.5047503E+00  2.5986954E+01
 9.5162506E+00  2.5876400E+01
 9.5277500E+00  2.5766756E+01
 9.5392504E+00  2.5699802E+01
 9.5507507E+00  2.5639177E+01
 9.5622501E+00  2.5641834E+01
 9.5737505E+00  2.5556581E+01
 9.5852509E+00  2.5476862E+01
 9.5967503E+00  2.5442099E+01
 9.6082506E+00  2.5417749E+01
 9.6197500E+00  2.5395658E+01
 9.6312504E+00  2.5315313E+01
 9.6427507E+00  2.5273108E+01
 9.6542501E+00  2.5240297E+01
 9.6657505E+00  2.5148012E+01
 9.6772509E+00  2.5037460E+01
 9.6887503E+00  2.4948013E+01
 9.7002506E+00  2.4892435E+01
 9.7117500E+00  2.4926252E+01
 9.7232504E+00  2.4967392E+01
 9.7347507E+00  2.5012188E+01
 9.7462502E+00  2.5039509E+01
 9.7577505E+00  2.4965317E+01
 9.7692509E+00  2.4806211E+01
 9.7807503E+00  2.4661057E+01
 9.7922506E+00  2.4542606E+01
 9.8037500E+00  2.4588625E+01
 9.8152504E+00  2.4515930E+01
 9.8267508E+00  2.4450632E+01
 9.8382502E+00  2.4337883E+01
 9.8497505E+00  2.4245258E+01
 9.8612509E+00  2.4184904E+01
 9.8727503E+00  2.4156412E+01
 9.8842506E+00  2.4166439E+01
 9.8957500E+00  2.4190977E+01
 9.9072504E+00  2.4162237E+01
 9.9187508E+00  2.4206728E+01
 9.9302502E+00  2.4176620E+01
 9.9417505E+00  2.4112513E+01
 9.9532509E+00  2.4018194E+01
 9.9647503E+00  2.4008295E+01
 9.9762506E+00  2.4023647E+01
 9.9877501E+00  2.4013517E+01
 9.9992504E+00  2.3996643E+01
 1.0010751E+01  2.3933828E+01
 1.0022250E+01  2.3952938E+01
 1.0033751E+01  2.3908720E+01
 1.0045251E+01  2.3920712E+01
 1.0056750E+01  2.3900837E+01
 1.0068251E+01  2.3839670E+01
 1.0079750E+01  2.3806885E+01
 1.0091250E+01  2.3693165E+01
 1.0102751E+01  2.3612518E+01
 1.0114250E+01  2.3521566E+01
 1.0125751E+01  2.3471516E+01
 1.0137251E+01  2.3443108E+01
 1.0148750E+01  2.3381271E+01
 1.0160251E+01  2.3394192E+01
 1.0171750E+01  2.3414606E+01
 1.0183250E+01  2.3467884E+01
 1.0194751E+01  2.3458323E+01
 1.0206250E+01  2.3441822E+01
 1.0217751E+01  2.3445551E+01
 1.0229251E+01  2.3434433E+01
 1.0240750E+01  2.3395733E+01
 1.0252251E+01  2.3340771E+01
 1.0263750E+01  2.3291988E+01
 1.0275250E+01  2.3274315E+01
 1.0286751E+01  2.3210672E+01
 1.0298250E+01  2.3140171E+01
 1.0309751E+01  2.3123676E+01
 1.0321251E+01  2.3084557E+01
 1.0332750E+01  2.3057842E+01
 1.0344251E+01  2.2979492E+01
 1.0355750E+01  2.2954556E+01
 1.0367250E+01  2.2934341E+01
 1.0378751E+01  2.2935820E+01
 1.0390250E+01  2.2950724E+01
 1.0401751E+01  2.2979500E+01
 1.0413251E+01  2.2945192E+01
 1.0424750E+01  2.2915453E+01
 1.0436251E+01  2.2822096E+01
 1.0447750E+01  2.2835684E+01
 1.0459250E+01  2.2855501E+01
 1.0470751E+01  2.2894564E+01
 1.0482250E+01  2.2908142E+01
 1.0493751E+01  2.2885565E+01
 1.0505251E+01  2.2835474E+01
 1.0516750E+01  2.2703915E+01
 1.0528251E+01  2.2594183E+01
 1.0539750E+01  2.2563900E+01
 1.0551250E+01  2.2602551E+01
 1.0562751E+01  2.2668852E+01
 1.0574250E+01  2.2676058E+01
 1.0585751E+01  2.2658915E+01
 1.0597251E+01  2.2648218E+01
 1.0608750E+01  2.2667391E+01
 1.0620251E+01  2.2700457E+01
 1.0631750E+01  2.2684334E+01
 1.0643250E+01  2.2659367E+01
 1.0654751E+01  2.2628931E+01
 1.0666250E+01  2.2606398E+01
 1.0677751E+01  2.2518627E+01
 1.0689251E+01  2.2448961E+01
 1.0700750E+01  2.2408298E+01
 1.0712251E+01  2.2401842E+01
 1.0723750E+01  2.2441288E+01
 1.0735250E+01  2.2373390E+01
 1.0746751E+01  2.2442387E+01
 1.0758250E+01  2.2421131E+01
 1.0769751E+01  2.2454727E+01
 1.0781251E+01  2.2424194E+01
 1.0792750E+01  2.2369055E+01
 1.0804251E+01  2.2351681E+01
 1.0815750E+01  2.2372942E+01
 1.0827250E+01  2.2480013E+01
 1.0838751E+01  2.2570139E+01
 1.0850250E+01  2.2577480E+01
 1.0861751E+01  2.2597406E+01
 1.0873251E+01  2.2578012E+01
 1.0884750E+01  2.2527813E+01
 1.0896251E+01  2.2400747E+01
 1.0907750E+01  2.2343143E+01
 1.0919250E+01  2.2322699E+01
 1.0930751E+01  2.2317984E+01
 1.0942250E+01  2.2305178E+01
 1.0953751E+01  2.2362566E+01
 1.0965251E+01  2.2412186E+01
 1.0976750E+01  2.2482456E+01
 1.0988251E+01  2.2517214E+01
 1.0999750E+01  2.2530077E+01
 1.1011250E+01  2.2470406E+01
 1.1022751E+01  2.2374683E+01
 1.1034250E+01  2.2340271E+01
 1.1045751E+01  2.2326017E+01
 1.1057251E+01  2.2336653E+01
 1.1068750E+01  2.2325989E+01
 1.1080251E+01  2.2356730E+01
 1.1091750E+01  2.2330130E+01
 1.1103251E+01  2.2285343E+01
 1.1114751E+01  2.2276577E+01
 1.1126250E+01  2.2278381E+01
 1.1137751E+01  2.2247469E+01
 1.1149251E+01  2.2152809E+01
 1.1160750E+01  2.2090845E+01
 1.1172251E+01  2.2049934E+01
 1.1183750E+01  2.2015726E+01
 1.1195251E+01  2.1982731E+01
 1.1206751E+01  2.2037806E+01
 1.1218250E+01  2.2051804E+01
 1.1229751E+01  2.2091415E+01
 1.1241251E+01  2.2085674E+01
 1.1252750E+01  2.2119905E+01
 1.1264251E+01  2.2131327E+01
 1.1275750E+01  2.2176699E+01
 1.1287251E+01  2.2122425E+01
 1.1298751E+01  2.2149323E+01
 1.1310250E+01  2.2111225E+01
 1.1321751E+01  2.2167665E+01
 1.1333251E+01  2.2156866E+01
 1.1344750E+01  2.2147133E+01
 1.1356251E+01  2.2143911E+01
 1.1367750E+01  2.2174355E+01
 1.1379251E+01  2.2160624E+01
 1.1390751E+01  2.2197039E+01
 1.1402250E+01  2.2323023E+01
 1.1413751E+01  2.2389456E+01
 1.1425251E+01  2.2449877E+01
 1.1436750E+01  2.2401686E+01
 1.1448251E+01  2.2444174E+01
 1.1459750E+01  2.2464058E+01
 1.1471251E+01  2.2433262E+01
 1.1482751E+01  2.2399107E+01
 1.1494250E+01  2.2331272E+01
 1.1505751E+01  2.2310444E+01
 1.1517251E+01  2.2351513E+01
 1.1528750E+01  2.2502272E+01
 1.1540251E+01  2.2817480E+01
 1.1551750E+01  2.3164331E+01
 1.1563251E+01  2.3620296E+01
 1.1574751E+01  2.3862448E+01
 1.1586250E+01  2.4111429E+01
 1.1597751E+01  2.4073765E+01
 1.1609251E+01  2.3919830E+01
 1.1620750E+01  2.3633833E+01
 1.1632251E+01  2.3296251E+01
 1.1643750E+01  2.2997932E+01
 1.1655251E+01  2.2696674E+01
 1.1666751E+01  2.2434013E+01
 1.1678250E+01  2.2216717E+01
 1.1689751E+01  2.2093273E+01
 1.1701251E+01  2.2068495E+01
 1.1712750E+01  2.2056896E+01
 1.1724251E+01  2.2057436E+01
 1.1735750E+01  2.2067965E+01
 1.1747251E+01  2.2106344E+01
 1.1758751E+01  2.2088459E+01
 1.1770250E+01  2.2056225E+01
 1.1781751E+01  2.2090883E+01
 1.1793251E+01  2.2134295E+01
 1.1804750E+01  2.2178169E+01
 1.1816251E+01  2.2169573E+01
 1.1827750E+01  2.2113459E+01
 1.1839251E+01  2.2085291E+01
 1.1850751E+01  2.2019192E+01
 1.1862250E+01  2.2002428E+01
 1.1873751E+01  2.1998461E+01
 1.1885251E+01  2.2033306E+01
 1.1896750E+01  2.2166817E+01
 1.1908251E+01  2.2239231E+01
 1.1919750E+01  2.2300755E+01
 1.1931251E+01  2.2288120E+01
 1.1942751E+01  2.2310055E+01
 1.1954250E+01  2.2346443E+01
 1.1965751E+01  2.2352430E+01
 1.1977251E+01  2.2387098E+01
 1.1988750E+01  2.2413212E+01
 1.2000251E+01  2.2434427E+01
 1.2011750E+01  2.2412323E+01
 1.2023251E+01  2.2375513E+01
 1.2034751E+01  2.2410696E+01
 1.2046250E+01  2.2404581E+01
 1.2057751E+01  2.2480690E+01
 1.2069251E+01  2.2558624E+01
 1.2080750E+01  2.2693602E+01
 1.2092251E+01  2.2804165E+01
 1.2103750E+01  2.2799248E+01
 1.2115251E+01  2.2765570E+01
 1.2126751E+01  2.2678516E+01
 1.2138250E+01  2.2588800E+01
 1.2149751E+01  2.2487877E+01
 1.2161251E+01  2.2373127E+01
 1.2172750E+01  2.2326141E+01
 1.2184251E+01  2.2295458E+01
 1.2195750E+01  2.2269394E+01
 1.2207251E+01  2.2198660E+01
 1.2218751E+01  2.2163239E+01
 1.2230250E+01  2.2149035E+01
 1.2241751E+01  2.2152462E+01
 1.2253251E+01  2.2149302E+01
 1.2264750E+01  2.2169670E+01
 1.2276251E+01  2.2151014E+01
 1.2287750E+01  2.2154045E+01
 1.2299251E+01  2.2125019E+01
 1.2310751E+01  2.2141977E+01
 1.2322250E+01  2.2123562E+01
 1.2333751E+01  2.2150461E+01
 1.2345250E+01  2.2173910E+01
 1.2356750E+01  2.2238878E+01
 1.2368251E+01  2.2218283E+01
 1.2379750E+01  2.2232563E+01
 1.2391251E+01  2.2158323E+01
 1.2402751E+01  2.2174334E+01
 1.2414250E+01  2.2169598E+01
 1.2425751E+01  2.2178099E+01
 1.2437250E+01  2.2177790E+01
 1.2448750E+01  2.2107473E+01
 1.2460251E+01  2.2162340E+01
 1.2471750E+01  2.2177061E+01
 1.2483251E+01  2.2237244E+01
 1.2494751E+01  2.2231318E+01
 1.2506250E+01  2.2227858E+01
 1.2517751E+01  2.2226563E+01
 1.2529250E+01  2.2229776E+01
 1.2540751E+01  2.2244812E+01
 1.2552251E+01  2.2309361E+01
 1.2563750E+01  2.2323160E+01
 1.2575251E+01  2.2352062E+01
 1.2586751E+01  2.2338001E+01
 1.2598250E+01  2.2327263E+01
 1.2609751E+01  2.2340117E+01
 1.2621250E+01  2.2332176E+01
 1.2632751E+01  2.2354742E+01
 1.2644251E+01  2.2295765E+01
 1.2655750E+01  2.2335159E+01
 1.2667251E+01  2.2367088E+01
 1.2678751E+01  2.2458473E+01
 1.2690250E+01  2.2486116E+01
 1.2701751E+01  2.2509039E+01
 1.2713250E+01  2.2548447E+01
 1.2724751E+01  2.2562407E+01
 1.2736251E+01  2.2554367E+01
 1.2747750E+01  2.2606972E+01
 1.2759251E+01  2.2654556E+01
 1.2770751E+01  2.2709332E+01
 1.2782250E+01  2.2745674E+01
 1.2793751E+01  2.2755259E+01
 1.2805250E+01  2.2846762E+01
 1.2816751E+01  2.2860258E+01
 1.2828251E+01  2.2944067E+01
 1.2839750E+01  2.3001974E+01
 1.2851251E+01  2.3103039E+01
 1.2862751E+01  2.3172218E+01
 1.2874250E+01  2.3190453E+01
 1.2885751E+01  2.3190794E+01
 1.2897250E+01  2.3173813E+01
 1.2908751E+01  2.3166559E+01
 1.2920251E+01  2.3141504E+01
 1.2931750E+01  2.3178505E+01
 1.2943251E+01  2.3195650E+01
 1.2954751E+01  2.3240377E+01
 1.2966250E+01  2.3273897E+01
 1.2977751E+01  2.3352312E+01
 1.2989250E+01  2.3410328E+01
 1.3000751E+01  2.3535616E+01
 1.3012251E+01  2.3657476E+01
 1.3023750E+01  2.3763174E+01
 1.3035251E+01  2.3838898E+01
 1.3046751E+01  2.3871027E+01
 1.3058250E+01  2.3984236E+01
 1.3069751E+01  2.4031406E+01
 1.3081250E+01  2.4099247E+01
 1.3092751E+01  2.4192228E+01
 1.3104251E+01  2.4347746E+01
 1.3115750E+01  2.4511412E+01
 1.3127251E+01  2.4657785E+01
 1.3138751E+01  2.4739832E+01
 1.3150250E+01  2.4827412E+01
 1.3161751E+01  2.4864357E+01
 1.3173250E+01  2.4935421E+01
 1.3184751E+01  2.5048965E+01
 1.3196251E+01  2.5177443E+01
 1.3207750E+01  2.5348787E+01
 1.3219251E+01  2.5526489E+01
 1.3230751E+01  2.5713863E+01
 1.3242250E+01  2.5863018E+01
 1.3253751E+01  2.5986568E+01
 1.3265250E+01  2.6090801E+01
 1.3276751E+01  2.6186440E+01
 1.3288251E+01  2.6295767E+01
 1.3299750E+01  2.6432005E+01
 1.3311251E+01  2.6552858E+01
 1.3322751E+01  2.6702080E+01
 1.3334250E+01  2.6874638E+01
 1.3345751E+01  2.7045408E+01
 1.3357250E+01  2.7202316E+01
 1.3368751E+01  2.7274057E+01
 1.3380251E+01  2.7439026E+01
 1.3391750E+01  2.7554043E+01
 1.3403251E+01  2.7761946E+01
 1.3414751E+01  2.7892277E+01
 1.3426250E+01  2.8004839E+01
 1.3437751E+01  2.8152319E+01
 1.3449250E+01  2.8258633E+01
 1.3460751E+01  2.8423559E+01
 1.3472251E+01  2.8497055E+01
 1.3483750E+01  2.8637545E+01
 1.3495251E+01  2.8707798E+01
 1.3506751E+01  2.8775690E+01
 1.3518250E+01  2.8828373E+01
 1.3529751E+01  2.8901363E+01
 1.3541250E+01  2.8924150E+01
 1.3552751E+01  2.8893644E+01
 1.3564251E+01  2.8928169E+01
 1.3575750E+01  2.9005661E+01
 1.3587251E+01  2.9105734E+01
 1.3598751E+01  2.9199804E+01
 1.3610250E+01  2.9226025E+01
 1.3621751E+01  2.9246916E+01
 1.3633250E+01  2.9237707E+01
 1.3644751E+01  2.9248043E+01
 1.3656251E+01  2.9293295E+01
 1.3667750E+01  2.9340494E+01
 1.3679251E+01  2.9363409E+01
 1.3690751E+01  2.9271696E+01
 1.3702250E+01  2.9128181E+01
 1.3713751E+01  2.8974180E+01
 1.3725250E+01  2.8843779E+01
 1.3736751E+01  2.8812857E+01
 1.3748251E+01  2.8795000E+01
 1.3759750E+01  2.8817913E+01
 1.3771251E+01  2.8734764E+01
 1.3782751E+01  2.8750856E+01
 1.3794250E+01  2.8742304E+01
 1.3805751E+01  2.8702984E+01
 1.3817250E+01  2.8655577E+01
 1.3828751E+01  2.8608353E+01
 1.3840251E+01  2.8577944E+01
 1.3851750E+01  2.8539406E+01
 1.3863251E+01  2.8548431E+01
 1.3874751E+01  2.8566628E+01
 1.3886250E+01  2.8651691E+01
 1.3897751E+01  2.8810995E+01
 1.3909250E+01  2.9006727E+01
 1.3920751E+01  2.9252876E+01
 1.3932251E+01  2.9400627E+01
 1.3943750E+01  2.9546816E+01
 1.3955251E+01  2.9617640E+01
 1.3966751E+01  2.9560047E+01
 1.3978251E+01  2.9393553E+01
 1.3989751E+01  2.9002630E+01
 1.4001250E+01  2.8622923E+01
 1.4012751E+01  2.8160944E+01
 1.4024251E+01  2.7759253E+01
 1.4035750E+01  2.7452894E+01
 1.4047251E+01  2.7246962E+01
 1.4058751E+01  2.7147457E+01
 1.4070251E+01  2.7084547E+01
 1.4081751E+01  2.6979441E+01
 1.4093250E+01  2.6908421E+01
 1.4104751E+01  2.6782745E+01
 1.4116251E+01  2.6746941E+01
 1.4127750E+01  2.6685478E+01
 1.4139251E+01  2.6669281E+01
 1.4150751E+01  2.6591911E+01
 1.4162251E+01  2.6563332E+01
 1.4173751E+01  2.6516373E+01
 1.4185250E+01  2.6430262E+01
 1.4196751E+01  2.6353926E+01
 1.4208251E+01  2.6305363E+01
 1.4219750E+01  2.6262600E+01
 1.4231251E+01  2.6158712E+01
 1.4242751E+01  2.6071432E+01
 1.4254251E+01  2.6006176E+01
 1.4265751E+01  2.5927490E+01
 1.4277250E+01  2.5822920E+01
 1.4288751E+01  2.5779249E+01
 1.4300251E+01  2.5721375E+01
 1.4311750E+01  2.5771776E+01
 1.4323251E+01  2.5754360E+01
 1.4334751E+01  2.5797901E+01
 1.4346251E+01  2.5767822E+01
 1.4357751E+01  2.5710115E+01
 1.4369250E+01  2.5645514E+01
 1.4380751E+01  2.5600891E+01
 1.4392251E+01  2.5614931E+01
 1.4403750E+01  2.5625612E+01
 1.4415251E+01  2.5565527E+01
 1.4426751E+01  2.5522827E+01
 1.4438251E+01  2.5495245E+01
 1.4449751E+01  2.5448082E+01
 1.4461250E+01  2.5383583E+01
 1.4472751E+01  2.5314402E+01
 1.4484251E+01  2.5304413E+01
 1.4495750E+01  2.5299469E+01
 1.4507251E+01  2.5318632E+01
 1.4518751E+01  2.5272896E+01
 1.4530251E+01  2.5187153E+01
 1.4541751E+01  2.5052450E+01
 1.4553250E+01  2.4989105E+01
 1.4564751E+01  2.4985605E+01
 1.4576251E+01  2.4925161E+01
 1.4587750E+01  2.4908205E+01
 1.4599251E+01  2.4827307E+01
 1.4610751E+01  2.4889330E+01
 1.4622251E+01  2.4819771E+01
 1.4633751E+01  2.4800177E+01
 1.4645250E+01  2.4684881E+01
 1.4656751E+01  2.4623360E+01
 1.4668251E+01  2.4568588E+01
 1.4679750E+01  2.4574615E+01
 1.4691251E+01  2.4627045E+01
 1.4702751E+01  2.4686123E+01
 1.4714251E+01  2.4727757E+01
 1.4725751E+01  2.4732201E+01
 1.4737250E+01  2.4758284E+01
 1.4748751E+01  2.4796265E+01
 1.4760251E+01  2.4792814E+01
 1.4771750E+01  2.4761423E+01
 1.4783251E+01  2.4779903E+01
 1.4794751E+01  2.4834049E+01
 1.4806251E+01  2.4854580E+01
 1.4817751E+01  2.4756441E+01
 1.4829250E+01  2.4680765E+01
 1.4840751E+01  2.4608538E+01
 1.4852251E+01  2.4610077E+01
 1.4863750E+01  2.4595808E+01
 1.4875251E+01  2.4602989E+01
 1.4886751E+01  2.4602348E+01
 1.4898251E+01  2.4643438E+01
 1.4909751E+01  2.4671129E+01
 1.4921250E+01  2.4662683E+01
 1.4932751E+01  2.4648645E+01
 1.4944251E+01  2.4578102E+01
 1.4955750E+01  2.4527275E+01
 1.4967251E+01  2.4459192E+01
 1.4978751E+01  2.4429235E+01
 1.4990251E+01  2.4399355E+01
 1.5001751E+01  2.4430946E+01
 1.5013250E+01  2.4481152E+01
 1.5024751E+01  2.4532862E+01
 1.5036251E+01  2.4551239E+01
 1.5047750E+01  2.4529074E+01
 1.5059251E+01  2.4532869E+01
 1.5070751E+01  2.4545595E+01
 1.5082251E+01  2.4577465E+01
 1.5093751E+01  2.4551888E+01
 1.5105250E+01  2.4517813E+01
 1.5116751E+01  2.4476700E+01
 1.5128251E+01  2.4515274E+01
 1.5139750E+01  2.4529818E+01
 1.5151251E+01  2.4645184E+01
 1.5162751E+01  2.4706293E+01
 1.5174251E+01  2.4882608E+01
 1.5185751E+01  2.4946646E+01
 1.5197250E+01  2.5062263E+01
 1.5208751E+01  2.5018427E+01
 1.5220251E+01  2.4933958E+01
 1.5231750E+01  2.4739809E+01
 1.5243251E+01  2.4560472E+01
 1.5254751E+01  2.4451050E+01
 1.5266251E+01  2.4267002E+01
 1.5277751E+01  2.4198313E+01
 1.5289250E+01  2.4120384E+01
 1.5300751E+01  2.4123091E+01
 1.5312251E+01  2.4111025E+01
 1.5323750E+01  2.4056274E+01
 1.5335251E+01  2.4058044E+01
 1.5346751E+01  2.4037397E+01
 1.5358251E+01  2.4102236E+01
 1.5369751E+01  2.4111057E+01
 1.5381250E+01  2.4092768E+01
 1.5392751E+01  2.4096527E+01
 1.5404251E+01  2.4105261E+01
 1.5415751E+01  2.4121695E+01
 1.5427251E+01  2.4112558E+01
 1.5438751E+01  2.4086428E+01
 1.5450251E+01  2.4079559E+01
 1.5461751E+01  2.4111092E+01
 1.5473250E+01  2.4126822E+01
 1.5484751E+01  2.4173996E+01
 1.5496251E+01  2.4194216E+01
 1.5507751E+01  2.4208326E+01
 1.5519251E+01  2.4154522E+01
 1.5530751E+01  2.4149288E+01
 1.5542251E+01  2.4123861E+01
 1.5553751E+01  2.4153227E+01
 1.5565250E+01  2.4162359E+01
 1.5576751E+01  2.4175444E+01
 1.5588251E+01  2.4199907E+01
 1.5599751E+01  2.4223774E+01
 1.5611251E+01  2.4251783E+01
 1.5622751E+01  2.4242407E+01
 1.5634251E+01  2.4219810E+01
 1.5645751E+01  2.4250010E+01
 1.5657250E+01  2.4252829E+01
 1.5668751E+01  2.4248072E+01
 1.5680251E+01  2.4213121E+01
 1.5691751E+01  2.4231167E+01
 1.5703251E+01  2.4239985E+01
 1.5714751E+01  2.4171169E+01
 1.5726251E+01  2.4120388E+01
 1.5737751E+01  2.4033802E+01
 1.5749250E+01  2.4069134E+01
 1.5760751E+01  2.4066877E+01
 1.5772251E+01  2.4153786E+01
 1.5783751E+01  2.4133871E+01
 1.5795251E+01  2.4190336E+01
 1.5806751E+01  2.4221506E+01
 1.5818251E+01  2.4252857E+01
 1.5829751E+01  2.4182545E+01
 1.5841250E+01  2.4122520E+01
 1.5852751E+01  2.4082087E+01
 1.5864251E+01  2.4042833E+01
 1.5875751E+01  2.4053576E+01
 1.5887251E+01  2.4062195E+01
 1.5898750E+01  2.4152039E+01
 1.5910251E+01  2.4231327E+01
 1.5921751E+01  2.4243053E+01
 1.5933250E+01  2.4263687E+01
 1.5944751E+01  2.4202888E+01
 1.5956251E+01  2.4218542E+01
 1.5967751E+01  2.4194830E+01
 1.5979251E+01  2.4240551E+01
 1.5990750E+01  2.4296658E+01
 1.6002251E+01  2.4301538E+01
 1.6013750E+01  2.4300760E+01
 1.6025251E+01  2.4273842E+01
 1.6036751E+01  2.4240444E+01
 1.6048250E+01  2.4264757E+01
 1.6059752E+01  2.4207548E+01
 1.6071251E+01  2.4188044E+01
 1.6082750E+01  2.4186140E+01
 1.6094252E+01  2.4252100E+01
 1.6105751E+01  2.4334091E+01
 1.6117250E+01  2.4361528E+01
 1.6128750E+01  2.4343975E+01
 1.6140251E+01  2.4326967E+01
 1.6151751E+01  2.4304941E+01
 1.6163250E+01  2.4356379E+01
 1.6174751E+01  2.4298122E+01
 1.6186251E+01  2.4367260E+01
 1.6197750E+01  2.4298796E+01
 1.6209251E+01  2.4509367E+01
 1.6220751E+01  2.4513597E+01
 1.6232250E+01  2.4718388E+01
 1.6243752E+01  2.4731737E+01
 1.6255251E+01  2.4785593E+01
 1.6266750E+01  2.4883787E+01
 1.6278252E+01  2.4789015E+01
 1.6289751E+01  2.4919603E+01
 1.6301250E+01  2.4652082E+01
 1.6312750E+01  2.4741590E+01
 1.6324251E+01  2.4438110E+01
 1.6335751E+01  2.4445246E+01
 1.6347250E+01  2.4312897E+01
 1.6358751E+01  2.4396563E+01
 1.6370251E+01  2.4367777E+01
 1.6381750E+01  2.4375284E+01
 1.6393251E+01  2.4374077E+01
 1.6404751E+01  2.4380323E+01
 1.6416250E+01  2.4399326E+01
 1.6427752E+01  2.4378332E+01
 1.6439251E+01  2.4362070E+01
 1.6450750E+01  2.4307907E+01
 1.6462252E+01  2.4292049E+01
 1.6473751E+01  2.4227942E+01
 1.6485250E+01  2.4185242E+01
 1.6496750E+01  2.4133348E+01
 1.6508251E+01  2.4141483E+01
 1.6519751E+01  2.4191433E+01
 1.6531250E+01  2.4219673E+01
 1.6542751E+01  2.4274841E+01
 1.6554251E+01  2.4215672E+01
 1.6565750E+01  2.4251205E+01
 1.6577251E+01  2.4222406E+01
 1.6588751E+01  2.4244005E+01
 1.6600250E+01  2.4234039E+01
 1.6611752E+01  2.4183918E+01
 1.6623251E+01  2.4099083E+01
 1.6634750E+01  2.4008511E+01
 1.6646252E+01  2.4006685E+01
 1.6657751E+01  2.4025137E+01
 1.6669250E+01  2.4057289E+01
 1.6680750E+01  2.4094172E+01
 1.6692251E+01  2.4165104E+01
 1.6703751E+01  2.4199413E+01
 1.6715250E+01  2.4182779E+01
 1.6726751E+01  2.4108675E+01
 1.6738251E+01  2.4078642E+01
 1.6749750E+01  2.4081928E+01
 1.6761251E+01  2.4081318E+01
 1.6772751E+01  2.4085529E+01
 1.6784250E+01  2.4037556E+01
 1.6795752E+01  2.4006643E+01
 1.6807251E+01  2.3982969E+01
 1.6818750E+01  2.3970644E+01
 1.6830252E+01  2.3934458E+01
 1.6841751E+01  2.3870304E+01
 1.6853251E+01  2.3840958E+01
 1.6864750E+01  2.3783129E+01
 1.6876251E+01  2.3827330E+01
 1.6887751E+01  2.3837362E+01
 1.6899250E+01  2.3860727E+01
 1.6910751E+01  2.3887022E+01
 1.6922251E+01  2.3987551E+01
 1.6933750E+01  2.4078356E+01
 1.6945251E+01  2.4109173E+01
 1.6956751E+01  2.4045406E+01
 1.6968250E+01  2.3984705E+01
 1.6979752E+01  2.3912785E+01
 1.6991251E+01  2.3875723E+01
 1.7002750E+01  2.3856749E+01
 1.7014252E+01  2.3901186E+01
 1.7025751E+01  2.3882072E+01
 1.7037251E+01  2.3855385E+01
 1.7048750E+01  2.3762323E+01
 1.7060251E+01  2.3786768E+01
 1.7071751E+01  2.3814863E+01
 1.7083250E+01  2.3892300E+01
 1.7094751E+01  2.3904894E+01
 1.7106251E+01  2.3908905E+01
 1.7117750E+01  2.3867035E+01
 1.7129251E+01  2.3871252E+01
 1.7140751E+01  2.3876247E+01
 1.7152250E+01  2.3858786E+01
 1.7163752E+01  2.3844774E+01
 1.7175251E+01  2.3812140E+01
 1.7186750E+01  2.3824327E+01
 1.7198252E+01  2.3824615E+01
 1.7209751E+01  2.3859140E+01
 1.7221251E+01  2.3826344E+01
 1.7232750E+01  2.3818983E+01
 1.7244251E+01  2.3804689E+01
 1.7255751E+01  2.3811977E+01
 1.7267250E+01  2.3774298E+01
 1.7278751E+01  2.3741566E+01
 1.7290251E+01  2.3709726E+01
 1.7301750E+01  2.3723354E+01
 1.7313251E+01  2.3718826E+01
 1.7324751E+01  2.3773344E+01
 1.7336250E+01  2.3735987E+01
 1.7347752E+01  2.3740246E+01
 1.7359251E+01  2.3671595E+01
 1.7370750E+01  2.3661455E+01
 1.7382252E+01  2.3618568E+01
 1.7393751E+01  2.3575781E+01
 1.7405251E+01  2.3517895E+01
 1.7416750E+01  2.3514166E+01
 1.7428251E+01  2.3506582E+01
 1.7439751E+01  2.3513578E+01
 1.7451250E+01  2.3516300E+01
 1.7462751E+01  2.3570595E+01
 1.7474251E+01  2.3574663E+01
 1.7485750E+01  2.3614105E+01
 1.7497252E+01  2.3642817E+01
 1.7508751E+01  2.3660652E+01
 1.7520250E+01  2.3626925E+01
 1.7531752E+01  2.3629293E+01
 1.7543251E+01  2.3650999E+01
 1.7554750E+01  2.3626915E+01
 1.7566252E+01  2.3541519E+01
 1.7577751E+01  2.3529316E+01
 1.7589251E+01  2.3525509E+01
 1.7600750E+01  2.3554317E+01
 1.7612251E+01  2.3552847E+01
 1.7623751E+01  2.3594774E+01
 1.7635250E+01  2.3533577E+01
 1.7646751E+01  2.3455479E+01
 1.7658251E+01  2.3375031E+01
 1.7669750E+01  2.3410557E+01
 1.7681252E+01  2.3396774E+01
 1.7692751E+01  2.3411720E+01
 1.7704250E+01  2.3374186E+01
 1.7715752E+01  2.3347164E+01
 1.7727251E+01  2.3301676E+01
 1.7738750E+01  2.3336937E+01
 1.7750252E+01  2.3377495E+01
 1.7761751E+01  2.3417376E+01
 1.7773251E+01  2.3462021E+01
 1.7784750E+01  2.3489117E+01
 1.7796251E+01  2.3489403E+01
 1.7807751E+01  2.3442083E+01
 1.7819250E+01  2.3434408E+01
 1.7830751E+01  2.3418730E+01
 1.7842251E+01  2.3435965E+01
 1.7853750E+01  2.3414696E+01
 1.7865252E+01  2.3373081E+01
 1.7876751E+01  2.3317875E+01
 1.7888250E+01  2.3274977E+01
 1.7899752E+01  2.3252472E+01
 1.7911251E+01  2.3299437E+01
 1.7922750E+01  2.3317558E+01
 1.7934252E+01  2.3306684E+01
 1.7945751E+01  2.3277990E+01
 1.7957251E+01  2.3266026E+01
 1.7968750E+01  2.3294062E+01
 1.7980251E+01  2.3358759E+01
 1.7991751E+01  2.3447617E+01
 1.8003250E+01  2.3510933E+01
 1.8014751E+01  2.3540802E+01
 1.8026251E+01  2.3577120E+01
 1.8037750E+01  2.3630245E+01
 1.8049252E+01  2.3662680E+01
 1.8060751E+01  2.3679398E+01
 1.8072250E+01  2.3624166E+01
 1.8083752E+01  2.3626289E+01
 1.8095251E+01  2.3581697E+01
 1.8106750E+01  2.3620979E+01
 1.8118252E+01  2.3615114E+01
 1.8129751E+01  2.3676571E+01
 1.8141251E+01  2.3624933E+01
 1.8152750E+01  2.3581373E+01
 1.8164251E+01  2.3501688E+01
 1.8175751E+01  2.3462479E+01
 1.8187250E+01  2.3369190E+01
 1.8198751E+01  2.3328087E+01
 1.8210251E+01  2.3295637E+01
 1.8221750E+01  2.3305721E+01
 1.8233252E+01  2.3286146E+01
 1.8244751E+01  2.3272627E+01
 1.8256250E+01  2.3257830E+01
 1.8267752E+01  2.3254822E+01
 1.8279251E+01  2.3281830E+01
 1.8290751E+01  2.3285419E+01
 1.8302252E+01  2.3320395E+01
 1.8313751E+01  2.3329580E+01
 1.8325251E+01  2.3329325E+01
 1.8336750E+01  2.3324724E+01
 1.8348251E+01  2.3345621E+01
 1.8359751E+01  2.3328897E+01
 1.8371250E+01  2.3321201E+01
 1.8382751E+01  2.3233255E+01
 1.8394251E+01  2.3230579E+01
 1.8405750E+01  2.3204493E+01
 1.8417252E+01  2.3272573E+01
 1.8428751E+01  2.3304253E+01
 1.8440250E+01  2.3304445E+01
 1.8451752E+01  2.3290224E+01
 1.8463251E+01  2.3292980E+01
 1.8474751E+01  2.3328928E+01
 1.8486252E+01  2.3274918E+01
 1.8497751E+01  2.3272499E+01
 1.8509251E+01  2.3277357E+01
 1.8520750E+01  2.3282080E+01
 1.8532251E+01  2.3250933E+01
 1.8543751E+01  2.3226362E+01
 1.8555250E+01  2.3207644E+01
 1.8566751E+01  2.3132128E+01
 1.8578251E+01  2.3079317E+01
 1.8589750E+01  2.3099867E+01
 1.8601252E+01  2.3089672E+01
 1.8612751E+01  2.3084929E+01
 1.8624250E+01  2.3079865E+01
 1.8635752E+01  2.3120974E+01
 1.8647251E+01  2.3141190E+01
 1.8658751E+01  2.3129862E+01
 1.8670252E+01  2.3164165E+01
 1.8681751E+01  2.3154976E+01
 1.8693251E+01  2.3138235E+01
 1.8704750E+01  2.3100441E+01
 1.8716251E+01  2.3065296E+01
 1.8727751E+01  2.3044714E+01
 1.8739250E+01  2.3039852E+01
 1.8750751E+01  2.3045883E+01
 1.8762251E+01  2.3079620E+01
 1.8773750E+01  2.3091230E+01
 1.8785252E+01  2.3133913E+01
 1.8796751E+01  2.3185484E+01
 1.8808250E+01  2.3202974E+01
 1.8819752E+01  2.3201891E+01
 1.8831251E+01  2.3205931E+01
 1.8842751E+01  2.3211876E+01
 1.8854252E+01  2.3217712E+01
 1.8865751E+01  2.3132120E+01
 1.8877251E+01  2.3097639E+01
 1.8888750E+01  2.3050819E+01
 1.8900251E+01  2.3060625E+01
 1.8911751E+01  2.3057741E+01
 1.8923250E+01  2.3086336E+01
 1.8934752E+01  2.3100008E+01
 1.8946251E+01  2.3157032E+01
 1.8957750E+01  2.3130985E+01
 1.8969252E+01  2.3112995E+01
 1.8980751E+01  2.3094816E+01
 1.8992250E+01  2.3083649E+01
 1.9003752E+01  2.3093246E+01
 1.9015251E+01  2.3055960E+01
 1.9026751E+01  2.3105991E+01
 1.9038252E+01  2.3112324E+01
 1.9049751E+01  2.3145227E+01
 1.9061251E+01  2.3167208E+01
 1.9072750E+01  2.3169043E+01
 1.9084251E+01  2.3148827E+01
 1.9095751E+01  2.3160639E+01
 1.9107250E+01  2.3139378E+01
 1.9118752E+01  2.3150047E+01
 1.9130251E+01  2.3205973E+01
 1.9141750E+01  2.3273836E+01
 1.9153252E+01  2.3276127E+01
 1.9164751E+01  2.3199457E+01
 1.9176250E+01  2.3161234E+01
 1.9187752E+01  2.3108650E+01
 1.9199251E+01  2.3043974E+01
 1.9210751E+01  2.3056414E+01
 1.9222252E+01  2.3094856E+01
 1.9233751E+01  2.3108292E+01
 1.9245251E+01  2.3133408E+01
 1.9256750E+01  2.3148054E+01
 1.9268251E+01  2.3186539E+01
 1.9279751E+01  2.3151382E+01
 1.9291250E+01  2.3139490E+01
 1.9302752E+01  2.3102663E+01
 1.9314251E+01  2.3091955E+01
 1.9325750E+01  2.3059393E+01
 1.9337252E+01  2.3120533E+01
 1.9348751E+01  2.3144117E+01
 1.9360250E+01  2.3174219E+01
 1.9371752E+01  2.3213837E+01
 1.9383251E+01  2.3281288E+01
 1.9394751E+01  2.3331038E+01
 1.9406250E+01  2.3272913E+01
 1.9417751E+01  2.3242569E+01
 1.9429251E+01  2.3224392E+01
 1.9440750E+01  2.3199917E+01
 1.9452251E+01  2.3199198E+01
 1.9463751E+01  2.3180529E+01
 1.9475250E+01  2.3152422E+01
 1.9486752E+01  2.3094971E+01
 1.9498251E+01  2.3059526E+01
 1.9509750E+01  2.3063412E+01
 1.9521252E+01  2.3101635E+01
 1.9532751E+01  2.3162909E+01
 1.9544250E+01  2.3218594E+01
 1.9555752E+01  2.3191221E+01
 1.9567251E+01  2.3198645E+01
 1.9578751E+01  2.3241266E+01
 1.9590250E+01  2.3268641E+01
 1.9601751E+01  2.3262478E+01
 1.9613251E+01  2.3245565E+01
 1.9624750E+01  2.3269575E+01
 1.9636251E+01  2.3285019E+01
 1.9647751E+01  2.3308668E+01
 1.9659250E+01  2.3438494E+01
 1.9670752E+01  2.3550379E+01
 1.9682251E+01  2.3737326E+01
 1.9693750E+01  2.3907373E+01
 1.9705252E+01  2.4058056E+01
 1.9716751E+01  2.4118217E+01
 1.9728251E+01  2.4064322E+01
 1.9739752E+01  2.3974693E+01
 1.9751251E+01  2.3890690E+01
 1.9762751E+01  2.3812191E+01
 1.9774250E+01  2.3791969E+01
 1.9785751E+01  2.3769773E+01
 1.9797251E+01  2.3744614E+01
 1.9808750E+01  2.3734396E+01
 1.9820251E+01  2.3731865E+01
 1.9831751E+01  2.3850811E+01
 1.9843250E+01  2.3888540E+01
 1.9854752E+01  2.3955227E+01
 1.9866251E+01  2.3914614E+01
 1.9877750E+01  2.3916332E+01
 1.9889252E+01  2.3805931E+01
 1.9900751E+01  2.3726023E+01
 1.9912251E+01  2.3705198E+01
 1.9923752E+01  2.3628223E+01
 1.9935251E+01  2.3519436E+01
 1.9946751E+01  2.3375153E+01
 1.9958250E+01  2.3331846E+01
 1.9969751E+01  2.3336504E+01
 1.9981251E+01  2.3324347E+01
 1.9992750E+01  2.3349274E+01
 2.0004251E+01  2.3293146E+01
 2.0015751E+01  2.3321434E+01
 2.0027250E+01  2.3281229E+01
 2.0038752E+01  2.3325678E+01
 2.0050251E+01  2.3318531E+01
 2.0061750E+01  2.3271595E+01
 2.0073252E+01  2.3165028E+01
 2.0084751E+01  2.3120081E+01
 2.0096251E+01  2.3143824E+01
 2.0107752E+01  2.3210560E+01
 2.0119251E+01  2.3267948E+01
 2.0130751E+01  2.3338413E+01
 2.0142250E+01  2.3369473E+01
 2.0153751E+01  2.3366049E+01
 2.0165251E+01  2.3360989E+01
 2.0176750E+01  2.3367136E+01
 2.0188251E+01  2.3335155E+01
 2.0199751E+01  2.3324978E+01
 2.0211250E+01  2.3323095E+01
 2.0222752E+01  2.3387163E+01
 2.0234251E+01  2.3343815E+01
 2.0245750E+01  2.3284977E+01
 2.0257252E+01  2.3211405E+01
 2.0268751E+01  2.3199358E+01
 2.0280251E+01  2.3214869E+01
 2.0291752E+01  2.3253788E+01
 2.0303251E+01  2.3299685E+01
 2.0314751E+01  2.3307880E+01
 2.0326250E+01  2.3285625E+01
 2.0337751E+01  2.3285511E+01
 2.0349251E+01  2.3288992E+01
 2.0360750E+01  2.3320139E+01
 2.0372252E+01  2.3349659E+01
 2.0383751E+01  2.3311066E+01
 2.0395250E+01  2.3321730E+01
 2.0406752E+01  2.3355621E+01
 2.0418251E+01  2.3453043E+01
 2.0429750E+01  2.3493210E+01
 2.0441252E+01  2.3479738E+01
 2.0452751E+01  2.3493725E+01
 2.0464251E+01  2.3502638E+01
 2.0475752E+01  2.3505995E+01
 2.0487251E+01  2.3460962E+01
 2.0498751E+01  2.3430977E+01
 2.0510250E+01  2.3427685E+01
 2.0521751E+01  2.3402378E+01
 2.0533251E+01  2.3378712E+01
 2.0544750E+01  2.3369576E+01
 2.0556252E+01  2.3425972E+01
 2.0567751E+01  2.3435396E+01
 2.0579250E+01  2.3418814E+01
 2.0590752E+01  2.3428591E+01
 2.0602251E+01  2.3460541E+01
 2.0613750E+01  2.3513653E+01
 2.0625252E+01  2.3538021E+01
 2.0636751E+01  2.3550400E+01
 2.0648251E+01  2.3505327E+01
 2.0659752E+01  2.3477295E+01
 2.0671251E+01  2.3491993E+01
 2.0682751E+01  2.3546215E+01
 2.0694250E+01  2.3580257E+01
 2.0705751E+01  2.3642197E+01
 2.0717251E+01  2.3662010E+01
 2.0728750E+01  2.3727207E+01
 2.0740252E+01  2.3731440E+01
 2.0751751E+01  2.3759727E+01
 2.0763250E+01  2.3782377E+01
 2.0774752E+01  2.3770100E+01
 2.0786251E+01  2.3757372E+01
 2.0797750E+01  2.3745377E+01
 2.0809252E+01  2.3686964E+01
 2.0820751E+01  2.3609541E+01
 2.0832251E+01  2.3497005E+01
 2.0843752E+01  2.3456444E+01
 2.0855251E+01  2.3444229E+01
 2.0866751E+01  2.3491369E+01
 2.0878250E+01  2.3547962E+01
 2.0889751E+01  2.3549738E+01
 2.0901251E+01  2.3582567E+01
 2.0912750E+01  2.3608200E+01
 2.0924252E+01  2.3612917E+01
 2.0935751E+01  2.3592394E+01
 2.0947250E+01  2.3578091E+01
 2.0958752E+01  2.3561995E+01
 2.0970251E+01  2.3517756E+01
 2.0981750E+01  2.3492613E+01
 2.0993252E+01  2.3499489E+01
 2.1004751E+01  2.3516979E+01
 2.1016251E+01  2.3511837E+01
 2.1027752E+01  2.3521900E+01
 2.1039251E+01  2.3482302E+01
 2.1050751E+01  2.3433737E+01
 2.1062250E+01  2.3410320E+01
 2.1073751E+01  2.3456474E+01
 2.1085251E+01  2.3451544E+01
 2.1096750E+01  2.3442139E+01
 2.1108252E+01  2.3472471E+01
 2.1119751E+01  2.3513147E+01
 2.1131250E+01  2.3560469E+01
 2.1142752E+01  2.3573406E+01
 2.1154251E+01  2.3527092E+01
 2.1165751E+01  2.3483446E+01
 2.1177252E+01  2.3475880E+01
 2.1188751E+01  2.3470901E+01
 2.1200251E+01  2.3467375E+01
 2.1211752E+01  2.3492989E+01
 2.1223251E+01  2.3495338E+01
 2.1234751E+01  2.3492546E+01
 2.1246250E+01  2.3513153E+01
 2.1257751E+01  2.3576788E+01
 2.1269251E+01  2.3591919E+01
 2.1280750E+01  2.3563721E+01
 2.1292252E+01  2.3537647E+01
 2.1303751E+01  2.3529268E+01
 2.1315250E+01  2.3522743E+01
 2.1326752E+01  2.3509752E+01
 2.1338251E+01  2.3525522E+01
 2.1349751E+01  2.3559380E+01
 2.1361252E+01  2.3624636E+01
 2.1372751E+01  2.3664036E+01
 2.1384251E+01  2.3626738E+01
 2.1395752E+01  2.3547346E+01
 2.1407251E+01  2.3552187E+01
 2.1418751E+01  2.3587313E+01
 2.1430250E+01  2.3587555E+01
 2.1441751E+01  2.3586739E+01
 2.1453251E+01  2.3575039E+01
 2.1464750E+01  2.3588438E+01
 2.1476252E+01  2.3557957E+01
 2.1487751E+01  2.3619858E+01
 2.1499250E+01  2.3637827E+01
 2.1510752E+01  2.3690981E+01
 2.1522251E+01  2.3728777E+01
 2.1533751E+01  2.3800364E+01
 2.1545252E+01  2.3827959E+01
 2.1556751E+01  2.3797983E+01
 2.1568251E+01  2.3803225E+01
 2.1579752E+01  2.3807318E+01
 2.1591251E+01  2.3814222E+01
 2.1602751E+01  2.3748398E+01
 2.1614250E+01  2.3731646E+01
 2.1625751E+01  2.3667665E+01
 2.1637251E+01  2.3660715E+01
 2.1648750E+01  2.3663467E+01
 2.1660252E+01  2.3627254E+01
 2.1671751E+01  2.3644258E+01
 2.1683250E+01  2.3639822E+01
 2.1694752E+01  2.3684000E+01
 2.1706251E+01  2.3680698E+01
 2.1717751E+01  2.3726269E+01
 2.1729252E+01  2.3725828E+01
 2.1740751E+01  2.3781025E+01
 2.1752251E+01  2.3739616E+01
 2.1763752E+01  2.3726482E+01
 2.1775251E+01  2.3741276E+01
 2.1786751E+01  2.3785839E+01
 2.1798250E+01  2.3823771E+01
 2.1809752E+01  2.3827271E+01
 2.1821251E+01  2.3776812E+01
 2.1832750E+01  2.3710093E+01
 2.1844252E+01  2.3720860E+01
 2.1855751E+01  2.3762648E+01
 2.1867250E+01  2.3792088E+01
 2.1878752E+01  2.3762753E+01
 2.1890251E+01  2.3721943E+01
 2.1901751E+01  2.3732115E+01
 2.1913252E+01  2.3771139E+01
 2.1924751E+01  2.3824232E+01
 2.1936251E+01  2.3843643E+01
 2.1947752E+01  2.3832554E+01
 2.1959251E+01  2.3807823E+01
 2.1970751E+01  2.3840425E+01
 2.1982250E+01  2.3806248E+01
 2.1993752E+01  2.3783432E+01
 2.2005251E+01  2.3803152E+01
 2.2016750E+01  2.3902550E+01
 2.2028252E+01  2.3978601E+01
 2.2039751E+01  2.4021027E+01
 2.2051250E+01  2.4058136E+01
 2.2062752E+01  2.4013147E+01
 2.2074251E+01  2.3943388E+01
 2.2085751E+01  2.3880877E+01
 2.2097252E+01  2.3851254E+01
 2.2108751E+01  2.3831306E+01
 2.2120251E+01  2.3906479E+01
 2.2131752E+01  2.3984905E+01
 2.2143251E+01  2.4048071E+01
 2.2154751E+01  2.4060749E+01
 2.2166250E+01  2.4062317E+01
 2.2177752E+01  2.4026537E+01
 2.2189251E+01  2.3948446E+01
 2.2200750E+01  2.3940071E+01
 2.2212252E+01  2.3970249E+01
 2.2223751E+01  2.4005079E+01
 2.2235250E+01  2.4010912E+01
 2.2246752E+01  2.4075085E+01
 2.2258251E+01  2.4117531E+01
 2.2269751E+01  2.4069853E+01
 2.2281252E+01  2.4034521E+01
 2.2292751E+01  2.4044415E+01
 2.2304251E+01  2.4085682E+01
 2.2315752E+01  2.4104269E+01
 2.2327251E+01  2.4087288E+01
 2.2338751E+01  2.4120464E+01
 2.2350250E+01  2.4163923E+01
 2.2361752E+01  2.4229702E+01
 2.2373251E+01  2.4255630E+01
 2.2384750E+01  2.4208469E+01
 2.2396252E+01  2.4184248E+01
 2.2407751E+01  2.4152252E+01
 2.2419250E+01  2.4199524E+01
 2.2430752E+01  2.4185469E+01
 2.2442251E+01  2.4260218E+01
 2.2453751E+01  2.4307539E+01
 2.2465252E+01  2.4333431E+01
 2.2476751E+01  2.4344210E+01
 2.2488251E+01  2.4387417E+01
 2.2499752E+01  2.4448973E+01
 2.2511251E+01  2.4454958E+01
 2.2522751E+01  2.4445435E+01
 2.2534250E+01  2.4419983E+01
 2.2545752E+01  2.4428026E+01
 2.2557251E+01  2.4434748E+01
 2.2568750E+01  2.4458031E+01
 2.2580252E+01  2.4407656E+01
 2.2591751E+01  2.4415380E+01
 2.2603251E+01  2.4443453E+01
 2.2614752E+01  2.4521770E+01
 2.2626251E+01  2.4570747E+01
 2.2637751E+01  2.4557350E+01
 2.2649252E+01  2.4584097E+01
 2.2660751E+01  2.4601324E+01
 2.2672251E+01  2.4652891E+01
 2.2683752E+01  2.4724272E+01
 2.2695251E+01  2.4805092E+01
 2.2706751E+01  2.4800711E+01
 2.2718250E+01  2.4826315E+01
 2.2729752E+01  2.4849102E+01
 2.2741251E+01  2.4916983E+01
 2.2752750E+01  2.4929611E+01
 2.2764252E+01  2.4967159E+01
 2.2775751E+01  2.4953053E+01
 2.2787251E+01  2.4950935E+01
 2.2798752E+01  2.4968447E+01
 2.2810251E+01  2.5014400E+01
 2.2821751E+01  2.5054893E+01
 2.2833252E+01  2.5148922E+01
 2.2844751E+01  2.5163374E+01
 2.2856251E+01  2.5185263E+01
 2.2867750E+01  2.5214273E+01
 2.2879251E+01  2.5252066E+01
 2.2890751E+01  2.5323677E+01
 2.2902250E+01  2.5340235E+01
 2.2913752E+01  2.5430527E+01
 2.2925251E+01  2.5432507E+01
 2.2936750E+01  2.5451712E+01
 2.2948252E+01  2.5445976E+01
 2.2959751E+01  2.5515512E+01
 2.2971251E+01  2.5675632E+01
 2.2982752E+01  2.5781597E+01
 2.2994251E+01  2.5859756E+01
