F:\20151113_APS_34IDE\\Brian\Particle1\OCV\Data_0003.tif
2-Theta Angle (Degrees)
Intensity
       2000
 5.7500005E-03  0.0000000E+00
 1.7250001E-02  0.0000000E+00
 2.8750001E-02  0.0000000E+00
 4.0250003E-02  0.0000000E+00
 5.1750004E-02  0.0000000E+00
 6.3250005E-02  0.0000000E+00
 7.4750006E-02  0.0000000E+00
 8.6250007E-02  0.0000000E+00
 9.7750008E-02  0.0000000E+00
 1.0925001E-01  0.0000000E+00
 1.2075000E-01  0.0000000E+00
 1.3225001E-01  0.0000000E+00
 1.4375001E-01  0.0000000E+00
 1.5525001E-01  0.0000000E+00
 1.6675001E-01  0.0000000E+00
 1.7825001E-01  0.0000000E+00
 1.8975002E-01  0.0000000E+00
 2.0125002E-01  0.0000000E+00
 2.1275002E-01  0.0000000E+00
 2.2425000E-01  0.0000000E+00
 2.3575000E-01  0.0000000E+00
 2.4725001E-01  0.0000000E+00
 2.5875002E-01  0.0000000E+00
 2.7025002E-01  0.0000000E+00
 2.8175002E-01  0.0000000E+00
 2.9325002E-01  0.0000000E+00
 3.0475003E-01  0.0000000E+00
 3.1625003E-01  0.0000000E+00
 3.2775003E-01  0.0000000E+00
 3.3925003E-01  0.0000000E+00
 3.5075003E-01  0.0000000E+00
 3.6225003E-01  0.0000000E+00
 3.7375003E-01  0.0000000E+00
 3.8525003E-01  0.0000000E+00
 3.9675003E-01  0.0000000E+00
 4.0825003E-01  0.0000000E+00
 4.1975003E-01  0.0000000E+00
 4.3125004E-01  0.0000000E+00
 4.4275001E-01  0.0000000E+00
 4.5425001E-01  0.0000000E+00
 4.6575001E-01  0.0000000E+00
 4.7725001E-01  0.0000000E+00
 4.8875001E-01  0.0000000E+00
 5.0025004E-01  0.0000000E+00
 5.1175004E-01  0.0000000E+00
 5.2325004E-01  0.0000000E+00
 5.3475004E-01  0.0000000E+00
 5.4625005E-01  0.0000000E+00
 5.5775005E-01  0.0000000E+00
 5.6925005E-01  0.0000000E+00
 5.8075005E-01  0.0000000E+00
 5.9225005E-01  0.0000000E+00
 6.0375005E-01  0.0000000E+00
 6.1525005E-01  0.0000000E+00
 6.2675005E-01  0.0000000E+00
 6.3825005E-01  0.0000000E+00
 6.4975005E-01  0.0000000E+00
 6.6125005E-01  0.0000000E+00
 6.7275006E-01  0.0000000E+00
 6.8425006E-01  0.0000000E+00
 6.9575006E-01  0.0000000E+00
 7.0725006E-01  0.0000000E+00
 7.1875006E-01  0.0000000E+00
 7.3025006E-01  0.0000000E+00
 7.4175006E-01  0.0000000E+00
 7.5325006E-01  0.0000000E+00
 7.6475006E-01  0.0000000E+00
 7.7625006E-01  0.0000000E+00
 7.8775007E-01  0.0000000E+00
 7.9925007E-01  0.0000000E+00
 8.1075007E-01  0.0000000E+00
 8.2225007E-01  0.0000000E+00
 8.3375007E-01  0.0000000E+00
 8.4525007E-01  0.0000000E+00
 8.5675007E-01  0.0000000E+00
 8.6825007E-01  0.0000000E+00
 8.7975001E-01  0.0000000E+00
 8.9125001E-01  0.0000000E+00
 9.0275002E-01  0.0000000E+00
 9.1425002E-01  0.0000000E+00
 9.2575002E-01  0.0000000E+00
 9.3725002E-01  0.0000000E+00
 9.4875002E-01  0.0000000E+00
 9.6025002E-01  0.0000000E+00
 9.7175002E-01  0.0000000E+00
 9.8325002E-01  0.0000000E+00
 9.9475002E-01  0.0000000E+00
 1.0062500E+00  0.0000000E+00
 1.0177500E+00  0.0000000E+00
 1.0292500E+00  0.0000000E+00
 1.0407500E+00  0.0000000E+00
 1.0522500E+00  0.0000000E+00
 1.0637500E+00  0.0000000E+00
 1.0752500E+00  0.0000000E+00
 1.0867500E+00  0.0000000E+00
 1.0982500E+00  0.0000000E+00
 1.1097500E+00  0.0000000E+00
 1.1212500E+00  0.0000000E+00
 1.1327500E+00  0.0000000E+00
 1.1442500E+00  0.0000000E+00
 1.1557500E+00  0.0000000E+00
 1.1672500E+00  0.0000000E+00
 1.1787500E+00  0.0000000E+00
 1.1902500E+00  0.0000000E+00
 1.2017500E+00  0.0000000E+00
 1.2132500E+00  0.0000000E+00
 1.2247500E+00  0.0000000E+00
 1.2362500E+00  0.0000000E+00
 1.2477500E+00  0.0000000E+00
 1.2592500E+00  0.0000000E+00
 1.2707500E+00  0.0000000E+00
 1.2822500E+00  0.0000000E+00
 1.2937500E+00  0.0000000E+00
 1.3052500E+00  0.0000000E+00
 1.3167500E+00  0.0000000E+00
 1.3282501E+00  0.0000000E+00
 1.3397501E+00  0.0000000E+00
 1.3512501E+00  0.0000000E+00
 1.3627501E+00  0.0000000E+00
 1.3742501E+00  0.0000000E+00
 1.3857501E+00  0.0000000E+00
 1.3972501E+00  0.0000000E+00
 1.4087501E+00  0.0000000E+00
 1.4202501E+00  0.0000000E+00
 1.4317501E+00  0.0000000E+00
 1.4432501E+00  0.0000000E+00
 1.4547501E+00  0.0000000E+00
 1.4662501E+00  0.0000000E+00
 1.4777501E+00  0.0000000E+00
 1.4892501E+00  0.0000000E+00
 1.5007501E+00  0.0000000E+00
 1.5122501E+00  0.0000000E+00
 1.5237501E+00  0.0000000E+00
 1.5352501E+00  0.0000000E+00
 1.5467501E+00  0.0000000E+00
 1.5582501E+00  0.0000000E+00
 1.5697501E+00  0.0000000E+00
 1.5812501E+00  0.0000000E+00
 1.5927501E+00  0.0000000E+00
 1.6042501E+00  0.0000000E+00
 1.6157501E+00  0.0000000E+00
 1.6272501E+00  0.0000000E+00
 1.6387501E+00  0.0000000E+00
 1.6502501E+00  0.0000000E+00
 1.6617501E+00  0.0000000E+00
 1.6732501E+00  0.0000000E+00
 1.6847501E+00  0.0000000E+00
 1.6962501E+00  0.0000000E+00
 1.7077501E+00  0.0000000E+00
 1.7192501E+00  0.0000000E+00
 1.7307501E+00  0.0000000E+00
 1.7422501E+00  0.0000000E+00
 1.7537501E+00  0.0000000E+00
 1.7652501E+00  0.0000000E+00
 1.7767501E+00  0.0000000E+00
 1.7882501E+00  0.0000000E+00
 1.7997501E+00  0.0000000E+00
 1.8112501E+00  0.0000000E+00
 1.8227501E+00  0.0000000E+00
 1.8342501E+00  0.0000000E+00
 1.8457501E+00  0.0000000E+00
 1.8572501E+00  0.0000000E+00
 1.8687501E+00  0.0000000E+00
 1.8802501E+00  0.0000000E+00
 1.8917501E+00  0.0000000E+00
 1.9032501E+00  0.0000000E+00
 1.9147501E+00  0.0000000E+00
 1.9262501E+00  0.0000000E+00
 1.9377501E+00  0.0000000E+00
 1.9492501E+00  0.0000000E+00
 1.9607501E+00  0.0000000E+00
 1.9722501E+00  0.0000000E+00
 1.9837501E+00  0.0000000E+00
 1.9952501E+00  0.0000000E+00
 2.0067501E+00  0.0000000E+00
 2.0182500E+00  0.0000000E+00
 2.0297501E+00  0.0000000E+00
 2.0412500E+00  0.0000000E+00
 2.0527501E+00  0.0000000E+00
 2.0642500E+00  0.0000000E+00
 2.0757501E+00  0.0000000E+00
 2.0872500E+00  0.0000000E+00
 2.0987501E+00  0.0000000E+00
 2.1102500E+00  0.0000000E+00
 2.1217501E+00  0.0000000E+00
 2.1332500E+00  0.0000000E+00
 2.1447501E+00  0.0000000E+00
 2.1562500E+00  0.0000000E+00
 2.1677501E+00  0.0000000E+00
 2.1792500E+00  0.0000000E+00
 2.1907501E+00  0.0000000E+00
 2.2022500E+00  0.0000000E+00
 2.2137501E+00  0.0000000E+00
 2.2252500E+00  0.0000000E+00
 2.2367501E+00  0.0000000E+00
 2.2482500E+00  0.0000000E+00
 2.2597501E+00  0.0000000E+00
 2.2712500E+00  0.0000000E+00
 2.2827501E+00  0.0000000E+00
 2.2942500E+00  0.0000000E+00
 2.3057501E+00  0.0000000E+00
 2.3172500E+00  0.0000000E+00
 2.3287501E+00  0.0000000E+00
 2.3402500E+00  0.0000000E+00
 2.3517501E+00  0.0000000E+00
 2.3632500E+00  0.0000000E+00
 2.3747501E+00  0.0000000E+00
 2.3862500E+00  0.0000000E+00
 2.3977501E+00  0.0000000E+00
 2.4092500E+00  0.0000000E+00
 2.4207501E+00  0.0000000E+00
 2.4322500E+00  0.0000000E+00
 2.4437501E+00  0.0000000E+00
 2.4552500E+00  0.0000000E+00
 2.4667501E+00  0.0000000E+00
 2.4782500E+00  0.0000000E+00
 2.4897501E+00  0.0000000E+00
 2.5012500E+00  0.0000000E+00
 2.5127501E+00  0.0000000E+00
 2.5242500E+00  0.0000000E+00
 2.5357502E+00  0.0000000E+00
 2.5472500E+00  0.0000000E+00
 2.5587502E+00  0.0000000E+00
 2.5702500E+00  0.0000000E+00
 2.5817502E+00  0.0000000E+00
 2.5932500E+00  0.0000000E+00
 2.6047502E+00  0.0000000E+00
 2.6162500E+00  0.0000000E+00
 2.6277502E+00  0.0000000E+00
 2.6392500E+00  0.0000000E+00
 2.6507502E+00  0.0000000E+00
 2.6622500E+00  0.0000000E+00
 2.6737502E+00  0.0000000E+00
 2.6852500E+00  0.0000000E+00
 2.6967502E+00  0.0000000E+00
 2.7082500E+00  0.0000000E+00
 2.7197502E+00  0.0000000E+00
 2.7312500E+00  0.0000000E+00
 2.7427502E+00  0.0000000E+00
 2.7542500E+00  0.0000000E+00
 2.7657502E+00  0.0000000E+00
 2.7772501E+00  0.0000000E+00
 2.7887502E+00  0.0000000E+00
 2.8002501E+00  0.0000000E+00
 2.8117502E+00  0.0000000E+00
 2.8232501E+00  3.2181164E+01
 2.8347502E+00  3.3095352E+01
 2.8462501E+00  3.3475601E+01
 2.8577502E+00  3.3853912E+01
 2.8692501E+00  3.4488922E+01
 2.8807502E+00  3.5671116E+01
 2.8922501E+00  3.6084816E+01
 2.9037502E+00  3.6226109E+01
 2.9152501E+00  3.5933270E+01
 2.9267502E+00  3.5803268E+01
 2.9382501E+00  3.5762852E+01
 2.9497502E+00  3.5620220E+01
 2.9612501E+00  3.5660439E+01
 2.9727502E+00  3.5583424E+01
 2.9842501E+00  3.5772358E+01
 2.9957502E+00  3.5629578E+01
 3.0072501E+00  3.5727154E+01
 3.0187502E+00  3.5436153E+01
 3.0302501E+00  3.5548077E+01
 3.0417502E+00  3.5968185E+01
 3.0532501E+00  3.6108719E+01
 3.0647502E+00  3.6327190E+01
 3.0762501E+00  3.6354557E+01
 3.0877502E+00  3.6147133E+01
 3.0992501E+00  3.6114853E+01
 3.1107502E+00  3.5793362E+01
 3.1222501E+00  3.5666309E+01
 3.1337502E+00  3.5531605E+01
 3.1452501E+00  3.5659157E+01
 3.1567502E+00  3.5601650E+01
 3.1682501E+00  3.5626102E+01
 3.1797502E+00  3.5372574E+01
 3.1912501E+00  3.5523655E+01
 3.2027502E+00  3.5453499E+01
 3.2142501E+00  3.5330170E+01
 3.2257502E+00  3.5312386E+01
 3.2372501E+00  3.5213879E+01
 3.2487502E+00  3.5264721E+01
 3.2602501E+00  3.5276279E+01
 3.2717502E+00  3.5286201E+01
 3.2832501E+00  3.5080727E+01
 3.2947502E+00  3.4768475E+01
 3.3062501E+00  3.4404037E+01
 3.3177502E+00  3.4405209E+01
 3.3292501E+00  3.4739437E+01
 3.3407502E+00  3.5077526E+01
 3.3522501E+00  3.5013065E+01
 3.3637502E+00  3.4638390E+01
 3.3752501E+00  3.4348640E+01
 3.3867502E+00  3.4118034E+01
 3.3982501E+00  3.3927551E+01
 3.4097502E+00  3.3902157E+01
 3.4212501E+00  3.4315880E+01
 3.4327502E+00  3.4455627E+01
 3.4442501E+00  3.4579929E+01
 3.4557502E+00  3.4354904E+01
 3.4672501E+00  3.4421715E+01
 3.4787502E+00  3.4382751E+01
 3.4902501E+00  3.4384388E+01
 3.5017502E+00  3.4327953E+01
 3.5132501E+00  3.4212940E+01
 3.5247502E+00  3.4153240E+01
 3.5362501E+00  3.4106987E+01
 3.5477502E+00  3.4066753E+01
 3.5592501E+00  3.4076805E+01
 3.5707502E+00  3.3899776E+01
 3.5822501E+00  3.3993057E+01
 3.5937502E+00  3.3900665E+01
 3.6052501E+00  3.3871792E+01
 3.6167502E+00  3.3983086E+01
 3.6282501E+00  3.3802616E+01
 3.6397502E+00  3.3794846E+01
 3.6512501E+00  3.3705257E+01
 3.6627502E+00  3.3765999E+01
 3.6742501E+00  3.3642117E+01
 3.6857502E+00  3.3350132E+01
 3.6972501E+00  3.3240273E+01
 3.7087502E+00  3.3123024E+01
 3.7202501E+00  3.3058544E+01
 3.7317502E+00  3.2907372E+01
 3.7432501E+00  3.3000866E+01
 3.7547503E+00  3.3102180E+01
 3.7662501E+00  3.3047234E+01
 3.7777503E+00  3.3165455E+01
 3.7892501E+00  3.3072651E+01
 3.8007503E+00  3.2925457E+01
 3.8122501E+00  3.2767040E+01
 3.8237503E+00  3.2698280E+01
 3.8352501E+00  3.2736145E+01
 3.8467503E+00  3.2783661E+01
 3.8582501E+00  3.2852901E+01
 3.8697503E+00  3.2845818E+01
 3.8812501E+00  3.2691833E+01
 3.8927503E+00  3.2317680E+01
 3.9042501E+00  3.2075802E+01
 3.9157503E+00  3.2102242E+01
 3.9272501E+00  3.2149757E+01
 3.9387503E+00  3.2512863E+01
 3.9502501E+00  3.2582779E+01
 3.9617503E+00  3.2613403E+01
 3.9732502E+00  3.2648388E+01
 3.9847503E+00  3.2515354E+01
 3.9962502E+00  3.2554691E+01
 4.0077500E+00  3.2535118E+01
 4.0192504E+00  3.2409859E+01
 4.0307503E+00  3.2533981E+01
 4.0422502E+00  3.2424648E+01
 4.0537500E+00  3.2712803E+01
 4.0652504E+00  3.2685764E+01
 4.0767503E+00  3.2778484E+01
 4.0882502E+00  3.2635242E+01
 4.0997500E+00  3.2677067E+01
 4.1112504E+00  3.2668201E+01
 4.1227503E+00  3.2814056E+01
 4.1342502E+00  3.2847286E+01
 4.1457500E+00  3.2898853E+01
 4.1572504E+00  3.2865738E+01
 4.1687503E+00  3.2810280E+01
 4.1802502E+00  3.2568996E+01
 4.1917500E+00  3.2642521E+01
 4.2032504E+00  3.2452469E+01
 4.2147503E+00  3.2526844E+01
 4.2262502E+00  3.2362671E+01
 4.2377501E+00  3.2374866E+01
 4.2492504E+00  3.2305386E+01
 4.2607503E+00  3.2422180E+01
 4.2722502E+00  3.2339867E+01
 4.2837501E+00  3.2516884E+01
 4.2952504E+00  3.2518646E+01
 4.3067503E+00  3.2636204E+01
 4.3182502E+00  3.2563091E+01
 4.3297501E+00  3.2426716E+01
 4.3412504E+00  3.2371075E+01
 4.3527503E+00  3.2322445E+01
 4.3642502E+00  3.2360668E+01
 4.3757501E+00  3.2398750E+01
 4.3872504E+00  3.2357536E+01
 4.3987503E+00  3.2374050E+01
 4.4102502E+00  3.2355778E+01
 4.4217501E+00  3.2326977E+01
 4.4332504E+00  3.2429668E+01
 4.4447503E+00  3.2338627E+01
 4.4562502E+00  3.2518013E+01
 4.4677501E+00  3.2534645E+01
 4.4792504E+00  3.2702614E+01
 4.4907503E+00  3.2611519E+01
 4.5022502E+00  3.2716480E+01
 4.5137501E+00  3.2717281E+01
 4.5252504E+00  3.2877705E+01
 4.5367503E+00  3.2824734E+01
 4.5482502E+00  3.2856487E+01
 4.5597501E+00  3.2781689E+01
 4.5712504E+00  3.2826672E+01
 4.5827503E+00  3.2744267E+01
 4.5942502E+00  3.2906677E+01
 4.6057501E+00  3.2950165E+01
 4.6172504E+00  3.3207333E+01
 4.6287503E+00  3.3255917E+01
 4.6402502E+00  3.3355652E+01
 4.6517501E+00  3.3373814E+01
 4.6632504E+00  3.3366085E+01
 4.6747503E+00  3.3247295E+01
 4.6862502E+00  3.3118942E+01
 4.6977501E+00  3.2989532E+01
 4.7092505E+00  3.2791245E+01
 4.7207503E+00  3.2662960E+01
 4.7322502E+00  3.2462330E+01
 4.7437501E+00  3.2485424E+01
 4.7552505E+00  3.2433216E+01
 4.7667503E+00  3.2640400E+01
 4.7782502E+00  3.2616096E+01
 4.7897501E+00  3.2749874E+01
 4.8012505E+00  3.2583931E+01
 4.8127503E+00  3.2629726E+01
 4.8242502E+00  3.2433376E+01
 4.8357501E+00  3.2526913E+01
 4.8472505E+00  3.2681503E+01
 4.8587503E+00  3.2957180E+01
 4.8702502E+00  3.3017509E+01
 4.8817501E+00  3.2890354E+01
 4.8932505E+00  3.2835632E+01
 4.9047503E+00  3.2733002E+01
 4.9162502E+00  3.2842064E+01
 4.9277501E+00  3.2715797E+01
 4.9392505E+00  3.2853043E+01
 4.9507504E+00  3.2800217E+01
 4.9622502E+00  3.2976559E+01
 4.9737501E+00  3.3040489E+01
 4.9852505E+00  3.3281376E+01
 4.9967504E+00  3.3392567E+01
 5.0082502E+00  3.3500320E+01
 5.0197501E+00  3.3563072E+01
 5.0312505E+00  3.3703617E+01
 5.0427504E+00  3.3805683E+01
 5.0542502E+00  3.3727879E+01
 5.0657501E+00  3.3558041E+01
 5.0772505E+00  3.3492023E+01
 5.0887504E+00  3.3526699E+01
 5.1002502E+00  3.3600704E+01
 5.1117501E+00  3.3629135E+01
 5.1232505E+00  3.3710018E+01
 5.1347504E+00  3.3799114E+01
 5.1462502E+00  3.3849377E+01
 5.1577501E+00  3.3940292E+01
 5.1692505E+00  3.3919220E+01
 5.1807504E+00  3.3874134E+01
 5.1922503E+00  3.3869316E+01
 5.2037501E+00  3.3977619E+01
 5.2152505E+00  3.4144955E+01
 5.2267504E+00  3.4155922E+01
 5.2382503E+00  3.4120808E+01
 5.2497501E+00  3.4126431E+01
 5.2612505E+00  3.4019863E+01
 5.2727504E+00  3.3944202E+01
 5.2842503E+00  3.3906651E+01
 5.2957501E+00  3.4046909E+01
 5.3072500E+00  3.4120663E+01
 5.3187504E+00  3.4279068E+01
 5.3302503E+00  3.4351021E+01
 5.3417501E+00  3.4465771E+01
 5.3532500E+00  3.4448730E+01
 5.3647504E+00  3.4456467E+01
 5.3762503E+00  3.4620514E+01
 5.3877501E+00  3.4723007E+01
 5.3992500E+00  3.4840065E+01
 5.4107504E+00  3.4795307E+01
 5.4222503E+00  3.4796436E+01
 5.4337502E+00  3.4710129E+01
 5.4452500E+00  3.4705250E+01
 5.4567504E+00  3.4790306E+01
 5.4682503E+00  3.4920532E+01
 5.4797502E+00  3.5071476E+01
 5.4912500E+00  3.5081722E+01
 5.5027504E+00  3.5165779E+01
 5.5142503E+00  3.5118782E+01
 5.5257502E+00  3.5147980E+01
 5.5372500E+00  3.4919559E+01
 5.5487504E+00  3.4926159E+01
 5.5602503E+00  3.4875324E+01
 5.5717502E+00  3.5002094E+01
 5.5832500E+00  3.5088478E+01
 5.5947504E+00  3.5224670E+01
 5.6062503E+00  3.5279594E+01
 5.6177502E+00  3.5336838E+01
 5.6292500E+00  3.5289063E+01
 5.6407504E+00  3.5367283E+01
 5.6522503E+00  3.5325085E+01
 5.6637502E+00  3.5362732E+01
 5.6752501E+00  3.5350697E+01
 5.6867504E+00  3.5396824E+01
 5.6982503E+00  3.5387409E+01
 5.7097502E+00  3.5421715E+01
 5.7212501E+00  3.5480183E+01
 5.7327504E+00  3.5579643E+01
 5.7442503E+00  3.5698780E+01
 5.7557502E+00  3.5745277E+01
 5.7672501E+00  3.5887028E+01
 5.7787504E+00  3.5993999E+01
 5.7902503E+00  3.6109734E+01
 5.8017502E+00  3.6056808E+01
 5.8132501E+00  3.5965881E+01
 5.8247504E+00  3.5997604E+01
 5.8362503E+00  3.6005013E+01
 5.8477502E+00  3.6031067E+01
 5.8592501E+00  3.5979076E+01
 5.8707504E+00  3.6024094E+01
 5.8822503E+00  3.6165005E+01
 5.8937502E+00  3.6383476E+01
 5.9052501E+00  3.6619011E+01
 5.9167504E+00  3.6846695E+01
 5.9282503E+00  3.7323219E+01
 5.9397502E+00  3.7935448E+01
 5.9512501E+00  3.8837891E+01
 5.9627504E+00  3.9562630E+01
 5.9742503E+00  4.0575932E+01
 5.9857502E+00  4.0532173E+01
 5.9972501E+00  4.0481392E+01
 6.0087504E+00  3.9508347E+01
 6.0202503E+00  3.8883106E+01
 6.0317502E+00  3.7961506E+01
 6.0432501E+00  3.7273846E+01
 6.0547504E+00  3.6835003E+01
 6.0662503E+00  3.6842838E+01
 6.0777502E+00  3.6904026E+01
 6.0892501E+00  3.7080853E+01
 6.1007504E+00  3.7089417E+01
 6.1122503E+00  3.7136940E+01
 6.1237502E+00  3.7100567E+01
 6.1352501E+00  3.7001717E+01
 6.1467505E+00  3.6879013E+01
 6.1582503E+00  3.6939690E+01
 6.1697502E+00  3.6959023E+01
 6.1812501E+00  3.7104347E+01
 6.1927505E+00  3.7246067E+01
 6.2042503E+00  3.7342716E+01
 6.2157502E+00  3.7513809E+01
 6.2272501E+00  3.7591999E+01
 6.2387505E+00  3.7573788E+01
 6.2502503E+00  3.7601768E+01
 6.2617502E+00  3.7656406E+01
 6.2732501E+00  3.7815258E+01
 6.2847505E+00  3.7956772E+01
 6.2962503E+00  3.7917824E+01
 6.3077502E+00  3.7958771E+01
 6.3192501E+00  3.7959641E+01
 6.3307505E+00  3.7983204E+01
 6.3422503E+00  3.8039917E+01
 6.3537502E+00  3.8157200E+01
 6.3652501E+00  3.8254124E+01
 6.3767505E+00  3.8381519E+01
 6.3882504E+00  3.8481899E+01
 6.3997502E+00  3.8558311E+01
 6.4112501E+00  3.8687290E+01
 6.4227505E+00  3.8838192E+01
 6.4342504E+00  3.9012947E+01
 6.4457502E+00  3.9112171E+01
 6.4572501E+00  3.9113716E+01
 6.4687505E+00  3.9237686E+01
 6.4802504E+00  3.9306183E+01
 6.4917502E+00  3.9309685E+01
 6.5032501E+00  3.9316910E+01
 6.5147505E+00  3.9324535E+01
 6.5262504E+00  3.9385971E+01
 6.5377502E+00  3.9481529E+01
 6.5492501E+00  3.9589066E+01
 6.5607505E+00  3.9750137E+01
 6.5722504E+00  3.9852444E+01
 6.5837502E+00  3.9942726E+01
 6.5952501E+00  3.9932186E+01
 6.6067505E+00  3.9952457E+01
 6.6182504E+00  3.9978233E+01
 6.6297503E+00  4.0138935E+01
 6.6412501E+00  4.0166183E+01
 6.6527505E+00  4.0211426E+01
 6.6642504E+00  4.0269535E+01
 6.6757503E+00  4.0394154E+01
 6.6872501E+00  4.0488708E+01
 6.6987505E+00  4.0575825E+01
 6.7102504E+00  4.0711876E+01
 6.7217503E+00  4.0846401E+01
 6.7332501E+00  4.0954277E+01
 6.7447505E+00  4.1077385E+01
 6.7562504E+00  4.1198528E+01
 6.7677503E+00  4.1343102E+01
 6.7792501E+00  4.1356533E+01
 6.7907505E+00  4.1451477E+01
 6.8022504E+00  4.1525333E+01
 6.8137503E+00  4.1690445E+01
 6.8252501E+00  4.1846916E+01
 6.8367505E+00  4.2029839E+01
 6.8482504E+00  4.2048008E+01
 6.8597503E+00  4.2084759E+01
 6.8712502E+00  4.2057426E+01
 6.8827505E+00  4.2126915E+01
 6.8942504E+00  4.2253761E+01
 6.9057503E+00  4.2372921E+01
 6.9172502E+00  4.2562958E+01
 6.9287505E+00  4.2460426E+01
 6.9402504E+00  4.2345844E+01
 6.9517503E+00  4.2266026E+01
 6.9632502E+00  4.2259457E+01
 6.9747505E+00  4.2332249E+01
 6.9862504E+00  4.2285309E+01
 6.9977503E+00  4.2417850E+01
 7.0092502E+00  4.2562477E+01
 7.0207505E+00  4.2850700E+01
 7.0322504E+00  4.3004242E+01
 7.0437503E+00  4.3048767E+01
 7.0552502E+00  4.3112804E+01
 7.0667505E+00  4.3107876E+01
 7.0782504E+00  4.3235523E+01
 7.0897503E+00  4.3281368E+01
 7.1012502E+00  4.3415554E+01
 7.1127505E+00  4.3521725E+01
 7.1242504E+00  4.3563560E+01
 7.1357503E+00  4.3601368E+01
 7.1472502E+00  4.3674011E+01
 7.1587505E+00  4.3763508E+01
 7.1702504E+00  4.3828011E+01
 7.1817503E+00  4.3820686E+01
 7.1932502E+00  4.3872372E+01
 7.2047505E+00  4.3883770E+01
 7.2162504E+00  4.3837868E+01
 7.2277503E+00  4.3803535E+01
 7.2392502E+00  4.3751282E+01
 7.2507505E+00  4.3809658E+01
 7.2622504E+00  4.3861065E+01
 7.2737503E+00  4.3937164E+01
 7.2852502E+00  4.3994270E+01
 7.2967505E+00  4.4024643E+01
 7.3082504E+00  4.4187748E+01
 7.3197503E+00  4.4319374E+01
 7.3312502E+00  4.4414696E+01
 7.3427505E+00  4.4465538E+01
 7.3542504E+00  4.4555035E+01
 7.3657503E+00  4.4566208E+01
 7.3772502E+00  4.4603756E+01
 7.3887506E+00  4.4589905E+01
 7.4002504E+00  4.4709564E+01
 7.4117503E+00  4.4730610E+01
 7.4232502E+00  4.4702488E+01
 7.4347506E+00  4.4592270E+01
 7.4462504E+00  4.4525429E+01
 7.4577503E+00  4.4505116E+01
 7.4692502E+00  4.4542358E+01
 7.4807506E+00  4.4572823E+01
 7.4922504E+00  4.4632206E+01
 7.5037503E+00  4.4680756E+01
 7.5152502E+00  4.4753105E+01
 7.5267506E+00  4.4651142E+01
 7.5382504E+00  4.4766590E+01
 7.5497503E+00  4.4696228E+01
 7.5612502E+00  4.4879959E+01
 7.5727506E+00  4.4868279E+01
 7.5842505E+00  4.4934052E+01
 7.5957503E+00  4.5013493E+01
 7.6072502E+00  4.5069145E+01
 7.6187506E+00  4.5057915E+01
 7.6302505E+00  4.5075775E+01
 7.6417503E+00  4.4997776E+01
 7.6532502E+00  4.4999168E+01
 7.6647506E+00  4.4905956E+01
 7.6762505E+00  4.4918724E+01
 7.6877503E+00  4.4976936E+01
 7.6992502E+00  4.4969284E+01
 7.7107506E+00  4.5063389E+01
 7.7222505E+00  4.5139008E+01
 7.7337503E+00  4.5263100E+01
 7.7452502E+00  4.5196709E+01
 7.7567506E+00  4.5097328E+01
 7.7682505E+00  4.4991119E+01
 7.7797503E+00  4.4889961E+01
 7.7912502E+00  4.4925903E+01
 7.8027506E+00  4.4835499E+01
 7.8142505E+00  4.4864201E+01
 7.8257504E+00  4.4831383E+01
 7.8372502E+00  4.4890320E+01
 7.8487506E+00  4.4949390E+01
 7.8602505E+00  4.4924141E+01
 7.8717504E+00  4.4820984E+01
 7.8832502E+00  4.4748959E+01
 7.8947506E+00  4.4670544E+01
 7.9062505E+00  4.4646557E+01
 7.9177504E+00  4.4632965E+01
 7.9292502E+00  4.4588615E+01
 7.9407506E+00  4.4644371E+01
 7.9522505E+00  4.4614494E+01
 7.9637504E+00  4.4526669E+01
 7.9752502E+00  4.4455193E+01
 7.9867506E+00  4.4376907E+01
 7.9982505E+00  4.4414551E+01
 8.0097504E+00  4.4338558E+01
 8.0212507E+00  4.4286106E+01
 8.0327501E+00  4.4214657E+01
 8.0442505E+00  4.4120667E+01
 8.0557508E+00  4.3989433E+01
 8.0672503E+00  4.3787018E+01
 8.0787506E+00  4.3595848E+01
 8.0902500E+00  4.3516838E+01
 8.1017504E+00  4.3426430E+01
 8.1132507E+00  4.3503166E+01
 8.1247501E+00  4.3402447E+01
 8.1362505E+00  4.3495464E+01
 8.1477509E+00  4.3463287E+01
 8.1592503E+00  4.3474659E+01
 8.1707506E+00  4.3416935E+01
 8.1822500E+00  4.3297863E+01
 8.1937504E+00  4.3200928E+01
 8.2052507E+00  4.3035286E+01
 8.2167501E+00  4.2909176E+01
 8.2282505E+00  4.2623901E+01
 8.2397509E+00  4.2463326E+01
 8.2512503E+00  4.2171658E+01
 8.2627506E+00  4.2119884E+01
 8.2742500E+00  4.1884361E+01
 8.2857504E+00  4.1800934E+01
 8.2972507E+00  4.1560062E+01
 8.3087502E+00  4.1362957E+01
 8.3202505E+00  4.1164783E+01
 8.3317509E+00  4.1059795E+01
 8.3432503E+00  4.0944183E+01
 8.3547506E+00  4.0843636E+01
 8.3662500E+00  4.0790241E+01
 8.3777504E+00  4.0687885E+01
 8.3892508E+00  4.0545044E+01
 8.4007502E+00  4.0345020E+01
 8.4122505E+00  4.0170544E+01
 8.4237509E+00  3.9987602E+01
 8.4352503E+00  3.9812428E+01
 8.4467506E+00  3.9716908E+01
 8.4582500E+00  3.9639759E+01
 8.4697504E+00  3.9471828E+01
 8.4812508E+00  3.9293510E+01
 8.4927502E+00  3.9037945E+01
 8.5042505E+00  3.8917812E+01
 8.5157509E+00  3.8661499E+01
 8.5272503E+00  3.8371883E+01
 8.5387506E+00  3.8100872E+01
 8.5502501E+00  3.7833553E+01
 8.5617504E+00  3.7681637E+01
 8.5732508E+00  3.7507500E+01
 8.5847502E+00  3.7291759E+01
 8.5962505E+00  3.7079010E+01
 8.6077509E+00  3.6910145E+01
 8.6192503E+00  3.6855579E+01
 8.6307507E+00  3.6844139E+01
 8.6422501E+00  3.6758621E+01
 8.6537504E+00  3.6629150E+01
 8.6652508E+00  3.6447144E+01
 8.6767502E+00  3.6237724E+01
 8.6882505E+00  3.6087662E+01
 8.6997509E+00  3.5928085E+01
 8.7112503E+00  3.5738144E+01
 8.7227507E+00  3.5569168E+01
 8.7342501E+00  3.5370354E+01
 8.7457504E+00  3.5172058E+01
 8.7572508E+00  3.4958088E+01
 8.7687502E+00  3.4772221E+01
 8.7802505E+00  3.4621998E+01
 8.7917500E+00  3.4380917E+01
 8.8032503E+00  3.4242123E+01
 8.8147507E+00  3.4116215E+01
 8.8262501E+00  3.4054974E+01
 8.8377504E+00  3.3934605E+01
 8.8492508E+00  3.3685028E+01
 8.8607502E+00  3.3474941E+01
 8.8722506E+00  3.3284229E+01
 8.8837500E+00  3.3159779E+01
 8.8952503E+00  3.3068386E+01
 8.9067507E+00  3.2908981E+01
 8.9182501E+00  3.2760262E+01
 8.9297504E+00  3.2518539E+01
 8.9412508E+00  3.2343746E+01
 8.9527502E+00  3.2141560E+01
 8.9642506E+00  3.1983889E+01
 8.9757500E+00  3.1860638E+01
 8.9872503E+00  3.1653563E+01
 8.9987507E+00  3.1403444E+01
 9.0102501E+00  3.1197432E+01
 9.0217505E+00  3.1051176E+01
 9.0332508E+00  3.1048382E+01
 9.0447502E+00  3.0921413E+01
 9.0562506E+00  3.0873539E+01
 9.0677500E+00  3.0718342E+01
 9.0792503E+00  3.0582891E+01
 9.0907507E+00  3.0419310E+01
 9.1022501E+00  3.0275984E+01
 9.1137505E+00  3.0201448E+01
 9.1252508E+00  3.0152128E+01
 9.1367502E+00  3.0059774E+01
 9.1482506E+00  2.9942831E+01
 9.1597500E+00  2.9767311E+01
 9.1712503E+00  2.9608957E+01
 9.1827507E+00  2.9421600E+01
 9.1942501E+00  2.9295048E+01
 9.2057505E+00  2.9134474E+01
 9.2172508E+00  2.9010460E+01
 9.2287502E+00  2.8830116E+01
 9.2402506E+00  2.8712015E+01
 9.2517500E+00  2.8686419E+01
 9.2632504E+00  2.8663933E+01
 9.2747507E+00  2.8642260E+01
 9.2862501E+00  2.8546478E+01
 9.2977505E+00  2.8474697E+01
 9.3092508E+00  2.8440107E+01
 9.3207502E+00  2.8352604E+01
 9.3322506E+00  2.8263443E+01
 9.3437500E+00  2.8167593E+01
 9.3552504E+00  2.8071815E+01
 9.3667507E+00  2.8022549E+01
 9.3782501E+00  2.7950947E+01
 9.3897505E+00  2.7835443E+01
 9.4012508E+00  2.7779446E+01
 9.4127502E+00  2.7665768E+01
 9.4242506E+00  2.7576946E+01
 9.4357500E+00  2.7437456E+01
 9.4472504E+00  2.7315308E+01
 9.4587507E+00  2.7239281E+01
 9.4702501E+00  2.7189423E+01
 9.4817505E+00  2.7223801E+01
 9.4932508E+00  2.7226734E+01
 9.5047503E+00  2.7143904E+01
 9.5162506E+00  2.7112680E+01
 9.5277500E+00  2.7034714E+01
 9.5392504E+00  2.6966097E+01
 9.5507507E+00  2.6824551E+01
 9.5622501E+00  2.6823141E+01
 9.5737505E+00  2.6753454E+01
 9.5852509E+00  2.6729778E+01
 9.5967503E+00  2.6700474E+01
 9.6082506E+00  2.6673441E+01
 9.6197500E+00  2.6629751E+01
 9.6312504E+00  2.6468300E+01
 9.6427507E+00  2.6335339E+01
 9.6542501E+00  2.6198858E+01
 9.6657505E+00  2.6091211E+01
 9.6772509E+00  2.5966024E+01
 9.6887503E+00  2.5818600E+01
 9.7002506E+00  2.5800625E+01
 9.7117500E+00  2.5798923E+01
 9.7232504E+00  2.5852392E+01
 9.7347507E+00  2.5788343E+01
 9.7462502E+00  2.5810783E+01
 9.7577505E+00  2.5792820E+01
 9.7692509E+00  2.5791533E+01
 9.7807503E+00  2.5745619E+01
 9.7922506E+00  2.5676542E+01
 9.8037500E+00  2.5549492E+01
 9.8152504E+00  2.5450289E+01
 9.8267508E+00  2.5326178E+01
 9.8382502E+00  2.5281515E+01
 9.8497505E+00  2.5270687E+01
 9.8612509E+00  2.5262480E+01
 9.8727503E+00  2.5247623E+01
 9.8842506E+00  2.5172606E+01
 9.8957500E+00  2.5173012E+01
 9.9072504E+00  2.5180618E+01
 9.9187508E+00  2.5234840E+01
 9.9302502E+00  2.5240339E+01
 9.9417505E+00  2.5259605E+01
 9.9532509E+00  2.5174673E+01
 9.9647503E+00  2.5135519E+01
 9.9762506E+00  2.5053543E+01
 9.9877501E+00  2.4975529E+01
 9.9992504E+00  2.4914284E+01
 1.0010751E+01  2.4822676E+01
 1.0022250E+01  2.4764572E+01
 1.0033751E+01  2.4755289E+01
 1.0045251E+01  2.4734648E+01
 1.0056750E+01  2.4745855E+01
 1.0068251E+01  2.4648031E+01
 1.0079750E+01  2.4573408E+01
 1.0091250E+01  2.4442419E+01
 1.0102751E+01  2.4365545E+01
 1.0114250E+01  2.4331182E+01
 1.0125751E+01  2.4378000E+01
 1.0137251E+01  2.4386995E+01
 1.0148750E+01  2.4482567E+01
 1.0160251E+01  2.4529772E+01
 1.0171750E+01  2.4565544E+01
 1.0183250E+01  2.4506636E+01
 1.0194751E+01  2.4426497E+01
 1.0206250E+01  2.4330257E+01
 1.0217751E+01  2.4196634E+01
 1.0229251E+01  2.4121847E+01
 1.0240750E+01  2.4102306E+01
 1.0252251E+01  2.4095600E+01
 1.0263750E+01  2.4073463E+01
 1.0275250E+01  2.4072325E+01
 1.0286751E+01  2.4061789E+01
 1.0298250E+01  2.4125973E+01
 1.0309751E+01  2.4113844E+01
 1.0321251E+01  2.4102211E+01
 1.0332750E+01  2.4062489E+01
 1.0344251E+01  2.3985701E+01
 1.0355750E+01  2.3959938E+01
 1.0367250E+01  2.3890890E+01
 1.0378751E+01  2.3868734E+01
 1.0390250E+01  2.3870649E+01
 1.0401751E+01  2.3902031E+01
 1.0413251E+01  2.3864109E+01
 1.0424750E+01  2.3832987E+01
 1.0436251E+01  2.3726967E+01
 1.0447750E+01  2.3694992E+01
 1.0459250E+01  2.3650513E+01
 1.0470751E+01  2.3645021E+01
 1.0482250E+01  2.3714844E+01
 1.0493751E+01  2.3703548E+01
 1.0505251E+01  2.3684963E+01
 1.0516750E+01  2.3690369E+01
 1.0528251E+01  2.3676561E+01
 1.0539750E+01  2.3678474E+01
 1.0551250E+01  2.3660286E+01
 1.0562751E+01  2.3705908E+01
 1.0574250E+01  2.3658348E+01
 1.0585751E+01  2.3620228E+01
 1.0597251E+01  2.3535585E+01
 1.0608750E+01  2.3562922E+01
 1.0620251E+01  2.3544018E+01
 1.0631750E+01  2.3608727E+01
 1.0643250E+01  2.3605093E+01
 1.0654751E+01  2.3618721E+01
 1.0666250E+01  2.3564547E+01
 1.0677751E+01  2.3473734E+01
 1.0689251E+01  2.3400473E+01
 1.0700750E+01  2.3348944E+01
 1.0712251E+01  2.3298388E+01
 1.0723750E+01  2.3252678E+01
 1.0735250E+01  2.3243517E+01
 1.0746751E+01  2.3328936E+01
 1.0758250E+01  2.3336094E+01
 1.0769751E+01  2.3325085E+01
 1.0781251E+01  2.3283798E+01
 1.0792750E+01  2.3238527E+01
 1.0804251E+01  2.3240318E+01
 1.0815750E+01  2.3185675E+01
 1.0827250E+01  2.3188234E+01
 1.0838751E+01  2.3123722E+01
 1.0850250E+01  2.3120203E+01
 1.0861751E+01  2.3083752E+01
 1.0873251E+01  2.3109198E+01
 1.0884750E+01  2.3099005E+01
 1.0896251E+01  2.3066751E+01
 1.0907750E+01  2.3021099E+01
 1.0919250E+01  2.3030380E+01
 1.0930751E+01  2.3069229E+01
 1.0942250E+01  2.3104071E+01
 1.0953751E+01  2.3111691E+01
 1.0965251E+01  2.3098991E+01
 1.0976750E+01  2.3138639E+01
 1.0988251E+01  2.3192503E+01
 1.0999750E+01  2.3215010E+01
 1.1011250E+01  2.3149885E+01
 1.1022751E+01  2.3069902E+01
 1.1034250E+01  2.3056335E+01
 1.1045751E+01  2.2995302E+01
 1.1057251E+01  2.2940571E+01
 1.1068750E+01  2.2881392E+01
 1.1080251E+01  2.2945930E+01
 1.1091750E+01  2.2983332E+01
 1.1103251E+01  2.2994009E+01
 1.1114751E+01  2.2900047E+01
 1.1126250E+01  2.2857561E+01
 1.1137751E+01  2.2846849E+01
 1.1149251E+01  2.2884996E+01
 1.1160750E+01  2.2956665E+01
 1.1172251E+01  2.2969978E+01
 1.1183750E+01  2.2974771E+01
 1.1195251E+01  2.2919254E+01
 1.1206751E+01  2.2946043E+01
 1.1218250E+01  2.2941107E+01
 1.1229751E+01  2.2920408E+01
 1.1241251E+01  2.2900923E+01
 1.1252750E+01  2.2872128E+01
 1.1264251E+01  2.2803726E+01
 1.1275750E+01  2.2767086E+01
 1.1287251E+01  2.2755774E+01
 1.1298751E+01  2.2809258E+01
 1.1310250E+01  2.2832989E+01
 1.1321751E+01  2.2844898E+01
 1.1333251E+01  2.2801767E+01
 1.1344750E+01  2.2785675E+01
 1.1356251E+01  2.2781008E+01
 1.1367750E+01  2.2896900E+01
 1.1379251E+01  2.2989710E+01
 1.1390751E+01  2.3095701E+01
 1.1402250E+01  2.3221409E+01
 1.1413751E+01  2.3187597E+01
 1.1425251E+01  2.3131590E+01
 1.1436750E+01  2.3056072E+01
 1.1448251E+01  2.3009897E+01
 1.1459750E+01  2.3078735E+01
 1.1471251E+01  2.3068258E+01
 1.1482751E+01  2.3127728E+01
 1.1494250E+01  2.3137157E+01
 1.1505751E+01  2.3199860E+01
 1.1517251E+01  2.3365507E+01
 1.1528750E+01  2.3652082E+01
 1.1540251E+01  2.3954491E+01
 1.1551750E+01  2.4464993E+01
 1.1563251E+01  2.5098673E+01
 1.1574751E+01  2.5876020E+01
 1.1586250E+01  2.6343185E+01
 1.1597751E+01  2.6423103E+01
 1.1609251E+01  2.6071568E+01
 1.1620750E+01  2.5557739E+01
 1.1632251E+01  2.4900259E+01
 1.1643750E+01  2.4230263E+01
 1.1655251E+01  2.3668007E+01
 1.1666751E+01  2.3271353E+01
 1.1678250E+01  2.3085484E+01
 1.1689751E+01  2.2928249E+01
 1.1701251E+01  2.2832855E+01
 1.1712750E+01  2.2752272E+01
 1.1724251E+01  2.2750643E+01
 1.1735750E+01  2.2765411E+01
 1.1747251E+01  2.2769554E+01
 1.1758751E+01  2.2742304E+01
 1.1770250E+01  2.2658798E+01
 1.1781751E+01  2.2639328E+01
 1.1793251E+01  2.2662947E+01
 1.1804750E+01  2.2746931E+01
 1.1816251E+01  2.2763708E+01
 1.1827750E+01  2.2761757E+01
 1.1839251E+01  2.2746538E+01
 1.1850751E+01  2.2715765E+01
 1.1862250E+01  2.2688101E+01
 1.1873751E+01  2.2646280E+01
 1.1885251E+01  2.2685230E+01
 1.1896750E+01  2.2737320E+01
 1.1908251E+01  2.2803413E+01
 1.1919750E+01  2.2847015E+01
 1.1931251E+01  2.2887863E+01
 1.1942751E+01  2.2979189E+01
 1.1954250E+01  2.3061659E+01
 1.1965751E+01  2.3152927E+01
 1.1977251E+01  2.3205273E+01
 1.1988750E+01  2.3259123E+01
 1.2000251E+01  2.3232300E+01
 1.2011750E+01  2.3239985E+01
 1.2023251E+01  2.3187263E+01
 1.2034751E+01  2.3251846E+01
 1.2046250E+01  2.3233604E+01
 1.2057751E+01  2.3277176E+01
 1.2069251E+01  2.3377283E+01
 1.2080750E+01  2.3546480E+01
 1.2092251E+01  2.3718483E+01
 1.2103750E+01  2.3774158E+01
 1.2115251E+01  2.3682404E+01
 1.2126751E+01  2.3535971E+01
 1.2138250E+01  2.3383764E+01
 1.2149751E+01  2.3264799E+01
 1.2161251E+01  2.3140455E+01
 1.2172750E+01  2.3010519E+01
 1.2184251E+01  2.2898388E+01
 1.2195750E+01  2.2880295E+01
 1.2207251E+01  2.2816149E+01
 1.2218751E+01  2.2865942E+01
 1.2230250E+01  2.2849621E+01
 1.2241751E+01  2.2864904E+01
 1.2253251E+01  2.2853598E+01
 1.2264750E+01  2.2833370E+01
 1.2276251E+01  2.2811684E+01
 1.2287750E+01  2.2800047E+01
 1.2299251E+01  2.2832001E+01
 1.2310751E+01  2.2909035E+01
 1.2322250E+01  2.2897657E+01
 1.2333751E+01  2.2910622E+01
 1.2345250E+01  2.2872904E+01
 1.2356750E+01  2.2945663E+01
 1.2368251E+01  2.2944315E+01
 1.2379750E+01  2.2937595E+01
 1.2391251E+01  2.2902493E+01
 1.2402751E+01  2.2845915E+01
 1.2414250E+01  2.2851332E+01
 1.2425751E+01  2.2841553E+01
 1.2437250E+01  2.2867130E+01
 1.2448750E+01  2.2845903E+01
 1.2460251E+01  2.2879475E+01
 1.2471750E+01  2.2905741E+01
 1.2483251E+01  2.2941914E+01
 1.2494751E+01  2.2938213E+01
 1.2506250E+01  2.2916502E+01
 1.2517751E+01  2.2941715E+01
 1.2529250E+01  2.2975662E+01
 1.2540751E+01  2.3049212E+01
 1.2552251E+01  2.3097830E+01
 1.2563750E+01  2.3092377E+01
 1.2575251E+01  2.3122330E+01
 1.2586751E+01  2.3116995E+01
 1.2598250E+01  2.3135233E+01
 1.2609751E+01  2.3121161E+01
 1.2621250E+01  2.3173428E+01
 1.2632751E+01  2.3225138E+01
 1.2644251E+01  2.3471390E+01
 1.2655750E+01  2.3989922E+01
 1.2667251E+01  2.4357237E+01
 1.2678751E+01  2.4541975E+01
 1.2690250E+01  2.4259340E+01
 1.2701751E+01  2.4031193E+01
 1.2713250E+01  2.3600967E+01
 1.2724751E+01  2.3343582E+01
 1.2736251E+01  2.3168623E+01
 1.2747750E+01  2.3209814E+01
 1.2759251E+01  2.3250441E+01
 1.2770751E+01  2.3288691E+01
 1.2782250E+01  2.3352556E+01
 1.2793751E+01  2.3387535E+01
 1.2805250E+01  2.3438528E+01
 1.2816751E+01  2.3435844E+01
 1.2828251E+01  2.3506895E+01
 1.2839750E+01  2.3533752E+01
 1.2851251E+01  2.3570402E+01
 1.2862751E+01  2.3560961E+01
 1.2874250E+01  2.3627729E+01
 1.2885751E+01  2.3637787E+01
 1.2897250E+01  2.3693735E+01
 1.2908751E+01  2.3764116E+01
 1.2920251E+01  2.3837908E+01
 1.2931750E+01  2.3960518E+01
 1.2943251E+01  2.4043968E+01
 1.2954751E+01  2.4170942E+01
 1.2966250E+01  2.4259953E+01
 1.2977751E+01  2.4368727E+01
 1.2989250E+01  2.4445723E+01
 1.3000751E+01  2.4429123E+01
 1.3012251E+01  2.4381897E+01
 1.3023750E+01  2.4367849E+01
 1.3035251E+01  2.4457077E+01
 1.3046751E+01  2.4533148E+01
 1.3058250E+01  2.4625563E+01
 1.3069751E+01  2.4697508E+01
 1.3081250E+01  2.4806061E+01
 1.3092751E+01  2.4910677E+01
 1.3104251E+01  2.5086395E+01
 1.3115750E+01  2.5240442E+01
 1.3127251E+01  2.5398342E+01
 1.3138751E+01  2.5492821E+01
 1.3150250E+01  2.5621616E+01
 1.3161751E+01  2.5689571E+01
 1.3173250E+01  2.5743906E+01
 1.3184751E+01  2.5824375E+01
 1.3196251E+01  2.5885773E+01
 1.3207750E+01  2.6048828E+01
 1.3219251E+01  2.6218491E+01
 1.3230751E+01  2.6428547E+01
 1.3242250E+01  2.6608788E+01
 1.3253751E+01  2.6707842E+01
 1.3265250E+01  2.6836563E+01
 1.3276751E+01  2.6964680E+01
 1.3288251E+01  2.7131626E+01
 1.3299750E+01  2.7290422E+01
 1.3311251E+01  2.7382404E+01
 1.3322751E+01  2.7570211E+01
 1.3334250E+01  2.7786478E+01
 1.3345751E+01  2.8048460E+01
 1.3357250E+01  2.8177156E+01
 1.3368751E+01  2.8250023E+01
 1.3380251E+01  2.8272636E+01
 1.3391750E+01  2.8331764E+01
 1.3403251E+01  2.8445295E+01
 1.3414751E+01  2.8612347E+01
 1.3426250E+01  2.8777687E+01
 1.3437751E+01  2.8931211E+01
 1.3449250E+01  2.9038483E+01
 1.3460751E+01  2.9157904E+01
 1.3472251E+01  2.9277092E+01
 1.3483750E+01  2.9390848E+01
 1.3495251E+01  2.9530283E+01
 1.3506751E+01  2.9594299E+01
 1.3518250E+01  2.9708344E+01
 1.3529751E+01  2.9741476E+01
 1.3541250E+01  2.9864298E+01
 1.3552751E+01  2.9882576E+01
 1.3564251E+01  2.9951519E+01
 1.3575750E+01  3.0040167E+01
 1.3587251E+01  3.0109240E+01
 1.3598751E+01  3.0214064E+01
 1.3610250E+01  3.0151443E+01
 1.3621751E+01  3.0184755E+01
 1.3633250E+01  3.0138884E+01
 1.3644751E+01  3.0035999E+01
 1.3656251E+01  3.0010418E+01
 1.3667750E+01  3.0030245E+01
 1.3679251E+01  3.0126631E+01
 1.3690751E+01  3.0079737E+01
 1.3702250E+01  2.9999840E+01
 1.3713751E+01  2.9963854E+01
 1.3725250E+01  2.9877293E+01
 1.3736751E+01  2.9780106E+01
 1.3748251E+01  2.9661442E+01
 1.3759750E+01  2.9601515E+01
 1.3771251E+01  2.9549961E+01
 1.3782751E+01  2.9563271E+01
 1.3794250E+01  2.9533508E+01
 1.3805751E+01  2.9566065E+01
 1.3817250E+01  2.9497053E+01
 1.3828751E+01  2.9489012E+01
 1.3840251E+01  2.9386242E+01
 1.3851750E+01  2.9359009E+01
 1.3863251E+01  2.9446346E+01
 1.3874751E+01  2.9506672E+01
 1.3886250E+01  2.9620880E+01
 1.3897751E+01  2.9977491E+01
 1.3909250E+01  3.0207525E+01
 1.3920751E+01  3.0817726E+01
 1.3932251E+01  3.1343973E+01
 1.3943750E+01  3.1655935E+01
 1.3955251E+01  3.2280472E+01
 1.3966751E+01  3.1997646E+01
 1.3978251E+01  3.1752394E+01
 1.3989751E+01  3.0896307E+01
 1.4001250E+01  3.0230658E+01
 1.4012751E+01  2.9818630E+01
 1.4024251E+01  2.9078279E+01
 1.4035750E+01  2.8784349E+01
 1.4047251E+01  2.8438210E+01
 1.4058751E+01  2.8211721E+01
 1.4070251E+01  2.8144573E+01
 1.4081751E+01  2.7975359E+01
 1.4093250E+01  2.7964985E+01
 1.4104751E+01  2.7892677E+01
 1.4116251E+01  2.7793098E+01
 1.4127750E+01  2.7674780E+01
 1.4139251E+01  2.7543972E+01
 1.4150751E+01  2.7429964E+01
 1.4162251E+01  2.7355219E+01
 1.4173751E+01  2.7228624E+01
 1.4185250E+01  2.7183695E+01
 1.4196751E+01  2.7116610E+01
 1.4208251E+01  2.7050949E+01
 1.4219750E+01  2.7041388E+01
 1.4231251E+01  2.6940168E+01
 1.4242751E+01  2.6914515E+01
 1.4254251E+01  2.6799320E+01
 1.4265751E+01  2.6745251E+01
 1.4277250E+01  2.6651331E+01
 1.4288751E+01  2.6553091E+01
 1.4300251E+01  2.6496914E+01
 1.4311750E+01  2.6507837E+01
 1.4323251E+01  2.6429775E+01
 1.4334751E+01  2.6424751E+01
 1.4346251E+01  2.6384216E+01
 1.4357751E+01  2.6418659E+01
 1.4369250E+01  2.6393135E+01
 1.4380751E+01  2.6440048E+01
 1.4392251E+01  2.6398746E+01
 1.4403750E+01  2.6351788E+01
 1.4415251E+01  2.6244225E+01
 1.4426751E+01  2.6202412E+01
 1.4438251E+01  2.6144844E+01
 1.4449751E+01  2.6115316E+01
 1.4461250E+01  2.6074429E+01
 1.4472751E+01  2.6049154E+01
 1.4484251E+01  2.6021418E+01
 1.4495750E+01  2.6025673E+01
 1.4507251E+01  2.6023870E+01
 1.4518751E+01  2.6006592E+01
 1.4530251E+01  2.5952984E+01
 1.4541751E+01  2.5912174E+01
 1.4553250E+01  2.5832071E+01
 1.4564751E+01  2.5840418E+01
 1.4576251E+01  2.5821339E+01
 1.4587750E+01  2.5844124E+01
 1.4599251E+01  2.5796949E+01
 1.4610751E+01  2.5722576E+01
 1.4622251E+01  2.5676678E+01
 1.4633751E+01  2.5643700E+01
 1.4645250E+01  2.5615728E+01
 1.4656751E+01  2.5588631E+01
 1.4668251E+01  2.5577232E+01
 1.4679750E+01  2.5598656E+01
 1.4691251E+01  2.5594868E+01
 1.4702751E+01  2.5607651E+01
 1.4714251E+01  2.5591841E+01
 1.4725751E+01  2.5561998E+01
 1.4737250E+01  2.5460108E+01
 1.4748751E+01  2.5447083E+01
 1.4760251E+01  2.5344021E+01
 1.4771750E+01  2.5383810E+01
 1.4783251E+01  2.5338411E+01
 1.4794751E+01  2.5358822E+01
 1.4806251E+01  2.5303600E+01
 1.4817751E+01  2.5261097E+01
 1.4829250E+01  2.5256260E+01
 1.4840751E+01  2.5254408E+01
 1.4852251E+01  2.5252758E+01
 1.4863750E+01  2.5227715E+01
 1.4875251E+01  2.5184898E+01
 1.4886751E+01  2.5167162E+01
 1.4898251E+01  2.5184107E+01
 1.4909751E+01  2.5236635E+01
 1.4921250E+01  2.5242823E+01
 1.4932751E+01  2.5263773E+01
 1.4944251E+01  2.5239647E+01
 1.4955750E+01  2.5251045E+01
 1.4967251E+01  2.5188478E+01
 1.4978751E+01  2.5150721E+01
 1.4990251E+01  2.5120008E+01
 1.5001751E+01  2.5093447E+01
 1.5013250E+01  2.5092800E+01
 1.5024751E+01  2.5094692E+01
 1.5036251E+01  2.5091162E+01
 1.5047750E+01  2.5086184E+01
 1.5059251E+01  2.5112408E+01
 1.5070751E+01  2.5099003E+01
 1.5082251E+01  2.5121128E+01
 1.5093751E+01  2.5126404E+01
 1.5105250E+01  2.5229645E+01
 1.5116751E+01  2.5253590E+01
 1.5128251E+01  2.5285681E+01
 1.5139750E+01  2.5337618E+01
 1.5151251E+01  2.5495995E+01
 1.5162751E+01  2.5713377E+01
 1.5174251E+01  2.5940878E+01
 1.5185751E+01  2.6080183E+01
 1.5197250E+01  2.6120867E+01
 1.5208751E+01  2.6051973E+01
 1.5220251E+01  2.5924416E+01
 1.5231750E+01  2.5726973E+01
 1.5243251E+01  2.5460531E+01
 1.5254751E+01  2.5240368E+01
 1.5266251E+01  2.5050911E+01
 1.5277751E+01  2.5032433E+01
 1.5289250E+01  2.5028812E+01
 1.5300751E+01  2.5020077E+01
 1.5312251E+01  2.4985905E+01
 1.5323750E+01  2.4921652E+01
 1.5335251E+01  2.4843105E+01
 1.5346751E+01  2.4733866E+01
 1.5358251E+01  2.4709713E+01
 1.5369751E+01  2.4722998E+01
 1.5381250E+01  2.4715706E+01
 1.5392751E+01  2.4732634E+01
 1.5404251E+01  2.4781208E+01
 1.5415751E+01  2.4815304E+01
 1.5427251E+01  2.4822268E+01
 1.5438751E+01  2.4857615E+01
 1.5450251E+01  2.4890278E+01
 1.5461751E+01  2.4866121E+01
 1.5473250E+01  2.4777699E+01
 1.5484751E+01  2.4745375E+01
 1.5496251E+01  2.4743879E+01
 1.5507751E+01  2.4804018E+01
 1.5519251E+01  2.4838894E+01
 1.5530751E+01  2.4846817E+01
 1.5542251E+01  2.4878164E+01
 1.5553751E+01  2.4868622E+01
 1.5565250E+01  2.4905558E+01
 1.5576751E+01  2.4901007E+01
 1.5588251E+01  2.4956297E+01
 1.5599751E+01  2.4940876E+01
 1.5611251E+01  2.4887032E+01
 1.5622751E+01  2.4850115E+01
 1.5634251E+01  2.4860121E+01
 1.5645751E+01  2.4888611E+01
 1.5657250E+01  2.4927309E+01
 1.5668751E+01  2.4933945E+01
 1.5680251E+01  2.4912998E+01
 1.5691751E+01  2.4911961E+01
 1.5703251E+01  2.4886490E+01
 1.5714751E+01  2.4860584E+01
 1.5726251E+01  2.4784542E+01
 1.5737751E+01  2.4742840E+01
 1.5749250E+01  2.4769316E+01
 1.5760751E+01  2.4768602E+01
 1.5772251E+01  2.4826990E+01
 1.5783751E+01  2.4828772E+01
 1.5795251E+01  2.4908421E+01
 1.5806751E+01  2.4878977E+01
 1.5818251E+01  2.4841314E+01
 1.5829751E+01  2.4808767E+01
 1.5841250E+01  2.4798737E+01
 1.5852751E+01  2.4834146E+01
 1.5864251E+01  2.4797461E+01
 1.5875751E+01  2.4865160E+01
 1.5887251E+01  2.4855286E+01
 1.5898750E+01  2.4903181E+01
 1.5910251E+01  2.4874939E+01
 1.5921751E+01  2.4847271E+01
 1.5933250E+01  2.4837479E+01
 1.5944751E+01  2.4789064E+01
 1.5956251E+01  2.4850702E+01
 1.5967751E+01  2.4831612E+01
 1.5979251E+01  2.4895792E+01
 1.5990750E+01  2.4912287E+01
 1.6002251E+01  2.4921001E+01
 1.6013750E+01  2.4909264E+01
 1.6025251E+01  2.4926626E+01
 1.6036751E+01  2.5023640E+01
 1.6048250E+01  2.5087259E+01
 1.6059752E+01  2.5103573E+01
 1.6071251E+01  2.5018377E+01
 1.6082750E+01  2.5031881E+01
 1.6094252E+01  2.4997059E+01
 1.6105751E+01  2.5118265E+01
 1.6117250E+01  2.5082165E+01
 1.6128750E+01  2.5068943E+01
 1.6140251E+01  2.5081289E+01
 1.6151751E+01  2.5101452E+01
 1.6163250E+01  2.5302483E+01
 1.6174751E+01  2.5272856E+01
 1.6186251E+01  2.5708626E+01
 1.6197750E+01  2.5655508E+01
 1.6209251E+01  2.6423922E+01
 1.6220751E+01  2.6323145E+01
 1.6232250E+01  2.6993855E+01
 1.6243752E+01  2.6952932E+01
 1.6255251E+01  2.7232603E+01
 1.6266750E+01  2.7253574E+01
 1.6278252E+01  2.6774534E+01
 1.6289751E+01  2.6687273E+01
 1.6301250E+01  2.5820383E+01
 1.6312750E+01  2.5851437E+01
 1.6324251E+01  2.5320951E+01
 1.6335751E+01  2.5353817E+01
 1.6347250E+01  2.5112307E+01
 1.6358751E+01  2.5038824E+01
 1.6370251E+01  2.4936310E+01
 1.6381750E+01  2.4912325E+01
 1.6393251E+01  2.4968065E+01
 1.6404751E+01  2.5017717E+01
 1.6416250E+01  2.5106594E+01
 1.6427752E+01  2.5110418E+01
 1.6439251E+01  2.5102154E+01
 1.6450750E+01  2.5013840E+01
 1.6462252E+01  2.4968815E+01
 1.6473751E+01  2.4940689E+01
 1.6485250E+01  2.4963726E+01
 1.6496750E+01  2.4960667E+01
 1.6508251E+01  2.4965792E+01
 1.6519751E+01  2.4938440E+01
 1.6531250E+01  2.4922300E+01
 1.6542751E+01  2.4917225E+01
 1.6554251E+01  2.4885115E+01
 1.6565750E+01  2.4849688E+01
 1.6577251E+01  2.4809713E+01
 1.6588751E+01  2.4830429E+01
 1.6600250E+01  2.4857098E+01
 1.6611752E+01  2.4862598E+01
 1.6623251E+01  2.4796068E+01
 1.6634750E+01  2.4753771E+01
 1.6646252E+01  2.4723852E+01
 1.6657751E+01  2.4773939E+01
 1.6669250E+01  2.4811859E+01
 1.6680750E+01  2.4825768E+01
 1.6692251E+01  2.4873486E+01
 1.6703751E+01  2.4847975E+01
 1.6715250E+01  2.4826160E+01
 1.6726751E+01  2.4758526E+01
 1.6738251E+01  2.4797142E+01
 1.6749750E+01  2.4850819E+01
 1.6761251E+01  2.4892727E+01
 1.6772751E+01  2.4886229E+01
 1.6784250E+01  2.4881090E+01
 1.6795752E+01  2.4848873E+01
 1.6807251E+01  2.4893478E+01
 1.6818750E+01  2.4817507E+01
 1.6830252E+01  2.4783222E+01
 1.6841751E+01  2.4699846E+01
 1.6853251E+01  2.4666967E+01
 1.6864750E+01  2.4653700E+01
 1.6876251E+01  2.4657183E+01
 1.6887751E+01  2.4654812E+01
 1.6899250E+01  2.4646708E+01
 1.6910751E+01  2.4696053E+01
 1.6922251E+01  2.4714264E+01
 1.6933750E+01  2.4673368E+01
 1.6945251E+01  2.4615677E+01
 1.6956751E+01  2.4613579E+01
 1.6968250E+01  2.4658218E+01
 1.6979752E+01  2.4714239E+01
 1.6991251E+01  2.4769075E+01
 1.7002750E+01  2.4764978E+01
 1.7014252E+01  2.4719748E+01
 1.7025751E+01  2.4682987E+01
 1.7037251E+01  2.4628115E+01
 1.7048750E+01  2.4621964E+01
 1.7060251E+01  2.4574474E+01
 1.7071751E+01  2.4601479E+01
 1.7083250E+01  2.4630800E+01
 1.7094751E+01  2.4687304E+01
 1.7106251E+01  2.4666365E+01
 1.7117750E+01  2.4598852E+01
 1.7129251E+01  2.4561853E+01
 1.7140751E+01  2.4547575E+01
 1.7152250E+01  2.4528215E+01
 1.7163752E+01  2.4511160E+01
 1.7175251E+01  2.4469746E+01
 1.7186750E+01  2.4485624E+01
 1.7198252E+01  2.4487280E+01
 1.7209751E+01  2.4532839E+01
 1.7221251E+01  2.4484636E+01
 1.7232750E+01  2.4437752E+01
 1.7244251E+01  2.4428135E+01
 1.7255751E+01  2.4407291E+01
 1.7267250E+01  2.4368858E+01
 1.7278751E+01  2.4328966E+01
 1.7290251E+01  2.4297562E+01
 1.7301750E+01  2.4352812E+01
 1.7313251E+01  2.4359760E+01
 1.7324751E+01  2.4373281E+01
 1.7336250E+01  2.4298992E+01
 1.7347752E+01  2.4295033E+01
 1.7359251E+01  2.4308134E+01
 1.7370750E+01  2.4355850E+01
 1.7382252E+01  2.4314518E+01
 1.7393751E+01  2.4299545E+01
 1.7405251E+01  2.4299047E+01
 1.7416750E+01  2.4321058E+01
 1.7428251E+01  2.4283905E+01
 1.7439751E+01  2.4276470E+01
 1.7451250E+01  2.4241718E+01
 1.7462751E+01  2.4287788E+01
 1.7474251E+01  2.4293161E+01
 1.7485750E+01  2.4318066E+01
 1.7497252E+01  2.4285242E+01
 1.7508751E+01  2.4256720E+01
 1.7520250E+01  2.4239161E+01
 1.7531752E+01  2.4249594E+01
 1.7543251E+01  2.4270124E+01
 1.7554750E+01  2.4230206E+01
 1.7566252E+01  2.4189800E+01
 1.7577751E+01  2.4130030E+01
 1.7589251E+01  2.4110319E+01
 1.7600750E+01  2.4121325E+01
 1.7612251E+01  2.4167194E+01
 1.7623751E+01  2.4207947E+01
 1.7635250E+01  2.4208097E+01
 1.7646751E+01  2.4182011E+01
 1.7658251E+01  2.4124783E+01
 1.7669750E+01  2.4064127E+01
 1.7681252E+01  2.4072411E+01
 1.7692751E+01  2.4110409E+01
 1.7704250E+01  2.4128384E+01
 1.7715752E+01  2.4070267E+01
 1.7727251E+01  2.3983639E+01
 1.7738750E+01  2.3927999E+01
 1.7750252E+01  2.3894352E+01
 1.7761751E+01  2.3908501E+01
 1.7773251E+01  2.3981415E+01
 1.7784750E+01  2.4065868E+01
 1.7796251E+01  2.4125740E+01
 1.7807751E+01  2.4105375E+01
 1.7819250E+01  2.4065262E+01
 1.7830751E+01  2.4034885E+01
 1.7842251E+01  2.4022863E+01
 1.7853750E+01  2.4026346E+01
 1.7865252E+01  2.4064447E+01
 1.7876751E+01  2.4074654E+01
 1.7888250E+01  2.4053600E+01
 1.7899752E+01  2.3997419E+01
 1.7911251E+01  2.4003878E+01
 1.7922750E+01  2.4041790E+01
 1.7934252E+01  2.4075771E+01
 1.7945751E+01  2.4074175E+01
 1.7957251E+01  2.4042084E+01
 1.7968750E+01  2.4046734E+01
 1.7980251E+01  2.4071150E+01
 1.7991751E+01  2.4138750E+01
 1.8003250E+01  2.4147995E+01
 1.8014751E+01  2.4169098E+01
 1.8026251E+01  2.4180988E+01
 1.8037750E+01  2.4275518E+01
 1.8049252E+01  2.4416904E+01
 1.8060751E+01  2.4617184E+01
 1.8072250E+01  2.4760872E+01
 1.8083752E+01  2.4871969E+01
 1.8095251E+01  2.4946890E+01
 1.8106750E+01  2.4908749E+01
 1.8118252E+01  2.4768822E+01
 1.8129751E+01  2.4599897E+01
 1.8141251E+01  2.4509981E+01
 1.8152750E+01  2.4380394E+01
 1.8164251E+01  2.4787899E+01
 1.8175751E+01  2.5095760E+01
 1.8187250E+01  2.5095926E+01
 1.8198751E+01  2.4799042E+01
 1.8210251E+01  2.4533600E+01
 1.8221750E+01  2.4345301E+01
 1.8233252E+01  2.3899342E+01
 1.8244751E+01  2.3884390E+01
 1.8256250E+01  2.3894463E+01
 1.8267752E+01  2.3894310E+01
 1.8279251E+01  2.3888683E+01
 1.8290751E+01  2.3869944E+01
 1.8302252E+01  2.3872034E+01
 1.8313751E+01  2.3890009E+01
 1.8325251E+01  2.3862385E+01
 1.8336750E+01  2.3871721E+01
 1.8348251E+01  2.3903858E+01
 1.8359751E+01  2.3954361E+01
 1.8371250E+01  2.3935825E+01
 1.8382751E+01  2.3914667E+01
 1.8394251E+01  2.3899620E+01
 1.8405750E+01  2.3873184E+01
 1.8417252E+01  2.3881536E+01
 1.8428751E+01  2.3845373E+01
 1.8440250E+01  2.3832424E+01
 1.8451752E+01  2.3801727E+01
 1.8463251E+01  2.3815411E+01
 1.8474751E+01  2.3793941E+01
 1.8486252E+01  2.3780510E+01
 1.8497751E+01  2.3771364E+01
 1.8509251E+01  2.3826780E+01
 1.8520750E+01  2.3828348E+01
 1.8532251E+01  2.3811668E+01
 1.8543751E+01  2.3729752E+01
 1.8555250E+01  2.3707624E+01
 1.8566751E+01  2.3719151E+01
 1.8578251E+01  2.3781893E+01
 1.8589750E+01  2.3844280E+01
 1.8601252E+01  2.3844030E+01
 1.8612751E+01  2.3822208E+01
 1.8624250E+01  2.3766020E+01
 1.8635752E+01  2.3797256E+01
 1.8647251E+01  2.3756161E+01
 1.8658751E+01  2.3746490E+01
 1.8670252E+01  2.3725122E+01
 1.8681751E+01  2.3759998E+01
 1.8693251E+01  2.3803301E+01
 1.8704750E+01  2.3833603E+01
 1.8716251E+01  2.3831738E+01
 1.8727751E+01  2.3802572E+01
 1.8739250E+01  2.3812454E+01
 1.8750751E+01  2.3824383E+01
 1.8762251E+01  2.3804773E+01
 1.8773750E+01  2.3752117E+01
 1.8785252E+01  2.3704628E+01
 1.8796751E+01  2.3676250E+01
 1.8808250E+01  2.3634943E+01
 1.8819752E+01  2.3643059E+01
 1.8831251E+01  2.3660307E+01
 1.8842751E+01  2.3742340E+01
 1.8854252E+01  2.3767761E+01
 1.8865751E+01  2.3810732E+01
 1.8877251E+01  2.3839609E+01
 1.8888750E+01  2.3832207E+01
 1.8900251E+01  2.3832066E+01
 1.8911751E+01  2.3823004E+01
 1.8923250E+01  2.3887140E+01
 1.8934752E+01  2.3891016E+01
 1.8946251E+01  2.3939337E+01
 1.8957750E+01  2.3901045E+01
 1.8969252E+01  2.3816763E+01
 1.8980751E+01  2.3764563E+01
 1.8992250E+01  2.3716351E+01
 1.9003752E+01  2.3722128E+01
 1.9015251E+01  2.3754677E+01
 1.9026751E+01  2.3809238E+01
 1.9038252E+01  2.3867300E+01
 1.9049751E+01  2.3841286E+01
 1.9061251E+01  2.3857454E+01
 1.9072750E+01  2.3881424E+01
 1.9084251E+01  2.3880367E+01
 1.9095751E+01  2.3859667E+01
 1.9107250E+01  2.3796402E+01
 1.9118752E+01  2.3790092E+01
 1.9130251E+01  2.3783554E+01
 1.9141750E+01  2.3791748E+01
 1.9153252E+01  2.3805368E+01
 1.9164751E+01  2.3748278E+01
 1.9176250E+01  2.3722103E+01
 1.9187752E+01  2.3660324E+01
 1.9199251E+01  2.3675327E+01
 1.9210751E+01  2.3687422E+01
 1.9222252E+01  2.3728886E+01
 1.9233751E+01  2.3771793E+01
 1.9245251E+01  2.3822119E+01
 1.9256750E+01  2.3837105E+01
 1.9268251E+01  2.3851400E+01
 1.9279751E+01  2.3805462E+01
 1.9291250E+01  2.3831234E+01
 1.9302752E+01  2.3852375E+01
 1.9314251E+01  2.3874544E+01
 1.9325750E+01  2.3877333E+01
 1.9337252E+01  2.3922670E+01
 1.9348751E+01  2.3945534E+01
 1.9360250E+01  2.3895206E+01
 1.9371752E+01  2.3878035E+01
 1.9383251E+01  2.3901295E+01
 1.9394751E+01  2.3929783E+01
 1.9406250E+01  2.3952179E+01
 1.9417751E+01  2.3961353E+01
 1.9429251E+01  2.3936974E+01
 1.9440750E+01  2.3924677E+01
 1.9452251E+01  2.3893126E+01
 1.9463751E+01  2.3942600E+01
 1.9475250E+01  2.3962076E+01
 1.9486752E+01  2.3980089E+01
 1.9498251E+01  2.3943033E+01
 1.9509750E+01  2.3972223E+01
 1.9521252E+01  2.3999901E+01
 1.9532751E+01  2.4031208E+01
 1.9544250E+01  2.4014740E+01
 1.9555752E+01  2.4010029E+01
 1.9567251E+01  2.3988892E+01
 1.9578751E+01  2.4020779E+01
 1.9590250E+01  2.4035362E+01
 1.9601751E+01  2.4093189E+01
 1.9613251E+01  2.4114748E+01
 1.9624750E+01  2.4143789E+01
 1.9636251E+01  2.4168573E+01
 1.9647751E+01  2.4281101E+01
 1.9659250E+01  2.4499157E+01
 1.9670752E+01  2.4648561E+01
 1.9682251E+01  2.4905334E+01
 1.9693750E+01  2.5063160E+01
 1.9705252E+01  2.5371006E+01
 1.9716751E+01  2.5354849E+01
 1.9728251E+01  2.5277832E+01
 1.9739752E+01  2.5070635E+01
 1.9751251E+01  2.4880899E+01
 1.9762751E+01  2.4788071E+01
 1.9774250E+01  2.4678719E+01
 1.9785751E+01  2.4599676E+01
 1.9797251E+01  2.4611771E+01
 1.9808750E+01  2.4681343E+01
 1.9820251E+01  2.4840593E+01
 1.9831751E+01  2.5063223E+01
 1.9843250E+01  2.5229605E+01
 1.9854752E+01  2.5289064E+01
 1.9866251E+01  2.5178268E+01
 1.9877750E+01  2.5062578E+01
 1.9889252E+01  2.4804266E+01
 1.9900751E+01  2.4637943E+01
 1.9912251E+01  2.4486073E+01
 1.9923752E+01  2.4350698E+01
 1.9935251E+01  2.4226343E+01
 1.9946751E+01  2.4178936E+01
 1.9958250E+01  2.4130846E+01
 1.9969751E+01  2.4115028E+01
 1.9981251E+01  2.4072958E+01
 1.9992750E+01  2.4070070E+01
 2.0004251E+01  2.4013866E+01
 2.0015751E+01  2.3996355E+01
 2.0027250E+01  2.3977455E+01
 2.0038752E+01  2.4002686E+01
 2.0050251E+01  2.4027533E+01
 2.0061750E+01  2.4020002E+01
 2.0073252E+01  2.4018118E+01
 2.0084751E+01  2.3988266E+01
 2.0096251E+01  2.3981827E+01
 2.0107752E+01  2.4001799E+01
 2.0119251E+01  2.4022173E+01
 2.0130751E+01  2.4010403E+01
 2.0142250E+01  2.3977507E+01
 2.0153751E+01  2.3925274E+01
 2.0165251E+01  2.3877823E+01
 2.0176750E+01  2.3878428E+01
 2.0188251E+01  2.3889488E+01
 2.0199751E+01  2.3972805E+01
 2.0211250E+01  2.4061384E+01
 2.0222752E+01  2.4135563E+01
 2.0234251E+01  2.4129725E+01
 2.0245750E+01  2.4056047E+01
 2.0257252E+01  2.3993549E+01
 2.0268751E+01  2.3948423E+01
 2.0280251E+01  2.3959967E+01
 2.0291752E+01  2.3940725E+01
 2.0303251E+01  2.3911283E+01
 2.0314751E+01  2.3883644E+01
 2.0326250E+01  2.3883110E+01
 2.0337751E+01  2.3930561E+01
 2.0349251E+01  2.3944025E+01
 2.0360750E+01  2.3981581E+01
 2.0372252E+01  2.3950529E+01
 2.0383751E+01  2.3971169E+01
 2.0395250E+01  2.3992977E+01
 2.0406752E+01  2.4005527E+01
 2.0418251E+01  2.4018980E+01
 2.0429750E+01  2.4008890E+01
 2.0441252E+01  2.4031603E+01
 2.0452751E+01  2.4012402E+01
 2.0464251E+01  2.3966528E+01
 2.0475752E+01  2.3948032E+01
 2.0487251E+01  2.3950010E+01
 2.0498751E+01  2.3937899E+01
 2.0510250E+01  2.3906530E+01
 2.0521751E+01  2.3876316E+01
 2.0533251E+01  2.3853739E+01
 2.0544750E+01  2.3847588E+01
 2.0556252E+01  2.3903587E+01
 2.0567751E+01  2.3922747E+01
 2.0579250E+01  2.3990734E+01
 2.0590752E+01  2.4068438E+01
 2.0602251E+01  2.4112076E+01
 2.0613750E+01  2.4080359E+01
 2.0625252E+01  2.4090952E+01
 2.0636751E+01  2.4142664E+01
 2.0648251E+01  2.4158476E+01
 2.0659752E+01  2.4130215E+01
 2.0671251E+01  2.4149338E+01
 2.0682751E+01  2.4210508E+01
 2.0694250E+01  2.4287365E+01
 2.0705751E+01  2.4439085E+01
 2.0717251E+01  2.4558140E+01
 2.0728750E+01  2.4661591E+01
 2.0740252E+01  2.4741472E+01
 2.0751751E+01  2.4891233E+01
 2.0763250E+01  2.5024611E+01
 2.0774752E+01  2.5060116E+01
 2.0786251E+01  2.5003279E+01
 2.0797750E+01  2.4862169E+01
 2.0809252E+01  2.4738073E+01
 2.0820751E+01  2.4573410E+01
 2.0832251E+01  2.4410841E+01
 2.0843752E+01  2.4301325E+01
 2.0855251E+01  2.4243435E+01
 2.0866751E+01  2.4209360E+01
 2.0878250E+01  2.4170538E+01
 2.0889751E+01  2.4193153E+01
 2.0901251E+01  2.4196863E+01
 2.0912750E+01  2.4209196E+01
 2.0924252E+01  2.4226957E+01
 2.0935751E+01  2.4227495E+01
 2.0947250E+01  2.4232450E+01
 2.0958752E+01  2.4158712E+01
 2.0970251E+01  2.4087824E+01
 2.0981750E+01  2.4065020E+01
 2.0993252E+01  2.4039320E+01
 2.1004751E+01  2.4010391E+01
 2.1016251E+01  2.4018339E+01
 2.1027752E+01  2.4049219E+01
 2.1039251E+01  2.4072353E+01
 2.1050751E+01  2.4088659E+01
 2.1062250E+01  2.4178473E+01
 2.1073751E+01  2.4220186E+01
 2.1085251E+01  2.4251522E+01
 2.1096750E+01  2.4226538E+01
 2.1108252E+01  2.4214886E+01
 2.1119751E+01  2.4219683E+01
 2.1131250E+01  2.4219887E+01
 2.1142752E+01  2.4210457E+01
 2.1154251E+01  2.4118731E+01
 2.1165751E+01  2.4079502E+01
 2.1177252E+01  2.4056009E+01
 2.1188751E+01  2.4089630E+01
 2.1200251E+01  2.4095745E+01
 2.1211752E+01  2.4080399E+01
 2.1223251E+01  2.4048191E+01
 2.1234751E+01  2.4024693E+01
 2.1246250E+01  2.4086754E+01
 2.1257751E+01  2.4134825E+01
 2.1269251E+01  2.4123917E+01
 2.1280750E+01  2.4128832E+01
 2.1292252E+01  2.4152027E+01
 2.1303751E+01  2.4220829E+01
 2.1315250E+01  2.4204914E+01
 2.1326752E+01  2.4223457E+01
 2.1338251E+01  2.4194492E+01
 2.1349751E+01  2.4183380E+01
 2.1361252E+01  2.4206423E+01
 2.1372751E+01  2.4255610E+01
 2.1384251E+01  2.4325317E+01
 2.1395752E+01  2.4319551E+01
 2.1407251E+01  2.4308165E+01
 2.1418751E+01  2.4292807E+01
 2.1430250E+01  2.4264151E+01
 2.1441751E+01  2.4214867E+01
 2.1453251E+01  2.4164707E+01
 2.1464750E+01  2.4160372E+01
 2.1476252E+01  2.4178913E+01
 2.1487751E+01  2.4235657E+01
 2.1499250E+01  2.4247696E+01
 2.1510752E+01  2.4230610E+01
 2.1522251E+01  2.4219040E+01
 2.1533751E+01  2.4211533E+01
 2.1545252E+01  2.4194696E+01
 2.1556751E+01  2.4191856E+01
 2.1568251E+01  2.4215639E+01
 2.1579752E+01  2.4271738E+01
 2.1591251E+01  2.4375250E+01
 2.1602751E+01  2.4414806E+01
 2.1614250E+01  2.4443901E+01
 2.1625751E+01  2.4411037E+01
 2.1637251E+01  2.4505194E+01
 2.1648750E+01  2.4422817E+01
 2.1660252E+01  2.4495895E+01
 2.1671751E+01  2.4549213E+01
 2.1683250E+01  2.4565512E+01
 2.1694752E+01  2.4453650E+01
 2.1706251E+01  2.4402113E+01
 2.1717751E+01  2.4396175E+01
 2.1729252E+01  2.4300444E+01
 2.1740751E+01  2.4289700E+01
 2.1752251E+01  2.4252192E+01
 2.1763752E+01  2.4232958E+01
 2.1775251E+01  2.4245979E+01
 2.1786751E+01  2.4288101E+01
 2.1798250E+01  2.4378475E+01
 2.1809752E+01  2.4372578E+01
 2.1821251E+01  2.4443460E+01
 2.1832750E+01  2.4412058E+01
 2.1844252E+01  2.4456800E+01
 2.1855751E+01  2.4488487E+01
 2.1867250E+01  2.4515709E+01
 2.1878752E+01  2.4499071E+01
 2.1890251E+01  2.4431450E+01
 2.1901751E+01  2.4416563E+01
 2.1913252E+01  2.4444904E+01
 2.1924751E+01  2.4494297E+01
 2.1936251E+01  2.4519773E+01
 2.1947752E+01  2.4533794E+01
 2.1959251E+01  2.4560631E+01
 2.1970751E+01  2.4570002E+01
 2.1982250E+01  2.4548733E+01
 2.1993752E+01  2.4524162E+01
 2.2005251E+01  2.4506479E+01
 2.2016750E+01  2.4515224E+01
 2.2028252E+01  2.4533783E+01
 2.2039751E+01  2.4511431E+01
 2.2051250E+01  2.4518782E+01
 2.2062752E+01  2.4531969E+01
 2.2074251E+01  2.4591242E+01
 2.2085751E+01  2.4565670E+01
 2.2097252E+01  2.4566330E+01
 2.2108751E+01  2.4525272E+01
 2.2120251E+01  2.4563902E+01
 2.2131752E+01  2.4625345E+01
 2.2143251E+01  2.4708895E+01
 2.2154751E+01  2.4730858E+01
 2.2166250E+01  2.4736067E+01
 2.2177752E+01  2.4700005E+01
 2.2189251E+01  2.4632278E+01
 2.2200750E+01  2.4644741E+01
 2.2212252E+01  2.4667976E+01
 2.2223751E+01  2.4716570E+01
 2.2235250E+01  2.4728495E+01
 2.2246752E+01  2.4739143E+01
 2.2258251E+01  2.4652853E+01
 2.2269751E+01  2.4569387E+01
 2.2281252E+01  2.4578964E+01
 2.2292751E+01  2.4650805E+01
 2.2304251E+01  2.4739258E+01
 2.2315752E+01  2.4799381E+01
 2.2327251E+01  2.4784681E+01
 2.2338751E+01  2.4755613E+01
 2.2350250E+01  2.4734194E+01
 2.2361752E+01  2.4724859E+01
 2.2373251E+01  2.4714563E+01
 2.2384750E+01  2.4660219E+01
 2.2396252E+01  2.4630726E+01
 2.2407751E+01  2.4587870E+01
 2.2419250E+01  2.4620470E+01
 2.2430752E+01  2.4696514E+01
 2.2442251E+01  2.4786932E+01
 2.2453751E+01  2.4837914E+01
 2.2465252E+01  2.4850330E+01
 2.2476751E+01  2.4812458E+01
 2.2488251E+01  2.4820799E+01
 2.2499752E+01  2.4807341E+01
 2.2511251E+01  2.4855677E+01
 2.2522751E+01  2.4905294E+01
 2.2534250E+01  2.4955040E+01
 2.2545752E+01  2.5017721E+01
 2.2557251E+01  2.5002861E+01
 2.2568750E+01  2.4984522E+01
 2.2580252E+01  2.5002819E+01
 2.2591751E+01  2.5033855E+01
 2.2603251E+01  2.5051992E+01
 2.2614752E+01  2.5076744E+01
 2.2626251E+01  2.5143322E+01
 2.2637751E+01  2.5206541E+01
 2.2649252E+01  2.5227571E+01
 2.2660751E+01  2.5228252E+01
 2.2672251E+01  2.5233374E+01
 2.2683752E+01  2.5287991E+01
 2.2695251E+01  2.5371752E+01
 2.2706751E+01  2.5388592E+01
 2.2718250E+01  2.5447990E+01
 2.2729752E+01  2.5439220E+01
 2.2741251E+01  2.5484581E+01
 2.2752750E+01  2.5508322E+01
 2.2764252E+01  2.5547064E+01
 2.2775751E+01  2.5548340E+01
 2.2787251E+01  2.5528879E+01
 2.2798752E+01  2.5564632E+01
 2.2810251E+01  2.5618242E+01
 2.2821751E+01  2.5673454E+01
 2.2833252E+01  2.5685047E+01
 2.2844751E+01  2.5685915E+01
 2.2856251E+01  2.5726252E+01
 2.2867750E+01  2.5772276E+01
 2.2879251E+01  2.5778709E+01
 2.2890751E+01  2.5822777E+01
 2.2902250E+01  2.5828403E+01
 2.2913752E+01  2.5965639E+01
 2.2925251E+01  2.6067381E+01
 2.2936750E+01  2.6200600E+01
 2.2948252E+01  2.6281824E+01
 2.2959751E+01  2.6320465E+01
 2.2971251E+01  2.6369629E+01
 2.2982752E+01  2.6428135E+01
 2.2994251E+01  2.6520020E+01
