F:\20151113_APS_34IDE\\Brian\Particle1\OCV\Data_0009.tif
2-Theta Angle (Degrees)
Intensity
       2000
 5.7500005E-03  0.0000000E+00
 1.7250001E-02  0.0000000E+00
 2.8750001E-02  0.0000000E+00
 4.0250003E-02  0.0000000E+00
 5.1750004E-02  0.0000000E+00
 6.3250005E-02  0.0000000E+00
 7.4750006E-02  0.0000000E+00
 8.6250007E-02  0.0000000E+00
 9.7750008E-02  0.0000000E+00
 1.0925001E-01  0.0000000E+00
 1.2075000E-01  0.0000000E+00
 1.3225001E-01  0.0000000E+00
 1.4375001E-01  0.0000000E+00
 1.5525001E-01  0.0000000E+00
 1.6675001E-01  0.0000000E+00
 1.7825001E-01  0.0000000E+00
 1.8975002E-01  0.0000000E+00
 2.0125002E-01  0.0000000E+00
 2.1275002E-01  0.0000000E+00
 2.2425000E-01  0.0000000E+00
 2.3575000E-01  0.0000000E+00
 2.4725001E-01  0.0000000E+00
 2.5875002E-01  0.0000000E+00
 2.7025002E-01  0.0000000E+00
 2.8175002E-01  0.0000000E+00
 2.9325002E-01  0.0000000E+00
 3.0475003E-01  0.0000000E+00
 3.1625003E-01  0.0000000E+00
 3.2775003E-01  0.0000000E+00
 3.3925003E-01  0.0000000E+00
 3.5075003E-01  0.0000000E+00
 3.6225003E-01  0.0000000E+00
 3.7375003E-01  0.0000000E+00
 3.8525003E-01  0.0000000E+00
 3.9675003E-01  0.0000000E+00
 4.0825003E-01  0.0000000E+00
 4.1975003E-01  0.0000000E+00
 4.3125004E-01  0.0000000E+00
 4.4275001E-01  0.0000000E+00
 4.5425001E-01  0.0000000E+00
 4.6575001E-01  0.0000000E+00
 4.7725001E-01  0.0000000E+00
 4.8875001E-01  0.0000000E+00
 5.0025004E-01  0.0000000E+00
 5.1175004E-01  0.0000000E+00
 5.2325004E-01  0.0000000E+00
 5.3475004E-01  0.0000000E+00
 5.4625005E-01  0.0000000E+00
 5.5775005E-01  0.0000000E+00
 5.6925005E-01  0.0000000E+00
 5.8075005E-01  0.0000000E+00
 5.9225005E-01  0.0000000E+00
 6.0375005E-01  0.0000000E+00
 6.1525005E-01  0.0000000E+00
 6.2675005E-01  0.0000000E+00
 6.3825005E-01  0.0000000E+00
 6.4975005E-01  0.0000000E+00
 6.6125005E-01  0.0000000E+00
 6.7275006E-01  0.0000000E+00
 6.8425006E-01  0.0000000E+00
 6.9575006E-01  0.0000000E+00
 7.0725006E-01  0.0000000E+00
 7.1875006E-01  0.0000000E+00
 7.3025006E-01  0.0000000E+00
 7.4175006E-01  0.0000000E+00
 7.5325006E-01  0.0000000E+00
 7.6475006E-01  0.0000000E+00
 7.7625006E-01  0.0000000E+00
 7.8775007E-01  0.0000000E+00
 7.9925007E-01  0.0000000E+00
 8.1075007E-01  0.0000000E+00
 8.2225007E-01  0.0000000E+00
 8.3375007E-01  0.0000000E+00
 8.4525007E-01  0.0000000E+00
 8.5675007E-01  0.0000000E+00
 8.6825007E-01  0.0000000E+00
 8.7975001E-01  0.0000000E+00
 8.9125001E-01  0.0000000E+00
 9.0275002E-01  0.0000000E+00
 9.1425002E-01  0.0000000E+00
 9.2575002E-01  0.0000000E+00
 9.3725002E-01  0.0000000E+00
 9.4875002E-01  0.0000000E+00
 9.6025002E-01  0.0000000E+00
 9.7175002E-01  0.0000000E+00
 9.8325002E-01  0.0000000E+00
 9.9475002E-01  0.0000000E+00
 1.0062500E+00  0.0000000E+00
 1.0177500E+00  0.0000000E+00
 1.0292500E+00  0.0000000E+00
 1.0407500E+00  0.0000000E+00
 1.0522500E+00  0.0000000E+00
 1.0637500E+00  0.0000000E+00
 1.0752500E+00  0.0000000E+00
 1.0867500E+00  0.0000000E+00
 1.0982500E+00  0.0000000E+00
 1.1097500E+00  0.0000000E+00
 1.1212500E+00  0.0000000E+00
 1.1327500E+00  0.0000000E+00
 1.1442500E+00  0.0000000E+00
 1.1557500E+00  0.0000000E+00
 1.1672500E+00  0.0000000E+00
 1.1787500E+00  0.0000000E+00
 1.1902500E+00  0.0000000E+00
 1.2017500E+00  0.0000000E+00
 1.2132500E+00  0.0000000E+00
 1.2247500E+00  0.0000000E+00
 1.2362500E+00  0.0000000E+00
 1.2477500E+00  0.0000000E+00
 1.2592500E+00  0.0000000E+00
 1.2707500E+00  0.0000000E+00
 1.2822500E+00  0.0000000E+00
 1.2937500E+00  0.0000000E+00
 1.3052500E+00  0.0000000E+00
 1.3167500E+00  0.0000000E+00
 1.3282501E+00  0.0000000E+00
 1.3397501E+00  0.0000000E+00
 1.3512501E+00  0.0000000E+00
 1.3627501E+00  0.0000000E+00
 1.3742501E+00  0.0000000E+00
 1.3857501E+00  0.0000000E+00
 1.3972501E+00  0.0000000E+00
 1.4087501E+00  0.0000000E+00
 1.4202501E+00  0.0000000E+00
 1.4317501E+00  0.0000000E+00
 1.4432501E+00  0.0000000E+00
 1.4547501E+00  0.0000000E+00
 1.4662501E+00  0.0000000E+00
 1.4777501E+00  0.0000000E+00
 1.4892501E+00  0.0000000E+00
 1.5007501E+00  0.0000000E+00
 1.5122501E+00  0.0000000E+00
 1.5237501E+00  0.0000000E+00
 1.5352501E+00  0.0000000E+00
 1.5467501E+00  0.0000000E+00
 1.5582501E+00  0.0000000E+00
 1.5697501E+00  0.0000000E+00
 1.5812501E+00  0.0000000E+00
 1.5927501E+00  0.0000000E+00
 1.6042501E+00  0.0000000E+00
 1.6157501E+00  0.0000000E+00
 1.6272501E+00  0.0000000E+00
 1.6387501E+00  0.0000000E+00
 1.6502501E+00  0.0000000E+00
 1.6617501E+00  0.0000000E+00
 1.6732501E+00  0.0000000E+00
 1.6847501E+00  0.0000000E+00
 1.6962501E+00  0.0000000E+00
 1.7077501E+00  0.0000000E+00
 1.7192501E+00  0.0000000E+00
 1.7307501E+00  0.0000000E+00
 1.7422501E+00  0.0000000E+00
 1.7537501E+00  0.0000000E+00
 1.7652501E+00  0.0000000E+00
 1.7767501E+00  0.0000000E+00
 1.7882501E+00  0.0000000E+00
 1.7997501E+00  0.0000000E+00
 1.8112501E+00  0.0000000E+00
 1.8227501E+00  0.0000000E+00
 1.8342501E+00  0.0000000E+00
 1.8457501E+00  0.0000000E+00
 1.8572501E+00  0.0000000E+00
 1.8687501E+00  0.0000000E+00
 1.8802501E+00  0.0000000E+00
 1.8917501E+00  0.0000000E+00
 1.9032501E+00  0.0000000E+00
 1.9147501E+00  0.0000000E+00
 1.9262501E+00  0.0000000E+00
 1.9377501E+00  0.0000000E+00
 1.9492501E+00  0.0000000E+00
 1.9607501E+00  0.0000000E+00
 1.9722501E+00  0.0000000E+00
 1.9837501E+00  0.0000000E+00
 1.9952501E+00  0.0000000E+00
 2.0067501E+00  0.0000000E+00
 2.0182500E+00  0.0000000E+00
 2.0297501E+00  0.0000000E+00
 2.0412500E+00  0.0000000E+00
 2.0527501E+00  0.0000000E+00
 2.0642500E+00  0.0000000E+00
 2.0757501E+00  0.0000000E+00
 2.0872500E+00  0.0000000E+00
 2.0987501E+00  0.0000000E+00
 2.1102500E+00  0.0000000E+00
 2.1217501E+00  0.0000000E+00
 2.1332500E+00  0.0000000E+00
 2.1447501E+00  0.0000000E+00
 2.1562500E+00  0.0000000E+00
 2.1677501E+00  0.0000000E+00
 2.1792500E+00  0.0000000E+00
 2.1907501E+00  0.0000000E+00
 2.2022500E+00  0.0000000E+00
 2.2137501E+00  0.0000000E+00
 2.2252500E+00  0.0000000E+00
 2.2367501E+00  0.0000000E+00
 2.2482500E+00  0.0000000E+00
 2.2597501E+00  0.0000000E+00
 2.2712500E+00  0.0000000E+00
 2.2827501E+00  0.0000000E+00
 2.2942500E+00  0.0000000E+00
 2.3057501E+00  0.0000000E+00
 2.3172500E+00  0.0000000E+00
 2.3287501E+00  0.0000000E+00
 2.3402500E+00  0.0000000E+00
 2.3517501E+00  0.0000000E+00
 2.3632500E+00  0.0000000E+00
 2.3747501E+00  0.0000000E+00
 2.3862500E+00  0.0000000E+00
 2.3977501E+00  0.0000000E+00
 2.4092500E+00  0.0000000E+00
 2.4207501E+00  0.0000000E+00
 2.4322500E+00  0.0000000E+00
 2.4437501E+00  0.0000000E+00
 2.4552500E+00  0.0000000E+00
 2.4667501E+00  0.0000000E+00
 2.4782500E+00  0.0000000E+00
 2.4897501E+00  0.0000000E+00
 2.5012500E+00  0.0000000E+00
 2.5127501E+00  0.0000000E+00
 2.5242500E+00  0.0000000E+00
 2.5357502E+00  0.0000000E+00
 2.5472500E+00  0.0000000E+00
 2.5587502E+00  0.0000000E+00
 2.5702500E+00  0.0000000E+00
 2.5817502E+00  0.0000000E+00
 2.5932500E+00  0.0000000E+00
 2.6047502E+00  0.0000000E+00
 2.6162500E+00  0.0000000E+00
 2.6277502E+00  0.0000000E+00
 2.6392500E+00  0.0000000E+00
 2.6507502E+00  0.0000000E+00
 2.6622500E+00  0.0000000E+00
 2.6737502E+00  0.0000000E+00
 2.6852500E+00  0.0000000E+00
 2.6967502E+00  0.0000000E+00
 2.7082500E+00  0.0000000E+00
 2.7197502E+00  0.0000000E+00
 2.7312500E+00  0.0000000E+00
 2.7427502E+00  0.0000000E+00
 2.7542500E+00  0.0000000E+00
 2.7657502E+00  0.0000000E+00
 2.7772501E+00  0.0000000E+00
 2.7887502E+00  0.0000000E+00
 2.8002501E+00  0.0000000E+00
 2.8117502E+00  0.0000000E+00
 2.8232501E+00  3.3167034E+01
 2.8347502E+00  3.4766541E+01
 2.8462501E+00  3.4736767E+01
 2.8577502E+00  3.4645580E+01
 2.8692501E+00  3.4718327E+01
 2.8807502E+00  3.4915634E+01
 2.8922501E+00  3.5048649E+01
 2.9037502E+00  3.5016117E+01
 2.9152501E+00  3.4916660E+01
 2.9267502E+00  3.4824001E+01
 2.9382501E+00  3.4923691E+01
 2.9497502E+00  3.5000072E+01
 2.9612501E+00  3.5139965E+01
 2.9727502E+00  3.5431816E+01
 2.9842501E+00  3.5404144E+01
 2.9957502E+00  3.5482998E+01
 3.0072501E+00  3.5377792E+01
 3.0187502E+00  3.5354923E+01
 3.0302501E+00  3.5536514E+01
 3.0417502E+00  3.5666332E+01
 3.0532501E+00  3.5951588E+01
 3.0647502E+00  3.6302032E+01
 3.0762501E+00  3.6245193E+01
 3.0877502E+00  3.6160099E+01
 3.0992501E+00  3.5992908E+01
 3.1107502E+00  3.5535961E+01
 3.1222501E+00  3.5396500E+01
 3.1337502E+00  3.5126907E+01
 3.1452501E+00  3.5208714E+01
 3.1567502E+00  3.5260311E+01
 3.1682501E+00  3.5370773E+01
 3.1797502E+00  3.5461555E+01
 3.1912501E+00  3.5537060E+01
 3.2027502E+00  3.5455769E+01
 3.2142501E+00  3.5555981E+01
 3.2257502E+00  3.5585011E+01
 3.2372501E+00  3.5562160E+01
 3.2487502E+00  3.5378315E+01
 3.2602501E+00  3.5337021E+01
 3.2717502E+00  3.5229107E+01
 3.2832501E+00  3.5250233E+01
 3.2947502E+00  3.5141155E+01
 3.3062501E+00  3.4893871E+01
 3.3177502E+00  3.4913960E+01
 3.3292501E+00  3.4896152E+01
 3.3407502E+00  3.5084801E+01
 3.3522501E+00  3.5081505E+01
 3.3637502E+00  3.5037647E+01
 3.3752501E+00  3.4883568E+01
 3.3867502E+00  3.4743813E+01
 3.3982501E+00  3.4553524E+01
 3.4097502E+00  3.4617893E+01
 3.4212501E+00  3.4535221E+01
 3.4327502E+00  3.4192303E+01
 3.4442501E+00  3.3801914E+01
 3.4557502E+00  3.3781242E+01
 3.4672501E+00  3.4010139E+01
 3.4787502E+00  3.4201344E+01
 3.4902501E+00  3.4180710E+01
 3.5017502E+00  3.4198353E+01
 3.5132501E+00  3.4282990E+01
 3.5247502E+00  3.4378941E+01
 3.5362501E+00  3.4746506E+01
 3.5477502E+00  3.4883091E+01
 3.5592501E+00  3.5013000E+01
 3.5707502E+00  3.4632351E+01
 3.5822501E+00  3.4384174E+01
 3.5937502E+00  3.4071815E+01
 3.6052501E+00  3.3964680E+01
 3.6167502E+00  3.3795082E+01
 3.6282501E+00  3.3657185E+01
 3.6397502E+00  3.3597420E+01
 3.6512501E+00  3.3383080E+01
 3.6627502E+00  3.3320683E+01
 3.6742501E+00  3.3158180E+01
 3.6857502E+00  3.3135445E+01
 3.6972501E+00  3.3045528E+01
 3.7087502E+00  3.2905174E+01
 3.7202501E+00  3.2718002E+01
 3.7317502E+00  3.2612305E+01
 3.7432501E+00  3.2680901E+01
 3.7547503E+00  3.2758305E+01
 3.7662501E+00  3.3049736E+01
 3.7777503E+00  3.3097462E+01
 3.7892501E+00  3.3133812E+01
 3.8007503E+00  3.3007835E+01
 3.8122501E+00  3.2759350E+01
 3.8237503E+00  3.2808521E+01
 3.8352501E+00  3.2815552E+01
 3.8467503E+00  3.2908958E+01
 3.8582501E+00  3.2872139E+01
 3.8697503E+00  3.2736298E+01
 3.8812501E+00  3.2579414E+01
 3.8927503E+00  3.2404995E+01
 3.9042501E+00  3.2250462E+01
 3.9157503E+00  3.2187134E+01
 3.9272501E+00  3.2244820E+01
 3.9387503E+00  3.2263336E+01
 3.9502501E+00  3.2370148E+01
 3.9617503E+00  3.2444130E+01
 3.9732502E+00  3.2675373E+01
 3.9847503E+00  3.2818481E+01
 3.9962502E+00  3.2923237E+01
 4.0077500E+00  3.2837254E+01
 4.0192504E+00  3.2840057E+01
 4.0307503E+00  3.2635986E+01
 4.0422502E+00  3.2641315E+01
 4.0537500E+00  3.2478306E+01
 4.0652504E+00  3.2381729E+01
 4.0767503E+00  3.2186405E+01
 4.0882502E+00  3.2254143E+01
 4.0997500E+00  3.2419662E+01
 4.1112504E+00  3.2569740E+01
 4.1227503E+00  3.2623886E+01
 4.1342502E+00  3.2657242E+01
 4.1457500E+00  3.2641438E+01
 4.1572504E+00  3.2549282E+01
 4.1687503E+00  3.2497692E+01
 4.1802502E+00  3.2398983E+01
 4.1917500E+00  3.2396042E+01
 4.2032504E+00  3.2356564E+01
 4.2147503E+00  3.2325474E+01
 4.2262502E+00  3.2165958E+01
 4.2377501E+00  3.1964945E+01
 4.2492504E+00  3.1780455E+01
 4.2607503E+00  3.1824957E+01
 4.2722502E+00  3.1814434E+01
 4.2837501E+00  3.1847395E+01
 4.2952504E+00  3.1815804E+01
 4.3067503E+00  3.1832846E+01
 4.3182502E+00  3.1885302E+01
 4.3297501E+00  3.1886103E+01
 4.3412504E+00  3.1871742E+01
 4.3527503E+00  3.2107605E+01
 4.3642502E+00  3.2213993E+01
 4.3757501E+00  3.2403828E+01
 4.3872504E+00  3.2360077E+01
 4.3987503E+00  3.2419556E+01
 4.4102502E+00  3.2445152E+01
 4.4217501E+00  3.2374683E+01
 4.4332504E+00  3.2398579E+01
 4.4447503E+00  3.2311874E+01
 4.4562502E+00  3.2373417E+01
 4.4677501E+00  3.2254684E+01
 4.4792504E+00  3.2355221E+01
 4.4907503E+00  3.2327126E+01
 4.5022502E+00  3.2357521E+01
 4.5137501E+00  3.2259232E+01
 4.5252504E+00  3.2277596E+01
 4.5367503E+00  3.2300179E+01
 4.5482502E+00  3.2341461E+01
 4.5597501E+00  3.2431156E+01
 4.5712504E+00  3.2562504E+01
 4.5827503E+00  3.2690628E+01
 4.5942502E+00  3.2814640E+01
 4.6057501E+00  3.2999329E+01
 4.6172504E+00  3.3005344E+01
 4.6287503E+00  3.3144112E+01
 4.6402502E+00  3.3152714E+01
 4.6517501E+00  3.3100204E+01
 4.6632504E+00  3.3060844E+01
 4.6747503E+00  3.2890747E+01
 4.6862502E+00  3.2800686E+01
 4.6977501E+00  3.2883427E+01
 4.7092505E+00  3.2845364E+01
 4.7207503E+00  3.2952477E+01
 4.7322502E+00  3.2879887E+01
 4.7437501E+00  3.2885986E+01
 4.7552505E+00  3.2910370E+01
 4.7667503E+00  3.3005112E+01
 4.7782502E+00  3.2902245E+01
 4.7897501E+00  3.2933414E+01
 4.8012505E+00  3.2745621E+01
 4.8127503E+00  3.2708538E+01
 4.8242502E+00  3.2767113E+01
 4.8357501E+00  3.2840496E+01
 4.8472505E+00  3.2979633E+01
 4.8587503E+00  3.3137356E+01
 4.8702502E+00  3.3215134E+01
 4.8817501E+00  3.3146824E+01
 4.8932505E+00  3.3099487E+01
 4.9047503E+00  3.3005917E+01
 4.9162502E+00  3.3102943E+01
 4.9277501E+00  3.3053955E+01
 4.9392505E+00  3.3053268E+01
 4.9507504E+00  3.3072937E+01
 4.9622502E+00  3.2953239E+01
 4.9737501E+00  3.2820885E+01
 4.9852505E+00  3.2830570E+01
 4.9967504E+00  3.2865559E+01
 5.0082502E+00  3.3032307E+01
 5.0197501E+00  3.3027676E+01
 5.0312505E+00  3.3167854E+01
 5.0427504E+00  3.3236034E+01
 5.0542502E+00  3.3214893E+01
 5.0657501E+00  3.3136227E+01
 5.0772505E+00  3.3107765E+01
 5.0887504E+00  3.3114906E+01
 5.1002502E+00  3.3206455E+01
 5.1117501E+00  3.3201973E+01
 5.1232505E+00  3.3172527E+01
 5.1347504E+00  3.3199738E+01
 5.1462502E+00  3.3226875E+01
 5.1577501E+00  3.3347656E+01
 5.1692505E+00  3.3337193E+01
 5.1807504E+00  3.3545685E+01
 5.1922503E+00  3.3722435E+01
 5.2037501E+00  3.3822376E+01
 5.2152505E+00  3.3885502E+01
 5.2267504E+00  3.3812653E+01
 5.2382503E+00  3.3903824E+01
 5.2497501E+00  3.3885323E+01
 5.2612505E+00  3.4014553E+01
 5.2727504E+00  3.4063091E+01
 5.2842503E+00  3.4132267E+01
 5.2957501E+00  3.4209442E+01
 5.3072500E+00  3.4251545E+01
 5.3187504E+00  3.4259422E+01
 5.3302503E+00  3.4199570E+01
 5.3417501E+00  3.4202557E+01
 5.3532500E+00  3.4245575E+01
 5.3647504E+00  3.4291050E+01
 5.3762503E+00  3.4425495E+01
 5.3877501E+00  3.4548580E+01
 5.3992500E+00  3.4621979E+01
 5.4107504E+00  3.4572041E+01
 5.4222503E+00  3.4601784E+01
 5.4337502E+00  3.4555294E+01
 5.4452500E+00  3.4716808E+01
 5.4567504E+00  3.4721306E+01
 5.4682503E+00  3.4921124E+01
 5.4797502E+00  3.4910080E+01
 5.4912500E+00  3.4948002E+01
 5.5027504E+00  3.4912098E+01
 5.5142503E+00  3.4950878E+01
 5.5257502E+00  3.4895931E+01
 5.5372500E+00  3.4786568E+01
 5.5487504E+00  3.4714478E+01
 5.5602503E+00  3.4693375E+01
 5.5717502E+00  3.4762360E+01
 5.5832500E+00  3.4926579E+01
 5.5947504E+00  3.5055344E+01
 5.6062503E+00  3.5198738E+01
 5.6177502E+00  3.5292446E+01
 5.6292500E+00  3.5383121E+01
 5.6407504E+00  3.5391853E+01
 5.6522503E+00  3.5429859E+01
 5.6637502E+00  3.5498745E+01
 5.6752501E+00  3.5630020E+01
 5.6867504E+00  3.5616024E+01
 5.6982503E+00  3.5547085E+01
 5.7097502E+00  3.5935783E+01
 5.7212501E+00  3.6068741E+01
 5.7327504E+00  3.6131866E+01
 5.7442503E+00  3.5790291E+01
 5.7557502E+00  3.5619362E+01
 5.7672501E+00  3.5620392E+01
 5.7787504E+00  3.5551865E+01
 5.7902503E+00  3.5524624E+01
 5.8017502E+00  3.5559654E+01
 5.8132501E+00  3.5599724E+01
 5.8247504E+00  3.5643768E+01
 5.8362503E+00  3.5749340E+01
 5.8477502E+00  3.5888622E+01
 5.8592501E+00  3.6051983E+01
 5.8707504E+00  3.6253853E+01
 5.8822503E+00  3.6410831E+01
 5.8937502E+00  3.6679569E+01
 5.9052501E+00  3.6810791E+01
 5.9167504E+00  3.6956844E+01
 5.9282503E+00  3.8120735E+01
 5.9397502E+00  3.8492424E+01
 5.9512501E+00  4.0086426E+01
 5.9627504E+00  4.3742569E+01
 5.9742503E+00  4.4337082E+01
 5.9857502E+00  4.7954067E+01
 5.9972501E+00  4.9534435E+01
 6.0087504E+00  4.8813744E+01
 6.0202503E+00  4.8146114E+01
 6.0317502E+00  4.2489651E+01
 6.0432501E+00  4.2034092E+01
 6.0547504E+00  3.9721516E+01
 6.0662503E+00  3.7897255E+01
 6.0777502E+00  3.7785618E+01
 6.0892501E+00  3.7057693E+01
 6.1007504E+00  3.6851097E+01
 6.1122503E+00  3.6966400E+01
 6.1237502E+00  3.6965546E+01
 6.1352501E+00  3.7001118E+01
 6.1467505E+00  3.6902897E+01
 6.1582503E+00  3.6836838E+01
 6.1697502E+00  3.6953960E+01
 6.1812501E+00  3.7073715E+01
 6.1927505E+00  3.7258621E+01
 6.2042503E+00  3.7264618E+01
 6.2157502E+00  3.7264496E+01
 6.2272501E+00  3.7198460E+01
 6.2387505E+00  3.7216377E+01
 6.2502503E+00  3.7190548E+01
 6.2617502E+00  3.7227146E+01
 6.2732501E+00  3.7297638E+01
 6.2847505E+00  3.7432590E+01
 6.2962503E+00  3.7470364E+01
 6.3077502E+00  3.7604404E+01
 6.3192501E+00  3.7668011E+01
 6.3307505E+00  3.7909653E+01
 6.3422503E+00  3.7992867E+01
 6.3537502E+00  3.8201267E+01
 6.3652501E+00  3.8142323E+01
 6.3767505E+00  3.8241085E+01
 6.3882504E+00  3.8221825E+01
 6.3997502E+00  3.8291809E+01
 6.4112501E+00  3.8361111E+01
 6.4227505E+00  3.8359043E+01
 6.4342504E+00  3.8442776E+01
 6.4457502E+00  3.8507942E+01
 6.4572501E+00  3.8565159E+01
 6.4687505E+00  3.8618202E+01
 6.4802504E+00  3.8671780E+01
 6.4917502E+00  3.8764023E+01
 6.5032501E+00  3.8929733E+01
 6.5147505E+00  3.9049400E+01
 6.5262504E+00  3.9188057E+01
 6.5377502E+00  3.9301830E+01
 6.5492501E+00  3.9371273E+01
 6.5607505E+00  3.9495430E+01
 6.5722504E+00  3.9600246E+01
 6.5837502E+00  3.9687912E+01
 6.5952501E+00  3.9701870E+01
 6.6067505E+00  3.9730461E+01
 6.6182504E+00  3.9753502E+01
 6.6297503E+00  3.9791649E+01
 6.6412501E+00  3.9810253E+01
 6.6527505E+00  3.9909115E+01
 6.6642504E+00  4.0050819E+01
 6.6757503E+00  4.0138145E+01
 6.6872501E+00  4.0085140E+01
 6.6987505E+00  4.0103115E+01
 6.7102504E+00  4.0171444E+01
 6.7217503E+00  4.0329685E+01
 6.7332501E+00  4.0474739E+01
 6.7447505E+00  4.0535362E+01
 6.7562504E+00  4.0744518E+01
 6.7677503E+00  4.0845066E+01
 6.7792501E+00  4.1103554E+01
 6.7907505E+00  4.1293644E+01
 6.8022504E+00  4.1432510E+01
 6.8137503E+00  4.1519188E+01
 6.8252501E+00  4.1541588E+01
 6.8367505E+00  4.1586563E+01
 6.8482504E+00  4.1549511E+01
 6.8597503E+00  4.1530621E+01
 6.8712502E+00  4.1525848E+01
 6.8827505E+00  4.1652397E+01
 6.8942504E+00  4.1668701E+01
 6.9057503E+00  4.1647110E+01
 6.9172502E+00  4.1604206E+01
 6.9287505E+00  4.1635929E+01
 6.9402504E+00  4.1642128E+01
 6.9517503E+00  4.1683994E+01
 6.9632502E+00  4.1745739E+01
 6.9747505E+00  4.1945919E+01
 6.9862504E+00  4.2080677E+01
 6.9977503E+00  4.2105030E+01
 7.0092502E+00  4.2115131E+01
 7.0207505E+00  4.2188240E+01
 7.0322504E+00  4.2283569E+01
 7.0437503E+00  4.2455433E+01
 7.0552502E+00  4.2568592E+01
 7.0667505E+00  4.2689358E+01
 7.0782504E+00  4.2727596E+01
 7.0897503E+00  4.2793797E+01
 7.1012502E+00  4.2931984E+01
 7.1127505E+00  4.2990688E+01
 7.1242504E+00  4.3074928E+01
 7.1357503E+00  4.3109016E+01
 7.1472502E+00  4.3139511E+01
 7.1587505E+00  4.3095253E+01
 7.1702504E+00  4.3146729E+01
 7.1817503E+00  4.3225571E+01
 7.1932502E+00  4.3354633E+01
 7.2047505E+00  4.3408218E+01
 7.2162504E+00  4.3446678E+01
 7.2277503E+00  4.3464745E+01
 7.2392502E+00  4.3416729E+01
 7.2507505E+00  4.3429813E+01
 7.2622504E+00  4.3475273E+01
 7.2737503E+00  4.3563267E+01
 7.2852502E+00  4.3585167E+01
 7.2967505E+00  4.3597168E+01
 7.3082504E+00  4.3651649E+01
 7.3197503E+00  4.3697552E+01
 7.3312502E+00  4.3702423E+01
 7.3427505E+00  4.3679459E+01
 7.3542504E+00  4.3743660E+01
 7.3657503E+00  4.3768921E+01
 7.3772502E+00  4.3879898E+01
 7.3887506E+00  4.3951199E+01
 7.4002504E+00  4.4102238E+01
 7.4117503E+00  4.4226238E+01
 7.4232502E+00  4.4284081E+01
 7.4347506E+00  4.4295780E+01
 7.4462504E+00  4.4221878E+01
 7.4577503E+00  4.4151028E+01
 7.4692502E+00  4.4092297E+01
 7.4807506E+00  4.4160095E+01
 7.4922504E+00  4.4249619E+01
 7.5037503E+00  4.4345940E+01
 7.5152502E+00  4.4258053E+01
 7.5267506E+00  4.4207443E+01
 7.5382504E+00  4.4249329E+01
 7.5497503E+00  4.4337402E+01
 7.5612502E+00  4.4406540E+01
 7.5727506E+00  4.4317341E+01
 7.5842505E+00  4.4392025E+01
 7.5957503E+00  4.4364277E+01
 7.6072502E+00  4.4484035E+01
 7.6187506E+00  4.4447052E+01
 7.6302505E+00  4.4479576E+01
 7.6417503E+00  4.4444790E+01
 7.6532502E+00  4.4478439E+01
 7.6647506E+00  4.4498730E+01
 7.6762505E+00  4.4465153E+01
 7.6877503E+00  4.4467949E+01
 7.6992502E+00  4.4413612E+01
 7.7107506E+00  4.4474316E+01
 7.7222505E+00  4.4488831E+01
 7.7337503E+00  4.4522259E+01
 7.7452502E+00  4.4509087E+01
 7.7567506E+00  4.4452988E+01
 7.7682505E+00  4.4370075E+01
 7.7797503E+00  4.4308556E+01
 7.7912502E+00  4.4272747E+01
 7.8027506E+00  4.4217590E+01
 7.8142505E+00  4.4181114E+01
 7.8257504E+00  4.4077301E+01
 7.8372502E+00  4.4059727E+01
 7.8487506E+00  4.4068333E+01
 7.8602505E+00  4.4095795E+01
 7.8717504E+00  4.4033253E+01
 7.8832502E+00  4.3963390E+01
 7.8947506E+00  4.3901272E+01
 7.9062505E+00  4.3882793E+01
 7.9177504E+00  4.3845844E+01
 7.9292502E+00  4.3753605E+01
 7.9407506E+00  4.3740818E+01
 7.9522505E+00  4.3708321E+01
 7.9637504E+00  4.3690178E+01
 7.9752502E+00  4.3651531E+01
 7.9867506E+00  4.3648804E+01
 7.9982505E+00  4.3655247E+01
 8.0097504E+00  4.3542805E+01
 8.0212507E+00  4.3370365E+01
 8.0327501E+00  4.3312065E+01
 8.0442505E+00  4.3294437E+01
 8.0557508E+00  4.3293991E+01
 8.0672503E+00  4.3108101E+01
 8.0787506E+00  4.2976608E+01
 8.0902500E+00  4.2952255E+01
 8.1017504E+00  4.2939095E+01
 8.1132507E+00  4.2975487E+01
 8.1247501E+00  4.2890217E+01
 8.1362505E+00  4.2778748E+01
 8.1477509E+00  4.2621475E+01
 8.1592503E+00  4.2442760E+01
 8.1707506E+00  4.2349197E+01
 8.1822500E+00  4.2254475E+01
 8.1937504E+00  4.2186001E+01
 8.2052507E+00  4.2066391E+01
 8.2167501E+00  4.1902351E+01
 8.2282505E+00  4.1740891E+01
 8.2397509E+00  4.1687260E+01
 8.2512503E+00  4.1579102E+01
 8.2627506E+00  4.1463257E+01
 8.2742500E+00  4.1308651E+01
 8.2857504E+00  4.1114517E+01
 8.2972507E+00  4.0962349E+01
 8.3087502E+00  4.0783100E+01
 8.3202505E+00  4.0647938E+01
 8.3317509E+00  4.0410961E+01
 8.3432503E+00  4.0174900E+01
 8.3547506E+00  3.9956837E+01
 8.3662500E+00  3.9862331E+01
 8.3777504E+00  3.9702324E+01
 8.3892508E+00  3.9548683E+01
 8.4007502E+00  3.9480202E+01
 8.4122505E+00  3.9448273E+01
 8.4237509E+00  3.9392662E+01
 8.4352503E+00  3.9234200E+01
 8.4467506E+00  3.9019161E+01
 8.4582500E+00  3.8796009E+01
 8.4697504E+00  3.8581451E+01
 8.4812508E+00  3.8360706E+01
 8.4927502E+00  3.8160141E+01
 8.5042505E+00  3.8002438E+01
 8.5157509E+00  3.7904858E+01
 8.5272503E+00  3.7800137E+01
 8.5387506E+00  3.7677811E+01
 8.5502501E+00  3.7441471E+01
 8.5617504E+00  3.7257420E+01
 8.5732508E+00  3.7083199E+01
 8.5847502E+00  3.6873535E+01
 8.5962505E+00  3.6680050E+01
 8.6077509E+00  3.6411694E+01
 8.6192503E+00  3.6285526E+01
 8.6307507E+00  3.6079094E+01
 8.6422501E+00  3.5938610E+01
 8.6537504E+00  3.5676083E+01
 8.6652508E+00  3.5493587E+01
 8.6767502E+00  3.5293320E+01
 8.6882505E+00  3.5155296E+01
 8.6997509E+00  3.5120476E+01
 8.7112503E+00  3.4981625E+01
 8.7227507E+00  3.4916267E+01
 8.7342501E+00  3.4675423E+01
 8.7457504E+00  3.4479050E+01
 8.7572508E+00  3.4220142E+01
 8.7687502E+00  3.4060909E+01
 8.7802505E+00  3.3881409E+01
 8.7917500E+00  3.3705009E+01
 8.8032503E+00  3.3566093E+01
 8.8147507E+00  3.3428436E+01
 8.8262501E+00  3.3273006E+01
 8.8377504E+00  3.3156399E+01
 8.8492508E+00  3.2981758E+01
 8.8607502E+00  3.2820930E+01
 8.8722506E+00  3.2568062E+01
 8.8837500E+00  3.2394897E+01
 8.8952503E+00  3.2247402E+01
 8.9067507E+00  3.2134987E+01
 8.9182501E+00  3.1954473E+01
 8.9297504E+00  3.1823608E+01
 8.9412508E+00  3.1672121E+01
 8.9527502E+00  3.1513977E+01
 8.9642506E+00  3.1383617E+01
 8.9757500E+00  3.1213064E+01
 8.9872503E+00  3.1147993E+01
 8.9987507E+00  3.0958370E+01
 9.0102501E+00  3.0760620E+01
 9.0217505E+00  3.0566723E+01
 9.0332508E+00  3.0415110E+01
 9.0447502E+00  3.0293644E+01
 9.0562506E+00  3.0175161E+01
 9.0677500E+00  3.0039530E+01
 9.0792503E+00  2.9882887E+01
 9.0907507E+00  2.9689554E+01
 9.1022501E+00  2.9559048E+01
 9.1137505E+00  2.9472532E+01
 9.1252508E+00  2.9397192E+01
 9.1367502E+00  2.9303823E+01
 9.1482506E+00  2.9230160E+01
 9.1597500E+00  2.9172155E+01
 9.1712503E+00  2.9081999E+01
 9.1827507E+00  2.8965349E+01
 9.1942501E+00  2.8813696E+01
 9.2057505E+00  2.8679935E+01
 9.2172508E+00  2.8575920E+01
 9.2287502E+00  2.8416740E+01
 9.2402506E+00  2.8319674E+01
 9.2517500E+00  2.8230444E+01
 9.2632504E+00  2.8126955E+01
 9.2747507E+00  2.7992121E+01
 9.2862501E+00  2.7771782E+01
 9.2977505E+00  2.7624260E+01
 9.3092508E+00  2.7511690E+01
 9.3207502E+00  2.7456814E+01
 9.3322506E+00  2.7453215E+01
 9.3437500E+00  2.7344193E+01
 9.3552504E+00  2.7300503E+01
 9.3667507E+00  2.7279402E+01
 9.3782501E+00  2.7242645E+01
 9.3897505E+00  2.7204597E+01
 9.4012508E+00  2.7189234E+01
 9.4127502E+00  2.7142006E+01
 9.4242506E+00  2.7071465E+01
 9.4357500E+00  2.6968180E+01
 9.4472504E+00  2.6892075E+01
 9.4587507E+00  2.6863096E+01
 9.4702501E+00  2.6759117E+01
 9.4817505E+00  2.6754103E+01
 9.4932508E+00  2.6634464E+01
 9.5047503E+00  2.6513678E+01
 9.5162506E+00  2.6367357E+01
 9.5277500E+00  2.6276403E+01
 9.5392504E+00  2.6207735E+01
 9.5507507E+00  2.6113997E+01
 9.5622501E+00  2.6091167E+01
 9.5737505E+00  2.6079937E+01
 9.5852509E+00  2.6087107E+01
 9.5967503E+00  2.6082582E+01
 9.6082506E+00  2.6029169E+01
 9.6197500E+00  2.5956066E+01
 9.6312504E+00  2.5840580E+01
 9.6427507E+00  2.5689714E+01
 9.6542501E+00  2.5574341E+01
 9.6657505E+00  2.5516506E+01
 9.6772509E+00  2.5407764E+01
 9.6887503E+00  2.5312290E+01
 9.7002506E+00  2.5210110E+01
 9.7117500E+00  2.5227568E+01
 9.7232504E+00  2.5284773E+01
 9.7347507E+00  2.5317625E+01
 9.7462502E+00  2.5306534E+01
 9.7577505E+00  2.5225618E+01
 9.7692509E+00  2.5137093E+01
 9.7807503E+00  2.5124641E+01
 9.7922506E+00  2.5091032E+01
 9.8037500E+00  2.5092430E+01
 9.8152504E+00  2.4997253E+01
 9.8267508E+00  2.4960075E+01
 9.8382502E+00  2.4819134E+01
 9.8497505E+00  2.4696154E+01
 9.8612509E+00  2.4598974E+01
 9.8727503E+00  2.4575409E+01
 9.8842506E+00  2.4538010E+01
 9.8957500E+00  2.4520641E+01
 9.9072504E+00  2.4475964E+01
 9.9187508E+00  2.4449408E+01
 9.9302502E+00  2.4383152E+01
 9.9417505E+00  2.4329163E+01
 9.9532509E+00  2.4274746E+01
 9.9647503E+00  2.4275562E+01
 9.9762506E+00  2.4256435E+01
 9.9877501E+00  2.4278217E+01
 9.9992504E+00  2.4222576E+01
 1.0010751E+01  2.4131533E+01
 1.0022250E+01  2.4065948E+01
 1.0033751E+01  2.4025326E+01
 1.0045251E+01  2.4068544E+01
 1.0056750E+01  2.4039248E+01
 1.0068251E+01  2.4019356E+01
 1.0079750E+01  2.3993900E+01
 1.0091250E+01  2.3953894E+01
 1.0102751E+01  2.3959068E+01
 1.0114250E+01  2.3871187E+01
 1.0125751E+01  2.3872858E+01
 1.0137251E+01  2.3826834E+01
 1.0148750E+01  2.3849535E+01
 1.0160251E+01  2.3835693E+01
 1.0171750E+01  2.3837580E+01
 1.0183250E+01  2.3796518E+01
 1.0194751E+01  2.3780447E+01
 1.0206250E+01  2.3774649E+01
 1.0217751E+01  2.3832174E+01
 1.0229251E+01  2.3831961E+01
 1.0240750E+01  2.3841379E+01
 1.0252251E+01  2.3752539E+01
 1.0263750E+01  2.3663340E+01
 1.0275250E+01  2.3576359E+01
 1.0286751E+01  2.3495586E+01
 1.0298250E+01  2.3455093E+01
 1.0309751E+01  2.3394476E+01
 1.0321251E+01  2.3341024E+01
 1.0332750E+01  2.3333450E+01
 1.0344251E+01  2.3301796E+01
 1.0355750E+01  2.3306786E+01
 1.0367250E+01  2.3309996E+01
 1.0378751E+01  2.3313519E+01
 1.0390250E+01  2.3390902E+01
 1.0401751E+01  2.3413631E+01
 1.0413251E+01  2.3406538E+01
 1.0424750E+01  2.3331347E+01
 1.0436251E+01  2.3284172E+01
 1.0447750E+01  2.3230350E+01
 1.0459250E+01  2.3176207E+01
 1.0470751E+01  2.3169760E+01
 1.0482250E+01  2.3193363E+01
 1.0493751E+01  2.3182226E+01
 1.0505251E+01  2.3128883E+01
 1.0516750E+01  2.3109131E+01
 1.0528251E+01  2.3076607E+01
 1.0539750E+01  2.3064386E+01
 1.0551250E+01  2.3058119E+01
 1.0562751E+01  2.3123531E+01
 1.0574250E+01  2.3126804E+01
 1.0585751E+01  2.3082195E+01
 1.0597251E+01  2.3049314E+01
 1.0608750E+01  2.3085239E+01
 1.0620251E+01  2.3135529E+01
 1.0631750E+01  2.3144424E+01
 1.0643250E+01  2.3054655E+01
 1.0654751E+01  2.2972631E+01
 1.0666250E+01  2.2856070E+01
 1.0677751E+01  2.2766922E+01
 1.0689251E+01  2.2735659E+01
 1.0700750E+01  2.2772903E+01
 1.0712251E+01  2.2844521E+01
 1.0723750E+01  2.2895460E+01
 1.0735250E+01  2.2932381E+01
 1.0746751E+01  2.2965441E+01
 1.0758250E+01  2.2941158E+01
 1.0769751E+01  2.2884787E+01
 1.0781251E+01  2.2850494E+01
 1.0792750E+01  2.2778088E+01
 1.0804251E+01  2.2707048E+01
 1.0815750E+01  2.2635532E+01
 1.0827250E+01  2.2613050E+01
 1.0838751E+01  2.2575218E+01
 1.0850250E+01  2.2584139E+01
 1.0861751E+01  2.2598536E+01
 1.0873251E+01  2.2680149E+01
 1.0884750E+01  2.2625502E+01
 1.0896251E+01  2.2637516E+01
 1.0907750E+01  2.2617044E+01
 1.0919250E+01  2.2662313E+01
 1.0930751E+01  2.2669313E+01
 1.0942250E+01  2.2648869E+01
 1.0953751E+01  2.2644997E+01
 1.0965251E+01  2.2555994E+01
 1.0976750E+01  2.2574242E+01
 1.0988251E+01  2.2508001E+01
 1.0999750E+01  2.2497021E+01
 1.1011250E+01  2.2390392E+01
 1.1022751E+01  2.2400824E+01
 1.1034250E+01  2.2361530E+01
 1.1045751E+01  2.2329725E+01
 1.1057251E+01  2.2292612E+01
 1.1068750E+01  2.2356222E+01
 1.1080251E+01  2.2379250E+01
 1.1091750E+01  2.2458607E+01
 1.1103251E+01  2.2508627E+01
 1.1114751E+01  2.2557949E+01
 1.1126250E+01  2.2618546E+01
 1.1137751E+01  2.2563282E+01
 1.1149251E+01  2.2589205E+01
 1.1160750E+01  2.2502666E+01
 1.1172251E+01  2.2484743E+01
 1.1183750E+01  2.2456972E+01
 1.1195251E+01  2.2431753E+01
 1.1206751E+01  2.2432219E+01
 1.1218250E+01  2.2419025E+01
 1.1229751E+01  2.2340818E+01
 1.1241251E+01  2.2282328E+01
 1.1252750E+01  2.2197468E+01
 1.1264251E+01  2.2259964E+01
 1.1275750E+01  2.2272779E+01
 1.1287251E+01  2.2324209E+01
 1.1298751E+01  2.2320587E+01
 1.1310250E+01  2.2353157E+01
 1.1321751E+01  2.2356861E+01
 1.1333251E+01  2.2374027E+01
 1.1344750E+01  2.2401512E+01
 1.1356251E+01  2.2430513E+01
 1.1367750E+01  2.2529613E+01
 1.1379251E+01  2.2551991E+01
 1.1390751E+01  2.2640799E+01
 1.1402250E+01  2.2793510E+01
 1.1413751E+01  2.2797264E+01
 1.1425251E+01  2.2821257E+01
 1.1436750E+01  2.2726088E+01
 1.1448251E+01  2.2780043E+01
 1.1459750E+01  2.2725718E+01
 1.1471251E+01  2.2620539E+01
 1.1482751E+01  2.2521421E+01
 1.1494250E+01  2.2460552E+01
 1.1505751E+01  2.2402428E+01
 1.1517251E+01  2.2452095E+01
 1.1528750E+01  2.2639198E+01
 1.1540251E+01  2.2870796E+01
 1.1551750E+01  2.3216391E+01
 1.1563251E+01  2.3768665E+01
 1.1574751E+01  2.4344486E+01
 1.1586250E+01  2.4885092E+01
 1.1597751E+01  2.5384583E+01
 1.1609251E+01  2.5166801E+01
 1.1620750E+01  2.4755259E+01
 1.1632251E+01  2.3925156E+01
 1.1643750E+01  2.3493195E+01
 1.1655251E+01  2.3133152E+01
 1.1666751E+01  2.2798079E+01
 1.1678250E+01  2.2704063E+01
 1.1689751E+01  2.2534391E+01
 1.1701251E+01  2.2460613E+01
 1.1712750E+01  2.2396467E+01
 1.1724251E+01  2.2413580E+01
 1.1735750E+01  2.2429287E+01
 1.1747251E+01  2.2456066E+01
 1.1758751E+01  2.2431553E+01
 1.1770250E+01  2.2372246E+01
 1.1781751E+01  2.2281137E+01
 1.1793251E+01  2.2256428E+01
 1.1804750E+01  2.2247408E+01
 1.1816251E+01  2.2281811E+01
 1.1827750E+01  2.2279863E+01
 1.1839251E+01  2.2307699E+01
 1.1850751E+01  2.2308010E+01
 1.1862250E+01  2.2312124E+01
 1.1873751E+01  2.2314980E+01
 1.1885251E+01  2.2352362E+01
 1.1896750E+01  2.2378489E+01
 1.1908251E+01  2.2344612E+01
 1.1919750E+01  2.2354660E+01
 1.1931251E+01  2.2329700E+01
 1.1942751E+01  2.2409224E+01
 1.1954250E+01  2.2382963E+01
 1.1965751E+01  2.2429592E+01
 1.1977251E+01  2.2419008E+01
 1.1988750E+01  2.2500597E+01
 1.2000251E+01  2.2553986E+01
 1.2011750E+01  2.2586613E+01
 1.2023251E+01  2.2551062E+01
 1.2034751E+01  2.2628677E+01
 1.2046250E+01  2.2736259E+01
 1.2057751E+01  2.2910217E+01
 1.2069251E+01  2.3106348E+01
 1.2080750E+01  2.3261953E+01
 1.2092251E+01  2.3523659E+01
 1.2103750E+01  2.3534111E+01
 1.2115251E+01  2.3545351E+01
 1.2126751E+01  2.3322001E+01
 1.2138250E+01  2.3169855E+01
 1.2149751E+01  2.2940826E+01
 1.2161251E+01  2.2759832E+01
 1.2172750E+01  2.2607946E+01
 1.2184251E+01  2.2537157E+01
 1.2195750E+01  2.2465752E+01
 1.2207251E+01  2.2394215E+01
 1.2218751E+01  2.2361954E+01
 1.2230250E+01  2.2294298E+01
 1.2241751E+01  2.2272530E+01
 1.2253251E+01  2.2238451E+01
 1.2264750E+01  2.2296719E+01
 1.2276251E+01  2.2330755E+01
 1.2287750E+01  2.2402548E+01
 1.2299251E+01  2.2431211E+01
 1.2310751E+01  2.2471041E+01
 1.2322250E+01  2.2437664E+01
 1.2333751E+01  2.2456659E+01
 1.2345250E+01  2.2453072E+01
 1.2356750E+01  2.2501904E+01
 1.2368251E+01  2.2477501E+01
 1.2379750E+01  2.2451357E+01
 1.2391251E+01  2.2427710E+01
 1.2402751E+01  2.2411991E+01
 1.2414250E+01  2.2445898E+01
 1.2425751E+01  2.2433962E+01
 1.2437250E+01  2.2481108E+01
 1.2448750E+01  2.2506628E+01
 1.2460251E+01  2.2525835E+01
 1.2471750E+01  2.2513115E+01
 1.2483251E+01  2.2478302E+01
 1.2494751E+01  2.2445498E+01
 1.2506250E+01  2.2471693E+01
 1.2517751E+01  2.2451500E+01
 1.2529250E+01  2.2490496E+01
 1.2540751E+01  2.2478664E+01
 1.2552251E+01  2.2516378E+01
 1.2563750E+01  2.2550859E+01
 1.2575251E+01  2.2551493E+01
 1.2586751E+01  2.2578592E+01
 1.2598250E+01  2.2615616E+01
 1.2609751E+01  2.2652723E+01
 1.2621250E+01  2.2704355E+01
 1.2632751E+01  2.2698975E+01
 1.2644251E+01  2.2694416E+01
 1.2655750E+01  2.2697546E+01
 1.2667251E+01  2.2699112E+01
 1.2678751E+01  2.2744205E+01
 1.2690250E+01  2.2752169E+01
 1.2701751E+01  2.2792330E+01
 1.2713250E+01  2.2842770E+01
 1.2724751E+01  2.2796040E+01
 1.2736251E+01  2.2801437E+01
 1.2747750E+01  2.2782494E+01
 1.2759251E+01  2.2872671E+01
 1.2770751E+01  2.2929602E+01
 1.2782250E+01  2.3059076E+01
 1.2793751E+01  2.3094816E+01
 1.2805250E+01  2.3183315E+01
 1.2816751E+01  2.3210646E+01
 1.2828251E+01  2.3270176E+01
 1.2839750E+01  2.3273373E+01
 1.2851251E+01  2.3264410E+01
 1.2862751E+01  2.3263647E+01
 1.2874250E+01  2.3295773E+01
 1.2885751E+01  2.3354597E+01
 1.2897250E+01  2.3400976E+01
 1.2908751E+01  2.3437626E+01
 1.2920251E+01  2.3501263E+01
 1.2931750E+01  2.3601816E+01
 1.2943251E+01  2.3680595E+01
 1.2954751E+01  2.3736465E+01
 1.2966250E+01  2.3806480E+01
 1.2977751E+01  2.3894838E+01
 1.2989250E+01  2.3922791E+01
 1.3000751E+01  2.4021212E+01
 1.3012251E+01  2.4033764E+01
 1.3023750E+01  2.4124781E+01
 1.3035251E+01  2.4208652E+01
 1.3046751E+01  2.4301662E+01
 1.3058250E+01  2.4421181E+01
 1.3069751E+01  2.4417154E+01
 1.3081250E+01  2.4459764E+01
 1.3092751E+01  2.4529860E+01
 1.3104251E+01  2.4656502E+01
 1.3115750E+01  2.4794668E+01
 1.3127251E+01  2.4902317E+01
 1.3138751E+01  2.5051081E+01
 1.3150250E+01  2.5209808E+01
 1.3161751E+01  2.5317587E+01
 1.3173250E+01  2.5418234E+01
 1.3184751E+01  2.5485811E+01
 1.3196251E+01  2.5512058E+01
 1.3207750E+01  2.5625607E+01
 1.3219251E+01  2.5790636E+01
 1.3230751E+01  2.5989832E+01
 1.3242250E+01  2.6138317E+01
 1.3253751E+01  2.6251627E+01
 1.3265250E+01  2.6392996E+01
 1.3276751E+01  2.6517923E+01
 1.3288251E+01  2.6639412E+01
 1.3299750E+01  2.6754192E+01
 1.3311251E+01  2.6802195E+01
 1.3322751E+01  2.6934353E+01
 1.3334250E+01  2.7052427E+01
 1.3345751E+01  2.7280478E+01
 1.3357250E+01  2.7511087E+01
 1.3368751E+01  2.7731657E+01
 1.3380251E+01  2.7930885E+01
 1.3391750E+01  2.8084206E+01
 1.3403251E+01  2.8265039E+01
 1.3414751E+01  2.8351185E+01
 1.3426250E+01  2.8436138E+01
 1.3437751E+01  2.8511215E+01
 1.3449250E+01  2.8577789E+01
 1.3460751E+01  2.8663622E+01
 1.3472251E+01  2.8732552E+01
 1.3483750E+01  2.8885668E+01
 1.3495251E+01  2.9020449E+01
 1.3506751E+01  2.9167225E+01
 1.3518250E+01  2.9256214E+01
 1.3529751E+01  2.9312243E+01
 1.3541250E+01  2.9379101E+01
 1.3552751E+01  2.9469330E+01
 1.3564251E+01  2.9513540E+01
 1.3575750E+01  2.9572641E+01
 1.3587251E+01  2.9642185E+01
 1.3598751E+01  2.9705439E+01
 1.3610250E+01  2.9699673E+01
 1.3621751E+01  2.9671280E+01
 1.3633250E+01  2.9652014E+01
 1.3644751E+01  2.9601767E+01
 1.3656251E+01  2.9567760E+01
 1.3667750E+01  2.9551527E+01
 1.3679251E+01  2.9570539E+01
 1.3690751E+01  2.9495457E+01
 1.3702250E+01  2.9440020E+01
 1.3713751E+01  2.9359987E+01
 1.3725250E+01  2.9356983E+01
 1.3736751E+01  2.9329971E+01
 1.3748251E+01  2.9304750E+01
 1.3759750E+01  2.9252716E+01
 1.3771251E+01  2.9285803E+01
 1.3782751E+01  2.9223913E+01
 1.3794250E+01  2.9194290E+01
 1.3805751E+01  2.9050217E+01
 1.3817250E+01  2.8982521E+01
 1.3828751E+01  2.8916656E+01
 1.3840251E+01  2.8836592E+01
 1.3851750E+01  2.8801207E+01
 1.3863251E+01  2.8707092E+01
 1.3874751E+01  2.8735680E+01
 1.3886250E+01  2.8724247E+01
 1.3897751E+01  2.8850903E+01
 1.3909250E+01  2.8927513E+01
 1.3920751E+01  2.9093342E+01
 1.3932251E+01  2.9113895E+01
 1.3943750E+01  2.9129732E+01
 1.3955251E+01  2.9041388E+01
 1.3966751E+01  2.8959764E+01
 1.3978251E+01  2.8742737E+01
 1.3989751E+01  2.8500494E+01
 1.4001250E+01  2.8206144E+01
 1.4012751E+01  2.8012486E+01
 1.4024251E+01  2.7804577E+01
 1.4035750E+01  2.7620956E+01
 1.4047251E+01  2.7479282E+01
 1.4058751E+01  2.7378904E+01
 1.4070251E+01  2.7321487E+01
 1.4081751E+01  2.7258799E+01
 1.4093250E+01  2.7279406E+01
 1.4104751E+01  2.7246582E+01
 1.4116251E+01  2.7209200E+01
 1.4127750E+01  2.7116919E+01
 1.4139251E+01  2.7067387E+01
 1.4150751E+01  2.6981186E+01
 1.4162251E+01  2.6925207E+01
 1.4173751E+01  2.6804483E+01
 1.4185250E+01  2.6685381E+01
 1.4196751E+01  2.6595770E+01
 1.4208251E+01  2.6522444E+01
 1.4219750E+01  2.6491522E+01
 1.4231251E+01  2.6437723E+01
 1.4242751E+01  2.6419920E+01
 1.4254251E+01  2.6358534E+01
 1.4265751E+01  2.6284023E+01
 1.4277250E+01  2.6227468E+01
 1.4288751E+01  2.6175840E+01
 1.4300251E+01  2.6132759E+01
 1.4311750E+01  2.6103771E+01
 1.4323251E+01  2.6037422E+01
 1.4334751E+01  2.5968966E+01
 1.4346251E+01  2.5956196E+01
 1.4357751E+01  2.5953459E+01
 1.4369250E+01  2.5967272E+01
 1.4380751E+01  2.5946281E+01
 1.4392251E+01  2.5914688E+01
 1.4403750E+01  2.5856123E+01
 1.4415251E+01  2.5796446E+01
 1.4426751E+01  2.5764868E+01
 1.4438251E+01  2.5740891E+01
 1.4449751E+01  2.5704109E+01
 1.4461250E+01  2.5630411E+01
 1.4472751E+01  2.5552973E+01
 1.4484251E+01  2.5471268E+01
 1.4495750E+01  2.5464947E+01
 1.4507251E+01  2.5453838E+01
 1.4518751E+01  2.5517712E+01
 1.4530251E+01  2.5572145E+01
 1.4541751E+01  2.5584568E+01
 1.4553250E+01  2.5589003E+01
 1.4564751E+01  2.5518274E+01
 1.4576251E+01  2.5496729E+01
 1.4587750E+01  2.5408937E+01
 1.4599251E+01  2.5377748E+01
 1.4610751E+01  2.5356754E+01
 1.4622251E+01  2.5385586E+01
 1.4633751E+01  2.5368828E+01
 1.4645250E+01  2.5334848E+01
 1.4656751E+01  2.5258421E+01
 1.4668251E+01  2.5156115E+01
 1.4679750E+01  2.5105536E+01
 1.4691251E+01  2.5111574E+01
 1.4702751E+01  2.5130610E+01
 1.4714251E+01  2.5120245E+01
 1.4725751E+01  2.5032751E+01
 1.4737250E+01  2.5024128E+01
 1.4748751E+01  2.4970215E+01
 1.4760251E+01  2.4932842E+01
 1.4771750E+01  2.4931435E+01
 1.4783251E+01  2.4924654E+01
 1.4794751E+01  2.4963427E+01
 1.4806251E+01  2.4879786E+01
 1.4817751E+01  2.4840336E+01
 1.4829250E+01  2.4782524E+01
 1.4840751E+01  2.4843273E+01
 1.4852251E+01  2.4889297E+01
 1.4863750E+01  2.4888649E+01
 1.4875251E+01  2.4865934E+01
 1.4886751E+01  2.4838013E+01
 1.4898251E+01  2.4906168E+01
 1.4909751E+01  2.4905853E+01
 1.4921250E+01  2.4914989E+01
 1.4932751E+01  2.4889917E+01
 1.4944251E+01  2.4882462E+01
 1.4955750E+01  2.4881985E+01
 1.4967251E+01  2.4859116E+01
 1.4978751E+01  2.4845573E+01
 1.4990251E+01  2.4752838E+01
 1.5001751E+01  2.4681509E+01
 1.5013250E+01  2.4636496E+01
 1.5024751E+01  2.4668251E+01
 1.5036251E+01  2.4655603E+01
 1.5047750E+01  2.4673185E+01
 1.5059251E+01  2.4717745E+01
 1.5070751E+01  2.4779949E+01
 1.5082251E+01  2.4794357E+01
 1.5093751E+01  2.4789314E+01
 1.5105250E+01  2.4793619E+01
 1.5116751E+01  2.4791750E+01
 1.5128251E+01  2.4758202E+01
 1.5139750E+01  2.4796177E+01
 1.5151251E+01  2.4914726E+01
 1.5162751E+01  2.5055120E+01
 1.5174251E+01  2.5226465E+01
 1.5185751E+01  2.5300261E+01
 1.5197250E+01  2.5408819E+01
 1.5208751E+01  2.5438879E+01
 1.5220251E+01  2.5372759E+01
 1.5231750E+01  2.5188797E+01
 1.5243251E+01  2.4918022E+01
 1.5254751E+01  2.4761246E+01
 1.5266251E+01  2.4573030E+01
 1.5277751E+01  2.4540903E+01
 1.5289250E+01  2.4540819E+01
 1.5300751E+01  2.4551313E+01
 1.5312251E+01  2.4492195E+01
 1.5323750E+01  2.4453510E+01
 1.5335251E+01  2.4378212E+01
 1.5346751E+01  2.4345078E+01
 1.5358251E+01  2.4351660E+01
 1.5369751E+01  2.4403193E+01
 1.5381250E+01  2.4380337E+01
 1.5392751E+01  2.4389486E+01
 1.5404251E+01  2.4646526E+01
 1.5415751E+01  2.4734421E+01
 1.5427251E+01  2.5163622E+01
 1.5438751E+01  2.5299793E+01
 1.5450251E+01  2.5400000E+01
 1.5461751E+01  2.5347368E+01
 1.5473250E+01  2.5055830E+01
 1.5484751E+01  2.4923105E+01
 1.5496251E+01  2.4453489E+01
 1.5507751E+01  2.4444923E+01
 1.5519251E+01  2.4422611E+01
 1.5530751E+01  2.4417656E+01
 1.5542251E+01  2.4368589E+01
 1.5553751E+01  2.4395206E+01
 1.5565250E+01  2.4383692E+01
 1.5576751E+01  2.4409212E+01
 1.5588251E+01  2.4352345E+01
 1.5599751E+01  2.4351871E+01
 1.5611251E+01  2.4370701E+01
 1.5622751E+01  2.4403444E+01
 1.5634251E+01  2.4407454E+01
 1.5645751E+01  2.4375261E+01
 1.5657250E+01  2.4368443E+01
 1.5668751E+01  2.4375933E+01
 1.5680251E+01  2.4386209E+01
 1.5691751E+01  2.4349144E+01
 1.5703251E+01  2.4385672E+01
 1.5714751E+01  2.4431314E+01
 1.5726251E+01  2.4504265E+01
 1.5737751E+01  2.4460442E+01
 1.5749250E+01  2.4426163E+01
 1.5760751E+01  2.4432625E+01
 1.5772251E+01  2.4480055E+01
 1.5783751E+01  2.4459503E+01
 1.5795251E+01  2.4401890E+01
 1.5806751E+01  2.4337978E+01
 1.5818251E+01  2.4319510E+01
 1.5829751E+01  2.4299856E+01
 1.5841250E+01  2.4316853E+01
 1.5852751E+01  2.4370827E+01
 1.5864251E+01  2.4358448E+01
 1.5875751E+01  2.4401205E+01
 1.5887251E+01  2.4418634E+01
 1.5898750E+01  2.4447786E+01
 1.5910251E+01  2.4479223E+01
 1.5921751E+01  2.4464518E+01
 1.5933250E+01  2.4448603E+01
 1.5944751E+01  2.4387486E+01
 1.5956251E+01  2.4402275E+01
 1.5967751E+01  2.4472799E+01
 1.5979251E+01  2.4524679E+01
 1.5990750E+01  2.4621380E+01
 1.6002251E+01  2.4617889E+01
 1.6013750E+01  2.4610830E+01
 1.6025251E+01  2.4554003E+01
 1.6036751E+01  2.4545832E+01
 1.6048250E+01  2.4576647E+01
 1.6059752E+01  2.4606863E+01
 1.6071251E+01  2.4591295E+01
 1.6082750E+01  2.4565193E+01
 1.6094252E+01  2.4534571E+01
 1.6105751E+01  2.4584656E+01
 1.6117250E+01  2.4599237E+01
 1.6128750E+01  2.4598213E+01
 1.6140251E+01  2.4626213E+01
 1.6151751E+01  2.4628250E+01
 1.6163250E+01  2.4653883E+01
 1.6174751E+01  2.4620981E+01
 1.6186251E+01  2.4695719E+01
 1.6197750E+01  2.4685196E+01
 1.6209251E+01  2.4883158E+01
 1.6220751E+01  2.4917774E+01
 1.6232250E+01  2.5145678E+01
 1.6243752E+01  2.5228487E+01
 1.6255251E+01  2.5369104E+01
 1.6266750E+01  2.5528742E+01
 1.6278252E+01  2.5398882E+01
 1.6289751E+01  2.5496506E+01
 1.6301250E+01  2.5169741E+01
 1.6312750E+01  2.5253750E+01
 1.6324251E+01  2.4929850E+01
 1.6335751E+01  2.4946115E+01
 1.6347250E+01  2.4761366E+01
 1.6358751E+01  2.4796169E+01
 1.6370251E+01  2.4713070E+01
 1.6381750E+01  2.4676508E+01
 1.6393251E+01  2.4609957E+01
 1.6404751E+01  2.4596266E+01
 1.6416250E+01  2.4653765E+01
 1.6427752E+01  2.4636158E+01
 1.6439251E+01  2.4659075E+01
 1.6450750E+01  2.4556601E+01
 1.6462252E+01  2.4546337E+01
 1.6473751E+01  2.4508003E+01
 1.6485250E+01  2.4540981E+01
 1.6496750E+01  2.4520649E+01
 1.6508251E+01  2.4516090E+01
 1.6519751E+01  2.4479940E+01
 1.6531250E+01  2.4505465E+01
 1.6542751E+01  2.4539703E+01
 1.6554251E+01  2.4591488E+01
 1.6565750E+01  2.4569956E+01
 1.6577251E+01  2.4542292E+01
 1.6588751E+01  2.4521111E+01
 1.6600250E+01  2.4471285E+01
 1.6611752E+01  2.4426653E+01
 1.6623251E+01  2.4313116E+01
 1.6634750E+01  2.4313095E+01
 1.6646252E+01  2.4281551E+01
 1.6657751E+01  2.4323410E+01
 1.6669250E+01  2.4391554E+01
 1.6680750E+01  2.4404015E+01
 1.6692251E+01  2.4478884E+01
 1.6703751E+01  2.4496471E+01
 1.6715250E+01  2.4522858E+01
 1.6726751E+01  2.4483099E+01
 1.6738251E+01  2.4459251E+01
 1.6749750E+01  2.4459188E+01
 1.6761251E+01  2.4371027E+01
 1.6772751E+01  2.4355978E+01
 1.6784250E+01  2.4346174E+01
 1.6795752E+01  2.4396271E+01
 1.6807251E+01  2.4370302E+01
 1.6818750E+01  2.4360783E+01
 1.6830252E+01  2.4319763E+01
 1.6841751E+01  2.4326674E+01
 1.6853251E+01  2.4308985E+01
 1.6864750E+01  2.4333212E+01
 1.6876251E+01  2.4299961E+01
 1.6887751E+01  2.4297649E+01
 1.6899250E+01  2.4205318E+01
 1.6910751E+01  2.4162119E+01
 1.6922251E+01  2.4099314E+01
 1.6933750E+01  2.4080505E+01
 1.6945251E+01  2.4064522E+01
 1.6956751E+01  2.4108414E+01
 1.6968250E+01  2.4132507E+01
 1.6979752E+01  2.4200008E+01
 1.6991251E+01  2.4219910E+01
 1.7002750E+01  2.4219513E+01
 1.7014252E+01  2.4198324E+01
 1.7025751E+01  2.4231585E+01
 1.7037251E+01  2.4220264E+01
 1.7048750E+01  2.4211504E+01
 1.7060251E+01  2.4168747E+01
 1.7071751E+01  2.4145710E+01
 1.7083250E+01  2.4116974E+01
 1.7094751E+01  2.4071484E+01
 1.7106251E+01  2.4073370E+01
 1.7117750E+01  2.4084450E+01
 1.7129251E+01  2.4141409E+01
 1.7140751E+01  2.4141550E+01
 1.7152250E+01  2.4120260E+01
 1.7163752E+01  2.4056257E+01
 1.7175251E+01  2.4023716E+01
 1.7186750E+01  2.4035183E+01
 1.7198252E+01  2.4053391E+01
 1.7209751E+01  2.4082439E+01
 1.7221251E+01  2.4050022E+01
 1.7232750E+01  2.4030327E+01
 1.7244251E+01  2.3995157E+01
 1.7255751E+01  2.3963036E+01
 1.7267250E+01  2.3949774E+01
 1.7278751E+01  2.3929752E+01
 1.7290251E+01  2.3931049E+01
 1.7301750E+01  2.3960295E+01
 1.7313251E+01  2.3940771E+01
 1.7324751E+01  2.3977510E+01
 1.7336250E+01  2.4012259E+01
 1.7347752E+01  2.4049143E+01
 1.7359251E+01  2.4007904E+01
 1.7370750E+01  2.3916800E+01
 1.7382252E+01  2.3848499E+01
 1.7393751E+01  2.3842024E+01
 1.7405251E+01  2.3862700E+01
 1.7416750E+01  2.3886177E+01
 1.7428251E+01  2.3887926E+01
 1.7439751E+01  2.3872417E+01
 1.7451250E+01  2.3885674E+01
 1.7462751E+01  2.3890806E+01
 1.7474251E+01  2.3873663E+01
 1.7485750E+01  2.3841099E+01
 1.7497252E+01  2.3810236E+01
 1.7508751E+01  2.3806751E+01
 1.7520250E+01  2.3787027E+01
 1.7531752E+01  2.3783859E+01
 1.7543251E+01  2.3791414E+01
 1.7554750E+01  2.3768595E+01
 1.7566252E+01  2.3697605E+01
 1.7577751E+01  2.3678465E+01
 1.7589251E+01  2.3665762E+01
 1.7600750E+01  2.3728636E+01
 1.7612251E+01  2.3752481E+01
 1.7623751E+01  2.3778522E+01
 1.7635250E+01  2.3740631E+01
 1.7646751E+01  2.3684067E+01
 1.7658251E+01  2.3605570E+01
 1.7669750E+01  2.3580282E+01
 1.7681252E+01  2.3593752E+01
 1.7692751E+01  2.3632034E+01
 1.7704250E+01  2.3657724E+01
 1.7715752E+01  2.3693443E+01
 1.7727251E+01  2.3674252E+01
 1.7738750E+01  2.3612818E+01
 1.7750252E+01  2.3592712E+01
 1.7761751E+01  2.3593975E+01
 1.7773251E+01  2.3642174E+01
 1.7784750E+01  2.3659636E+01
 1.7796251E+01  2.3681501E+01
 1.7807751E+01  2.3618605E+01
 1.7819250E+01  2.3573389E+01
 1.7830751E+01  2.3526865E+01
 1.7842251E+01  2.3564976E+01
 1.7853750E+01  2.3572817E+01
 1.7865252E+01  2.3621456E+01
 1.7876751E+01  2.3664820E+01
 1.7888250E+01  2.3708214E+01
 1.7899752E+01  2.3710470E+01
 1.7911251E+01  2.3716757E+01
 1.7922750E+01  2.3737610E+01
 1.7934252E+01  2.3706064E+01
 1.7945751E+01  2.3705818E+01
 1.7957251E+01  2.3681141E+01
 1.7968750E+01  2.3699930E+01
 1.7980251E+01  2.3699821E+01
 1.7991751E+01  2.3743061E+01
 1.8003250E+01  2.3767967E+01
 1.8014751E+01  2.3809631E+01
 1.8026251E+01  2.3861212E+01
 1.8037750E+01  2.4005655E+01
 1.8049252E+01  2.4221327E+01
 1.8060751E+01  2.4522234E+01
 1.8072250E+01  2.4835888E+01
 1.8083752E+01  2.5255075E+01
 1.8095251E+01  2.5384199E+01
 1.8106750E+01  2.5160055E+01
 1.8118252E+01  2.4757702E+01
 1.8129751E+01  2.4407555E+01
 1.8141251E+01  2.4053593E+01
 1.8152750E+01  2.3831137E+01
 1.8164251E+01  2.3722298E+01
 1.8175751E+01  2.3693375E+01
 1.8187250E+01  2.3647610E+01
 1.8198751E+01  2.3613516E+01
 1.8210251E+01  2.3615231E+01
 1.8221750E+01  2.3529659E+01
 1.8233252E+01  2.3479836E+01
 1.8244751E+01  2.3408146E+01
 1.8256250E+01  2.3428728E+01
 1.8267752E+01  2.3430803E+01
 1.8279251E+01  2.3488049E+01
 1.8290751E+01  2.3504452E+01
 1.8302252E+01  2.3495249E+01
 1.8313751E+01  2.3449566E+01
 1.8325251E+01  2.3425346E+01
 1.8336750E+01  2.3441437E+01
 1.8348251E+01  2.3467964E+01
 1.8359751E+01  2.3516985E+01
 1.8371250E+01  2.3513050E+01
 1.8382751E+01  2.3519926E+01
 1.8394251E+01  2.3492386E+01
 1.8405750E+01  2.3462263E+01
 1.8417252E+01  2.3425034E+01
 1.8428751E+01  2.3390612E+01
 1.8440250E+01  2.3398485E+01
 1.8451752E+01  2.3398548E+01
 1.8463251E+01  2.3450832E+01
 1.8474751E+01  2.3453468E+01
 1.8486252E+01  2.3460148E+01
 1.8497751E+01  2.3443951E+01
 1.8509251E+01  2.3439034E+01
 1.8520750E+01  2.3392984E+01
 1.8532251E+01  2.3403137E+01
 1.8543751E+01  2.3390816E+01
 1.8555250E+01  2.3413193E+01
 1.8566751E+01  2.3416178E+01
 1.8578251E+01  2.3435604E+01
 1.8589750E+01  2.3444418E+01
 1.8601252E+01  2.3492937E+01
 1.8612751E+01  2.3546522E+01
 1.8624250E+01  2.3551916E+01
 1.8635752E+01  2.3561182E+01
 1.8647251E+01  2.3534924E+01
 1.8658751E+01  2.3485590E+01
 1.8670252E+01  2.3429132E+01
 1.8681751E+01  2.3378574E+01
 1.8693251E+01  2.3419497E+01
 1.8704750E+01  2.3406353E+01
 1.8716251E+01  2.3453678E+01
 1.8727751E+01  2.3401520E+01
 1.8739250E+01  2.3365990E+01
 1.8750751E+01  2.3299301E+01
 1.8762251E+01  2.3277752E+01
 1.8773750E+01  2.3270241E+01
 1.8785252E+01  2.3299093E+01
 1.8796751E+01  2.3344738E+01
 1.8808250E+01  2.3382879E+01
 1.8819752E+01  2.3434175E+01
 1.8831251E+01  2.3429918E+01
 1.8842751E+01  2.3443485E+01
 1.8854252E+01  2.3346449E+01
 1.8865751E+01  2.3301832E+01
 1.8877251E+01  2.3308699E+01
 1.8888750E+01  2.3341885E+01
 1.8900251E+01  2.3376226E+01
 1.8911751E+01  2.3392223E+01
 1.8923250E+01  2.3448229E+01
 1.8934752E+01  2.3495913E+01
 1.8946251E+01  2.3502871E+01
 1.8957750E+01  2.3471481E+01
 1.8969252E+01  2.3412365E+01
 1.8980751E+01  2.3358595E+01
 1.8992250E+01  2.3347258E+01
 1.9003752E+01  2.3319319E+01
 1.9015251E+01  2.3387157E+01
 1.9026751E+01  2.3431414E+01
 1.9038252E+01  2.3461430E+01
 1.9049751E+01  2.3428709E+01
 1.9061251E+01  2.3462069E+01
 1.9072750E+01  2.3508820E+01
 1.9084251E+01  2.3512468E+01
 1.9095751E+01  2.3435915E+01
 1.9107250E+01  2.3339285E+01
 1.9118752E+01  2.3282598E+01
 1.9130251E+01  2.3294521E+01
 1.9141750E+01  2.3290340E+01
 1.9153252E+01  2.3307697E+01
 1.9164751E+01  2.3287870E+01
 1.9176250E+01  2.3326200E+01
 1.9187752E+01  2.3349571E+01
 1.9199251E+01  2.3350618E+01
 1.9210751E+01  2.3372950E+01
 1.9222252E+01  2.3389624E+01
 1.9233751E+01  2.3495590E+01
 1.9245251E+01  2.3534637E+01
 1.9256750E+01  2.3603317E+01
 1.9268251E+01  2.3571711E+01
 1.9279751E+01  2.3586014E+01
 1.9291250E+01  2.3588921E+01
 1.9302752E+01  2.3589790E+01
 1.9314251E+01  2.3663893E+01
 1.9325750E+01  2.3629728E+01
 1.9337252E+01  2.3689190E+01
 1.9348751E+01  2.3649860E+01
 1.9360250E+01  2.3611345E+01
 1.9371752E+01  2.3549902E+01
 1.9383251E+01  2.3518116E+01
 1.9394751E+01  2.3523085E+01
 1.9406250E+01  2.3489143E+01
 1.9417751E+01  2.3550621E+01
 1.9429251E+01  2.3557629E+01
 1.9440750E+01  2.3495333E+01
 1.9452251E+01  2.3445124E+01
 1.9463751E+01  2.3395372E+01
 1.9475250E+01  2.3408974E+01
 1.9486752E+01  2.3432690E+01
 1.9498251E+01  2.3462599E+01
 1.9509750E+01  2.3469883E+01
 1.9521252E+01  2.3514757E+01
 1.9532751E+01  2.3543177E+01
 1.9544250E+01  2.3575542E+01
 1.9555752E+01  2.3574965E+01
 1.9567251E+01  2.3610840E+01
 1.9578751E+01  2.3642508E+01
 1.9590250E+01  2.3637197E+01
 1.9601751E+01  2.3621775E+01
 1.9613251E+01  2.3617205E+01
 1.9624750E+01  2.3719210E+01
 1.9636251E+01  2.3894049E+01
 1.9647751E+01  2.3919399E+01
 1.9659250E+01  2.4127584E+01
 1.9670752E+01  2.4269636E+01
 1.9682251E+01  2.4426706E+01
 1.9693750E+01  2.4510706E+01
 1.9705252E+01  2.4578814E+01
 1.9716751E+01  2.4710085E+01
 1.9728251E+01  2.4606285E+01
 1.9739752E+01  2.4591656E+01
 1.9751251E+01  2.4494495E+01
 1.9762751E+01  2.4470034E+01
 1.9774250E+01  2.4506289E+01
 1.9785751E+01  2.4598856E+01
 1.9797251E+01  2.5494919E+01
 1.9808750E+01  2.5690723E+01
 1.9820251E+01  2.7940716E+01
 1.9831751E+01  2.9548367E+01
 1.9843250E+01  3.0223358E+01
 1.9854752E+01  3.0906824E+01
 1.9866251E+01  2.9980350E+01
 1.9877750E+01  2.9657125E+01
 1.9889252E+01  2.6931538E+01
 1.9900751E+01  2.6731480E+01
 1.9912251E+01  2.5056807E+01
 1.9923752E+01  2.4716108E+01
 1.9935251E+01  2.4409353E+01
 1.9946751E+01  2.4112909E+01
 1.9958250E+01  2.3978054E+01
 1.9969751E+01  2.3835152E+01
 1.9981251E+01  2.3702986E+01
 1.9992750E+01  2.3642252E+01
 2.0004251E+01  2.3606909E+01
 2.0015751E+01  2.3595678E+01
 2.0027250E+01  2.3602526E+01
 2.0038752E+01  2.3637981E+01
 2.0050251E+01  2.3674013E+01
 2.0061750E+01  2.3641693E+01
 2.0073252E+01  2.3609880E+01
 2.0084751E+01  2.3578083E+01
 2.0096251E+01  2.3654547E+01
 2.0107752E+01  2.3677008E+01
 2.0119251E+01  2.3717436E+01
 2.0130751E+01  2.3707262E+01
 2.0142250E+01  2.3691635E+01
 2.0153751E+01  2.3724548E+01
 2.0165251E+01  2.3710510E+01
 2.0176750E+01  2.3752394E+01
 2.0188251E+01  2.3711853E+01
 2.0199751E+01  2.3687944E+01
 2.0211250E+01  2.3619146E+01
 2.0222752E+01  2.3602339E+01
 2.0234251E+01  2.3649376E+01
 2.0245750E+01  2.3691944E+01
 2.0257252E+01  2.3688284E+01
 2.0268751E+01  2.3634394E+01
 2.0280251E+01  2.3594872E+01
 2.0291752E+01  2.3529945E+01
 2.0303251E+01  2.3457546E+01
 2.0314751E+01  2.3429453E+01
 2.0326250E+01  2.3473337E+01
 2.0337751E+01  2.3520300E+01
 2.0349251E+01  2.3543825E+01
 2.0360750E+01  2.3595604E+01
 2.0372252E+01  2.3608519E+01
 2.0383751E+01  2.3594925E+01
 2.0395250E+01  2.3598740E+01
 2.0406752E+01  2.3621922E+01
 2.0418251E+01  2.3617327E+01
 2.0429750E+01  2.3575010E+01
 2.0441252E+01  2.3478743E+01
 2.0452751E+01  2.3483261E+01
 2.0464251E+01  2.3474878E+01
 2.0475752E+01  2.3541836E+01
 2.0487251E+01  2.3499918E+01
 2.0498751E+01  2.3565231E+01
 2.0510250E+01  2.3576319E+01
 2.0521751E+01  2.3571417E+01
 2.0533251E+01  2.3536831E+01
 2.0544750E+01  2.3498363E+01
 2.0556252E+01  2.3509111E+01
 2.0567751E+01  2.3485607E+01
 2.0579250E+01  2.3480354E+01
 2.0590752E+01  2.3499020E+01
 2.0602251E+01  2.3570065E+01
 2.0613750E+01  2.3617260E+01
 2.0625252E+01  2.3659403E+01
 2.0636751E+01  2.3711102E+01
 2.0648251E+01  2.3721354E+01
 2.0659752E+01  2.3685040E+01
 2.0671251E+01  2.3637657E+01
 2.0682751E+01  2.3670835E+01
 2.0694250E+01  2.3723669E+01
 2.0705751E+01  2.3853870E+01
 2.0717251E+01  2.3954052E+01
 2.0728750E+01  2.4052299E+01
 2.0740252E+01  2.4069799E+01
 2.0751751E+01  2.4144043E+01
 2.0763250E+01  2.4154362E+01
 2.0774752E+01  2.4122049E+01
 2.0786251E+01  2.4127901E+01
 2.0797750E+01  2.4105940E+01
 2.0809252E+01  2.4031046E+01
 2.0820751E+01  2.3894838E+01
 2.0832251E+01  2.3835764E+01
 2.0843752E+01  2.3730133E+01
 2.0855251E+01  2.3689339E+01
 2.0866751E+01  2.3685862E+01
 2.0878250E+01  2.3690567E+01
 2.0889751E+01  2.3680449E+01
 2.0901251E+01  2.3680649E+01
 2.0912750E+01  2.3645031E+01
 2.0924252E+01  2.3616173E+01
 2.0935751E+01  2.3595890E+01
 2.0947250E+01  2.3652187E+01
 2.0958752E+01  2.3643852E+01
 2.0970251E+01  2.3660826E+01
 2.0981750E+01  2.3649593E+01
 2.0993252E+01  2.3699772E+01
 2.1004751E+01  2.3702991E+01
 2.1016251E+01  2.3708652E+01
 2.1027752E+01  2.3751036E+01
 2.1039251E+01  2.3777355E+01
 2.1050751E+01  2.3767553E+01
 2.1062250E+01  2.3735388E+01
 2.1073751E+01  2.3732370E+01
 2.1085251E+01  2.3687189E+01
 2.1096750E+01  2.3646374E+01
 2.1108252E+01  2.3659800E+01
 2.1119751E+01  2.3743696E+01
 2.1131250E+01  2.3804514E+01
 2.1142752E+01  2.3807013E+01
 2.1154251E+01  2.3735878E+01
 2.1165751E+01  2.3712788E+01
 2.1177252E+01  2.3738358E+01
 2.1188751E+01  2.3755575E+01
 2.1200251E+01  2.3758106E+01
 2.1211752E+01  2.3748089E+01
 2.1223251E+01  2.3729210E+01
 2.1234751E+01  2.3753841E+01
 2.1246250E+01  2.3770092E+01
 2.1257751E+01  2.3820751E+01
 2.1269251E+01  2.3832556E+01
 2.1280750E+01  2.3825001E+01
 2.1292252E+01  2.3779062E+01
 2.1303751E+01  2.3707254E+01
 2.1315250E+01  2.3640049E+01
 2.1326752E+01  2.3636070E+01
 2.1338251E+01  2.3651812E+01
 2.1349751E+01  2.3661890E+01
 2.1361252E+01  2.3697289E+01
 2.1372751E+01  2.3742012E+01
 2.1384251E+01  2.3747751E+01
 2.1395752E+01  2.3780764E+01
 2.1407251E+01  2.3759878E+01
 2.1418751E+01  2.3757845E+01
 2.1430250E+01  2.3716791E+01
 2.1441751E+01  2.3665216E+01
 2.1453251E+01  2.3668455E+01
 2.1464750E+01  2.3734037E+01
 2.1476252E+01  2.3804708E+01
 2.1487751E+01  2.3838436E+01
 2.1499250E+01  2.3845446E+01
 2.1510752E+01  2.3912592E+01
 2.1522251E+01  2.3901409E+01
 2.1533751E+01  2.3935863E+01
 2.1545252E+01  2.3933186E+01
 2.1556751E+01  2.3955622E+01
 2.1568251E+01  2.3914305E+01
 2.1579752E+01  2.3919943E+01
 2.1591251E+01  2.3915661E+01
 2.1602751E+01  2.3904816E+01
 2.1614250E+01  2.3918894E+01
 2.1625751E+01  2.3942236E+01
 2.1637251E+01  2.3938366E+01
 2.1648750E+01  2.3923269E+01
 2.1660252E+01  2.3955744E+01
 2.1671751E+01  2.3964930E+01
 2.1683250E+01  2.3960690E+01
 2.1694752E+01  2.3905088E+01
 2.1706251E+01  2.3896305E+01
 2.1717751E+01  2.3896177E+01
 2.1729252E+01  2.3905790E+01
 2.1740751E+01  2.3908405E+01
 2.1752251E+01  2.3899338E+01
 2.1763752E+01  2.3885452E+01
 2.1775251E+01  2.3905851E+01
 2.1786751E+01  2.3913626E+01
 2.1798250E+01  2.3918310E+01
 2.1809752E+01  2.3947483E+01
 2.1821251E+01  2.4026436E+01
 2.1832750E+01  2.4022762E+01
 2.1844252E+01  2.4012486E+01
 2.1855751E+01  2.3978426E+01
 2.1867250E+01  2.3990440E+01
 2.1878752E+01  2.4027491E+01
 2.1890251E+01  2.4027800E+01
 2.1901751E+01  2.4004692E+01
 2.1913252E+01  2.3966845E+01
 2.1924751E+01  2.3987720E+01
 2.1936251E+01  2.3993011E+01
 2.1947752E+01  2.4018759E+01
 2.1959251E+01  2.4025698E+01
 2.1970751E+01  2.4061012E+01
 2.1982250E+01  2.4059715E+01
 2.1993752E+01  2.4113691E+01
 2.2005251E+01  2.4160250E+01
 2.2016750E+01  2.4218204E+01
 2.2028252E+01  2.4203527E+01
 2.2039751E+01  2.4150377E+01
 2.2051250E+01  2.4143829E+01
 2.2062752E+01  2.4121346E+01
 2.2074251E+01  2.4126295E+01
 2.2085751E+01  2.4082903E+01
 2.2097252E+01  2.4144238E+01
 2.2108751E+01  2.4112738E+01
 2.2120251E+01  2.4110586E+01
 2.2131752E+01  2.4124426E+01
 2.2143251E+01  2.4177483E+01
 2.2154751E+01  2.4174742E+01
 2.2166250E+01  2.4176302E+01
 2.2177752E+01  2.4172310E+01
 2.2189251E+01  2.4134258E+01
 2.2200750E+01  2.4120024E+01
 2.2212252E+01  2.4082348E+01
 2.2223751E+01  2.4114677E+01
 2.2235250E+01  2.4150057E+01
 2.2246752E+01  2.4199833E+01
 2.2258251E+01  2.4213203E+01
 2.2269751E+01  2.4203863E+01
 2.2281252E+01  2.4236769E+01
 2.2292751E+01  2.4297888E+01
 2.2304251E+01  2.4382271E+01
 2.2315752E+01  2.4402084E+01
 2.2327251E+01  2.4356739E+01
 2.2338751E+01  2.4313547E+01
 2.2350250E+01  2.4309660E+01
 2.2361752E+01  2.4310816E+01
 2.2373251E+01  2.4307821E+01
 2.2384750E+01  2.4286270E+01
 2.2396252E+01  2.4345995E+01
 2.2407751E+01  2.4325607E+01
 2.2419250E+01  2.4350294E+01
 2.2430752E+01  2.4370413E+01
 2.2442251E+01  2.4434536E+01
 2.2453751E+01  2.4436247E+01
 2.2465252E+01  2.4415083E+01
 2.2476751E+01  2.4429531E+01
 2.2488251E+01  2.4478718E+01
 2.2499752E+01  2.4514870E+01
 2.2511251E+01  2.4533407E+01
 2.2522751E+01  2.4633184E+01
 2.2534250E+01  2.4693960E+01
 2.2545752E+01  2.4753099E+01
 2.2557251E+01  2.4729877E+01
 2.2568750E+01  2.4725412E+01
 2.2580252E+01  2.4664106E+01
 2.2591751E+01  2.4629068E+01
 2.2603251E+01  2.4645529E+01
 2.2614752E+01  2.4680683E+01
 2.2626251E+01  2.4721899E+01
 2.2637751E+01  2.4698734E+01
 2.2649252E+01  2.4671621E+01
 2.2660751E+01  2.4689034E+01
 2.2672251E+01  2.4721626E+01
 2.2683752E+01  2.4791668E+01
 2.2695251E+01  2.4842094E+01
 2.2706751E+01  2.4861197E+01
 2.2718250E+01  2.4892658E+01
 2.2729752E+01  2.4915419E+01
 2.2741251E+01  2.5028301E+01
 2.2752750E+01  2.5082191E+01
 2.2764252E+01  2.5157576E+01
 2.2775751E+01  2.5102221E+01
 2.2787251E+01  2.5065731E+01
 2.2798752E+01  2.5092587E+01
 2.2810251E+01  2.5226511E+01
 2.2821751E+01  2.5289442E+01
 2.2833252E+01  2.5340441E+01
 2.2844751E+01  2.5343637E+01
 2.2856251E+01  2.5379210E+01
 2.2867750E+01  2.5385691E+01
 2.2879251E+01  2.5413223E+01
 2.2890751E+01  2.5488283E+01
 2.2902250E+01  2.5509441E+01
 2.2913752E+01  2.5619255E+01
 2.2925251E+01  2.5723352E+01
 2.2936750E+01  2.5760847E+01
 2.2948252E+01  2.5803644E+01
 2.2959751E+01  2.5857018E+01
 2.2971251E+01  2.6033401E+01
 2.2982752E+01  2.6133272E+01
 2.2994251E+01  2.6244755E+01
