F:\20151113_APS_34IDE\\Brian\Particle1\OCV\Data_0053.tif
2-Theta Angle (Degrees)
Intensity
       2000
 5.7500005E-03  0.0000000E+00
 1.7250001E-02  0.0000000E+00
 2.8750001E-02  0.0000000E+00
 4.0250003E-02  0.0000000E+00
 5.1750004E-02  0.0000000E+00
 6.3250005E-02  0.0000000E+00
 7.4750006E-02  0.0000000E+00
 8.6250007E-02  0.0000000E+00
 9.7750008E-02  0.0000000E+00
 1.0925001E-01  0.0000000E+00
 1.2075000E-01  0.0000000E+00
 1.3225001E-01  0.0000000E+00
 1.4375001E-01  0.0000000E+00
 1.5525001E-01  0.0000000E+00
 1.6675001E-01  0.0000000E+00
 1.7825001E-01  0.0000000E+00
 1.8975002E-01  0.0000000E+00
 2.0125002E-01  0.0000000E+00
 2.1275002E-01  0.0000000E+00
 2.2425000E-01  0.0000000E+00
 2.3575000E-01  0.0000000E+00
 2.4725001E-01  0.0000000E+00
 2.5875002E-01  0.0000000E+00
 2.7025002E-01  0.0000000E+00
 2.8175002E-01  0.0000000E+00
 2.9325002E-01  0.0000000E+00
 3.0475003E-01  0.0000000E+00
 3.1625003E-01  0.0000000E+00
 3.2775003E-01  0.0000000E+00
 3.3925003E-01  0.0000000E+00
 3.5075003E-01  0.0000000E+00
 3.6225003E-01  0.0000000E+00
 3.7375003E-01  0.0000000E+00
 3.8525003E-01  0.0000000E+00
 3.9675003E-01  0.0000000E+00
 4.0825003E-01  0.0000000E+00
 4.1975003E-01  0.0000000E+00
 4.3125004E-01  0.0000000E+00
 4.4275001E-01  0.0000000E+00
 4.5425001E-01  0.0000000E+00
 4.6575001E-01  0.0000000E+00
 4.7725001E-01  0.0000000E+00
 4.8875001E-01  0.0000000E+00
 5.0025004E-01  0.0000000E+00
 5.1175004E-01  0.0000000E+00
 5.2325004E-01  0.0000000E+00
 5.3475004E-01  0.0000000E+00
 5.4625005E-01  0.0000000E+00
 5.5775005E-01  0.0000000E+00
 5.6925005E-01  0.0000000E+00
 5.8075005E-01  0.0000000E+00
 5.9225005E-01  0.0000000E+00
 6.0375005E-01  0.0000000E+00
 6.1525005E-01  0.0000000E+00
 6.2675005E-01  0.0000000E+00
 6.3825005E-01  0.0000000E+00
 6.4975005E-01  0.0000000E+00
 6.6125005E-01  0.0000000E+00
 6.7275006E-01  0.0000000E+00
 6.8425006E-01  0.0000000E+00
 6.9575006E-01  0.0000000E+00
 7.0725006E-01  0.0000000E+00
 7.1875006E-01  0.0000000E+00
 7.3025006E-01  0.0000000E+00
 7.4175006E-01  0.0000000E+00
 7.5325006E-01  0.0000000E+00
 7.6475006E-01  0.0000000E+00
 7.7625006E-01  0.0000000E+00
 7.8775007E-01  0.0000000E+00
 7.9925007E-01  0.0000000E+00
 8.1075007E-01  0.0000000E+00
 8.2225007E-01  0.0000000E+00
 8.3375007E-01  0.0000000E+00
 8.4525007E-01  0.0000000E+00
 8.5675007E-01  0.0000000E+00
 8.6825007E-01  0.0000000E+00
 8.7975001E-01  0.0000000E+00
 8.9125001E-01  0.0000000E+00
 9.0275002E-01  0.0000000E+00
 9.1425002E-01  0.0000000E+00
 9.2575002E-01  0.0000000E+00
 9.3725002E-01  0.0000000E+00
 9.4875002E-01  0.0000000E+00
 9.6025002E-01  0.0000000E+00
 9.7175002E-01  0.0000000E+00
 9.8325002E-01  0.0000000E+00
 9.9475002E-01  0.0000000E+00
 1.0062500E+00  0.0000000E+00
 1.0177500E+00  0.0000000E+00
 1.0292500E+00  0.0000000E+00
 1.0407500E+00  0.0000000E+00
 1.0522500E+00  0.0000000E+00
 1.0637500E+00  0.0000000E+00
 1.0752500E+00  0.0000000E+00
 1.0867500E+00  0.0000000E+00
 1.0982500E+00  0.0000000E+00
 1.1097500E+00  0.0000000E+00
 1.1212500E+00  0.0000000E+00
 1.1327500E+00  0.0000000E+00
 1.1442500E+00  0.0000000E+00
 1.1557500E+00  0.0000000E+00
 1.1672500E+00  0.0000000E+00
 1.1787500E+00  0.0000000E+00
 1.1902500E+00  0.0000000E+00
 1.2017500E+00  0.0000000E+00
 1.2132500E+00  0.0000000E+00
 1.2247500E+00  0.0000000E+00
 1.2362500E+00  0.0000000E+00
 1.2477500E+00  0.0000000E+00
 1.2592500E+00  0.0000000E+00
 1.2707500E+00  0.0000000E+00
 1.2822500E+00  0.0000000E+00
 1.2937500E+00  0.0000000E+00
 1.3052500E+00  0.0000000E+00
 1.3167500E+00  0.0000000E+00
 1.3282501E+00  0.0000000E+00
 1.3397501E+00  0.0000000E+00
 1.3512501E+00  0.0000000E+00
 1.3627501E+00  0.0000000E+00
 1.3742501E+00  0.0000000E+00
 1.3857501E+00  0.0000000E+00
 1.3972501E+00  0.0000000E+00
 1.4087501E+00  0.0000000E+00
 1.4202501E+00  0.0000000E+00
 1.4317501E+00  0.0000000E+00
 1.4432501E+00  0.0000000E+00
 1.4547501E+00  0.0000000E+00
 1.4662501E+00  0.0000000E+00
 1.4777501E+00  0.0000000E+00
 1.4892501E+00  0.0000000E+00
 1.5007501E+00  0.0000000E+00
 1.5122501E+00  0.0000000E+00
 1.5237501E+00  0.0000000E+00
 1.5352501E+00  0.0000000E+00
 1.5467501E+00  0.0000000E+00
 1.5582501E+00  0.0000000E+00
 1.5697501E+00  0.0000000E+00
 1.5812501E+00  0.0000000E+00
 1.5927501E+00  0.0000000E+00
 1.6042501E+00  0.0000000E+00
 1.6157501E+00  0.0000000E+00
 1.6272501E+00  0.0000000E+00
 1.6387501E+00  0.0000000E+00
 1.6502501E+00  0.0000000E+00
 1.6617501E+00  0.0000000E+00
 1.6732501E+00  0.0000000E+00
 1.6847501E+00  0.0000000E+00
 1.6962501E+00  0.0000000E+00
 1.7077501E+00  0.0000000E+00
 1.7192501E+00  0.0000000E+00
 1.7307501E+00  0.0000000E+00
 1.7422501E+00  0.0000000E+00
 1.7537501E+00  0.0000000E+00
 1.7652501E+00  0.0000000E+00
 1.7767501E+00  0.0000000E+00
 1.7882501E+00  0.0000000E+00
 1.7997501E+00  0.0000000E+00
 1.8112501E+00  0.0000000E+00
 1.8227501E+00  0.0000000E+00
 1.8342501E+00  0.0000000E+00
 1.8457501E+00  0.0000000E+00
 1.8572501E+00  0.0000000E+00
 1.8687501E+00  0.0000000E+00
 1.8802501E+00  0.0000000E+00
 1.8917501E+00  0.0000000E+00
 1.9032501E+00  0.0000000E+00
 1.9147501E+00  0.0000000E+00
 1.9262501E+00  0.0000000E+00
 1.9377501E+00  0.0000000E+00
 1.9492501E+00  0.0000000E+00
 1.9607501E+00  0.0000000E+00
 1.9722501E+00  0.0000000E+00
 1.9837501E+00  0.0000000E+00
 1.9952501E+00  0.0000000E+00
 2.0067501E+00  0.0000000E+00
 2.0182500E+00  0.0000000E+00
 2.0297501E+00  0.0000000E+00
 2.0412500E+00  0.0000000E+00
 2.0527501E+00  0.0000000E+00
 2.0642500E+00  0.0000000E+00
 2.0757501E+00  0.0000000E+00
 2.0872500E+00  0.0000000E+00
 2.0987501E+00  0.0000000E+00
 2.1102500E+00  0.0000000E+00
 2.1217501E+00  0.0000000E+00
 2.1332500E+00  0.0000000E+00
 2.1447501E+00  0.0000000E+00
 2.1562500E+00  0.0000000E+00
 2.1677501E+00  0.0000000E+00
 2.1792500E+00  0.0000000E+00
 2.1907501E+00  0.0000000E+00
 2.2022500E+00  0.0000000E+00
 2.2137501E+00  0.0000000E+00
 2.2252500E+00  0.0000000E+00
 2.2367501E+00  0.0000000E+00
 2.2482500E+00  0.0000000E+00
 2.2597501E+00  0.0000000E+00
 2.2712500E+00  0.0000000E+00
 2.2827501E+00  0.0000000E+00
 2.2942500E+00  0.0000000E+00
 2.3057501E+00  0.0000000E+00
 2.3172500E+00  0.0000000E+00
 2.3287501E+00  0.0000000E+00
 2.3402500E+00  0.0000000E+00
 2.3517501E+00  0.0000000E+00
 2.3632500E+00  0.0000000E+00
 2.3747501E+00  0.0000000E+00
 2.3862500E+00  0.0000000E+00
 2.3977501E+00  0.0000000E+00
 2.4092500E+00  0.0000000E+00
 2.4207501E+00  0.0000000E+00
 2.4322500E+00  0.0000000E+00
 2.4437501E+00  0.0000000E+00
 2.4552500E+00  0.0000000E+00
 2.4667501E+00  0.0000000E+00
 2.4782500E+00  0.0000000E+00
 2.4897501E+00  0.0000000E+00
 2.5012500E+00  0.0000000E+00
 2.5127501E+00  0.0000000E+00
 2.5242500E+00  0.0000000E+00
 2.5357502E+00  0.0000000E+00
 2.5472500E+00  0.0000000E+00
 2.5587502E+00  0.0000000E+00
 2.5702500E+00  0.0000000E+00
 2.5817502E+00  0.0000000E+00
 2.5932500E+00  0.0000000E+00
 2.6047502E+00  0.0000000E+00
 2.6162500E+00  0.0000000E+00
 2.6277502E+00  0.0000000E+00
 2.6392500E+00  0.0000000E+00
 2.6507502E+00  0.0000000E+00
 2.6622500E+00  0.0000000E+00
 2.6737502E+00  0.0000000E+00
 2.6852500E+00  0.0000000E+00
 2.6967502E+00  0.0000000E+00
 2.7082500E+00  0.0000000E+00
 2.7197502E+00  0.0000000E+00
 2.7312500E+00  0.0000000E+00
 2.7427502E+00  0.0000000E+00
 2.7542500E+00  0.0000000E+00
 2.7657502E+00  0.0000000E+00
 2.7772501E+00  0.0000000E+00
 2.7887502E+00  0.0000000E+00
 2.8002501E+00  0.0000000E+00
 2.8117502E+00  0.0000000E+00
 2.8232501E+00  3.4740173E+01
 2.8347502E+00  3.5940239E+01
 2.8462501E+00  3.6316448E+01
 2.8577502E+00  3.6009109E+01
 2.8692501E+00  3.5351696E+01
 2.8807502E+00  3.4420353E+01
 2.8922501E+00  3.3953484E+01
 2.9037502E+00  3.4213161E+01
 2.9152501E+00  3.5034630E+01
 2.9267502E+00  3.6024780E+01
 2.9382501E+00  3.6904381E+01
 2.9497502E+00  3.7270393E+01
 2.9612501E+00  3.6972092E+01
 2.9727502E+00  3.7210426E+01
 2.9842501E+00  3.7069683E+01
 2.9957502E+00  3.7266438E+01
 3.0072501E+00  3.6516811E+01
 3.0187502E+00  3.6309166E+01
 3.0302501E+00  3.6230797E+01
 3.0417502E+00  3.6105343E+01
 3.0532501E+00  3.5912308E+01
 3.0647502E+00  3.5547642E+01
 3.0762501E+00  3.5875134E+01
 3.0877502E+00  3.5831303E+01
 3.0992501E+00  3.6031784E+01
 3.1107502E+00  3.5599792E+01
 3.1222501E+00  3.5640095E+01
 3.1337502E+00  3.5710434E+01
 3.1452501E+00  3.6370907E+01
 3.1567502E+00  3.6493462E+01
 3.1682501E+00  3.6457127E+01
 3.1797502E+00  3.6033054E+01
 3.1912501E+00  3.6021881E+01
 3.2027502E+00  3.6031380E+01
 3.2142501E+00  3.6247459E+01
 3.2257502E+00  3.6273102E+01
 3.2372501E+00  3.6297695E+01
 3.2487502E+00  3.6076012E+01
 3.2602501E+00  3.6025517E+01
 3.2717502E+00  3.5505535E+01
 3.2832501E+00  3.5069771E+01
 3.2947502E+00  3.4766937E+01
 3.3062501E+00  3.4833992E+01
 3.3177502E+00  3.5170937E+01
 3.3292501E+00  3.5351048E+01
 3.3407502E+00  3.5530891E+01
 3.3522501E+00  3.5683258E+01
 3.3637502E+00  3.5526878E+01
 3.3752501E+00  3.5227230E+01
 3.3867502E+00  3.4895882E+01
 3.3982501E+00  3.4776634E+01
 3.4097502E+00  3.4534901E+01
 3.4212501E+00  3.4287052E+01
 3.4327502E+00  3.4273308E+01
 3.4442501E+00  3.4224110E+01
 3.4557502E+00  3.4340057E+01
 3.4672501E+00  3.4219368E+01
 3.4787502E+00  3.4246712E+01
 3.4902501E+00  3.4176620E+01
 3.5017502E+00  3.4147472E+01
 3.5132501E+00  3.4072865E+01
 3.5247502E+00  3.3877064E+01
 3.5362501E+00  3.3698223E+01
 3.5477502E+00  3.3771816E+01
 3.5592501E+00  3.3692871E+01
 3.5707502E+00  3.3711693E+01
 3.5822501E+00  3.3703720E+01
 3.5937502E+00  3.3838009E+01
 3.6052501E+00  3.3720699E+01
 3.6167502E+00  3.3706291E+01
 3.6282501E+00  3.3803989E+01
 3.6397502E+00  3.4001705E+01
 3.6512501E+00  3.3818130E+01
 3.6627502E+00  3.3702114E+01
 3.6742501E+00  3.3355736E+01
 3.6857502E+00  3.3147755E+01
 3.6972501E+00  3.3031670E+01
 3.7087502E+00  3.2962799E+01
 3.7202501E+00  3.3064312E+01
 3.7317502E+00  3.3099766E+01
 3.7432501E+00  3.3261410E+01
 3.7547503E+00  3.3159782E+01
 3.7662501E+00  3.2948399E+01
 3.7777503E+00  3.2744156E+01
 3.7892501E+00  3.2619373E+01
 3.8007503E+00  3.2585999E+01
 3.8122501E+00  3.2612358E+01
 3.8237503E+00  3.2685833E+01
 3.8352501E+00  3.2808228E+01
 3.8467503E+00  3.2806095E+01
 3.8582501E+00  3.2879177E+01
 3.8697503E+00  3.2912571E+01
 3.8812501E+00  3.2983631E+01
 3.8927503E+00  3.2863098E+01
 3.9042501E+00  3.2640892E+01
 3.9157503E+00  3.2430157E+01
 3.9272501E+00  3.2332546E+01
 3.9387503E+00  3.2305180E+01
 3.9502501E+00  3.2537491E+01
 3.9617503E+00  3.2658607E+01
 3.9732502E+00  3.2884159E+01
 3.9847503E+00  3.2804031E+01
 3.9962502E+00  3.2662647E+01
 4.0077500E+00  3.2570065E+01
 4.0192504E+00  3.2340843E+01
 4.0307503E+00  3.2276077E+01
 4.0422502E+00  3.2154060E+01
 4.0537500E+00  3.2198044E+01
 4.0652504E+00  3.2202415E+01
 4.0767503E+00  3.2037735E+01
 4.0882502E+00  3.1928179E+01
 4.0997500E+00  3.1948872E+01
 4.1112504E+00  3.2005661E+01
 4.1227503E+00  3.2031422E+01
 4.1342502E+00  3.2049976E+01
 4.1457500E+00  3.2167374E+01
 4.1572504E+00  3.2173409E+01
 4.1687503E+00  3.2057095E+01
 4.1802502E+00  3.1976130E+01
 4.1917500E+00  3.1908594E+01
 4.2032504E+00  3.2044846E+01
 4.2147503E+00  3.2110310E+01
 4.2262502E+00  3.2350655E+01
 4.2377501E+00  3.2300575E+01
 4.2492504E+00  3.2253830E+01
 4.2607503E+00  3.2192135E+01
 4.2722502E+00  3.2113541E+01
 4.2837501E+00  3.2116913E+01
 4.2952504E+00  3.2107063E+01
 4.3067503E+00  3.2139130E+01
 4.3182502E+00  3.2204231E+01
 4.3297501E+00  3.2315838E+01
 4.3412504E+00  3.2481842E+01
 4.3527503E+00  3.2624615E+01
 4.3642502E+00  3.2694931E+01
 4.3757501E+00  3.2831867E+01
 4.3872504E+00  3.2886360E+01
 4.3987503E+00  3.2872250E+01
 4.4102502E+00  3.2771824E+01
 4.4217501E+00  3.2560837E+01
 4.4332504E+00  3.2525021E+01
 4.4447503E+00  3.2411564E+01
 4.4562502E+00  3.2467590E+01
 4.4677501E+00  3.2453587E+01
 4.4792504E+00  3.2518711E+01
 4.4907503E+00  3.2456696E+01
 4.5022502E+00  3.2473972E+01
 4.5137501E+00  3.2458233E+01
 4.5252504E+00  3.2592022E+01
 4.5367503E+00  3.2582111E+01
 4.5482502E+00  3.2684593E+01
 4.5597501E+00  3.2571327E+01
 4.5712504E+00  3.2641861E+01
 4.5827503E+00  3.2482281E+01
 4.5942502E+00  3.2599190E+01
 4.6057501E+00  3.2691582E+01
 4.6172504E+00  3.2790131E+01
 4.6287503E+00  3.2722870E+01
 4.6402502E+00  3.2643105E+01
 4.6517501E+00  3.2495991E+01
 4.6632504E+00  3.2607246E+01
 4.6747503E+00  3.2389736E+01
 4.6862502E+00  3.2367714E+01
 4.6977501E+00  3.2235260E+01
 4.7092505E+00  3.2323517E+01
 4.7207503E+00  3.2354023E+01
 4.7322502E+00  3.2341747E+01
 4.7437501E+00  3.2404312E+01
 4.7552505E+00  3.2533470E+01
 4.7667503E+00  3.2613022E+01
 4.7782502E+00  3.2595310E+01
 4.7897501E+00  3.2536907E+01
 4.8012505E+00  3.2452877E+01
 4.8127503E+00  3.2424938E+01
 4.8242502E+00  3.2349041E+01
 4.8357501E+00  3.2451172E+01
 4.8472505E+00  3.2551785E+01
 4.8587503E+00  3.2780045E+01
 4.8702502E+00  3.3015800E+01
 4.8817501E+00  3.3116413E+01
 4.8932505E+00  3.3189018E+01
 4.9047503E+00  3.3089500E+01
 4.9162502E+00  3.3065609E+01
 4.9277501E+00  3.2988659E+01
 4.9392505E+00  3.2938477E+01
 4.9507504E+00  3.3050728E+01
 4.9622502E+00  3.2963642E+01
 4.9737501E+00  3.3078377E+01
 4.9852505E+00  3.3121086E+01
 4.9967504E+00  3.3248821E+01
 5.0082502E+00  3.3346004E+01
 5.0197501E+00  3.3369045E+01
 5.0312505E+00  3.3309296E+01
 5.0427504E+00  3.3243816E+01
 5.0542502E+00  3.3150261E+01
 5.0657501E+00  3.3152237E+01
 5.0772505E+00  3.3216476E+01
 5.0887504E+00  3.3173485E+01
 5.1002502E+00  3.3227726E+01
 5.1117501E+00  3.3145546E+01
 5.1232505E+00  3.3087379E+01
 5.1347504E+00  3.3110115E+01
 5.1462502E+00  3.3199177E+01
 5.1577501E+00  3.3449501E+01
 5.1692505E+00  3.3591805E+01
 5.1807504E+00  3.3758381E+01
 5.1922503E+00  3.3803986E+01
 5.2037501E+00  3.3794411E+01
 5.2152505E+00  3.3656967E+01
 5.2267504E+00  3.3640720E+01
 5.2382503E+00  3.3691086E+01
 5.2497501E+00  3.3819378E+01
 5.2612505E+00  3.3832054E+01
 5.2727504E+00  3.3844509E+01
 5.2842503E+00  3.3782051E+01
 5.2957501E+00  3.3912350E+01
 5.3072500E+00  3.3863369E+01
 5.3187504E+00  3.4060768E+01
 5.3302503E+00  3.4089718E+01
 5.3417501E+00  3.4268505E+01
 5.3532500E+00  3.4227634E+01
 5.3647504E+00  3.4233856E+01
 5.3762503E+00  3.4270035E+01
 5.3877501E+00  3.4362118E+01
 5.3992500E+00  3.4427479E+01
 5.4107504E+00  3.4351421E+01
 5.4222503E+00  3.4301826E+01
 5.4337502E+00  3.4056343E+01
 5.4452500E+00  3.4163464E+01
 5.4567504E+00  3.4321976E+01
 5.4682503E+00  3.4510612E+01
 5.4797502E+00  3.4531986E+01
 5.4912500E+00  3.4457989E+01
 5.5027504E+00  3.4495655E+01
 5.5142503E+00  3.4566677E+01
 5.5257502E+00  3.4623489E+01
 5.5372500E+00  3.4799812E+01
 5.5487504E+00  3.4942009E+01
 5.5602503E+00  3.4973671E+01
 5.5717502E+00  3.5035610E+01
 5.5832500E+00  3.5091484E+01
 5.5947504E+00  3.5052509E+01
 5.6062503E+00  3.5057583E+01
 5.6177502E+00  3.4910545E+01
 5.6292500E+00  3.4975307E+01
 5.6407504E+00  3.4908104E+01
 5.6522503E+00  3.4978046E+01
 5.6637502E+00  3.5174267E+01
 5.6752501E+00  3.5296623E+01
 5.6867504E+00  3.5295139E+01
 5.6982503E+00  3.5105892E+01
 5.7097502E+00  3.5107254E+01
 5.7212501E+00  3.5018703E+01
 5.7327504E+00  3.5115055E+01
 5.7442503E+00  3.5097473E+01
 5.7557502E+00  3.5144970E+01
 5.7672501E+00  3.5156460E+01
 5.7787504E+00  3.5194748E+01
 5.7902503E+00  3.5340942E+01
 5.8017502E+00  3.5470776E+01
 5.8132501E+00  3.5633736E+01
 5.8247504E+00  3.5732445E+01
 5.8362503E+00  3.5974503E+01
 5.8477502E+00  3.6107399E+01
 5.8592501E+00  3.6280594E+01
 5.8707504E+00  3.6488098E+01
 5.8822503E+00  3.6733738E+01
 5.8937502E+00  3.7249588E+01
 5.9052501E+00  3.7763298E+01
 5.9167504E+00  3.8459625E+01
 5.9282503E+00  3.9432266E+01
 5.9397502E+00  4.1382111E+01
 5.9512501E+00  4.4203148E+01
 5.9627504E+00  4.7497368E+01
 5.9742503E+00  5.0227329E+01
 5.9857502E+00  5.2642685E+01
 5.9972501E+00  5.3480621E+01
 6.0087504E+00  5.1935642E+01
 6.0202503E+00  4.8167530E+01
 6.0317502E+00  4.4021366E+01
 6.0432501E+00  4.1257698E+01
 6.0547504E+00  3.9308861E+01
 6.0662503E+00  3.8329586E+01
 6.0777502E+00  3.7755085E+01
 6.0892501E+00  3.7452034E+01
 6.1007504E+00  3.7314034E+01
 6.1122503E+00  3.7249767E+01
 6.1237502E+00  3.7253578E+01
 6.1352501E+00  3.7176216E+01
 6.1467505E+00  3.7128384E+01
 6.1582503E+00  3.7106686E+01
 6.1697502E+00  3.7055946E+01
 6.1812501E+00  3.7100357E+01
 6.1927505E+00  3.7087959E+01
 6.2042503E+00  3.7028252E+01
 6.2157502E+00  3.7103626E+01
 6.2272501E+00  3.7180260E+01
 6.2387505E+00  3.7183540E+01
 6.2502503E+00  3.7331360E+01
 6.2617502E+00  3.7404488E+01
 6.2732501E+00  3.7653221E+01
 6.2847505E+00  3.7682652E+01
 6.2962503E+00  3.7680622E+01
 6.3077502E+00  3.7822937E+01
 6.3192501E+00  3.7820324E+01
 6.3307505E+00  3.7923126E+01
 6.3422503E+00  3.7908436E+01
 6.3537502E+00  3.8010471E+01
 6.3652501E+00  3.8047005E+01
 6.3767505E+00  3.8138252E+01
 6.3882504E+00  3.8211342E+01
 6.3997502E+00  3.8283756E+01
 6.4112501E+00  3.8437939E+01
 6.4227505E+00  3.8577526E+01
 6.4342504E+00  3.8669228E+01
 6.4457502E+00  3.8741539E+01
 6.4572501E+00  3.8701099E+01
 6.4687505E+00  3.8814060E+01
 6.4802504E+00  3.8840958E+01
 6.4917502E+00  3.8956318E+01
 6.5032501E+00  3.9045956E+01
 6.5147505E+00  3.9057903E+01
 6.5262504E+00  3.9194256E+01
 6.5377502E+00  3.9262394E+01
 6.5492501E+00  3.9383293E+01
 6.5607505E+00  3.9392521E+01
 6.5722504E+00  3.9420025E+01
 6.5837502E+00  3.9487278E+01
 6.5952501E+00  3.9523354E+01
 6.6067505E+00  3.9532143E+01
 6.6182504E+00  3.9562420E+01
 6.6297503E+00  3.9627857E+01
 6.6412501E+00  3.9654484E+01
 6.6527505E+00  3.9815720E+01
 6.6642504E+00  3.9854023E+01
 6.6757503E+00  3.9980755E+01
 6.6872501E+00  4.0057102E+01
 6.6987505E+00  4.0027828E+01
 6.7102504E+00  4.0174465E+01
 6.7217503E+00  4.0206806E+01
 6.7332501E+00  4.0381252E+01
 6.7447505E+00  4.0502190E+01
 6.7562504E+00  4.0718376E+01
 6.7677503E+00  4.0843170E+01
 6.7792501E+00  4.0957012E+01
 6.7907505E+00  4.0923744E+01
 6.8022504E+00  4.1093071E+01
 6.8137503E+00  4.1181217E+01
 6.8252501E+00  4.1321964E+01
 6.8367505E+00  4.1283386E+01
 6.8482504E+00  4.1407513E+01
 6.8597503E+00  4.1487434E+01
 6.8712502E+00  4.1647755E+01
 6.8827505E+00  4.1731255E+01
 6.8942504E+00  4.1763008E+01
 6.9057503E+00  4.1948269E+01
 6.9172502E+00  4.2126015E+01
 6.9287505E+00  4.2254772E+01
 6.9402504E+00  4.2352097E+01
 6.9517503E+00  4.2322906E+01
 6.9632502E+00  4.2283508E+01
 6.9747505E+00  4.2226837E+01
 6.9862504E+00  4.2236107E+01
 6.9977503E+00  4.2430119E+01
 7.0092502E+00  4.2547836E+01
 7.0207505E+00  4.2656818E+01
 7.0322504E+00  4.2689240E+01
 7.0437503E+00  4.2621460E+01
 7.0552502E+00  4.2525143E+01
 7.0667505E+00  4.2423458E+01
 7.0782504E+00  4.2386734E+01
 7.0897503E+00  4.2467342E+01
 7.1012502E+00  4.2496128E+01
 7.1127505E+00  4.2614201E+01
 7.1242504E+00  4.2624809E+01
 7.1357503E+00  4.2665325E+01
 7.1472502E+00  4.2693165E+01
 7.1587505E+00  4.2744709E+01
 7.1702504E+00  4.2824905E+01
 7.1817503E+00  4.2972980E+01
 7.1932502E+00  4.3026947E+01
 7.2047505E+00  4.3162266E+01
 7.2162504E+00  4.3104145E+01
 7.2277503E+00  4.3214458E+01
 7.2392502E+00  4.3269913E+01
 7.2507505E+00  4.3289749E+01
 7.2622504E+00  4.3338383E+01
 7.2737503E+00  4.3288990E+01
 7.2852502E+00  4.3437599E+01
 7.2967505E+00  4.3474888E+01
 7.3082504E+00  4.3572052E+01
 7.3197503E+00  4.3613491E+01
 7.3312502E+00  4.3574337E+01
 7.3427505E+00  4.3673664E+01
 7.3542504E+00  4.3720116E+01
 7.3657503E+00  4.3863819E+01
 7.3772502E+00  4.3904449E+01
 7.3887506E+00  4.3952881E+01
 7.4002504E+00  4.3991623E+01
 7.4117503E+00  4.4041187E+01
 7.4232502E+00  4.3999554E+01
 7.4347506E+00  4.3955494E+01
 7.4462504E+00  4.3959232E+01
 7.4577503E+00  4.4074577E+01
 7.4692502E+00  4.4217724E+01
 7.4807506E+00  4.4337845E+01
 7.4922504E+00  4.4481674E+01
 7.5037503E+00  4.4471527E+01
 7.5152502E+00  4.4353031E+01
 7.5267506E+00  4.4275951E+01
 7.5382504E+00  4.4216076E+01
 7.5497503E+00  4.4180611E+01
 7.5612502E+00  4.4240807E+01
 7.5727506E+00  4.4349270E+01
 7.5842505E+00  4.4468094E+01
 7.5957503E+00  4.4381092E+01
 7.6072502E+00  4.4385323E+01
 7.6187506E+00  4.4357407E+01
 7.6302505E+00  4.4325764E+01
 7.6417503E+00  4.4322426E+01
 7.6532502E+00  4.4282921E+01
 7.6647506E+00  4.4229927E+01
 7.6762505E+00  4.4132133E+01
 7.6877503E+00  4.4021381E+01
 7.6992502E+00  4.3972889E+01
 7.7107506E+00  4.3980247E+01
 7.7222505E+00  4.3993340E+01
 7.7337503E+00  4.4029076E+01
 7.7452502E+00  4.3888725E+01
 7.7567506E+00  4.3885056E+01
 7.7682505E+00  4.3905262E+01
 7.7797503E+00  4.4050861E+01
 7.7912502E+00  4.4152939E+01
 7.8027506E+00  4.4236870E+01
 7.8142505E+00  4.4178810E+01
 7.8257504E+00  4.4144123E+01
 7.8372502E+00  4.4026470E+01
 7.8487506E+00  4.4064243E+01
 7.8602505E+00  4.4029221E+01
 7.8717504E+00  4.4030914E+01
 7.8832502E+00  4.3992611E+01
 7.8947506E+00  4.4023361E+01
 7.9062505E+00  4.4079288E+01
 7.9177504E+00  4.3992493E+01
 7.9292502E+00  4.3907913E+01
 7.9407506E+00  4.3860329E+01
 7.9522505E+00  4.3774364E+01
 7.9637504E+00  4.3688385E+01
 7.9752502E+00  4.3564217E+01
 7.9867506E+00  4.3509571E+01
 7.9982505E+00  4.3352070E+01
 8.0097504E+00  4.3207272E+01
 8.0212507E+00  4.3178677E+01
 8.0327501E+00  4.3082485E+01
 8.0442505E+00  4.3095398E+01
 8.0557508E+00  4.3079487E+01
 8.0672503E+00  4.3104916E+01
 8.0787506E+00  4.3090126E+01
 8.0902500E+00  4.3035160E+01
 8.1017504E+00  4.3104618E+01
 8.1132507E+00  4.3121021E+01
 8.1247501E+00  4.2922508E+01
 8.1362505E+00  4.2706547E+01
 8.1477509E+00  4.2440136E+01
 8.1592503E+00  4.2209343E+01
 8.1707506E+00  4.2046448E+01
 8.1822500E+00  4.1938351E+01
 8.1937504E+00  4.1914143E+01
 8.2052507E+00  4.1844944E+01
 8.2167501E+00  4.1705383E+01
 8.2282505E+00  4.1615284E+01
 8.2397509E+00  4.1503231E+01
 8.2512503E+00  4.1403221E+01
 8.2627506E+00  4.1268494E+01
 8.2742500E+00  4.1174900E+01
 8.2857504E+00  4.1053249E+01
 8.2972507E+00  4.0916790E+01
 8.3087502E+00  4.0763390E+01
 8.3202505E+00  4.0668213E+01
 8.3317509E+00  4.0539276E+01
 8.3432503E+00  4.0497906E+01
 8.3547506E+00  4.0400261E+01
 8.3662500E+00  4.0398663E+01
 8.3777504E+00  4.0288486E+01
 8.3892508E+00  4.0040455E+01
 8.4007502E+00  3.9726311E+01
 8.4122505E+00  3.9467228E+01
 8.4237509E+00  3.9233700E+01
 8.4352503E+00  3.9066532E+01
 8.4467506E+00  3.8869980E+01
 8.4582500E+00  3.8739128E+01
 8.4697504E+00  3.8562202E+01
 8.4812508E+00  3.8280846E+01
 8.4927502E+00  3.7990967E+01
 8.5042505E+00  3.7720364E+01
 8.5157509E+00  3.7587765E+01
 8.5272503E+00  3.7412617E+01
 8.5387506E+00  3.7334644E+01
 8.5502501E+00  3.7144184E+01
 8.5617504E+00  3.7028206E+01
 8.5732508E+00  3.6931187E+01
 8.5847502E+00  3.6745392E+01
 8.5962505E+00  3.6582970E+01
 8.6077509E+00  3.6434399E+01
 8.6192503E+00  3.6249664E+01
 8.6307507E+00  3.6091831E+01
 8.6422501E+00  3.5812012E+01
 8.6537504E+00  3.5599323E+01
 8.6652508E+00  3.5452259E+01
 8.6767502E+00  3.5278999E+01
 8.6882505E+00  3.5184193E+01
 8.6997509E+00  3.5028095E+01
 8.7112503E+00  3.4757343E+01
 8.7227507E+00  3.4498425E+01
 8.7342501E+00  3.4231361E+01
 8.7457504E+00  3.4052303E+01
 8.7572508E+00  3.3881107E+01
 8.7687502E+00  3.3718052E+01
 8.7802505E+00  3.3542183E+01
 8.7917500E+00  3.3350525E+01
 8.8032503E+00  3.3155022E+01
 8.8147507E+00  3.3037846E+01
 8.8262501E+00  3.2830357E+01
 8.8377504E+00  3.2703259E+01
 8.8492508E+00  3.2592628E+01
 8.8607502E+00  3.2484066E+01
 8.8722506E+00  3.2377514E+01
 8.8837500E+00  3.2280949E+01
 8.8952503E+00  3.2251789E+01
 8.9067507E+00  3.2179470E+01
 8.9182501E+00  3.1958921E+01
 8.9297504E+00  3.1814831E+01
 8.9412508E+00  3.1581585E+01
 8.9527502E+00  3.1388868E+01
 8.9642506E+00  3.1213503E+01
 8.9757500E+00  3.1061123E+01
 8.9872503E+00  3.0920717E+01
 8.9987507E+00  3.0695173E+01
 9.0102501E+00  3.0488007E+01
 9.0217505E+00  3.0343796E+01
 9.0332508E+00  3.0239346E+01
 9.0447502E+00  3.0118305E+01
 9.0562506E+00  3.0072571E+01
 9.0677500E+00  3.0064669E+01
 9.0792503E+00  2.9995924E+01
 9.0907507E+00  2.9844315E+01
 9.1022501E+00  2.9617672E+01
 9.1137505E+00  2.9503918E+01
 9.1252508E+00  2.9368862E+01
 9.1367502E+00  2.9269043E+01
 9.1482506E+00  2.9152601E+01
 9.1597500E+00  2.8992594E+01
 9.1712503E+00  2.8880711E+01
 9.1827507E+00  2.8723078E+01
 9.1942501E+00  2.8672405E+01
 9.2057505E+00  2.8486517E+01
 9.2172508E+00  2.8460888E+01
 9.2287502E+00  2.8339567E+01
 9.2402506E+00  2.8354616E+01
 9.2517500E+00  2.8273054E+01
 9.2632504E+00  2.8154095E+01
 9.2747507E+00  2.8064898E+01
 9.2862501E+00  2.7885239E+01
 9.2977505E+00  2.7815699E+01
 9.3092508E+00  2.7720552E+01
 9.3207502E+00  2.7646357E+01
 9.3322506E+00  2.7566393E+01
 9.3437500E+00  2.7383760E+01
 9.3552504E+00  2.7307325E+01
 9.3667507E+00  2.7188122E+01
 9.3782501E+00  2.7106487E+01
 9.3897505E+00  2.7009590E+01
 9.4012508E+00  2.6922216E+01
 9.4127502E+00  2.6903316E+01
 9.4242506E+00  2.6841339E+01
 9.4357500E+00  2.6759769E+01
 9.4472504E+00  2.6651031E+01
 9.4587507E+00  2.6536842E+01
 9.4702501E+00  2.6430882E+01
 9.4817505E+00  2.6395634E+01
 9.4932508E+00  2.6298105E+01
 9.5047503E+00  2.6275869E+01
 9.5162506E+00  2.6167183E+01
 9.5277500E+00  2.6139006E+01
 9.5392504E+00  2.6083281E+01
 9.5507507E+00  2.6017868E+01
 9.5622501E+00  2.5926733E+01
 9.5737505E+00  2.5805975E+01
 9.5852509E+00  2.5671076E+01
 9.5967503E+00  2.5669760E+01
 9.6082506E+00  2.5608755E+01
 9.6197500E+00  2.5646172E+01
 9.6312504E+00  2.5548731E+01
 9.6427507E+00  2.5555883E+01
 9.6542501E+00  2.5517874E+01
 9.6657505E+00  2.5457590E+01
 9.6772509E+00  2.5333445E+01
 9.6887503E+00  2.5220058E+01
 9.7002506E+00  2.5161562E+01
 9.7117500E+00  2.5228945E+01
 9.7232504E+00  2.5279140E+01
 9.7347507E+00  2.5326857E+01
 9.7462502E+00  2.5324137E+01
 9.7577505E+00  2.5272282E+01
 9.7692509E+00  2.5186920E+01
 9.7807503E+00  2.5056454E+01
 9.7922506E+00  2.4974041E+01
 9.8037500E+00  2.4915928E+01
 9.8152504E+00  2.4850542E+01
 9.8267508E+00  2.4804781E+01
 9.8382502E+00  2.4758629E+01
 9.8497505E+00  2.4728317E+01
 9.8612509E+00  2.4691454E+01
 9.8727503E+00  2.4684067E+01
 9.8842506E+00  2.4660242E+01
 9.8957500E+00  2.4599911E+01
 9.9072504E+00  2.4555122E+01
 9.9187508E+00  2.4476654E+01
 9.9302502E+00  2.4406710E+01
 9.9417505E+00  2.4341053E+01
 9.9532509E+00  2.4312164E+01
 9.9647503E+00  2.4336479E+01
 9.9762506E+00  2.4344145E+01
 9.9877501E+00  2.4354097E+01
 9.9992504E+00  2.4341318E+01
 1.0010751E+01  2.4274752E+01
 1.0022250E+01  2.4180958E+01
 1.0033751E+01  2.4119793E+01
 1.0045251E+01  2.4048168E+01
 1.0056750E+01  2.4057512E+01
 1.0068251E+01  2.3985870E+01
 1.0079750E+01  2.4003464E+01
 1.0091250E+01  2.3954439E+01
 1.0102751E+01  2.3895760E+01
 1.0114250E+01  2.3796841E+01
 1.0125751E+01  2.3799294E+01
 1.0137251E+01  2.3800116E+01
 1.0148750E+01  2.3829468E+01
 1.0160251E+01  2.3746307E+01
 1.0171750E+01  2.3745586E+01
 1.0183250E+01  2.3717575E+01
 1.0194751E+01  2.3716951E+01
 1.0206250E+01  2.3688223E+01
 1.0217751E+01  2.3668970E+01
 1.0229251E+01  2.3633295E+01
 1.0240750E+01  2.3581217E+01
 1.0252251E+01  2.3492935E+01
 1.0263750E+01  2.3442200E+01
 1.0275250E+01  2.3431196E+01
 1.0286751E+01  2.3456783E+01
 1.0298250E+01  2.3496040E+01
 1.0309751E+01  2.3495403E+01
 1.0321251E+01  2.3507570E+01
 1.0332750E+01  2.3530115E+01
 1.0344251E+01  2.3561806E+01
 1.0355750E+01  2.3529888E+01
 1.0367250E+01  2.3418982E+01
 1.0378751E+01  2.3361425E+01
 1.0390250E+01  2.3347591E+01
 1.0401751E+01  2.3353426E+01
 1.0413251E+01  2.3319075E+01
 1.0424750E+01  2.3310648E+01
 1.0436251E+01  2.3335438E+01
 1.0447750E+01  2.3331369E+01
 1.0459250E+01  2.3324242E+01
 1.0470751E+01  2.3286001E+01
 1.0482250E+01  2.3228683E+01
 1.0493751E+01  2.3160509E+01
 1.0505251E+01  2.3102493E+01
 1.0516750E+01  2.3156385E+01
 1.0528251E+01  2.3127144E+01
 1.0539750E+01  2.3096672E+01
 1.0551250E+01  2.3072084E+01
 1.0562751E+01  2.3059448E+01
 1.0574250E+01  2.3053373E+01
 1.0585751E+01  2.2913494E+01
 1.0597251E+01  2.2860054E+01
 1.0608750E+01  2.2821939E+01
 1.0620251E+01  2.2828228E+01
 1.0631750E+01  2.2857828E+01
 1.0643250E+01  2.2882570E+01
 1.0654751E+01  2.2968029E+01
 1.0666250E+01  2.3024410E+01
 1.0677751E+01  2.3095629E+01
 1.0689251E+01  2.3102795E+01
 1.0700750E+01  2.3054768E+01
 1.0712251E+01  2.2975006E+01
 1.0723750E+01  2.2950621E+01
 1.0735250E+01  2.2943001E+01
 1.0746751E+01  2.2915308E+01
 1.0758250E+01  2.2883842E+01
 1.0769751E+01  2.2863766E+01
 1.0781251E+01  2.2822464E+01
 1.0792750E+01  2.2735453E+01
 1.0804251E+01  2.2631697E+01
 1.0815750E+01  2.2611830E+01
 1.0827250E+01  2.2610680E+01
 1.0838751E+01  2.2657452E+01
 1.0850250E+01  2.2658319E+01
 1.0861751E+01  2.2712200E+01
 1.0873251E+01  2.2717733E+01
 1.0884750E+01  2.2681002E+01
 1.0896251E+01  2.2645105E+01
 1.0907750E+01  2.2595455E+01
 1.0919250E+01  2.2580246E+01
 1.0930751E+01  2.2530136E+01
 1.0942250E+01  2.2524216E+01
 1.0953751E+01  2.2550869E+01
 1.0965251E+01  2.2539713E+01
 1.0976750E+01  2.2595230E+01
 1.0988251E+01  2.2577311E+01
 1.0999750E+01  2.2664824E+01
 1.1011250E+01  2.2664162E+01
 1.1022751E+01  2.2726416E+01
 1.1034250E+01  2.2714230E+01
 1.1045751E+01  2.2707439E+01
 1.1057251E+01  2.2642300E+01
 1.1068750E+01  2.2599979E+01
 1.1080251E+01  2.2515036E+01
 1.1091750E+01  2.2485949E+01
 1.1103251E+01  2.2479084E+01
 1.1114751E+01  2.2514801E+01
 1.1126250E+01  2.2592796E+01
 1.1137751E+01  2.2566315E+01
 1.1149251E+01  2.2573183E+01
 1.1160750E+01  2.2517591E+01
 1.1172251E+01  2.2466572E+01
 1.1183750E+01  2.2439587E+01
 1.1195251E+01  2.2400064E+01
 1.1206751E+01  2.2419004E+01
 1.1218250E+01  2.2404274E+01
 1.1229751E+01  2.2433477E+01
 1.1241251E+01  2.2468256E+01
 1.1252750E+01  2.2473289E+01
 1.1264251E+01  2.2505112E+01
 1.1275750E+01  2.2512587E+01
 1.1287251E+01  2.2563570E+01
 1.1298751E+01  2.2570005E+01
 1.1310250E+01  2.2754755E+01
 1.1321751E+01  2.2782873E+01
 1.1333251E+01  2.2927248E+01
 1.1344750E+01  2.2781590E+01
 1.1356251E+01  2.2824051E+01
 1.1367750E+01  2.2781759E+01
 1.1379251E+01  2.2869766E+01
 1.1390751E+01  2.2880766E+01
 1.1402250E+01  2.3057327E+01
 1.1413751E+01  2.3078594E+01
 1.1425251E+01  2.3179724E+01
 1.1436750E+01  2.3091530E+01
 1.1448251E+01  2.3137659E+01
 1.1459750E+01  2.3170372E+01
 1.1471251E+01  2.3186281E+01
 1.1482751E+01  2.3249060E+01
 1.1494250E+01  2.3457514E+01
 1.1505751E+01  2.3710358E+01
 1.1517251E+01  2.4452669E+01
 1.1528750E+01  2.5791695E+01
 1.1540251E+01  2.7678598E+01
 1.1551750E+01  3.1086987E+01
 1.1563251E+01  3.4331409E+01
 1.1574751E+01  3.7621731E+01
 1.1586250E+01  4.0043728E+01
 1.1597751E+01  4.0474136E+01
 1.1609251E+01  3.9537334E+01
 1.1620750E+01  3.6905941E+01
 1.1632251E+01  3.3639462E+01
 1.1643750E+01  3.0444500E+01
 1.1655251E+01  2.7295517E+01
 1.1666751E+01  2.5620556E+01
 1.1678250E+01  2.4522076E+01
 1.1689751E+01  2.3695370E+01
 1.1701251E+01  2.3365396E+01
 1.1712750E+01  2.3079027E+01
 1.1724251E+01  2.2973257E+01
 1.1735750E+01  2.2927637E+01
 1.1747251E+01  2.2895901E+01
 1.1758751E+01  2.2871210E+01
 1.1770250E+01  2.2803902E+01
 1.1781751E+01  2.2723688E+01
 1.1793251E+01  2.2684328E+01
 1.1804750E+01  2.2662987E+01
 1.1816251E+01  2.2667784E+01
 1.1827750E+01  2.2676373E+01
 1.1839251E+01  2.2695148E+01
 1.1850751E+01  2.2599796E+01
 1.1862250E+01  2.2551010E+01
 1.1873751E+01  2.2463310E+01
 1.1885251E+01  2.2491838E+01
 1.1896750E+01  2.2485420E+01
 1.1908251E+01  2.2553392E+01
 1.1919750E+01  2.2609837E+01
 1.1931251E+01  2.2700583E+01
 1.1942751E+01  2.2798931E+01
 1.1954250E+01  2.2962547E+01
 1.1965751E+01  2.3078659E+01
 1.1977251E+01  2.3228676E+01
 1.1988750E+01  2.3318943E+01
 1.2000251E+01  2.3365194E+01
 1.2011750E+01  2.3333069E+01
 1.2023251E+01  2.3330643E+01
 1.2034751E+01  2.3426579E+01
 1.2046250E+01  2.3621508E+01
 1.2057751E+01  2.3778225E+01
 1.2069251E+01  2.4238081E+01
 1.2080750E+01  2.4615263E+01
 1.2092251E+01  2.4828257E+01
 1.2103750E+01  2.5570627E+01
 1.2115251E+01  2.5488995E+01
 1.2126751E+01  2.5444929E+01
 1.2138250E+01  2.4682091E+01
 1.2149751E+01  2.4207483E+01
 1.2161251E+01  2.3762461E+01
 1.2172750E+01  2.3089622E+01
 1.2184251E+01  2.2873919E+01
 1.2195750E+01  2.2678127E+01
 1.2207251E+01  2.2494925E+01
 1.2218751E+01  2.2424738E+01
 1.2230250E+01  2.2436199E+01
 1.2241751E+01  2.2480923E+01
 1.2253251E+01  2.2499641E+01
 1.2264750E+01  2.2466822E+01
 1.2276251E+01  2.2465708E+01
 1.2287750E+01  2.2441607E+01
 1.2299251E+01  2.2467833E+01
 1.2310751E+01  2.2505867E+01
 1.2322250E+01  2.2536598E+01
 1.2333751E+01  2.2549355E+01
 1.2345250E+01  2.2523920E+01
 1.2356750E+01  2.2504004E+01
 1.2368251E+01  2.2419298E+01
 1.2379750E+01  2.2404140E+01
 1.2391251E+01  2.2364475E+01
 1.2402751E+01  2.2383480E+01
 1.2414250E+01  2.2459511E+01
 1.2425751E+01  2.2536736E+01
 1.2437250E+01  2.2664232E+01
 1.2448750E+01  2.2678396E+01
 1.2460251E+01  2.2709370E+01
 1.2471750E+01  2.2705847E+01
 1.2483251E+01  2.2728905E+01
 1.2494751E+01  2.2689814E+01
 1.2506250E+01  2.2588989E+01
 1.2517751E+01  2.2460236E+01
 1.2529250E+01  2.2461481E+01
 1.2540751E+01  2.2543221E+01
 1.2552251E+01  2.2629101E+01
 1.2563750E+01  2.2708073E+01
 1.2575251E+01  2.2690243E+01
 1.2586751E+01  2.2714794E+01
 1.2598250E+01  2.2683661E+01
 1.2609751E+01  2.2768961E+01
 1.2621250E+01  2.2769939E+01
 1.2632751E+01  2.2788128E+01
 1.2644251E+01  2.2686022E+01
 1.2655750E+01  2.2672430E+01
 1.2667251E+01  2.2669039E+01
 1.2678751E+01  2.2679754E+01
 1.2690250E+01  2.2685738E+01
 1.2701751E+01  2.2731285E+01
 1.2713250E+01  2.2809612E+01
 1.2724751E+01  2.2889347E+01
 1.2736251E+01  2.2938368E+01
 1.2747750E+01  2.3011154E+01
 1.2759251E+01  2.3058954E+01
 1.2770751E+01  2.3008053E+01
 1.2782250E+01  2.3013430E+01
 1.2793751E+01  2.2959858E+01
 1.2805250E+01  2.3042095E+01
 1.2816751E+01  2.3047659E+01
 1.2828251E+01  2.3145132E+01
 1.2839750E+01  2.3201281E+01
 1.2851251E+01  2.3266697E+01
 1.2862751E+01  2.3335115E+01
 1.2874250E+01  2.3403910E+01
 1.2885751E+01  2.3450529E+01
 1.2897250E+01  2.3455982E+01
 1.2908751E+01  2.3493801E+01
 1.2920251E+01  2.3553247E+01
 1.2931750E+01  2.3647831E+01
 1.2943251E+01  2.3663649E+01
 1.2954751E+01  2.3689587E+01
 1.2966250E+01  2.3744162E+01
 1.2977751E+01  2.3822409E+01
 1.2989250E+01  2.3832552E+01
 1.3000751E+01  2.3877222E+01
 1.3012251E+01  2.3916277E+01
 1.3023750E+01  2.4005362E+01
 1.3035251E+01  2.4049982E+01
 1.3046751E+01  2.4150604E+01
 1.3058250E+01  2.4276722E+01
 1.3069751E+01  2.4286163E+01
 1.3081250E+01  2.4375092E+01
 1.3092751E+01  2.4466894E+01
 1.3104251E+01  2.4683290E+01
 1.3115750E+01  2.4817766E+01
 1.3127251E+01  2.4978848E+01
 1.3138751E+01  2.5097076E+01
 1.3150250E+01  2.5225708E+01
 1.3161751E+01  2.5295637E+01
 1.3173250E+01  2.5370197E+01
 1.3184751E+01  2.5452454E+01
 1.3196251E+01  2.5505899E+01
 1.3207750E+01  2.5654953E+01
 1.3219251E+01  2.5757969E+01
 1.3230751E+01  2.5927565E+01
 1.3242250E+01  2.6026485E+01
 1.3253751E+01  2.6158045E+01
 1.3265250E+01  2.6266264E+01
 1.3276751E+01  2.6408993E+01
 1.3288251E+01  2.6575302E+01
 1.3299750E+01  2.6765280E+01
 1.3311251E+01  2.6865835E+01
 1.3322751E+01  2.7051132E+01
 1.3334250E+01  2.7284607E+01
 1.3345751E+01  2.7514465E+01
 1.3357250E+01  2.7726244E+01
 1.3368751E+01  2.7880281E+01
 1.3380251E+01  2.8067698E+01
 1.3391750E+01  2.8124084E+01
 1.3403251E+01  2.8249641E+01
 1.3414751E+01  2.8303709E+01
 1.3426250E+01  2.8398445E+01
 1.3437751E+01  2.8530043E+01
 1.3449250E+01  2.8696259E+01
 1.3460751E+01  2.8870691E+01
 1.3472251E+01  2.8989073E+01
 1.3483750E+01  2.9151476E+01
 1.3495251E+01  2.9259497E+01
 1.3506751E+01  2.9338877E+01
 1.3518250E+01  2.9403465E+01
 1.3529751E+01  2.9419868E+01
 1.3541250E+01  2.9464520E+01
 1.3552751E+01  2.9475634E+01
 1.3564251E+01  2.9546455E+01
 1.3575750E+01  2.9562126E+01
 1.3587251E+01  2.9624094E+01
 1.3598751E+01  2.9664957E+01
 1.3610250E+01  2.9737892E+01
 1.3621751E+01  2.9770258E+01
 1.3633250E+01  2.9835798E+01
 1.3644751E+01  2.9848019E+01
 1.3656251E+01  2.9864697E+01
 1.3667750E+01  2.9857082E+01
 1.3679251E+01  2.9858208E+01
 1.3690751E+01  2.9771645E+01
 1.3702250E+01  2.9650375E+01
 1.3713751E+01  2.9524101E+01
 1.3725250E+01  2.9530474E+01
 1.3736751E+01  2.9586678E+01
 1.3748251E+01  2.9666889E+01
 1.3759750E+01  2.9709791E+01
 1.3771251E+01  2.9755083E+01
 1.3782751E+01  2.9784363E+01
 1.3794250E+01  2.9779818E+01
 1.3805751E+01  2.9781570E+01
 1.3817250E+01  2.9817417E+01
 1.3828751E+01  3.0043842E+01
 1.3840251E+01  3.0305214E+01
 1.3851750E+01  3.0757431E+01
 1.3863251E+01  3.1923906E+01
 1.3874751E+01  3.2734493E+01
 1.3886250E+01  3.5308807E+01
 1.3897751E+01  3.7330124E+01
 1.3909250E+01  3.9405987E+01
 1.3920751E+01  4.2394257E+01
 1.3932251E+01  4.1797413E+01
 1.3943750E+01  4.1922268E+01
 1.3955251E+01  3.8780128E+01
 1.3966751E+01  3.7543453E+01
 1.3978251E+01  3.5143059E+01
 1.3989751E+01  3.2974350E+01
 1.4001250E+01  3.1955484E+01
 1.4012751E+01  3.0604996E+01
 1.4024251E+01  2.9837074E+01
 1.4035750E+01  2.9289684E+01
 1.4047251E+01  2.8836344E+01
 1.4058751E+01  2.8521456E+01
 1.4070251E+01  2.8294487E+01
 1.4081751E+01  2.8114241E+01
 1.4093250E+01  2.7978779E+01
 1.4104751E+01  2.7808086E+01
 1.4116251E+01  2.7647263E+01
 1.4127750E+01  2.7454317E+01
 1.4139251E+01  2.7305119E+01
 1.4150751E+01  2.7141827E+01
 1.4162251E+01  2.7037102E+01
 1.4173751E+01  2.6955496E+01
 1.4185250E+01  2.6887825E+01
 1.4196751E+01  2.6873323E+01
 1.4208251E+01  2.6831100E+01
 1.4219750E+01  2.6753077E+01
 1.4231251E+01  2.6652355E+01
 1.4242751E+01  2.6563227E+01
 1.4254251E+01  2.6540619E+01
 1.4265751E+01  2.6490633E+01
 1.4277250E+01  2.6405600E+01
 1.4288751E+01  2.6333366E+01
 1.4300251E+01  2.6290890E+01
 1.4311750E+01  2.6297720E+01
 1.4323251E+01  2.6256027E+01
 1.4334751E+01  2.6183643E+01
 1.4346251E+01  2.6137447E+01
 1.4357751E+01  2.6077768E+01
 1.4369250E+01  2.6040016E+01
 1.4380751E+01  2.5970922E+01
 1.4392251E+01  2.5939592E+01
 1.4403750E+01  2.5957907E+01
 1.4415251E+01  2.5942747E+01
 1.4426751E+01  2.5919090E+01
 1.4438251E+01  2.5893562E+01
 1.4449751E+01  2.5897457E+01
 1.4461250E+01  2.5840237E+01
 1.4472751E+01  2.5778236E+01
 1.4484251E+01  2.5713461E+01
 1.4495750E+01  2.5740698E+01
 1.4507251E+01  2.5754839E+01
 1.4518751E+01  2.5727772E+01
 1.4530251E+01  2.5673090E+01
 1.4541751E+01  2.5540485E+01
 1.4553250E+01  2.5442160E+01
 1.4564751E+01  2.5377827E+01
 1.4576251E+01  2.5299408E+01
 1.4587750E+01  2.5323778E+01
 1.4599251E+01  2.5286867E+01
 1.4610751E+01  2.5297075E+01
 1.4622251E+01  2.5273851E+01
 1.4633751E+01  2.5258543E+01
 1.4645250E+01  2.5252876E+01
 1.4656751E+01  2.5197638E+01
 1.4668251E+01  2.5186424E+01
 1.4679750E+01  2.5188868E+01
 1.4691251E+01  2.5188999E+01
 1.4702751E+01  2.5178328E+01
 1.4714251E+01  2.5132181E+01
 1.4725751E+01  2.5139030E+01
 1.4737250E+01  2.5115181E+01
 1.4748751E+01  2.5107342E+01
 1.4760251E+01  2.5062124E+01
 1.4771750E+01  2.5103151E+01
 1.4783251E+01  2.5067598E+01
 1.4794751E+01  2.5084663E+01
 1.4806251E+01  2.5010525E+01
 1.4817751E+01  2.5042051E+01
 1.4829250E+01  2.4974899E+01
 1.4840751E+01  2.4981367E+01
 1.4852251E+01  2.4919380E+01
 1.4863750E+01  2.4888750E+01
 1.4875251E+01  2.4841400E+01
 1.4886751E+01  2.4833794E+01
 1.4898251E+01  2.4839691E+01
 1.4909751E+01  2.4841719E+01
 1.4921250E+01  2.4780518E+01
 1.4932751E+01  2.4783716E+01
 1.4944251E+01  2.4773579E+01
 1.4955750E+01  2.4820618E+01
 1.4967251E+01  2.4800358E+01
 1.4978751E+01  2.4823618E+01
 1.4990251E+01  2.4802313E+01
 1.5001751E+01  2.4832258E+01
 1.5013250E+01  2.4868055E+01
 1.5024751E+01  2.4908098E+01
 1.5036251E+01  2.4857510E+01
 1.5047750E+01  2.4828184E+01
 1.5059251E+01  2.4855375E+01
 1.5070751E+01  2.4870930E+01
 1.5082251E+01  2.4860476E+01
 1.5093751E+01  2.4842026E+01
 1.5105250E+01  2.4941908E+01
 1.5116751E+01  2.5051018E+01
 1.5128251E+01  2.5226589E+01
 1.5139750E+01  2.5424343E+01
 1.5151251E+01  2.5784828E+01
 1.5162751E+01  2.6134340E+01
 1.5174251E+01  2.6695358E+01
 1.5185751E+01  2.6934799E+01
 1.5197250E+01  2.7141272E+01
 1.5208751E+01  2.6939968E+01
 1.5220251E+01  2.6649817E+01
 1.5231750E+01  2.6132460E+01
 1.5243251E+01  2.5618824E+01
 1.5254751E+01  2.5275467E+01
 1.5266251E+01  2.4984671E+01
 1.5277751E+01  2.4860546E+01
 1.5289250E+01  2.4803499E+01
 1.5300751E+01  2.4769693E+01
 1.5312251E+01  2.4739012E+01
 1.5323750E+01  2.4681246E+01
 1.5335251E+01  2.4627642E+01
 1.5346751E+01  2.4573074E+01
 1.5358251E+01  2.4550226E+01
 1.5369751E+01  2.4553324E+01
 1.5381250E+01  2.4491428E+01
 1.5392751E+01  2.4478165E+01
 1.5404251E+01  2.4503408E+01
 1.5415751E+01  2.4481997E+01
 1.5427251E+01  2.4489283E+01
 1.5438751E+01  2.4489487E+01
 1.5450251E+01  2.4504852E+01
 1.5461751E+01  2.4484425E+01
 1.5473250E+01  2.4439251E+01
 1.5484751E+01  2.4462231E+01
 1.5496251E+01  2.4434071E+01
 1.5507751E+01  2.4487291E+01
 1.5519251E+01  2.4527395E+01
 1.5530751E+01  2.4574995E+01
 1.5542251E+01  2.4590691E+01
 1.5553751E+01  2.4608496E+01
 1.5565250E+01  2.4636793E+01
 1.5576751E+01  2.4632286E+01
 1.5588251E+01  2.4574398E+01
 1.5599751E+01  2.4488670E+01
 1.5611251E+01  2.4469376E+01
 1.5622751E+01  2.4465145E+01
 1.5634251E+01  2.4451202E+01
 1.5645751E+01  2.4409512E+01
 1.5657250E+01  2.4439304E+01
 1.5668751E+01  2.4455500E+01
 1.5680251E+01  2.4520193E+01
 1.5691751E+01  2.4523827E+01
 1.5703251E+01  2.4571070E+01
 1.5714751E+01  2.4571615E+01
 1.5726251E+01  2.4623802E+01
 1.5737751E+01  2.4581755E+01
 1.5749250E+01  2.4542082E+01
 1.5760751E+01  2.4519491E+01
 1.5772251E+01  2.4505802E+01
 1.5783751E+01  2.4537069E+01
 1.5795251E+01  2.4546003E+01
 1.5806751E+01  2.4608292E+01
 1.5818251E+01  2.4581835E+01
 1.5829751E+01  2.4531631E+01
 1.5841250E+01  2.4470190E+01
 1.5852751E+01  2.4429392E+01
 1.5864251E+01  2.4431776E+01
 1.5875751E+01  2.4483385E+01
 1.5887251E+01  2.4528576E+01
 1.5898750E+01  2.4543909E+01
 1.5910251E+01  2.4525616E+01
 1.5921751E+01  2.4496923E+01
 1.5933250E+01  2.4514887E+01
 1.5944751E+01  2.4439857E+01
 1.5956251E+01  2.4464005E+01
 1.5967751E+01  2.4442936E+01
 1.5979251E+01  2.4544413E+01
 1.5990750E+01  2.4614063E+01
 1.6002251E+01  2.4661331E+01
 1.6013750E+01  2.4659199E+01
 1.6025251E+01  2.4651943E+01
 1.6036751E+01  2.4610136E+01
 1.6048250E+01  2.4593925E+01
 1.6059752E+01  2.4582685E+01
 1.6071251E+01  2.4569115E+01
 1.6082750E+01  2.4578184E+01
 1.6094252E+01  2.4595106E+01
 1.6105751E+01  2.4692060E+01
 1.6117250E+01  2.4699314E+01
 1.6128750E+01  2.4696573E+01
 1.6140251E+01  2.4687992E+01
 1.6151751E+01  2.4690638E+01
 1.6163250E+01  2.4730450E+01
 1.6174751E+01  2.4715574E+01
 1.6186251E+01  2.4831877E+01
 1.6197750E+01  2.4773041E+01
 1.6209251E+01  2.4949148E+01
 1.6220751E+01  2.4941267E+01
 1.6232250E+01  2.5103359E+01
 1.6243752E+01  2.5146379E+01
 1.6255251E+01  2.5235058E+01
 1.6266750E+01  2.5396866E+01
 1.6278252E+01  2.5300287E+01
 1.6289751E+01  2.5391815E+01
 1.6301250E+01  2.5070120E+01
 1.6312750E+01  2.5140295E+01
 1.6324251E+01  2.4867025E+01
 1.6335751E+01  2.4891640E+01
 1.6347250E+01  2.4703266E+01
 1.6358751E+01  2.4650242E+01
 1.6370251E+01  2.4556234E+01
 1.6381750E+01  2.4545403E+01
 1.6393251E+01  2.4594389E+01
 1.6404751E+01  2.4631483E+01
 1.6416250E+01  2.4667013E+01
 1.6427752E+01  2.4656399E+01
 1.6439251E+01  2.4665352E+01
 1.6450750E+01  2.4656767E+01
 1.6462252E+01  2.4643076E+01
 1.6473751E+01  2.4621840E+01
 1.6485250E+01  2.4640110E+01
 1.6496750E+01  2.4636003E+01
 1.6508251E+01  2.4653576E+01
 1.6519751E+01  2.4618328E+01
 1.6531250E+01  2.4644508E+01
 1.6542751E+01  2.4650221E+01
 1.6554251E+01  2.4654448E+01
 1.6565750E+01  2.4643707E+01
 1.6577251E+01  2.4597559E+01
 1.6588751E+01  2.4626635E+01
 1.6600250E+01  2.4618940E+01
 1.6611752E+01  2.4651867E+01
 1.6623251E+01  2.4561573E+01
 1.6634750E+01  2.4518679E+01
 1.6646252E+01  2.4473515E+01
 1.6657751E+01  2.4487345E+01
 1.6669250E+01  2.4505587E+01
 1.6680750E+01  2.4516369E+01
 1.6692251E+01  2.4488277E+01
 1.6703751E+01  2.4442518E+01
 1.6715250E+01  2.4410641E+01
 1.6726751E+01  2.4394110E+01
 1.6738251E+01  2.4450312E+01
 1.6749750E+01  2.4477367E+01
 1.6761251E+01  2.4482431E+01
 1.6772751E+01  2.4478567E+01
 1.6784250E+01  2.4520081E+01
 1.6795752E+01  2.4544941E+01
 1.6807251E+01  2.4497400E+01
 1.6818750E+01  2.4427855E+01
 1.6830252E+01  2.4373383E+01
 1.6841751E+01  2.4350132E+01
 1.6853251E+01  2.4305799E+01
 1.6864750E+01  2.4306635E+01
 1.6876251E+01  2.4291279E+01
 1.6887751E+01  2.4297665E+01
 1.6899250E+01  2.4296356E+01
 1.6910751E+01  2.4341906E+01
 1.6922251E+01  2.4371447E+01
 1.6933750E+01  2.4414553E+01
 1.6945251E+01  2.4379393E+01
 1.6956751E+01  2.4415680E+01
 1.6968250E+01  2.4401913E+01
 1.6979752E+01  2.4462231E+01
 1.6991251E+01  2.4540129E+01
 1.7002750E+01  2.4548006E+01
 1.7014252E+01  2.4505976E+01
 1.7025751E+01  2.4391884E+01
 1.7037251E+01  2.4269716E+01
 1.7048750E+01  2.4155106E+01
 1.7060251E+01  2.4060661E+01
 1.7071751E+01  2.4053658E+01
 1.7083250E+01  2.4056179E+01
 1.7094751E+01  2.4044868E+01
 1.7106251E+01  2.4074911E+01
 1.7117750E+01  2.4014044E+01
 1.7129251E+01  2.4037619E+01
 1.7140751E+01  2.4044573E+01
 1.7152250E+01  2.4088757E+01
 1.7163752E+01  2.4075726E+01
 1.7175251E+01  2.4084419E+01
 1.7186750E+01  2.4092367E+01
 1.7198252E+01  2.4131487E+01
 1.7209751E+01  2.4127136E+01
 1.7221251E+01  2.4142033E+01
 1.7232750E+01  2.4153749E+01
 1.7244251E+01  2.4154142E+01
 1.7255751E+01  2.4113146E+01
 1.7267250E+01  2.4056570E+01
 1.7278751E+01  2.4037121E+01
 1.7290251E+01  2.4018190E+01
 1.7301750E+01  2.4004986E+01
 1.7313251E+01  2.3986897E+01
 1.7324751E+01  2.4021404E+01
 1.7336250E+01  2.4036541E+01
 1.7347752E+01  2.4027529E+01
 1.7359251E+01  2.4015778E+01
 1.7370750E+01  2.3967819E+01
 1.7382252E+01  2.3945803E+01
 1.7393751E+01  2.3861853E+01
 1.7405251E+01  2.3847059E+01
 1.7416750E+01  2.3833469E+01
 1.7428251E+01  2.3893274E+01
 1.7439751E+01  2.3922304E+01
 1.7451250E+01  2.3958805E+01
 1.7462751E+01  2.3948164E+01
 1.7474251E+01  2.3948957E+01
 1.7485750E+01  2.3917927E+01
 1.7497252E+01  2.3863777E+01
 1.7508751E+01  2.3833958E+01
 1.7520250E+01  2.3829329E+01
 1.7531752E+01  2.3826872E+01
 1.7543251E+01  2.3892218E+01
 1.7554750E+01  2.3908106E+01
 1.7566252E+01  2.3933325E+01
 1.7577751E+01  2.3877680E+01
 1.7589251E+01  2.3862135E+01
 1.7600750E+01  2.3893167E+01
 1.7612251E+01  2.3913237E+01
 1.7623751E+01  2.3948797E+01
 1.7635250E+01  2.3896503E+01
 1.7646751E+01  2.3865047E+01
 1.7658251E+01  2.3744362E+01
 1.7669750E+01  2.3769634E+01
 1.7681252E+01  2.3823843E+01
 1.7692751E+01  2.3906137E+01
 1.7704250E+01  2.3940752E+01
 1.7715752E+01  2.3924572E+01
 1.7727251E+01  2.3902407E+01
 1.7738750E+01  2.3883066E+01
 1.7750252E+01  2.3879972E+01
 1.7761751E+01  2.3872091E+01
 1.7773251E+01  2.3823496E+01
 1.7784750E+01  2.3816851E+01
 1.7796251E+01  2.3827044E+01
 1.7807751E+01  2.3802397E+01
 1.7819250E+01  2.3770754E+01
 1.7830751E+01  2.3757307E+01
 1.7842251E+01  2.3784868E+01
 1.7853750E+01  2.3801229E+01
 1.7865252E+01  2.3813847E+01
 1.7876751E+01  2.3790842E+01
 1.7888250E+01  2.3786161E+01
 1.7899752E+01  2.3752069E+01
 1.7911251E+01  2.3796576E+01
 1.7922750E+01  2.3838114E+01
 1.7934252E+01  2.3819090E+01
 1.7945751E+01  2.3774185E+01
 1.7957251E+01  2.3752645E+01
 1.7968750E+01  2.3803942E+01
 1.7980251E+01  2.3911474E+01
 1.7991751E+01  2.4029840E+01
 1.8003250E+01  2.4197289E+01
 1.8014751E+01  2.4283901E+01
 1.8026251E+01  2.4381437E+01
 1.8037750E+01  2.4439203E+01
 1.8049252E+01  2.4563171E+01
 1.8060751E+01  2.4676453E+01
 1.8072250E+01  2.4759789E+01
 1.8083752E+01  2.4810513E+01
 1.8095251E+01  2.4825474E+01
 1.8106750E+01  2.4789701E+01
 1.8118252E+01  2.4732430E+01
 1.8129751E+01  2.4626348E+01
 1.8141251E+01  2.4444204E+01
 1.8152750E+01  2.4240074E+01
 1.8164251E+01  2.4099470E+01
 1.8175751E+01  2.4015062E+01
 1.8187250E+01  2.3876923E+01
 1.8198751E+01  2.3792397E+01
 1.8210251E+01  2.3722631E+01
 1.8221750E+01  2.3714211E+01
 1.8233252E+01  2.3687576E+01
 1.8244751E+01  2.3714008E+01
 1.8256250E+01  2.3757326E+01
 1.8267752E+01  2.3757860E+01
 1.8279251E+01  2.3748137E+01
 1.8290751E+01  2.3745682E+01
 1.8302252E+01  2.3732622E+01
 1.8313751E+01  2.3686230E+01
 1.8325251E+01  2.3658417E+01
 1.8336750E+01  2.3657570E+01
 1.8348251E+01  2.3651407E+01
 1.8359751E+01  2.3634954E+01
 1.8371250E+01  2.3582916E+01
 1.8382751E+01  2.3563290E+01
 1.8394251E+01  2.3590178E+01
 1.8405750E+01  2.3640682E+01
 1.8417252E+01  2.3653486E+01
 1.8428751E+01  2.3581108E+01
 1.8440250E+01  2.3529837E+01
 1.8451752E+01  2.3454260E+01
 1.8463251E+01  2.3462271E+01
 1.8474751E+01  2.3440054E+01
 1.8486252E+01  2.3479069E+01
 1.8497751E+01  2.3496965E+01
 1.8509251E+01  2.3506403E+01
 1.8520750E+01  2.3479092E+01
 1.8532251E+01  2.3471601E+01
 1.8543751E+01  2.3441286E+01
 1.8555250E+01  2.3451475E+01
 1.8566751E+01  2.3518101E+01
 1.8578251E+01  2.3556904E+01
 1.8589750E+01  2.3568089E+01
 1.8601252E+01  2.3540825E+01
 1.8612751E+01  2.3541750E+01
 1.8624250E+01  2.3568239E+01
 1.8635752E+01  2.3545416E+01
 1.8647251E+01  2.3553883E+01
 1.8658751E+01  2.3492989E+01
 1.8670252E+01  2.3522972E+01
 1.8681751E+01  2.3493172E+01
 1.8693251E+01  2.3502268E+01
 1.8704750E+01  2.3480066E+01
 1.8716251E+01  2.3418625E+01
 1.8727751E+01  2.3402864E+01
 1.8739250E+01  2.3391228E+01
 1.8750751E+01  2.3426874E+01
 1.8762251E+01  2.3466124E+01
 1.8773750E+01  2.3500059E+01
 1.8785252E+01  2.3562767E+01
 1.8796751E+01  2.3568472E+01
 1.8808250E+01  2.3586729E+01
 1.8819752E+01  2.3561590E+01
 1.8831251E+01  2.3498247E+01
 1.8842751E+01  2.3401880E+01
 1.8854252E+01  2.3370918E+01
 1.8865751E+01  2.3424486E+01
 1.8877251E+01  2.3421602E+01
 1.8888750E+01  2.3444361E+01
 1.8900251E+01  2.3432844E+01
 1.8911751E+01  2.3435043E+01
 1.8923250E+01  2.3452854E+01
 1.8934752E+01  2.3489996E+01
 1.8946251E+01  2.3540178E+01
 1.8957750E+01  2.3495277E+01
 1.8969252E+01  2.3466013E+01
 1.8980751E+01  2.3455082E+01
 1.8992250E+01  2.3438437E+01
 1.9003752E+01  2.3354994E+01
 1.9015251E+01  2.3345461E+01
 1.9026751E+01  2.3351030E+01
 1.9038252E+01  2.3382420E+01
 1.9049751E+01  2.3361197E+01
 1.9061251E+01  2.3390615E+01
 1.9072750E+01  2.3444651E+01
 1.9084251E+01  2.3498095E+01
 1.9095751E+01  2.3506178E+01
 1.9107250E+01  2.3520414E+01
 1.9118752E+01  2.3530378E+01
 1.9130251E+01  2.3596195E+01
 1.9141750E+01  2.3638685E+01
 1.9153252E+01  2.3670015E+01
 1.9164751E+01  2.3610043E+01
 1.9176250E+01  2.3545317E+01
 1.9187752E+01  2.3502882E+01
 1.9199251E+01  2.3529503E+01
 1.9210751E+01  2.3541950E+01
 1.9222252E+01  2.3510881E+01
 1.9233751E+01  2.3476736E+01
 1.9245251E+01  2.3489635E+01
 1.9256750E+01  2.3553741E+01
 1.9268251E+01  2.3558216E+01
 1.9279751E+01  2.3544090E+01
 1.9291250E+01  2.3488852E+01
 1.9302752E+01  2.3478611E+01
 1.9314251E+01  2.3514711E+01
 1.9325750E+01  2.3552006E+01
 1.9337252E+01  2.3603718E+01
 1.9348751E+01  2.3655941E+01
 1.9360250E+01  2.3694918E+01
 1.9371752E+01  2.3732071E+01
 1.9383251E+01  2.3677519E+01
 1.9394751E+01  2.3631771E+01
 1.9406250E+01  2.3552858E+01
 1.9417751E+01  2.3526871E+01
 1.9429251E+01  2.3487280E+01
 1.9440750E+01  2.3498888E+01
 1.9452251E+01  2.3535772E+01
 1.9463751E+01  2.3588829E+01
 1.9475250E+01  2.3652725E+01
 1.9486752E+01  2.3701269E+01
 1.9498251E+01  2.3748003E+01
 1.9509750E+01  2.3735706E+01
 1.9521252E+01  2.3749716E+01
 1.9532751E+01  2.3743330E+01
 1.9544250E+01  2.3787899E+01
 1.9555752E+01  2.3763367E+01
 1.9567251E+01  2.3741110E+01
 1.9578751E+01  2.3757456E+01
 1.9590250E+01  2.3794304E+01
 1.9601751E+01  2.3794960E+01
 1.9613251E+01  2.3820446E+01
 1.9624750E+01  2.3862789E+01
 1.9636251E+01  2.3995392E+01
 1.9647751E+01  2.4154346E+01
 1.9659250E+01  2.4446413E+01
 1.9670752E+01  2.4697674E+01
 1.9682251E+01  2.4997911E+01
 1.9693750E+01  2.5256426E+01
 1.9705252E+01  2.5403967E+01
 1.9716751E+01  2.5555859E+01
 1.9728251E+01  2.5561520E+01
 1.9739752E+01  2.5532003E+01
 1.9751251E+01  2.5401747E+01
 1.9762751E+01  2.5261309E+01
 1.9774250E+01  2.5152887E+01
 1.9785751E+01  2.5098459E+01
 1.9797251E+01  2.5153786E+01
 1.9808750E+01  2.5275377E+01
 1.9820251E+01  2.5387627E+01
 1.9831751E+01  2.5663874E+01
 1.9843250E+01  2.5861322E+01
 1.9854752E+01  2.6011429E+01
 1.9866251E+01  2.5941072E+01
 1.9877750E+01  2.5795925E+01
 1.9889252E+01  2.5503950E+01
 1.9900751E+01  2.5094025E+01
 1.9912251E+01  2.4744204E+01
 1.9923752E+01  2.4392607E+01
 1.9935251E+01  2.4171045E+01
 1.9946751E+01  2.3996334E+01
 1.9958250E+01  2.3937443E+01
 1.9969751E+01  2.3932514E+01
 1.9981251E+01  2.3933697E+01
 1.9992750E+01  2.3917898E+01
 2.0004251E+01  2.3911461E+01
 2.0015751E+01  2.3871969E+01
 2.0027250E+01  2.3828842E+01
 2.0038752E+01  2.3773258E+01
 2.0050251E+01  2.3769552E+01
 2.0061750E+01  2.3719774E+01
 2.0073252E+01  2.3709265E+01
 2.0084751E+01  2.3677692E+01
 2.0096251E+01  2.3723009E+01
 2.0107752E+01  2.3767481E+01
 2.0119251E+01  2.3856815E+01
 2.0130751E+01  2.3876144E+01
 2.0142250E+01  2.3840727E+01
 2.0153751E+01  2.3798450E+01
 2.0165251E+01  2.3785856E+01
 2.0176750E+01  2.3772985E+01
 2.0188251E+01  2.3751463E+01
 2.0199751E+01  2.3734259E+01
 2.0211250E+01  2.3791805E+01
 2.0222752E+01  2.3813145E+01
 2.0234251E+01  2.3810963E+01
 2.0245750E+01  2.3767633E+01
 2.0257252E+01  2.3749519E+01
 2.0268751E+01  2.3732733E+01
 2.0280251E+01  2.3723217E+01
 2.0291752E+01  2.3716742E+01
 2.0303251E+01  2.3669441E+01
 2.0314751E+01  2.3653084E+01
 2.0326250E+01  2.3688017E+01
 2.0337751E+01  2.3751099E+01
 2.0349251E+01  2.3764908E+01
 2.0360750E+01  2.3770130E+01
 2.0372252E+01  2.3822166E+01
 2.0383751E+01  2.3819916E+01
 2.0395250E+01  2.3879633E+01
 2.0406752E+01  2.3874138E+01
 2.0418251E+01  2.3912287E+01
 2.0429750E+01  2.3875200E+01
 2.0441252E+01  2.3841141E+01
 2.0452751E+01  2.3724398E+01
 2.0464251E+01  2.3643160E+01
 2.0475752E+01  2.3600918E+01
 2.0487251E+01  2.3604454E+01
 2.0498751E+01  2.3616899E+01
 2.0510250E+01  2.3617014E+01
 2.0521751E+01  2.3610937E+01
 2.0533251E+01  2.3654434E+01
 2.0544750E+01  2.3685518E+01
 2.0556252E+01  2.3782854E+01
 2.0567751E+01  2.3806246E+01
 2.0579250E+01  2.3817244E+01
 2.0590752E+01  2.3856367E+01
 2.0602251E+01  2.3943521E+01
 2.0613750E+01  2.3991732E+01
 2.0625252E+01  2.4038570E+01
 2.0636751E+01  2.4095730E+01
 2.0648251E+01  2.4149803E+01
 2.0659752E+01  2.4183762E+01
 2.0671251E+01  2.4291763E+01
 2.0682751E+01  2.4450647E+01
 2.0694250E+01  2.4663649E+01
 2.0705751E+01  2.4924576E+01
 2.0717251E+01  2.5381851E+01
 2.0728750E+01  2.5652355E+01
 2.0740252E+01  2.5939453E+01
 2.0751751E+01  2.6018818E+01
 2.0763250E+01  2.6126228E+01
 2.0774752E+01  2.5967312E+01
 2.0786251E+01  2.5698935E+01
 2.0797750E+01  2.5379719E+01
 2.0809252E+01  2.5046846E+01
 2.0820751E+01  2.4798019E+01
 2.0832251E+01  2.4582125E+01
 2.0843752E+01  2.4421118E+01
 2.0855251E+01  2.4294052E+01
 2.0866751E+01  2.4123144E+01
 2.0878250E+01  2.4053478E+01
 2.0889751E+01  2.4041582E+01
 2.0901251E+01  2.4074554E+01
 2.0912750E+01  2.4080011E+01
 2.0924252E+01  2.4064350E+01
 2.0935751E+01  2.4068476E+01
 2.0947250E+01  2.4024118E+01
 2.0958752E+01  2.3953720E+01
 2.0970251E+01  2.3880922E+01
 2.0981750E+01  2.3882441E+01
 2.0993252E+01  2.3864182E+01
 2.1004751E+01  2.3880396E+01
 2.1016251E+01  2.3842489E+01
 2.1027752E+01  2.3838148E+01
 2.1039251E+01  2.3822227E+01
 2.1050751E+01  2.3824451E+01
 2.1062250E+01  2.3849773E+01
 2.1073751E+01  2.3859741E+01
 2.1085251E+01  2.3857811E+01
 2.1096750E+01  2.3818018E+01
 2.1108252E+01  2.3872276E+01
 2.1119751E+01  2.3938259E+01
 2.1131250E+01  2.3957375E+01
 2.1142752E+01  2.3888702E+01
 2.1154251E+01  2.3812778E+01
 2.1165751E+01  2.3787178E+01
 2.1177252E+01  2.3809038E+01
 2.1188751E+01  2.3834875E+01
 2.1200251E+01  2.3830456E+01
 2.1211752E+01  2.3843088E+01
 2.1223251E+01  2.3829103E+01
 2.1234751E+01  2.3882324E+01
 2.1246250E+01  2.3910236E+01
 2.1257751E+01  2.3954763E+01
 2.1269251E+01  2.3925150E+01
 2.1280750E+01  2.3868576E+01
 2.1292252E+01  2.3836575E+01
 2.1303751E+01  2.3793736E+01
 2.1315250E+01  2.3805885E+01
 2.1326752E+01  2.3795486E+01
 2.1338251E+01  2.3802752E+01
 2.1349751E+01  2.3818228E+01
 2.1361252E+01  2.3881075E+01
 2.1372751E+01  2.3955799E+01
 2.1384251E+01  2.3982141E+01
 2.1395752E+01  2.4144676E+01
 2.1407251E+01  2.4115736E+01
 2.1418751E+01  2.4049788E+01
 2.1430250E+01  2.3985981E+01
 2.1441751E+01  2.3967014E+01
 2.1453251E+01  2.3926035E+01
 2.1464750E+01  2.3921358E+01
 2.1476252E+01  2.3906431E+01
 2.1487751E+01  2.3924761E+01
 2.1499250E+01  2.3921110E+01
 2.1510752E+01  2.3936995E+01
 2.1522251E+01  2.3936617E+01
 2.1533751E+01  2.3965797E+01
 2.1545252E+01  2.3985271E+01
 2.1556751E+01  2.3981245E+01
 2.1568251E+01  2.4009838E+01
 2.1579752E+01  2.4033182E+01
 2.1591251E+01  2.4039219E+01
 2.1602751E+01  2.4034044E+01
 2.1614250E+01  2.3980278E+01
 2.1625751E+01  2.3945713E+01
 2.1637251E+01  2.3906893E+01
 2.1648750E+01  2.3936544E+01
 2.1660252E+01  2.3979965E+01
 2.1671751E+01  2.4041105E+01
 2.1683250E+01  2.4034485E+01
 2.1694752E+01  2.4080507E+01
 2.1706251E+01  2.4097294E+01
 2.1717751E+01  2.4100300E+01
 2.1729252E+01  2.4048094E+01
 2.1740751E+01  2.4051697E+01
 2.1752251E+01  2.4025091E+01
 2.1763752E+01  2.4046724E+01
 2.1775251E+01  2.4057104E+01
 2.1786751E+01  2.4109879E+01
 2.1798250E+01  2.4110752E+01
 2.1809752E+01  2.4139189E+01
 2.1821251E+01  2.4118881E+01
 2.1832750E+01  2.4087990E+01
 2.1844252E+01  2.4079561E+01
 2.1855751E+01  2.4131742E+01
 2.1867250E+01  2.4150078E+01
 2.1878752E+01  2.4176548E+01
 2.1890251E+01  2.4118719E+01
 2.1901751E+01  2.4144030E+01
 2.1913252E+01  2.4180141E+01
 2.1924751E+01  2.4198986E+01
 2.1936251E+01  2.4171541E+01
 2.1947752E+01  2.4177803E+01
 2.1959251E+01  2.4172991E+01
 2.1970751E+01  2.4190044E+01
 2.1982250E+01  2.4213528E+01
 2.1993752E+01  2.4307472E+01
 2.2005251E+01  2.4312559E+01
 2.2016750E+01  2.4321518E+01
 2.2028252E+01  2.4317711E+01
 2.2039751E+01  2.4328176E+01
 2.2051250E+01  2.4370176E+01
 2.2062752E+01  2.4371595E+01
 2.2074251E+01  2.4372557E+01
 2.2085751E+01  2.4322323E+01
 2.2097252E+01  2.4346092E+01
 2.2108751E+01  2.4309597E+01
 2.2120251E+01  2.4358170E+01
 2.2131752E+01  2.4357025E+01
 2.2143251E+01  2.4382748E+01
 2.2154751E+01  2.4305185E+01
 2.2166250E+01  2.4279617E+01
 2.2177752E+01  2.4218208E+01
 2.2189251E+01  2.4213461E+01
 2.2200750E+01  2.4245085E+01
 2.2212252E+01  2.4285353E+01
 2.2223751E+01  2.4364344E+01
 2.2235250E+01  2.4383209E+01
 2.2246752E+01  2.4377275E+01
 2.2258251E+01  2.4349117E+01
 2.2269751E+01  2.4360752E+01
 2.2281252E+01  2.4412752E+01
 2.2292751E+01  2.4449047E+01
 2.2304251E+01  2.4510721E+01
 2.2315752E+01  2.4520573E+01
 2.2327251E+01  2.4482681E+01
 2.2338751E+01  2.4481098E+01
 2.2350250E+01  2.4495462E+01
 2.2361752E+01  2.4497236E+01
 2.2373251E+01  2.4514969E+01
 2.2384750E+01  2.4508387E+01
 2.2396252E+01  2.4489981E+01
 2.2407751E+01  2.4434341E+01
 2.2419250E+01  2.4428419E+01
 2.2430752E+01  2.4444679E+01
 2.2442251E+01  2.4546318E+01
 2.2453751E+01  2.4608095E+01
 2.2465252E+01  2.4648214E+01
 2.2476751E+01  2.4648098E+01
 2.2488251E+01  2.4692678E+01
 2.2499752E+01  2.4727543E+01
 2.2511251E+01  2.4752026E+01
 2.2522751E+01  2.4802000E+01
 2.2534250E+01  2.4845697E+01
 2.2545752E+01  2.4851761E+01
 2.2557251E+01  2.4794771E+01
 2.2568750E+01  2.4777117E+01
 2.2580252E+01  2.4785942E+01
 2.2591751E+01  2.4760401E+01
 2.2603251E+01  2.4744884E+01
 2.2614752E+01  2.4836124E+01
 2.2626251E+01  2.4913029E+01
 2.2637751E+01  2.4917994E+01
 2.2649252E+01  2.4873901E+01
 2.2660751E+01  2.4861954E+01
 2.2672251E+01  2.4901529E+01
 2.2683752E+01  2.5007181E+01
 2.2695251E+01  2.5031466E+01
 2.2706751E+01  2.5033365E+01
 2.2718250E+01  2.5048075E+01
 2.2729752E+01  2.5101980E+01
 2.2741251E+01  2.5164274E+01
 2.2752750E+01  2.5212112E+01
 2.2764252E+01  2.5216736E+01
 2.2775751E+01  2.5225306E+01
 2.2787251E+01  2.5232723E+01
 2.2798752E+01  2.5319292E+01
 2.2810251E+01  2.5392149E+01
 2.2821751E+01  2.5461523E+01
 2.2833252E+01  2.5481863E+01
 2.2844751E+01  2.5502489E+01
 2.2856251E+01  2.5541536E+01
 2.2867750E+01  2.5594206E+01
 2.2879251E+01  2.5633739E+01
 2.2890751E+01  2.5658188E+01
 2.2902250E+01  2.5706142E+01
 2.2913752E+01  2.5801964E+01
 2.2925251E+01  2.5906273E+01
 2.2936750E+01  2.6005400E+01
 2.2948252E+01  2.6055138E+01
 2.2959751E+01  2.6077871E+01
 2.2971251E+01  2.6195818E+01
 2.2982752E+01  2.6347866E+01
 2.2994251E+01  2.6510979E+01
