F:\20151113_APS_34IDE\\Brian\Particle1\OCV\Data_0100.tif
2-Theta Angle (Degrees)
Intensity
       2000
 5.7500005E-03  0.0000000E+00
 1.7250001E-02  0.0000000E+00
 2.8750001E-02  0.0000000E+00
 4.0250003E-02  0.0000000E+00
 5.1750004E-02  0.0000000E+00
 6.3250005E-02  0.0000000E+00
 7.4750006E-02  0.0000000E+00
 8.6250007E-02  0.0000000E+00
 9.7750008E-02  0.0000000E+00
 1.0925001E-01  0.0000000E+00
 1.2075000E-01  0.0000000E+00
 1.3225001E-01  0.0000000E+00
 1.4375001E-01  0.0000000E+00
 1.5525001E-01  0.0000000E+00
 1.6675001E-01  0.0000000E+00
 1.7825001E-01  0.0000000E+00
 1.8975002E-01  0.0000000E+00
 2.0125002E-01  0.0000000E+00
 2.1275002E-01  0.0000000E+00
 2.2425000E-01  0.0000000E+00
 2.3575000E-01  0.0000000E+00
 2.4725001E-01  0.0000000E+00
 2.5875002E-01  0.0000000E+00
 2.7025002E-01  0.0000000E+00
 2.8175002E-01  0.0000000E+00
 2.9325002E-01  0.0000000E+00
 3.0475003E-01  0.0000000E+00
 3.1625003E-01  0.0000000E+00
 3.2775003E-01  0.0000000E+00
 3.3925003E-01  0.0000000E+00
 3.5075003E-01  0.0000000E+00
 3.6225003E-01  0.0000000E+00
 3.7375003E-01  0.0000000E+00
 3.8525003E-01  0.0000000E+00
 3.9675003E-01  0.0000000E+00
 4.0825003E-01  0.0000000E+00
 4.1975003E-01  0.0000000E+00
 4.3125004E-01  0.0000000E+00
 4.4275001E-01  0.0000000E+00
 4.5425001E-01  0.0000000E+00
 4.6575001E-01  0.0000000E+00
 4.7725001E-01  0.0000000E+00
 4.8875001E-01  0.0000000E+00
 5.0025004E-01  0.0000000E+00
 5.1175004E-01  0.0000000E+00
 5.2325004E-01  0.0000000E+00
 5.3475004E-01  0.0000000E+00
 5.4625005E-01  0.0000000E+00
 5.5775005E-01  0.0000000E+00
 5.6925005E-01  0.0000000E+00
 5.8075005E-01  0.0000000E+00
 5.9225005E-01  0.0000000E+00
 6.0375005E-01  0.0000000E+00
 6.1525005E-01  0.0000000E+00
 6.2675005E-01  0.0000000E+00
 6.3825005E-01  0.0000000E+00
 6.4975005E-01  0.0000000E+00
 6.6125005E-01  0.0000000E+00
 6.7275006E-01  0.0000000E+00
 6.8425006E-01  0.0000000E+00
 6.9575006E-01  0.0000000E+00
 7.0725006E-01  0.0000000E+00
 7.1875006E-01  0.0000000E+00
 7.3025006E-01  0.0000000E+00
 7.4175006E-01  0.0000000E+00
 7.5325006E-01  0.0000000E+00
 7.6475006E-01  0.0000000E+00
 7.7625006E-01  0.0000000E+00
 7.8775007E-01  0.0000000E+00
 7.9925007E-01  0.0000000E+00
 8.1075007E-01  0.0000000E+00
 8.2225007E-01  0.0000000E+00
 8.3375007E-01  0.0000000E+00
 8.4525007E-01  0.0000000E+00
 8.5675007E-01  0.0000000E+00
 8.6825007E-01  0.0000000E+00
 8.7975001E-01  0.0000000E+00
 8.9125001E-01  0.0000000E+00
 9.0275002E-01  0.0000000E+00
 9.1425002E-01  0.0000000E+00
 9.2575002E-01  0.0000000E+00
 9.3725002E-01  0.0000000E+00
 9.4875002E-01  0.0000000E+00
 9.6025002E-01  0.0000000E+00
 9.7175002E-01  0.0000000E+00
 9.8325002E-01  0.0000000E+00
 9.9475002E-01  0.0000000E+00
 1.0062500E+00  0.0000000E+00
 1.0177500E+00  0.0000000E+00
 1.0292500E+00  0.0000000E+00
 1.0407500E+00  0.0000000E+00
 1.0522500E+00  0.0000000E+00
 1.0637500E+00  0.0000000E+00
 1.0752500E+00  0.0000000E+00
 1.0867500E+00  0.0000000E+00
 1.0982500E+00  0.0000000E+00
 1.1097500E+00  0.0000000E+00
 1.1212500E+00  0.0000000E+00
 1.1327500E+00  0.0000000E+00
 1.1442500E+00  0.0000000E+00
 1.1557500E+00  0.0000000E+00
 1.1672500E+00  0.0000000E+00
 1.1787500E+00  0.0000000E+00
 1.1902500E+00  0.0000000E+00
 1.2017500E+00  0.0000000E+00
 1.2132500E+00  0.0000000E+00
 1.2247500E+00  0.0000000E+00
 1.2362500E+00  0.0000000E+00
 1.2477500E+00  0.0000000E+00
 1.2592500E+00  0.0000000E+00
 1.2707500E+00  0.0000000E+00
 1.2822500E+00  0.0000000E+00
 1.2937500E+00  0.0000000E+00
 1.3052500E+00  0.0000000E+00
 1.3167500E+00  0.0000000E+00
 1.3282501E+00  0.0000000E+00
 1.3397501E+00  0.0000000E+00
 1.3512501E+00  0.0000000E+00
 1.3627501E+00  0.0000000E+00
 1.3742501E+00  0.0000000E+00
 1.3857501E+00  0.0000000E+00
 1.3972501E+00  0.0000000E+00
 1.4087501E+00  0.0000000E+00
 1.4202501E+00  0.0000000E+00
 1.4317501E+00  0.0000000E+00
 1.4432501E+00  0.0000000E+00
 1.4547501E+00  0.0000000E+00
 1.4662501E+00  0.0000000E+00
 1.4777501E+00  0.0000000E+00
 1.4892501E+00  0.0000000E+00
 1.5007501E+00  0.0000000E+00
 1.5122501E+00  0.0000000E+00
 1.5237501E+00  0.0000000E+00
 1.5352501E+00  0.0000000E+00
 1.5467501E+00  0.0000000E+00
 1.5582501E+00  0.0000000E+00
 1.5697501E+00  0.0000000E+00
 1.5812501E+00  0.0000000E+00
 1.5927501E+00  0.0000000E+00
 1.6042501E+00  0.0000000E+00
 1.6157501E+00  0.0000000E+00
 1.6272501E+00  0.0000000E+00
 1.6387501E+00  0.0000000E+00
 1.6502501E+00  0.0000000E+00
 1.6617501E+00  0.0000000E+00
 1.6732501E+00  0.0000000E+00
 1.6847501E+00  0.0000000E+00
 1.6962501E+00  0.0000000E+00
 1.7077501E+00  0.0000000E+00
 1.7192501E+00  0.0000000E+00
 1.7307501E+00  0.0000000E+00
 1.7422501E+00  0.0000000E+00
 1.7537501E+00  0.0000000E+00
 1.7652501E+00  0.0000000E+00
 1.7767501E+00  0.0000000E+00
 1.7882501E+00  0.0000000E+00
 1.7997501E+00  0.0000000E+00
 1.8112501E+00  0.0000000E+00
 1.8227501E+00  0.0000000E+00
 1.8342501E+00  0.0000000E+00
 1.8457501E+00  0.0000000E+00
 1.8572501E+00  0.0000000E+00
 1.8687501E+00  0.0000000E+00
 1.8802501E+00  0.0000000E+00
 1.8917501E+00  0.0000000E+00
 1.9032501E+00  0.0000000E+00
 1.9147501E+00  0.0000000E+00
 1.9262501E+00  0.0000000E+00
 1.9377501E+00  0.0000000E+00
 1.9492501E+00  0.0000000E+00
 1.9607501E+00  0.0000000E+00
 1.9722501E+00  0.0000000E+00
 1.9837501E+00  0.0000000E+00
 1.9952501E+00  0.0000000E+00
 2.0067501E+00  0.0000000E+00
 2.0182500E+00  0.0000000E+00
 2.0297501E+00  0.0000000E+00
 2.0412500E+00  0.0000000E+00
 2.0527501E+00  0.0000000E+00
 2.0642500E+00  0.0000000E+00
 2.0757501E+00  0.0000000E+00
 2.0872500E+00  0.0000000E+00
 2.0987501E+00  0.0000000E+00
 2.1102500E+00  0.0000000E+00
 2.1217501E+00  0.0000000E+00
 2.1332500E+00  0.0000000E+00
 2.1447501E+00  0.0000000E+00
 2.1562500E+00  0.0000000E+00
 2.1677501E+00  0.0000000E+00
 2.1792500E+00  0.0000000E+00
 2.1907501E+00  0.0000000E+00
 2.2022500E+00  0.0000000E+00
 2.2137501E+00  0.0000000E+00
 2.2252500E+00  0.0000000E+00
 2.2367501E+00  0.0000000E+00
 2.2482500E+00  0.0000000E+00
 2.2597501E+00  0.0000000E+00
 2.2712500E+00  0.0000000E+00
 2.2827501E+00  0.0000000E+00
 2.2942500E+00  0.0000000E+00
 2.3057501E+00  0.0000000E+00
 2.3172500E+00  0.0000000E+00
 2.3287501E+00  0.0000000E+00
 2.3402500E+00  0.0000000E+00
 2.3517501E+00  0.0000000E+00
 2.3632500E+00  0.0000000E+00
 2.3747501E+00  0.0000000E+00
 2.3862500E+00  0.0000000E+00
 2.3977501E+00  0.0000000E+00
 2.4092500E+00  0.0000000E+00
 2.4207501E+00  0.0000000E+00
 2.4322500E+00  0.0000000E+00
 2.4437501E+00  0.0000000E+00
 2.4552500E+00  0.0000000E+00
 2.4667501E+00  0.0000000E+00
 2.4782500E+00  0.0000000E+00
 2.4897501E+00  0.0000000E+00
 2.5012500E+00  0.0000000E+00
 2.5127501E+00  0.0000000E+00
 2.5242500E+00  0.0000000E+00
 2.5357502E+00  0.0000000E+00
 2.5472500E+00  0.0000000E+00
 2.5587502E+00  0.0000000E+00
 2.5702500E+00  0.0000000E+00
 2.5817502E+00  0.0000000E+00
 2.5932500E+00  0.0000000E+00
 2.6047502E+00  0.0000000E+00
 2.6162500E+00  0.0000000E+00
 2.6277502E+00  0.0000000E+00
 2.6392500E+00  0.0000000E+00
 2.6507502E+00  0.0000000E+00
 2.6622500E+00  0.0000000E+00
 2.6737502E+00  0.0000000E+00
 2.6852500E+00  0.0000000E+00
 2.6967502E+00  0.0000000E+00
 2.7082500E+00  0.0000000E+00
 2.7197502E+00  0.0000000E+00
 2.7312500E+00  0.0000000E+00
 2.7427502E+00  0.0000000E+00
 2.7542500E+00  0.0000000E+00
 2.7657502E+00  0.0000000E+00
 2.7772501E+00  0.0000000E+00
 2.7887502E+00  0.0000000E+00
 2.8002501E+00  0.0000000E+00
 2.8117502E+00  0.0000000E+00
 2.8232501E+00  3.1495152E+01
 2.8347502E+00  3.3307613E+01
 2.8462501E+00  3.4046780E+01
 2.8577502E+00  3.4874092E+01
 2.8692501E+00  3.5413673E+01
 2.8807502E+00  3.6044830E+01
 2.8922501E+00  3.6399734E+01
 2.9037502E+00  3.6735008E+01
 2.9152501E+00  3.6833580E+01
 2.9267502E+00  3.6480095E+01
 2.9382501E+00  3.6093857E+01
 2.9497502E+00  3.5924015E+01
 2.9612501E+00  3.5675579E+01
 2.9727502E+00  3.5512871E+01
 2.9842501E+00  3.5306652E+01
 2.9957502E+00  3.5378693E+01
 3.0072501E+00  3.5473877E+01
 3.0187502E+00  3.5384762E+01
 3.0302501E+00  3.5131615E+01
 3.0417502E+00  3.5252876E+01
 3.0532501E+00  3.4958424E+01
 3.0647502E+00  3.5540310E+01
 3.0762501E+00  3.5689037E+01
 3.0877502E+00  3.6073059E+01
 3.0992501E+00  3.5940353E+01
 3.1107502E+00  3.5527081E+01
 3.1222501E+00  3.5570576E+01
 3.1337502E+00  3.5459702E+01
 3.1452501E+00  3.5468967E+01
 3.1567502E+00  3.5399963E+01
 3.1682501E+00  3.5346165E+01
 3.1797502E+00  3.5279308E+01
 3.1912501E+00  3.5231281E+01
 3.2027502E+00  3.5201035E+01
 3.2142501E+00  3.5394844E+01
 3.2257502E+00  3.5487286E+01
 3.2372501E+00  3.5551342E+01
 3.2487502E+00  3.5261364E+01
 3.2602501E+00  3.5262203E+01
 3.2717502E+00  3.4921692E+01
 3.2832501E+00  3.4897106E+01
 3.2947502E+00  3.5007355E+01
 3.3062501E+00  3.5179672E+01
 3.3177502E+00  3.5436409E+01
 3.3292501E+00  3.5164967E+01
 3.3407502E+00  3.5229088E+01
 3.3522501E+00  3.5090244E+01
 3.3637502E+00  3.5200127E+01
 3.3752501E+00  3.4862080E+01
 3.3867502E+00  3.4863503E+01
 3.3982501E+00  3.4733513E+01
 3.4097502E+00  3.4830101E+01
 3.4212501E+00  3.4995808E+01
 3.4327502E+00  3.4807899E+01
 3.4442501E+00  3.4821598E+01
 3.4557502E+00  3.4926739E+01
 3.4672501E+00  3.4883133E+01
 3.4787502E+00  3.5000629E+01
 3.4902501E+00  3.4673435E+01
 3.5017502E+00  3.4664612E+01
 3.5132501E+00  3.4427158E+01
 3.5247502E+00  3.4212250E+01
 3.5362501E+00  3.3998154E+01
 3.5477502E+00  3.3980358E+01
 3.5592501E+00  3.3746166E+01
 3.5707502E+00  3.3705585E+01
 3.5822501E+00  3.3670887E+01
 3.5937502E+00  3.3870472E+01
 3.6052501E+00  3.4047138E+01
 3.6167502E+00  3.4037746E+01
 3.6282501E+00  3.4124191E+01
 3.6397502E+00  3.4019772E+01
 3.6512501E+00  3.4193905E+01
 3.6627502E+00  3.4257721E+01
 3.6742501E+00  3.4272800E+01
 3.6857502E+00  3.4101933E+01
 3.6972501E+00  3.4008621E+01
 3.7087502E+00  3.3844345E+01
 3.7202501E+00  3.3719421E+01
 3.7317502E+00  3.3493351E+01
 3.7432501E+00  3.3414463E+01
 3.7547503E+00  3.3311222E+01
 3.7662501E+00  3.3305180E+01
 3.7777503E+00  3.3401611E+01
 3.7892501E+00  3.3501175E+01
 3.8007503E+00  3.3286533E+01
 3.8122501E+00  3.3174713E+01
 3.8237503E+00  3.2903053E+01
 3.8352501E+00  3.2868652E+01
 3.8467503E+00  3.2780567E+01
 3.8582501E+00  3.2890053E+01
 3.8697503E+00  3.3090897E+01
 3.8812501E+00  3.3028545E+01
 3.8927503E+00  3.3003986E+01
 3.9042501E+00  3.2796692E+01
 3.9157503E+00  3.2805561E+01
 3.9272501E+00  3.2714485E+01
 3.9387503E+00  3.2668858E+01
 3.9502501E+00  3.2767574E+01
 3.9617503E+00  3.3010521E+01
 3.9732502E+00  3.3036983E+01
 3.9847503E+00  3.3100220E+01
 3.9962502E+00  3.3108707E+01
 4.0077500E+00  3.3147854E+01
 4.0192504E+00  3.3182522E+01
 4.0307503E+00  3.2924507E+01
 4.0422502E+00  3.2964233E+01
 4.0537500E+00  3.2849758E+01
 4.0652504E+00  3.2824821E+01
 4.0767503E+00  3.2578930E+01
 4.0882502E+00  3.2525326E+01
 4.0997500E+00  3.2457348E+01
 4.1112504E+00  3.2612816E+01
 4.1227503E+00  3.2573341E+01
 4.1342502E+00  3.2636864E+01
 4.1457500E+00  3.2699909E+01
 4.1572504E+00  3.2715393E+01
 4.1687503E+00  3.2700996E+01
 4.1802502E+00  3.2400452E+01
 4.1917500E+00  3.2434696E+01
 4.2032504E+00  3.2383568E+01
 4.2147503E+00  3.2550858E+01
 4.2262502E+00  3.2489971E+01
 4.2377501E+00  3.2672523E+01
 4.2492504E+00  3.2667858E+01
 4.2607503E+00  3.2694855E+01
 4.2722502E+00  3.2484413E+01
 4.2837501E+00  3.2399994E+01
 4.2952504E+00  3.2284954E+01
 4.3067503E+00  3.2239933E+01
 4.3182502E+00  3.2217766E+01
 4.3297501E+00  3.2287510E+01
 4.3412504E+00  3.2422234E+01
 4.3527503E+00  3.2594952E+01
 4.3642502E+00  3.2746201E+01
 4.3757501E+00  3.2813076E+01
 4.3872504E+00  3.2837013E+01
 4.3987503E+00  3.2930454E+01
 4.4102502E+00  3.2905964E+01
 4.4217501E+00  3.2939457E+01
 4.4332504E+00  3.2970028E+01
 4.4447503E+00  3.2943802E+01
 4.4562502E+00  3.3001827E+01
 4.4677501E+00  3.3017780E+01
 4.4792504E+00  3.3144474E+01
 4.4907503E+00  3.3042358E+01
 4.5022502E+00  3.2908573E+01
 4.5137501E+00  3.2668114E+01
 4.5252504E+00  3.2711990E+01
 4.5367503E+00  3.2650261E+01
 4.5482502E+00  3.2663601E+01
 4.5597501E+00  3.2624439E+01
 4.5712504E+00  3.2547108E+01
 4.5827503E+00  3.2643414E+01
 4.5942502E+00  3.2763618E+01
 4.6057501E+00  3.2998013E+01
 4.6172504E+00  3.3086044E+01
 4.6287503E+00  3.3201069E+01
 4.6402502E+00  3.3285698E+01
 4.6517501E+00  3.3403709E+01
 4.6632504E+00  3.3336643E+01
 4.6747503E+00  3.3331791E+01
 4.6862502E+00  3.3465118E+01
 4.6977501E+00  3.3636162E+01
 4.7092505E+00  3.3769291E+01
 4.7207503E+00  3.3722977E+01
 4.7322502E+00  3.3466309E+01
 4.7437501E+00  3.3194508E+01
 4.7552505E+00  3.2938297E+01
 4.7667503E+00  3.2877323E+01
 4.7782502E+00  3.2840660E+01
 4.7897501E+00  3.2902828E+01
 4.8012505E+00  3.2973396E+01
 4.8127503E+00  3.3152042E+01
 4.8242502E+00  3.3213089E+01
 4.8357501E+00  3.3283924E+01
 4.8472505E+00  3.3233570E+01
 4.8587503E+00  3.3207855E+01
 4.8702502E+00  3.3226109E+01
 4.8817501E+00  3.3239208E+01
 4.8932505E+00  3.3219322E+01
 4.9047503E+00  3.3178223E+01
 4.9162502E+00  3.3156586E+01
 4.9277501E+00  3.3099201E+01
 4.9392505E+00  3.3114956E+01
 4.9507504E+00  3.3121559E+01
 4.9622502E+00  3.3189442E+01
 4.9737501E+00  3.3234882E+01
 4.9852505E+00  3.3313011E+01
 4.9967504E+00  3.3380024E+01
 5.0082502E+00  3.3577782E+01
 5.0197501E+00  3.3676373E+01
 5.0312505E+00  3.3884647E+01
 5.0427504E+00  3.3862587E+01
 5.0542502E+00  3.3775436E+01
 5.0657501E+00  3.3750393E+01
 5.0772505E+00  3.3703785E+01
 5.0887504E+00  3.3821255E+01
 5.1002502E+00  3.3936005E+01
 5.1117501E+00  3.3900063E+01
 5.1232505E+00  3.3886387E+01
 5.1347504E+00  3.3790947E+01
 5.1462502E+00  3.3891624E+01
 5.1577501E+00  3.3910049E+01
 5.1692505E+00  3.3955406E+01
 5.1807504E+00  3.3923233E+01
 5.1922503E+00  3.4022144E+01
 5.2037501E+00  3.4065548E+01
 5.2152505E+00  3.4122414E+01
 5.2267504E+00  3.4140167E+01
 5.2382503E+00  3.4116856E+01
 5.2497501E+00  3.4182228E+01
 5.2612505E+00  3.4146866E+01
 5.2727504E+00  3.4196075E+01
 5.2842503E+00  3.4340866E+01
 5.2957501E+00  3.4527927E+01
 5.3072500E+00  3.4615215E+01
 5.3187504E+00  3.4683197E+01
 5.3302503E+00  3.4670643E+01
 5.3417501E+00  3.4729774E+01
 5.3532500E+00  3.4752193E+01
 5.3647504E+00  3.4792881E+01
 5.3762503E+00  3.4848125E+01
 5.3877501E+00  3.4882500E+01
 5.3992500E+00  3.4870838E+01
 5.4107504E+00  3.4846588E+01
 5.4222503E+00  3.4855743E+01
 5.4337502E+00  3.4888268E+01
 5.4452500E+00  3.5080631E+01
 5.4567504E+00  3.5245037E+01
 5.4682503E+00  3.5466305E+01
 5.4797502E+00  3.5513783E+01
 5.4912500E+00  3.5413864E+01
 5.5027504E+00  3.5349770E+01
 5.5142503E+00  3.5248978E+01
 5.5257502E+00  3.5285385E+01
 5.5372500E+00  3.5115215E+01
 5.5487504E+00  3.5107567E+01
 5.5602503E+00  3.5110126E+01
 5.5717502E+00  3.5276985E+01
 5.5832500E+00  3.5323433E+01
 5.5947504E+00  3.5447723E+01
 5.6062503E+00  3.5460777E+01
 5.6177502E+00  3.5601826E+01
 5.6292500E+00  3.5599800E+01
 5.6407504E+00  3.5646591E+01
 5.6522503E+00  3.5690498E+01
 5.6637502E+00  3.5787098E+01
 5.6752501E+00  3.5925373E+01
 5.6867504E+00  3.5968540E+01
 5.6982503E+00  3.6013271E+01
 5.7097502E+00  3.5972618E+01
 5.7212501E+00  3.6007854E+01
 5.7327504E+00  3.6034763E+01
 5.7442503E+00  3.6014015E+01
 5.7557502E+00  3.6014805E+01
 5.7672501E+00  3.5933659E+01
 5.7787504E+00  3.6050274E+01
 5.7902503E+00  3.6128426E+01
 5.8017502E+00  3.6199116E+01
 5.8132501E+00  3.6263153E+01
 5.8247504E+00  3.6302132E+01
 5.8362503E+00  3.6438221E+01
 5.8477502E+00  3.6603237E+01
 5.8592501E+00  3.6731236E+01
 5.8707504E+00  3.6927902E+01
 5.8822503E+00  3.7036423E+01
 5.8937502E+00  3.7381516E+01
 5.9052501E+00  3.7750126E+01
 5.9167504E+00  3.9025826E+01
 5.9282503E+00  4.0010918E+01
 5.9397502E+00  4.2582031E+01
 5.9512501E+00  4.5149899E+01
 5.9627504E+00  5.0468311E+01
 5.9742503E+00  5.2910698E+01
 5.9857502E+00  5.6376507E+01
 5.9972501E+00  5.8687851E+01
 6.0087504E+00  5.8034824E+01
 6.0202503E+00  5.6058601E+01
 6.0317502E+00  5.2490505E+01
 6.0432501E+00  4.8830540E+01
 6.0547504E+00  4.5250851E+01
 6.0662503E+00  4.0402344E+01
 6.0777502E+00  3.9214314E+01
 6.0892501E+00  3.8394268E+01
 6.1007504E+00  3.7835121E+01
 6.1122503E+00  3.7770821E+01
 6.1237502E+00  3.7831627E+01
 6.1352501E+00  3.7762180E+01
 6.1467505E+00  3.7776909E+01
 6.1582503E+00  3.7704586E+01
 6.1697502E+00  3.7775467E+01
 6.1812501E+00  3.7729263E+01
 6.1927505E+00  3.7827442E+01
 6.2042503E+00  3.7880863E+01
 6.2157502E+00  3.7984596E+01
 6.2272501E+00  3.8043861E+01
 6.2387505E+00  3.8011688E+01
 6.2502503E+00  3.8137978E+01
 6.2617502E+00  3.8182178E+01
 6.2732501E+00  3.8310406E+01
 6.2847505E+00  3.8379147E+01
 6.2962503E+00  3.8409557E+01
 6.3077502E+00  3.8428879E+01
 6.3192501E+00  3.8402557E+01
 6.3307505E+00  3.8458080E+01
 6.3422503E+00  3.8494740E+01
 6.3537502E+00  3.8571133E+01
 6.3652501E+00  3.8623302E+01
 6.3767505E+00  3.8722218E+01
 6.3882504E+00  3.8798969E+01
 6.3997502E+00  3.8881466E+01
 6.4112501E+00  3.8856670E+01
 6.4227505E+00  3.8919823E+01
 6.4342504E+00  3.8901947E+01
 6.4457502E+00  3.8933151E+01
 6.4572501E+00  3.8892666E+01
 6.4687505E+00  3.8983040E+01
 6.4802504E+00  3.9062649E+01
 6.4917502E+00  3.9192577E+01
 6.5032501E+00  3.9322365E+01
 6.5147505E+00  3.9410172E+01
 6.5262504E+00  3.9477421E+01
 6.5377502E+00  3.9487556E+01
 6.5492501E+00  3.9568989E+01
 6.5607505E+00  3.9570061E+01
 6.5722504E+00  3.9643372E+01
 6.5837502E+00  3.9701546E+01
 6.5952501E+00  3.9820099E+01
 6.6067505E+00  3.9920654E+01
 6.6182504E+00  4.0076344E+01
 6.6297503E+00  4.0169880E+01
 6.6412501E+00  4.0371349E+01
 6.6527505E+00  4.0462646E+01
 6.6642504E+00  4.0505722E+01
 6.6757503E+00  4.0500034E+01
 6.6872501E+00  4.0442574E+01
 6.6987505E+00  4.0545868E+01
 6.7102504E+00  4.0567665E+01
 6.7217503E+00  4.0715557E+01
 6.7332501E+00  4.0820316E+01
 6.7447505E+00  4.0922058E+01
 6.7562504E+00  4.1180809E+01
 6.7677503E+00  4.1291393E+01
 6.7792501E+00  4.1493202E+01
 6.7907505E+00  4.1469193E+01
 6.8022504E+00  4.1579220E+01
 6.8137503E+00  4.1568676E+01
 6.8252501E+00  4.1597916E+01
 6.8367505E+00  4.1647583E+01
 6.8482504E+00  4.1763905E+01
 6.8597503E+00  4.1925163E+01
 6.8712502E+00  4.2077255E+01
 6.8827505E+00  4.2185078E+01
 6.8942504E+00  4.2225471E+01
 6.9057503E+00  4.2318745E+01
 6.9172502E+00  4.2374931E+01
 6.9287505E+00  4.2385635E+01
 6.9402504E+00  4.2425770E+01
 6.9517503E+00  4.2553387E+01
 6.9632502E+00  4.2649002E+01
 6.9747505E+00  4.2683243E+01
 6.9862504E+00  4.2712540E+01
 6.9977503E+00  4.2819851E+01
 7.0092502E+00  4.2971828E+01
 7.0207505E+00  4.3034184E+01
 7.0322504E+00  4.3150284E+01
 7.0437503E+00  4.3094311E+01
 7.0552502E+00  4.3139889E+01
 7.0667505E+00  4.3078739E+01
 7.0782504E+00  4.3148293E+01
 7.0897503E+00  4.3169029E+01
 7.1012502E+00  4.3208019E+01
 7.1127505E+00  4.3322105E+01
 7.1242504E+00  4.3430305E+01
 7.1357503E+00  4.3536694E+01
 7.1472502E+00  4.3521664E+01
 7.1587505E+00  4.3630280E+01
 7.1702504E+00  4.3721825E+01
 7.1817503E+00  4.3838997E+01
 7.1932502E+00  4.3867386E+01
 7.2047505E+00  4.3866463E+01
 7.2162504E+00  4.3939812E+01
 7.2277503E+00  4.3898010E+01
 7.2392502E+00  4.4006512E+01
 7.2507505E+00  4.3965706E+01
 7.2622504E+00  4.4006104E+01
 7.2737503E+00  4.4000862E+01
 7.2852502E+00  4.3972183E+01
 7.2967505E+00  4.4078575E+01
 7.3082504E+00  4.4099945E+01
 7.3197503E+00  4.4203175E+01
 7.3312502E+00  4.4235725E+01
 7.3427505E+00  4.4263668E+01
 7.3542504E+00  4.4299992E+01
 7.3657503E+00  4.4349510E+01
 7.3772502E+00  4.4360119E+01
 7.3887506E+00  4.4421432E+01
 7.4002504E+00  4.4483871E+01
 7.4117503E+00  4.4573719E+01
 7.4232502E+00  4.4604725E+01
 7.4347506E+00  4.4558029E+01
 7.4462504E+00  4.4559074E+01
 7.4577503E+00  4.4597298E+01
 7.4692502E+00  4.4576466E+01
 7.4807506E+00  4.4675308E+01
 7.4922504E+00  4.4697662E+01
 7.5037503E+00  4.4760098E+01
 7.5152502E+00  4.4610046E+01
 7.5267506E+00  4.4478012E+01
 7.5382504E+00  4.4459984E+01
 7.5497503E+00  4.4564285E+01
 7.5612502E+00  4.4657635E+01
 7.5727506E+00  4.4827267E+01
 7.5842505E+00  4.4919617E+01
 7.5957503E+00  4.4966133E+01
 7.6072502E+00  4.4955002E+01
 7.6187506E+00  4.4856388E+01
 7.6302505E+00  4.4851734E+01
 7.6417503E+00  4.4830620E+01
 7.6532502E+00  4.4825764E+01
 7.6647506E+00  4.4804199E+01
 7.6762505E+00  4.4772808E+01
 7.6877503E+00  4.4735996E+01
 7.6992502E+00  4.4698601E+01
 7.7107506E+00  4.4721760E+01
 7.7222505E+00  4.4767349E+01
 7.7337503E+00  4.4892056E+01
 7.7452502E+00  4.4840126E+01
 7.7567506E+00  4.4801819E+01
 7.7682505E+00  4.4682732E+01
 7.7797503E+00  4.4583515E+01
 7.7912502E+00  4.4522305E+01
 7.8027506E+00  4.4551746E+01
 7.8142505E+00  4.4544720E+01
 7.8257504E+00  4.4614067E+01
 7.8372502E+00  4.4690060E+01
 7.8487506E+00  4.4767715E+01
 7.8602505E+00  4.4808315E+01
 7.8717504E+00  4.4731388E+01
 7.8832502E+00  4.4682972E+01
 7.8947506E+00  4.4581169E+01
 7.9062505E+00  4.4522606E+01
 7.9177504E+00  4.4502235E+01
 7.9292502E+00  4.4438332E+01
 7.9407506E+00  4.4358856E+01
 7.9522505E+00  4.4291363E+01
 7.9637504E+00  4.4229046E+01
 7.9752502E+00  4.4185509E+01
 7.9867506E+00  4.4173019E+01
 7.9982505E+00  4.4121880E+01
 8.0097504E+00  4.4070900E+01
 8.0212507E+00  4.3964367E+01
 8.0327501E+00  4.3904968E+01
 8.0442505E+00  4.3832664E+01
 8.0557508E+00  4.3710915E+01
 8.0672503E+00  4.3548229E+01
 8.0787506E+00  4.3378574E+01
 8.0902500E+00  4.3240372E+01
 8.1017504E+00  4.3137493E+01
 8.1132507E+00  4.3069363E+01
 8.1247501E+00  4.2962311E+01
 8.1362505E+00  4.2891785E+01
 8.1477509E+00  4.2740288E+01
 8.1592503E+00  4.2686214E+01
 8.1707506E+00  4.2488300E+01
 8.1822500E+00  4.2460278E+01
 8.1937504E+00  4.2324306E+01
 8.2052507E+00  4.2311665E+01
 8.2167501E+00  4.2213860E+01
 8.2282505E+00  4.2084251E+01
 8.2397509E+00  4.1870533E+01
 8.2512503E+00  4.1665554E+01
 8.2627506E+00  4.1478416E+01
 8.2742500E+00  4.1339039E+01
 8.2857504E+00  4.1186417E+01
 8.2972507E+00  4.1145771E+01
 8.3087502E+00  4.1079430E+01
 8.3202505E+00  4.0977314E+01
 8.3317509E+00  4.0729229E+01
 8.3432503E+00  4.0583630E+01
 8.3547506E+00  4.0424625E+01
 8.3662500E+00  4.0343639E+01
 8.3777504E+00  4.0333069E+01
 8.3892508E+00  4.0263004E+01
 8.4007502E+00  4.0189968E+01
 8.4122505E+00  3.9953835E+01
 8.4237509E+00  3.9699978E+01
 8.4352503E+00  3.9320534E+01
 8.4467506E+00  3.9078350E+01
 8.4582500E+00  3.8837196E+01
 8.4697504E+00  3.8745529E+01
 8.4812508E+00  3.8562344E+01
 8.4927502E+00  3.8450832E+01
 8.5042505E+00  3.8393101E+01
 8.5157509E+00  3.8300320E+01
 8.5272503E+00  3.8262501E+01
 8.5387506E+00  3.8115395E+01
 8.5502501E+00  3.7936527E+01
 8.5617504E+00  3.7672863E+01
 8.5732508E+00  3.7456589E+01
 8.5847502E+00  3.7235729E+01
 8.5962505E+00  3.7033360E+01
 8.6077509E+00  3.6807358E+01
 8.6192503E+00  3.6660927E+01
 8.6307507E+00  3.6525379E+01
 8.6422501E+00  3.6381008E+01
 8.6537504E+00  3.6174393E+01
 8.6652508E+00  3.5975430E+01
 8.6767502E+00  3.5795815E+01
 8.6882505E+00  3.5680038E+01
 8.6997509E+00  3.5523170E+01
 8.7112503E+00  3.5338894E+01
 8.7227507E+00  3.5148697E+01
 8.7342501E+00  3.4929722E+01
 8.7457504E+00  3.4723888E+01
 8.7572508E+00  3.4508747E+01
 8.7687502E+00  3.4359371E+01
 8.7802505E+00  3.4221066E+01
 8.7917500E+00  3.4054768E+01
 8.8032503E+00  3.3891842E+01
 8.8147507E+00  3.3719463E+01
 8.8262501E+00  3.3546291E+01
 8.8377504E+00  3.3378746E+01
 8.8492508E+00  3.3174847E+01
 8.8607502E+00  3.2972225E+01
 8.8722506E+00  3.2819675E+01
 8.8837500E+00  3.2727978E+01
 8.8952503E+00  3.2630234E+01
 8.9067507E+00  3.2488171E+01
 8.9182501E+00  3.2291443E+01
 8.9297504E+00  3.2103188E+01
 8.9412508E+00  3.1892029E+01
 8.9527502E+00  3.1681141E+01
 8.9642506E+00  3.1551634E+01
 8.9757500E+00  3.1376112E+01
 8.9872503E+00  3.1255127E+01
 8.9987507E+00  3.1062267E+01
 9.0102501E+00  3.0961481E+01
 9.0217505E+00  3.0827753E+01
 9.0332508E+00  3.0710119E+01
 9.0447502E+00  3.0592192E+01
 9.0562506E+00  3.0465876E+01
 9.0677500E+00  3.0439508E+01
 9.0792503E+00  3.0340178E+01
 9.0907507E+00  3.0244469E+01
 9.1022501E+00  3.0061745E+01
 9.1137505E+00  2.9929472E+01
 9.1252508E+00  2.9856993E+01
 9.1367502E+00  2.9699276E+01
 9.1482506E+00  2.9554695E+01
 9.1597500E+00  2.9366503E+01
 9.1712503E+00  2.9203011E+01
 9.1827507E+00  2.9030645E+01
 9.1942501E+00  2.8881092E+01
 9.2057505E+00  2.8725346E+01
 9.2172508E+00  2.8612505E+01
 9.2287502E+00  2.8454336E+01
 9.2402506E+00  2.8424202E+01
 9.2517500E+00  2.8362968E+01
 9.2632504E+00  2.8372847E+01
 9.2747507E+00  2.8346802E+01
 9.2862501E+00  2.8309723E+01
 9.2977505E+00  2.8218723E+01
 9.3092508E+00  2.8021734E+01
 9.3207502E+00  2.7908588E+01
 9.3322506E+00  2.7772955E+01
 9.3437500E+00  2.7765844E+01
 9.3552504E+00  2.7698389E+01
 9.3667507E+00  2.7667328E+01
 9.3782501E+00  2.7634537E+01
 9.3897505E+00  2.7554529E+01
 9.4012508E+00  2.7485594E+01
 9.4127502E+00  2.7369602E+01
 9.4242506E+00  2.7282770E+01
 9.4357500E+00  2.7169722E+01
 9.4472504E+00  2.7067734E+01
 9.4587507E+00  2.6920736E+01
 9.4702501E+00  2.6869829E+01
 9.4817505E+00  2.6807501E+01
 9.4932508E+00  2.6795094E+01
 9.5047503E+00  2.6792624E+01
 9.5162506E+00  2.6750019E+01
 9.5277500E+00  2.6682014E+01
 9.5392504E+00  2.6605450E+01
 9.5507507E+00  2.6456419E+01
 9.5622501E+00  2.6366590E+01
 9.5737505E+00  2.6234716E+01
 9.5852509E+00  2.6115906E+01
 9.5967503E+00  2.6053881E+01
 9.6082506E+00  2.5967751E+01
 9.6197500E+00  2.5957417E+01
 9.6312504E+00  2.5879700E+01
 9.6427507E+00  2.5804134E+01
 9.6542501E+00  2.5726671E+01
 9.6657505E+00  2.5641914E+01
 9.6772509E+00  2.5532667E+01
 9.6887503E+00  2.5473576E+01
 9.7002506E+00  2.5386364E+01
 9.7117500E+00  2.5418352E+01
 9.7232504E+00  2.5433805E+01
 9.7347507E+00  2.5426523E+01
 9.7462502E+00  2.5418962E+01
 9.7577505E+00  2.5322809E+01
 9.7692509E+00  2.5294031E+01
 9.7807503E+00  2.5216780E+01
 9.7922506E+00  2.5145756E+01
 9.8037500E+00  2.5162004E+01
 9.8152504E+00  2.5124674E+01
 9.8267508E+00  2.5074488E+01
 9.8382502E+00  2.5040287E+01
 9.8497505E+00  2.4992702E+01
 9.8612509E+00  2.4983294E+01
 9.8727503E+00  2.4941166E+01
 9.8842506E+00  2.4841654E+01
 9.8957500E+00  2.4896826E+01
 9.9072504E+00  2.4872931E+01
 9.9187508E+00  2.4947578E+01
 9.9302502E+00  2.4899143E+01
 9.9417505E+00  2.4856077E+01
 9.9532509E+00  2.4766262E+01
 9.9647503E+00  2.4745131E+01
 9.9762506E+00  2.4667517E+01
 9.9877501E+00  2.4648668E+01
 9.9992504E+00  2.4588951E+01
 1.0010751E+01  2.4584835E+01
 1.0022250E+01  2.4503004E+01
 1.0033751E+01  2.4457973E+01
 1.0045251E+01  2.4341984E+01
 1.0056750E+01  2.4299194E+01
 1.0068251E+01  2.4200672E+01
 1.0079750E+01  2.4209587E+01
 1.0091250E+01  2.4161425E+01
 1.0102751E+01  2.4193806E+01
 1.0114250E+01  2.4133036E+01
 1.0125751E+01  2.4122263E+01
 1.0137251E+01  2.4018110E+01
 1.0148750E+01  2.4053955E+01
 1.0160251E+01  2.4065329E+01
 1.0171750E+01  2.4124851E+01
 1.0183250E+01  2.4078302E+01
 1.0194751E+01  2.4031088E+01
 1.0206250E+01  2.3993092E+01
 1.0217751E+01  2.3979685E+01
 1.0229251E+01  2.3932514E+01
 1.0240750E+01  2.3894726E+01
 1.0252251E+01  2.3812313E+01
 1.0263750E+01  2.3774883E+01
 1.0275250E+01  2.3751747E+01
 1.0286751E+01  2.3711660E+01
 1.0298250E+01  2.3744549E+01
 1.0309751E+01  2.3651773E+01
 1.0321251E+01  2.3600473E+01
 1.0332750E+01  2.3539494E+01
 1.0344251E+01  2.3537857E+01
 1.0355750E+01  2.3567282E+01
 1.0367250E+01  2.3555096E+01
 1.0378751E+01  2.3625757E+01
 1.0390250E+01  2.3711327E+01
 1.0401751E+01  2.3746367E+01
 1.0413251E+01  2.3720921E+01
 1.0424750E+01  2.3671251E+01
 1.0436251E+01  2.3607931E+01
 1.0447750E+01  2.3568773E+01
 1.0459250E+01  2.3578669E+01
 1.0470751E+01  2.3618376E+01
 1.0482250E+01  2.3644995E+01
 1.0493751E+01  2.3633549E+01
 1.0505251E+01  2.3616598E+01
 1.0516750E+01  2.3618040E+01
 1.0528251E+01  2.3554291E+01
 1.0539750E+01  2.3548149E+01
 1.0551250E+01  2.3511570E+01
 1.0562751E+01  2.3514166E+01
 1.0574250E+01  2.3410839E+01
 1.0585751E+01  2.3300589E+01
 1.0597251E+01  2.3246172E+01
 1.0608750E+01  2.3241133E+01
 1.0620251E+01  2.3273415E+01
 1.0631750E+01  2.3253889E+01
 1.0643250E+01  2.3287256E+01
 1.0654751E+01  2.3287516E+01
 1.0666250E+01  2.3285463E+01
 1.0677751E+01  2.3235846E+01
 1.0689251E+01  2.3180164E+01
 1.0700750E+01  2.3201969E+01
 1.0712251E+01  2.3199755E+01
 1.0723750E+01  2.3206684E+01
 1.0735250E+01  2.3179394E+01
 1.0746751E+01  2.3107502E+01
 1.0758250E+01  2.3074457E+01
 1.0769751E+01  2.3017256E+01
 1.0781251E+01  2.3048098E+01
 1.0792750E+01  2.3037930E+01
 1.0804251E+01  2.3021347E+01
 1.0815750E+01  2.2984884E+01
 1.0827250E+01  2.2958368E+01
 1.0838751E+01  2.2973782E+01
 1.0850250E+01  2.2995399E+01
 1.0861751E+01  2.3034622E+01
 1.0873251E+01  2.2999062E+01
 1.0884750E+01  2.2941984E+01
 1.0896251E+01  2.2865341E+01
 1.0907750E+01  2.2739586E+01
 1.0919250E+01  2.2664486E+01
 1.0930751E+01  2.2570665E+01
 1.0942250E+01  2.2582428E+01
 1.0953751E+01  2.2594473E+01
 1.0965251E+01  2.2671551E+01
 1.0976750E+01  2.2784355E+01
 1.0988251E+01  2.2793100E+01
 1.0999750E+01  2.2828823E+01
 1.1011250E+01  2.2783625E+01
 1.1022751E+01  2.2823465E+01
 1.1034250E+01  2.2822906E+01
 1.1045751E+01  2.2799599E+01
 1.1057251E+01  2.2760494E+01
 1.1068750E+01  2.2714989E+01
 1.1080251E+01  2.2688387E+01
 1.1091750E+01  2.2693174E+01
 1.1103251E+01  2.2682560E+01
 1.1114751E+01  2.2703938E+01
 1.1126250E+01  2.2687807E+01
 1.1137751E+01  2.2638552E+01
 1.1149251E+01  2.2641846E+01
 1.1160750E+01  2.2668257E+01
 1.1172251E+01  2.2700264E+01
 1.1183750E+01  2.2701937E+01
 1.1195251E+01  2.2690327E+01
 1.1206751E+01  2.2693020E+01
 1.1218250E+01  2.2653038E+01
 1.1229751E+01  2.2654961E+01
 1.1241251E+01  2.2677101E+01
 1.1252750E+01  2.2761351E+01
 1.1264251E+01  2.2745358E+01
 1.1275750E+01  2.2707052E+01
 1.1287251E+01  2.2638899E+01
 1.1298751E+01  2.2591383E+01
 1.1310250E+01  2.2569223E+01
 1.1321751E+01  2.2598965E+01
 1.1333251E+01  2.2564478E+01
 1.1344750E+01  2.2611763E+01
 1.1356251E+01  2.2597157E+01
 1.1367750E+01  2.2706295E+01
 1.1379251E+01  2.2741890E+01
 1.1390751E+01  2.2783230E+01
 1.1402250E+01  2.2837088E+01
 1.1413751E+01  2.2840660E+01
 1.1425251E+01  2.2907269E+01
 1.1436750E+01  2.2990683E+01
 1.1448251E+01  2.3091360E+01
 1.1459750E+01  2.3164848E+01
 1.1471251E+01  2.3153940E+01
 1.1482751E+01  2.3145203E+01
 1.1494250E+01  2.3162113E+01
 1.1505751E+01  2.3225311E+01
 1.1517251E+01  2.3440693E+01
 1.1528750E+01  2.3869444E+01
 1.1540251E+01  2.4457258E+01
 1.1551750E+01  2.5413992E+01
 1.1563251E+01  2.6677462E+01
 1.1574751E+01  2.7888035E+01
 1.1586250E+01  2.9448521E+01
 1.1597751E+01  3.0273109E+01
 1.1609251E+01  3.0853930E+01
 1.1620750E+01  3.0036514E+01
 1.1632251E+01  2.8740704E+01
 1.1643750E+01  2.7005545E+01
 1.1655251E+01  2.5510780E+01
 1.1666751E+01  2.4470640E+01
 1.1678250E+01  2.3835735E+01
 1.1689751E+01  2.3526104E+01
 1.1701251E+01  2.3289362E+01
 1.1712750E+01  2.3197187E+01
 1.1724251E+01  2.3119568E+01
 1.1735750E+01  2.3092020E+01
 1.1747251E+01  2.3032539E+01
 1.1758751E+01  2.2961292E+01
 1.1770250E+01  2.2904047E+01
 1.1781751E+01  2.2877520E+01
 1.1793251E+01  2.2892569E+01
 1.1804750E+01  2.2876169E+01
 1.1816251E+01  2.2918024E+01
 1.1827750E+01  2.2884193E+01
 1.1839251E+01  2.2870619E+01
 1.1850751E+01  2.2836168E+01
 1.1862250E+01  2.2824522E+01
 1.1873751E+01  2.2842754E+01
 1.1885251E+01  2.2896009E+01
 1.1896750E+01  2.2992651E+01
 1.1908251E+01  2.3052769E+01
 1.1919750E+01  2.3155630E+01
 1.1931251E+01  2.3305202E+01
 1.1942751E+01  2.3629200E+01
 1.1954250E+01  2.4152159E+01
 1.1965751E+01  2.4874109E+01
 1.1977251E+01  2.5890516E+01
 1.1988750E+01  2.6955643E+01
 1.2000251E+01  2.7845554E+01
 1.2011750E+01  2.7871990E+01
 1.2023251E+01  2.7516869E+01
 1.2034751E+01  2.6670368E+01
 1.2046250E+01  2.6266666E+01
 1.2057751E+01  2.6087151E+01
 1.2069251E+01  2.6607069E+01
 1.2080750E+01  2.7398161E+01
 1.2092251E+01  2.7757883E+01
 1.2103750E+01  2.8033062E+01
 1.2115251E+01  2.7572714E+01
 1.2126751E+01  2.7168154E+01
 1.2138250E+01  2.6088127E+01
 1.2149751E+01  2.5270861E+01
 1.2161251E+01  2.4408289E+01
 1.2172750E+01  2.3900709E+01
 1.2184251E+01  2.3492889E+01
 1.2195750E+01  2.3228922E+01
 1.2207251E+01  2.3065657E+01
 1.2218751E+01  2.2901529E+01
 1.2230250E+01  2.2857941E+01
 1.2241751E+01  2.2804098E+01
 1.2253251E+01  2.2807268E+01
 1.2264750E+01  2.2869780E+01
 1.2276251E+01  2.2919262E+01
 1.2287750E+01  2.3040054E+01
 1.2299251E+01  2.3008839E+01
 1.2310751E+01  2.2965729E+01
 1.2322250E+01  2.2870832E+01
 1.2333751E+01  2.2850805E+01
 1.2345250E+01  2.2813976E+01
 1.2356750E+01  2.2809961E+01
 1.2368251E+01  2.2756945E+01
 1.2379750E+01  2.2819437E+01
 1.2391251E+01  2.2768475E+01
 1.2402751E+01  2.2768410E+01
 1.2414250E+01  2.2711264E+01
 1.2425751E+01  2.2712839E+01
 1.2437250E+01  2.2777399E+01
 1.2448750E+01  2.2789982E+01
 1.2460251E+01  2.2834511E+01
 1.2471750E+01  2.2826216E+01
 1.2483251E+01  2.2887327E+01
 1.2494751E+01  2.2891253E+01
 1.2506250E+01  2.2819941E+01
 1.2517751E+01  2.2751049E+01
 1.2529250E+01  2.2741732E+01
 1.2540751E+01  2.2756685E+01
 1.2552251E+01  2.2758371E+01
 1.2563750E+01  2.2772081E+01
 1.2575251E+01  2.2814350E+01
 1.2586751E+01  2.2854761E+01
 1.2598250E+01  2.2891186E+01
 1.2609751E+01  2.2948498E+01
 1.2621250E+01  2.2944933E+01
 1.2632751E+01  2.2931873E+01
 1.2644251E+01  2.2864990E+01
 1.2655750E+01  2.2881174E+01
 1.2667251E+01  2.2854721E+01
 1.2678751E+01  2.2866959E+01
 1.2690250E+01  2.2875626E+01
 1.2701751E+01  2.2917030E+01
 1.2713250E+01  2.3014603E+01
 1.2724751E+01  2.3089378E+01
 1.2736251E+01  2.3178541E+01
 1.2747750E+01  2.3214956E+01
 1.2759251E+01  2.3223392E+01
 1.2770751E+01  2.3229675E+01
 1.2782250E+01  2.3301050E+01
 1.2793751E+01  2.3319296E+01
 1.2805250E+01  2.3389864E+01
 1.2816751E+01  2.3392260E+01
 1.2828251E+01  2.3518787E+01
 1.2839750E+01  2.3580170E+01
 1.2851251E+01  2.3662466E+01
 1.2862751E+01  2.3644505E+01
 1.2874250E+01  2.3676449E+01
 1.2885751E+01  2.3638552E+01
 1.2897250E+01  2.3658308E+01
 1.2908751E+01  2.3678659E+01
 1.2920251E+01  2.3761040E+01
 1.2931750E+01  2.3878262E+01
 1.2943251E+01  2.3922901E+01
 1.2954751E+01  2.3962234E+01
 1.2966250E+01  2.3962572E+01
 1.2977751E+01  2.3994192E+01
 1.2989250E+01  2.4041731E+01
 1.3000751E+01  2.4071596E+01
 1.3012251E+01  2.4125368E+01
 1.3023750E+01  2.4207649E+01
 1.3035251E+01  2.4353334E+01
 1.3046751E+01  2.4418121E+01
 1.3058250E+01  2.4495651E+01
 1.3069751E+01  2.4501337E+01
 1.3081250E+01  2.4658501E+01
 1.3092751E+01  2.4781275E+01
 1.3104251E+01  2.4959982E+01
 1.3115750E+01  2.5032131E+01
 1.3127251E+01  2.5089636E+01
 1.3138751E+01  2.5156849E+01
 1.3150250E+01  2.5292965E+01
 1.3161751E+01  2.5402887E+01
 1.3173250E+01  2.5508619E+01
 1.3184751E+01  2.5626190E+01
 1.3196251E+01  2.5714561E+01
 1.3207750E+01  2.5880854E+01
 1.3219251E+01  2.6001535E+01
 1.3230751E+01  2.6258205E+01
 1.3242250E+01  2.6446268E+01
 1.3253751E+01  2.6613079E+01
 1.3265250E+01  2.6762926E+01
 1.3276751E+01  2.6872589E+01
 1.3288251E+01  2.7046993E+01
 1.3299750E+01  2.7214144E+01
 1.3311251E+01  2.7330101E+01
 1.3322751E+01  2.7461786E+01
 1.3334250E+01  2.7667637E+01
 1.3345751E+01  2.7907108E+01
 1.3357250E+01  2.8146040E+01
 1.3368751E+01  2.8249851E+01
 1.3380251E+01  2.8404940E+01
 1.3391750E+01  2.8468174E+01
 1.3403251E+01  2.8606798E+01
 1.3414751E+01  2.8725582E+01
 1.3426250E+01  2.8831480E+01
 1.3437751E+01  2.8941235E+01
 1.3449250E+01  2.9015045E+01
 1.3460751E+01  2.9125223E+01
 1.3472251E+01  2.9187811E+01
 1.3483750E+01  2.9309196E+01
 1.3495251E+01  2.9350939E+01
 1.3506751E+01  2.9403301E+01
 1.3518250E+01  2.9425285E+01
 1.3529751E+01  2.9466677E+01
 1.3541250E+01  2.9517605E+01
 1.3552751E+01  2.9586758E+01
 1.3564251E+01  2.9662025E+01
 1.3575750E+01  2.9753489E+01
 1.3587251E+01  2.9807869E+01
 1.3598751E+01  2.9814322E+01
 1.3610250E+01  2.9848537E+01
 1.3621751E+01  2.9853207E+01
 1.3633250E+01  2.9912546E+01
 1.3644751E+01  2.9916901E+01
 1.3656251E+01  2.9941545E+01
 1.3667750E+01  2.9981491E+01
 1.3679251E+01  2.9992798E+01
 1.3690751E+01  2.9942528E+01
 1.3702250E+01  2.9906469E+01
 1.3713751E+01  2.9831129E+01
 1.3725250E+01  2.9813440E+01
 1.3736751E+01  2.9782946E+01
 1.3748251E+01  2.9764444E+01
 1.3759750E+01  2.9733078E+01
 1.3771251E+01  2.9633316E+01
 1.3782751E+01  2.9543222E+01
 1.3794250E+01  2.9459232E+01
 1.3805751E+01  2.9378548E+01
 1.3817250E+01  2.9376160E+01
 1.3828751E+01  2.9423679E+01
 1.3840251E+01  2.9505932E+01
 1.3851750E+01  2.9711077E+01
 1.3863251E+01  2.9786936E+01
 1.3874751E+01  2.9989294E+01
 1.3886250E+01  3.0202271E+01
 1.3897751E+01  3.0668144E+01
 1.3909250E+01  3.1153046E+01
 1.3920751E+01  3.1613163E+01
 1.3932251E+01  3.1983866E+01
 1.3943750E+01  3.2136639E+01
 1.3955251E+01  3.2160713E+01
 1.3966751E+01  3.2031628E+01
 1.3978251E+01  3.1591547E+01
 1.3989751E+01  3.0952776E+01
 1.4001250E+01  3.0220917E+01
 1.4012751E+01  2.9583786E+01
 1.4024251E+01  2.8973089E+01
 1.4035750E+01  2.8544754E+01
 1.4047251E+01  2.8202869E+01
 1.4058751E+01  2.8057783E+01
 1.4070251E+01  2.7873682E+01
 1.4081751E+01  2.7774641E+01
 1.4093250E+01  2.7641645E+01
 1.4104751E+01  2.7578657E+01
 1.4116251E+01  2.7517883E+01
 1.4127750E+01  2.7496567E+01
 1.4139251E+01  2.7475618E+01
 1.4150751E+01  2.7433395E+01
 1.4162251E+01  2.7404367E+01
 1.4173751E+01  2.7323105E+01
 1.4185250E+01  2.7239616E+01
 1.4196751E+01  2.7108578E+01
 1.4208251E+01  2.7079969E+01
 1.4219750E+01  2.7009491E+01
 1.4231251E+01  2.6921499E+01
 1.4242751E+01  2.6867334E+01
 1.4254251E+01  2.6803736E+01
 1.4265751E+01  2.6755070E+01
 1.4277250E+01  2.6661312E+01
 1.4288751E+01  2.6606047E+01
 1.4300251E+01  2.6578953E+01
 1.4311750E+01  2.6543007E+01
 1.4323251E+01  2.6516901E+01
 1.4334751E+01  2.6471647E+01
 1.4346251E+01  2.6459225E+01
 1.4357751E+01  2.6443016E+01
 1.4369250E+01  2.6443024E+01
 1.4380751E+01  2.6392891E+01
 1.4392251E+01  2.6364872E+01
 1.4403750E+01  2.6284870E+01
 1.4415251E+01  2.6235998E+01
 1.4426751E+01  2.6148502E+01
 1.4438251E+01  2.6087551E+01
 1.4449751E+01  2.6021561E+01
 1.4461250E+01  2.5922853E+01
 1.4472751E+01  2.5868559E+01
 1.4484251E+01  2.5804146E+01
 1.4495750E+01  2.5805548E+01
 1.4507251E+01  2.5815020E+01
 1.4518751E+01  2.5765791E+01
 1.4530251E+01  2.5772074E+01
 1.4541751E+01  2.5738216E+01
 1.4553250E+01  2.5749973E+01
 1.4564751E+01  2.5705658E+01
 1.4576251E+01  2.5682091E+01
 1.4587750E+01  2.5624500E+01
 1.4599251E+01  2.5584631E+01
 1.4610751E+01  2.5564129E+01
 1.4622251E+01  2.5602325E+01
 1.4633751E+01  2.5606350E+01
 1.4645250E+01  2.5624701E+01
 1.4656751E+01  2.5519068E+01
 1.4668251E+01  2.5396143E+01
 1.4679750E+01  2.5283504E+01
 1.4691251E+01  2.5286423E+01
 1.4702751E+01  2.5270412E+01
 1.4714251E+01  2.5242979E+01
 1.4725751E+01  2.5231802E+01
 1.4737250E+01  2.5263102E+01
 1.4748751E+01  2.5288248E+01
 1.4760251E+01  2.5293713E+01
 1.4771750E+01  2.5270254E+01
 1.4783251E+01  2.5230614E+01
 1.4794751E+01  2.5205246E+01
 1.4806251E+01  2.5185678E+01
 1.4817751E+01  2.5136274E+01
 1.4829250E+01  2.5092434E+01
 1.4840751E+01  2.5083708E+01
 1.4852251E+01  2.5087183E+01
 1.4863750E+01  2.5090664E+01
 1.4875251E+01  2.5082586E+01
 1.4886751E+01  2.5127337E+01
 1.4898251E+01  2.5178774E+01
 1.4909751E+01  2.5202368E+01
 1.4921250E+01  2.5170713E+01
 1.4932751E+01  2.5098200E+01
 1.4944251E+01  2.5025082E+01
 1.4955750E+01  2.5002840E+01
 1.4967251E+01  2.4958382E+01
 1.4978751E+01  2.5004044E+01
 1.4990251E+01  2.4955534E+01
 1.5001751E+01  2.5017132E+01
 1.5013250E+01  2.5012638E+01
 1.5024751E+01  2.5093164E+01
 1.5036251E+01  2.5080540E+01
 1.5047750E+01  2.5105736E+01
 1.5059251E+01  2.5099300E+01
 1.5070751E+01  2.5078932E+01
 1.5082251E+01  2.5081314E+01
 1.5093751E+01  2.5097412E+01
 1.5105250E+01  2.5208439E+01
 1.5116751E+01  2.5397751E+01
 1.5128251E+01  2.5624725E+01
 1.5139750E+01  2.6159096E+01
 1.5151251E+01  2.6643276E+01
 1.5162751E+01  2.7305309E+01
 1.5174251E+01  2.7859890E+01
 1.5185751E+01  2.8148119E+01
 1.5197250E+01  2.8075073E+01
 1.5208751E+01  2.7713697E+01
 1.5220251E+01  2.7207876E+01
 1.5231750E+01  2.6558630E+01
 1.5243251E+01  2.5994858E+01
 1.5254751E+01  2.5730080E+01
 1.5266251E+01  2.5458694E+01
 1.5277751E+01  2.5288448E+01
 1.5289250E+01  2.5193016E+01
 1.5300751E+01  2.5072329E+01
 1.5312251E+01  2.5014853E+01
 1.5323750E+01  2.4899027E+01
 1.5335251E+01  2.4880270E+01
 1.5346751E+01  2.4794863E+01
 1.5358251E+01  2.4812143E+01
 1.5369751E+01  2.4800579E+01
 1.5381250E+01  2.4785946E+01
 1.5392751E+01  2.4763380E+01
 1.5404251E+01  2.4781780E+01
 1.5415751E+01  2.4777243E+01
 1.5427251E+01  2.4750139E+01
 1.5438751E+01  2.4743900E+01
 1.5450251E+01  2.4694672E+01
 1.5461751E+01  2.4668442E+01
 1.5473250E+01  2.4625925E+01
 1.5484751E+01  2.4659708E+01
 1.5496251E+01  2.4724659E+01
 1.5507751E+01  2.4790989E+01
 1.5519251E+01  2.4831619E+01
 1.5530751E+01  2.4826174E+01
 1.5542251E+01  2.4819252E+01
 1.5553751E+01  2.4774481E+01
 1.5565250E+01  2.4766233E+01
 1.5576751E+01  2.4764418E+01
 1.5588251E+01  2.4803110E+01
 1.5599751E+01  2.4851864E+01
 1.5611251E+01  2.4824953E+01
 1.5622751E+01  2.4776564E+01
 1.5634251E+01  2.4693354E+01
 1.5645751E+01  2.4716240E+01
 1.5657250E+01  2.4744883E+01
 1.5668751E+01  2.4808531E+01
 1.5680251E+01  2.4794302E+01
 1.5691751E+01  2.4781870E+01
 1.5703251E+01  2.4721123E+01
 1.5714751E+01  2.4737215E+01
 1.5726251E+01  2.4741446E+01
 1.5737751E+01  2.4726604E+01
 1.5749250E+01  2.4737902E+01
 1.5760751E+01  2.4722485E+01
 1.5772251E+01  2.4751734E+01
 1.5783751E+01  2.4741858E+01
 1.5795251E+01  2.4751923E+01
 1.5806751E+01  2.4771883E+01
 1.5818251E+01  2.4769047E+01
 1.5829751E+01  2.4738575E+01
 1.5841250E+01  2.4693251E+01
 1.5852751E+01  2.4697598E+01
 1.5864251E+01  2.4712198E+01
 1.5875751E+01  2.4757608E+01
 1.5887251E+01  2.4749407E+01
 1.5898750E+01  2.4797766E+01
 1.5910251E+01  2.4829706E+01
 1.5921751E+01  2.4866934E+01
 1.5933250E+01  2.4841000E+01
 1.5944751E+01  2.4753939E+01
 1.5956251E+01  2.4743561E+01
 1.5967751E+01  2.4720341E+01
 1.5979251E+01  2.4787756E+01
 1.5990750E+01  2.4800503E+01
 1.6002251E+01  2.4822712E+01
 1.6013750E+01  2.4782316E+01
 1.6025251E+01  2.4761379E+01
 1.6036751E+01  2.4777700E+01
 1.6048250E+01  2.4797148E+01
 1.6059752E+01  2.4876923E+01
 1.6071251E+01  2.4861416E+01
 1.6082750E+01  2.4927313E+01
 1.6094252E+01  2.4922413E+01
 1.6105751E+01  2.5036766E+01
 1.6117250E+01  2.5056086E+01
 1.6128750E+01  2.5147528E+01
 1.6140251E+01  2.5189293E+01
 1.6151751E+01  2.5209723E+01
 1.6163250E+01  2.5303625E+01
 1.6174751E+01  2.5238195E+01
 1.6186251E+01  2.5629633E+01
 1.6197750E+01  2.5546144E+01
 1.6209251E+01  2.6581425E+01
 1.6220751E+01  2.6697041E+01
 1.6232250E+01  2.8008232E+01
 1.6243752E+01  2.8320320E+01
 1.6255251E+01  2.8865562E+01
 1.6266750E+01  2.8740604E+01
 1.6278252E+01  2.7761457E+01
 1.6289751E+01  2.7337734E+01
 1.6301250E+01  2.5996481E+01
 1.6312750E+01  2.5909206E+01
 1.6324251E+01  2.5242727E+01
 1.6335751E+01  2.5328588E+01
 1.6347250E+01  2.5114080E+01
 1.6358751E+01  2.5079044E+01
 1.6370251E+01  2.5007860E+01
 1.6381750E+01  2.4958111E+01
 1.6393251E+01  2.4980806E+01
 1.6404751E+01  2.4964239E+01
 1.6416250E+01  2.4997234E+01
 1.6427752E+01  2.4903099E+01
 1.6439251E+01  2.4850237E+01
 1.6450750E+01  2.4806749E+01
 1.6462252E+01  2.4800146E+01
 1.6473751E+01  2.4795380E+01
 1.6485250E+01  2.4783640E+01
 1.6496750E+01  2.4801361E+01
 1.6508251E+01  2.4801357E+01
 1.6519751E+01  2.4776527E+01
 1.6531250E+01  2.4718544E+01
 1.6542751E+01  2.4734543E+01
 1.6554251E+01  2.4741661E+01
 1.6565750E+01  2.4811037E+01
 1.6577251E+01  2.4816010E+01
 1.6588751E+01  2.4831182E+01
 1.6600250E+01  2.4805468E+01
 1.6611752E+01  2.4775700E+01
 1.6623251E+01  2.4767141E+01
 1.6634750E+01  2.4701746E+01
 1.6646252E+01  2.4697128E+01
 1.6657751E+01  2.4677542E+01
 1.6669250E+01  2.4681299E+01
 1.6680750E+01  2.4625721E+01
 1.6692251E+01  2.4621494E+01
 1.6703751E+01  2.4602800E+01
 1.6715250E+01  2.4654392E+01
 1.6726751E+01  2.4681137E+01
 1.6738251E+01  2.4691431E+01
 1.6749750E+01  2.4704248E+01
 1.6761251E+01  2.4668770E+01
 1.6772751E+01  2.4643604E+01
 1.6784250E+01  2.4547642E+01
 1.6795752E+01  2.4508390E+01
 1.6807251E+01  2.4512524E+01
 1.6818750E+01  2.4497395E+01
 1.6830252E+01  2.4513710E+01
 1.6841751E+01  2.4521702E+01
 1.6853251E+01  2.4560863E+01
 1.6864750E+01  2.4608898E+01
 1.6876251E+01  2.4605705E+01
 1.6887751E+01  2.4605768E+01
 1.6899250E+01  2.4570591E+01
 1.6910751E+01  2.4555843E+01
 1.6922251E+01  2.4501013E+01
 1.6933750E+01  2.4476597E+01
 1.6945251E+01  2.4492855E+01
 1.6956751E+01  2.4494156E+01
 1.6968250E+01  2.4472666E+01
 1.6979752E+01  2.4485455E+01
 1.6991251E+01  2.4494024E+01
 1.7002750E+01  2.4487190E+01
 1.7014252E+01  2.4473572E+01
 1.7025751E+01  2.4417175E+01
 1.7037251E+01  2.4367870E+01
 1.7048750E+01  2.4305632E+01
 1.7060251E+01  2.4308668E+01
 1.7071751E+01  2.4309687E+01
 1.7083250E+01  2.4326591E+01
 1.7094751E+01  2.4357950E+01
 1.7106251E+01  2.4338884E+01
 1.7117750E+01  2.4319103E+01
 1.7129251E+01  2.4258224E+01
 1.7140751E+01  2.4235790E+01
 1.7152250E+01  2.4253744E+01
 1.7163752E+01  2.4308798E+01
 1.7175251E+01  2.4447075E+01
 1.7186750E+01  2.4526348E+01
 1.7198252E+01  2.4688969E+01
 1.7209751E+01  2.4718178E+01
 1.7221251E+01  2.4667589E+01
 1.7232750E+01  2.4485790E+01
 1.7244251E+01  2.4349049E+01
 1.7255751E+01  2.4260675E+01
 1.7267250E+01  2.4255095E+01
 1.7278751E+01  2.4268711E+01
 1.7290251E+01  2.4251595E+01
 1.7301750E+01  2.4225695E+01
 1.7313251E+01  2.4175381E+01
 1.7324751E+01  2.4186443E+01
 1.7336250E+01  2.4158678E+01
 1.7347752E+01  2.4177307E+01
 1.7359251E+01  2.4159363E+01
 1.7370750E+01  2.4133764E+01
 1.7382252E+01  2.4133020E+01
 1.7393751E+01  2.4157461E+01
 1.7405251E+01  2.4153204E+01
 1.7416750E+01  2.4149902E+01
 1.7428251E+01  2.4124620E+01
 1.7439751E+01  2.4130339E+01
 1.7451250E+01  2.4063713E+01
 1.7462751E+01  2.4032646E+01
 1.7474251E+01  2.3997637E+01
 1.7485750E+01  2.4031164E+01
 1.7497252E+01  2.4039888E+01
 1.7508751E+01  2.4066299E+01
 1.7520250E+01  2.4041847E+01
 1.7531752E+01  2.3999140E+01
 1.7543251E+01  2.3998085E+01
 1.7554750E+01  2.4014982E+01
 1.7566252E+01  2.4028063E+01
 1.7577751E+01  2.3987514E+01
 1.7589251E+01  2.3927824E+01
 1.7600750E+01  2.3927221E+01
 1.7612251E+01  2.3946325E+01
 1.7623751E+01  2.4050564E+01
 1.7635250E+01  2.4043997E+01
 1.7646751E+01  2.4020382E+01
 1.7658251E+01  2.3960962E+01
 1.7669750E+01  2.3978819E+01
 1.7681252E+01  2.3974180E+01
 1.7692751E+01  2.3993654E+01
 1.7704250E+01  2.3967119E+01
 1.7715752E+01  2.3957199E+01
 1.7727251E+01  2.3894505E+01
 1.7738750E+01  2.3912603E+01
 1.7750252E+01  2.3878326E+01
 1.7761751E+01  2.3892570E+01
 1.7773251E+01  2.3887672E+01
 1.7784750E+01  2.3905981E+01
 1.7796251E+01  2.3924089E+01
 1.7807751E+01  2.3894535E+01
 1.7819250E+01  2.3908314E+01
 1.7830751E+01  2.3898403E+01
 1.7842251E+01  2.3961737E+01
 1.7853750E+01  2.3986624E+01
 1.7865252E+01  2.3979759E+01
 1.7876751E+01  2.3962944E+01
 1.7888250E+01  2.3925592E+01
 1.7899752E+01  2.3901577E+01
 1.7911251E+01  2.3931574E+01
 1.7922750E+01  2.3965385E+01
 1.7934252E+01  2.3993164E+01
 1.7945751E+01  2.3971542E+01
 1.7957251E+01  2.3963415E+01
 1.7968750E+01  2.3997643E+01
 1.7980251E+01  2.4060860E+01
 1.7991751E+01  2.4166115E+01
 1.8003250E+01  2.4227890E+01
 1.8014751E+01  2.4292988E+01
 1.8026251E+01  2.4330227E+01
 1.8037750E+01  2.4376873E+01
 1.8049252E+01  2.4474094E+01
 1.8060751E+01  2.4593960E+01
 1.8072250E+01  2.4746147E+01
 1.8083752E+01  2.5015486E+01
 1.8095251E+01  2.5328272E+01
 1.8106750E+01  2.5620953E+01
 1.8118252E+01  2.5914837E+01
 1.8129751E+01  2.6117931E+01
 1.8141251E+01  2.6176470E+01
 1.8152750E+01  2.5917103E+01
 1.8164251E+01  2.5513964E+01
 1.8175751E+01  2.5000351E+01
 1.8187250E+01  2.4508678E+01
 1.8198751E+01  2.4238129E+01
 1.8210251E+01  2.4045843E+01
 1.8221750E+01  2.3949495E+01
 1.8233252E+01  2.3888191E+01
 1.8244751E+01  2.3842842E+01
 1.8256250E+01  2.3813396E+01
 1.8267752E+01  2.3828878E+01
 1.8279251E+01  2.3841244E+01
 1.8290751E+01  2.3845995E+01
 1.8302252E+01  2.3835985E+01
 1.8313751E+01  2.3870312E+01
 1.8325251E+01  2.3879990E+01
 1.8336750E+01  2.3840878E+01
 1.8348251E+01  2.3793684E+01
 1.8359751E+01  2.3788309E+01
 1.8371250E+01  2.3798590E+01
 1.8382751E+01  2.3826214E+01
 1.8394251E+01  2.3808224E+01
 1.8405750E+01  2.3812857E+01
 1.8417252E+01  2.3770039E+01
 1.8428751E+01  2.3768213E+01
 1.8440250E+01  2.3776932E+01
 1.8451752E+01  2.3777681E+01
 1.8463251E+01  2.3752502E+01
 1.8474751E+01  2.3726706E+01
 1.8486252E+01  2.3727362E+01
 1.8497751E+01  2.3746504E+01
 1.8509251E+01  2.3765009E+01
 1.8520750E+01  2.3732950E+01
 1.8532251E+01  2.3695021E+01
 1.8543751E+01  2.3634916E+01
 1.8555250E+01  2.3655882E+01
 1.8566751E+01  2.3652630E+01
 1.8578251E+01  2.3704342E+01
 1.8589750E+01  2.3730974E+01
 1.8601252E+01  2.3718065E+01
 1.8612751E+01  2.3718687E+01
 1.8624250E+01  2.3712679E+01
 1.8635752E+01  2.3711081E+01
 1.8647251E+01  2.3627150E+01
 1.8658751E+01  2.3583609E+01
 1.8670252E+01  2.3591434E+01
 1.8681751E+01  2.3645111E+01
 1.8693251E+01  2.3657988E+01
 1.8704750E+01  2.3675852E+01
 1.8716251E+01  2.3661932E+01
 1.8727751E+01  2.3662884E+01
 1.8739250E+01  2.3650703E+01
 1.8750751E+01  2.3632483E+01
 1.8762251E+01  2.3624474E+01
 1.8773750E+01  2.3609756E+01
 1.8785252E+01  2.3651903E+01
 1.8796751E+01  2.3653746E+01
 1.8808250E+01  2.3641857E+01
 1.8819752E+01  2.3635090E+01
 1.8831251E+01  2.3612251E+01
 1.8842751E+01  2.3617962E+01
 1.8854252E+01  2.3578651E+01
 1.8865751E+01  2.3570612E+01
 1.8877251E+01  2.3555891E+01
 1.8888750E+01  2.3574646E+01
 1.8900251E+01  2.3607145E+01
 1.8911751E+01  2.3650908E+01
 1.8923250E+01  2.3736284E+01
 1.8934752E+01  2.3791508E+01
 1.8946251E+01  2.3852875E+01
 1.8957750E+01  2.3814581E+01
 1.8969252E+01  2.3767756E+01
 1.8980751E+01  2.3679953E+01
 1.8992250E+01  2.3616711E+01
 1.9003752E+01  2.3574713E+01
 1.9015251E+01  2.3582712E+01
 1.9026751E+01  2.3629234E+01
 1.9038252E+01  2.3669489E+01
 1.9049751E+01  2.3689352E+01
 1.9061251E+01  2.3709063E+01
 1.9072750E+01  2.3712790E+01
 1.9084251E+01  2.3694441E+01
 1.9095751E+01  2.3634155E+01
 1.9107250E+01  2.3608742E+01
 1.9118752E+01  2.3575285E+01
 1.9130251E+01  2.3630352E+01
 1.9141750E+01  2.3676048E+01
 1.9153252E+01  2.3710209E+01
 1.9164751E+01  2.3737482E+01
 1.9176250E+01  2.3725630E+01
 1.9187752E+01  2.3720556E+01
 1.9199251E+01  2.3670332E+01
 1.9210751E+01  2.3677092E+01
 1.9222252E+01  2.3689526E+01
 1.9233751E+01  2.3707363E+01
 1.9245251E+01  2.3738571E+01
 1.9256750E+01  2.3751169E+01
 1.9268251E+01  2.3772564E+01
 1.9279751E+01  2.3717842E+01
 1.9291250E+01  2.3694990E+01
 1.9302752E+01  2.3693396E+01
 1.9314251E+01  2.3717470E+01
 1.9325750E+01  2.3748779E+01
 1.9337252E+01  2.3733904E+01
 1.9348751E+01  2.3747812E+01
 1.9360250E+01  2.3712954E+01
 1.9371752E+01  2.3708042E+01
 1.9383251E+01  2.3690008E+01
 1.9394751E+01  2.3721874E+01
 1.9406250E+01  2.3792295E+01
 1.9417751E+01  2.3846216E+01
 1.9429251E+01  2.3822323E+01
 1.9440750E+01  2.3764017E+01
 1.9452251E+01  2.3729267E+01
 1.9463751E+01  2.3762440E+01
 1.9475250E+01  2.3830553E+01
 1.9486752E+01  2.3888418E+01
 1.9498251E+01  2.3894772E+01
 1.9509750E+01  2.3853483E+01
 1.9521252E+01  2.3847973E+01
 1.9532751E+01  2.3849962E+01
 1.9544250E+01  2.3878891E+01
 1.9555752E+01  2.3867462E+01
 1.9567251E+01  2.3866947E+01
 1.9578751E+01  2.3898230E+01
 1.9590250E+01  2.3920973E+01
 1.9601751E+01  2.3964319E+01
 1.9613251E+01  2.4040243E+01
 1.9624750E+01  2.4152191E+01
 1.9636251E+01  2.4232662E+01
 1.9647751E+01  2.4322803E+01
 1.9659250E+01  2.4440840E+01
 1.9670752E+01  2.4584923E+01
 1.9682251E+01  2.4756357E+01
 1.9693750E+01  2.5139503E+01
 1.9705252E+01  2.5485958E+01
 1.9716751E+01  2.5965206E+01
 1.9728251E+01  2.6407681E+01
 1.9739752E+01  2.6635241E+01
 1.9751251E+01  2.6707430E+01
 1.9762751E+01  2.6657858E+01
 1.9774250E+01  2.6490179E+01
 1.9785751E+01  2.6173296E+01
 1.9797251E+01  2.6123817E+01
 1.9808750E+01  2.6534218E+01
 1.9820251E+01  2.7676451E+01
 1.9831751E+01  2.8719393E+01
 1.9843250E+01  3.1084000E+01
 1.9854752E+01  3.2083767E+01
 1.9866251E+01  3.2460312E+01
 1.9877750E+01  3.1353451E+01
 1.9889252E+01  2.9991913E+01
 1.9900751E+01  2.8537745E+01
 1.9912251E+01  2.6672804E+01
 1.9923752E+01  2.6079922E+01
 1.9935251E+01  2.5042067E+01
 1.9946751E+01  2.4727377E+01
 1.9958250E+01  2.4440706E+01
 1.9969751E+01  2.4312639E+01
 1.9981251E+01  2.4224833E+01
 1.9992750E+01  2.4182629E+01
 2.0004251E+01  2.4135910E+01
 2.0015751E+01  2.4064617E+01
 2.0027250E+01  2.3986925E+01
 2.0038752E+01  2.3950253E+01
 2.0050251E+01  2.3985142E+01
 2.0061750E+01  2.3964457E+01
 2.0073252E+01  2.3974485E+01
 2.0084751E+01  2.3976870E+01
 2.0096251E+01  2.3959354E+01
 2.0107752E+01  2.3935593E+01
 2.0119251E+01  2.3914085E+01
 2.0130751E+01  2.3913549E+01
 2.0142250E+01  2.3882654E+01
 2.0153751E+01  2.3860846E+01
 2.0165251E+01  2.3871948E+01
 2.0176750E+01  2.3913040E+01
 2.0188251E+01  2.3948128E+01
 2.0199751E+01  2.3982578E+01
 2.0211250E+01  2.4008339E+01
 2.0222752E+01  2.4021084E+01
 2.0234251E+01  2.3976934E+01
 2.0245750E+01  2.3914385E+01
 2.0257252E+01  2.3864883E+01
 2.0268751E+01  2.3825422E+01
 2.0280251E+01  2.3862482E+01
 2.0291752E+01  2.3864271E+01
 2.0303251E+01  2.3845827E+01
 2.0314751E+01  2.3833220E+01
 2.0326250E+01  2.3871578E+01
 2.0337751E+01  2.3940889E+01
 2.0349251E+01  2.3976868E+01
 2.0360750E+01  2.3984726E+01
 2.0372252E+01  2.3965515E+01
 2.0383751E+01  2.3886179E+01
 2.0395250E+01  2.3833618E+01
 2.0406752E+01  2.3828394E+01
 2.0418251E+01  2.3883125E+01
 2.0429750E+01  2.3941412E+01
 2.0441252E+01  2.3925119E+01
 2.0452751E+01  2.3885921E+01
 2.0464251E+01  2.3842749E+01
 2.0475752E+01  2.3835114E+01
 2.0487251E+01  2.3815865E+01
 2.0498751E+01  2.3781473E+01
 2.0510250E+01  2.3796242E+01
 2.0521751E+01  2.3819183E+01
 2.0533251E+01  2.3845119E+01
 2.0544750E+01  2.3865408E+01
 2.0556252E+01  2.3928093E+01
 2.0567751E+01  2.3948906E+01
 2.0579250E+01  2.3946732E+01
 2.0590752E+01  2.3978825E+01
 2.0602251E+01  2.4053242E+01
 2.0613750E+01  2.4094303E+01
 2.0625252E+01  2.4124744E+01
 2.0636751E+01  2.4146013E+01
 2.0648251E+01  2.4219660E+01
 2.0659752E+01  2.4281246E+01
 2.0671251E+01  2.4368650E+01
 2.0682751E+01  2.4560322E+01
 2.0694250E+01  2.4891661E+01
 2.0705751E+01  2.5378204E+01
 2.0717251E+01  2.5997471E+01
 2.0728750E+01  2.6584259E+01
 2.0740252E+01  2.7061831E+01
 2.0751751E+01  2.7474411E+01
 2.0763250E+01  2.7556778E+01
 2.0774752E+01  2.7393986E+01
 2.0786251E+01  2.6885489E+01
 2.0797750E+01  2.6417412E+01
 2.0809252E+01  2.5702299E+01
 2.0820751E+01  2.5242556E+01
 2.0832251E+01  2.4821106E+01
 2.0843752E+01  2.4563803E+01
 2.0855251E+01  2.4393991E+01
 2.0866751E+01  2.4262571E+01
 2.0878250E+01  2.4220623E+01
 2.0889751E+01  2.4179420E+01
 2.0901251E+01  2.4194225E+01
 2.0912750E+01  2.4193237E+01
 2.0924252E+01  2.4197929E+01
 2.0935751E+01  2.4184874E+01
 2.0947250E+01  2.4167959E+01
 2.0958752E+01  2.4128304E+01
 2.0970251E+01  2.4052191E+01
 2.0981750E+01  2.3986210E+01
 2.0993252E+01  2.4004797E+01
 2.1004751E+01  2.4033333E+01
 2.1016251E+01  2.4036154E+01
 2.1027752E+01  2.4022533E+01
 2.1039251E+01  2.4024652E+01
 2.1050751E+01  2.3986811E+01
 2.1062250E+01  2.3982216E+01
 2.1073751E+01  2.4008774E+01
 2.1085251E+01  2.4058784E+01
 2.1096750E+01  2.4015539E+01
 2.1108252E+01  2.3977015E+01
 2.1119751E+01  2.3980412E+01
 2.1131250E+01  2.3960657E+01
 2.1142752E+01  2.3938112E+01
 2.1154251E+01  2.3896242E+01
 2.1165751E+01  2.3940187E+01
 2.1177252E+01  2.3970898E+01
 2.1188751E+01  2.3955278E+01
 2.1200251E+01  2.3966305E+01
 2.1211752E+01  2.3969061E+01
 2.1223251E+01  2.3976772E+01
 2.1234751E+01  2.3976301E+01
 2.1246250E+01  2.3978252E+01
 2.1257751E+01  2.3969873E+01
 2.1269251E+01  2.3924572E+01
 2.1280750E+01  2.3961988E+01
 2.1292252E+01  2.3988489E+01
 2.1303751E+01  2.4044199E+01
 2.1315250E+01  2.4012491E+01
 2.1326752E+01  2.3964212E+01
 2.1338251E+01  2.3969402E+01
 2.1349751E+01  2.3995802E+01
 2.1361252E+01  2.4062632E+01
 2.1372751E+01  2.4074640E+01
 2.1384251E+01  2.4064287E+01
 2.1395752E+01  2.4036043E+01
 2.1407251E+01  2.4008167E+01
 2.1418751E+01  2.3994104E+01
 2.1430250E+01  2.4009613E+01
 2.1441751E+01  2.3983530E+01
 2.1453251E+01  2.3967854E+01
 2.1464750E+01  2.3963823E+01
 2.1476252E+01  2.4021408E+01
 2.1487751E+01  2.4069544E+01
 2.1499250E+01  2.4081285E+01
 2.1510752E+01  2.4077404E+01
 2.1522251E+01  2.4104033E+01
 2.1533751E+01  2.4131502E+01
 2.1545252E+01  2.4096825E+01
 2.1556751E+01  2.4081280E+01
 2.1568251E+01  2.4093685E+01
 2.1579752E+01  2.4164356E+01
 2.1591251E+01  2.4195406E+01
 2.1602751E+01  2.4265846E+01
 2.1614250E+01  2.4291613E+01
 2.1625751E+01  2.4298897E+01
 2.1637251E+01  2.4208595E+01
 2.1648750E+01  2.4188614E+01
 2.1660252E+01  2.4197721E+01
 2.1671751E+01  2.4248438E+01
 2.1683250E+01  2.4218401E+01
 2.1694752E+01  2.4218569E+01
 2.1706251E+01  2.4198189E+01
 2.1717751E+01  2.4224079E+01
 2.1729252E+01  2.4215649E+01
 2.1740751E+01  2.4222475E+01
 2.1752251E+01  2.4141439E+01
 2.1763752E+01  2.4121428E+01
 2.1775251E+01  2.4146275E+01
 2.1786751E+01  2.4190081E+01
 2.1798250E+01  2.4204815E+01
 2.1809752E+01  2.4216103E+01
 2.1821251E+01  2.4251110E+01
 2.1832750E+01  2.4222788E+01
 2.1844252E+01  2.4227942E+01
 2.1855751E+01  2.4251513E+01
 2.1867250E+01  2.4283714E+01
 2.1878752E+01  2.4317030E+01
 2.1890251E+01  2.4307238E+01
 2.1901751E+01  2.4367174E+01
 2.1913252E+01  2.4382120E+01
 2.1924751E+01  2.4382977E+01
 2.1936251E+01  2.4321543E+01
 2.1947752E+01  2.4284866E+01
 2.1959251E+01  2.4285402E+01
 2.1970751E+01  2.4305389E+01
 2.1982250E+01  2.4352732E+01
 2.1993752E+01  2.4311302E+01
 2.2005251E+01  2.4259727E+01
 2.2016750E+01  2.4229263E+01
 2.2028252E+01  2.4263641E+01
 2.2039751E+01  2.4278431E+01
 2.2051250E+01  2.4316465E+01
 2.2062752E+01  2.4308128E+01
 2.2074251E+01  2.4349714E+01
 2.2085751E+01  2.4350538E+01
 2.2097252E+01  2.4388649E+01
 2.2108751E+01  2.4375034E+01
 2.2120251E+01  2.4477486E+01
 2.2131752E+01  2.4514984E+01
 2.2143251E+01  2.4460007E+01
 2.2154751E+01  2.4372341E+01
 2.2166250E+01  2.4357664E+01
 2.2177752E+01  2.4366863E+01
 2.2189251E+01  2.4384689E+01
 2.2200750E+01  2.4385441E+01
 2.2212252E+01  2.4376345E+01
 2.2223751E+01  2.4372387E+01
 2.2235250E+01  2.4377710E+01
 2.2246752E+01  2.4391523E+01
 2.2258251E+01  2.4412788E+01
 2.2269751E+01  2.4410683E+01
 2.2281252E+01  2.4445904E+01
 2.2292751E+01  2.4490879E+01
 2.2304251E+01  2.4553213E+01
 2.2315752E+01  2.4561275E+01
 2.2327251E+01  2.4572170E+01
 2.2338751E+01  2.4568035E+01
 2.2350250E+01  2.4630333E+01
 2.2361752E+01  2.4651854E+01
 2.2373251E+01  2.4659241E+01
 2.2384750E+01  2.4599728E+01
 2.2396252E+01  2.4587017E+01
 2.2407751E+01  2.4541277E+01
 2.2419250E+01  2.4570639E+01
 2.2430752E+01  2.4643749E+01
 2.2442251E+01  2.4726345E+01
 2.2453751E+01  2.4780676E+01
 2.2465252E+01  2.4757771E+01
 2.2476751E+01  2.4698889E+01
 2.2488251E+01  2.4702444E+01
 2.2499752E+01  2.4699648E+01
 2.2511251E+01  2.4724241E+01
 2.2522751E+01  2.4801607E+01
 2.2534250E+01  2.4833168E+01
 2.2545752E+01  2.4904778E+01
 2.2557251E+01  2.4882509E+01
 2.2568750E+01  2.4905983E+01
 2.2580252E+01  2.4869825E+01
 2.2591751E+01  2.4870687E+01
 2.2603251E+01  2.4875645E+01
 2.2614752E+01  2.5005688E+01
 2.2626251E+01  2.5100464E+01
 2.2637751E+01  2.5171907E+01
 2.2649252E+01  2.5213589E+01
 2.2660751E+01  2.5248177E+01
 2.2672251E+01  2.5286093E+01
 2.2683752E+01  2.5291748E+01
 2.2695251E+01  2.5324890E+01
 2.2706751E+01  2.5280005E+01
 2.2718250E+01  2.5253891E+01
 2.2729752E+01  2.5216967E+01
 2.2741251E+01  2.5290226E+01
 2.2752750E+01  2.5332266E+01
 2.2764252E+01  2.5321241E+01
 2.2775751E+01  2.5340557E+01
 2.2787251E+01  2.5322512E+01
 2.2798752E+01  2.5382669E+01
 2.2810251E+01  2.5433315E+01
 2.2821751E+01  2.5475115E+01
 2.2833252E+01  2.5581753E+01
 2.2844751E+01  2.5653479E+01
 2.2856251E+01  2.5726217E+01
 2.2867750E+01  2.5796444E+01
 2.2879251E+01  2.5825514E+01
 2.2890751E+01  2.5872814E+01
 2.2902250E+01  2.5848227E+01
 2.2913752E+01  2.5969994E+01
 2.2925251E+01  2.6007542E+01
 2.2936750E+01  2.6062071E+01
 2.2948252E+01  2.6118343E+01
 2.2959751E+01  2.6199476E+01
 2.2971251E+01  2.6313095E+01
 2.2982752E+01  2.6396063E+01
 2.2994251E+01  2.6499557E+01
