F:\20151113_APS_34IDE\\Brian\Particle1\OCV\Data_0088.tif
2-Theta Angle (Degrees)
Intensity
       2000
 5.7500005E-03  0.0000000E+00
 1.7250001E-02  0.0000000E+00
 2.8750001E-02  0.0000000E+00
 4.0250003E-02  0.0000000E+00
 5.1750004E-02  0.0000000E+00
 6.3250005E-02  0.0000000E+00
 7.4750006E-02  0.0000000E+00
 8.6250007E-02  0.0000000E+00
 9.7750008E-02  0.0000000E+00
 1.0925001E-01  0.0000000E+00
 1.2075000E-01  0.0000000E+00
 1.3225001E-01  0.0000000E+00
 1.4375001E-01  0.0000000E+00
 1.5525001E-01  0.0000000E+00
 1.6675001E-01  0.0000000E+00
 1.7825001E-01  0.0000000E+00
 1.8975002E-01  0.0000000E+00
 2.0125002E-01  0.0000000E+00
 2.1275002E-01  0.0000000E+00
 2.2425000E-01  0.0000000E+00
 2.3575000E-01  0.0000000E+00
 2.4725001E-01  0.0000000E+00
 2.5875002E-01  0.0000000E+00
 2.7025002E-01  0.0000000E+00
 2.8175002E-01  0.0000000E+00
 2.9325002E-01  0.0000000E+00
 3.0475003E-01  0.0000000E+00
 3.1625003E-01  0.0000000E+00
 3.2775003E-01  0.0000000E+00
 3.3925003E-01  0.0000000E+00
 3.5075003E-01  0.0000000E+00
 3.6225003E-01  0.0000000E+00
 3.7375003E-01  0.0000000E+00
 3.8525003E-01  0.0000000E+00
 3.9675003E-01  0.0000000E+00
 4.0825003E-01  0.0000000E+00
 4.1975003E-01  0.0000000E+00
 4.3125004E-01  0.0000000E+00
 4.4275001E-01  0.0000000E+00
 4.5425001E-01  0.0000000E+00
 4.6575001E-01  0.0000000E+00
 4.7725001E-01  0.0000000E+00
 4.8875001E-01  0.0000000E+00
 5.0025004E-01  0.0000000E+00
 5.1175004E-01  0.0000000E+00
 5.2325004E-01  0.0000000E+00
 5.3475004E-01  0.0000000E+00
 5.4625005E-01  0.0000000E+00
 5.5775005E-01  0.0000000E+00
 5.6925005E-01  0.0000000E+00
 5.8075005E-01  0.0000000E+00
 5.9225005E-01  0.0000000E+00
 6.0375005E-01  0.0000000E+00
 6.1525005E-01  0.0000000E+00
 6.2675005E-01  0.0000000E+00
 6.3825005E-01  0.0000000E+00
 6.4975005E-01  0.0000000E+00
 6.6125005E-01  0.0000000E+00
 6.7275006E-01  0.0000000E+00
 6.8425006E-01  0.0000000E+00
 6.9575006E-01  0.0000000E+00
 7.0725006E-01  0.0000000E+00
 7.1875006E-01  0.0000000E+00
 7.3025006E-01  0.0000000E+00
 7.4175006E-01  0.0000000E+00
 7.5325006E-01  0.0000000E+00
 7.6475006E-01  0.0000000E+00
 7.7625006E-01  0.0000000E+00
 7.8775007E-01  0.0000000E+00
 7.9925007E-01  0.0000000E+00
 8.1075007E-01  0.0000000E+00
 8.2225007E-01  0.0000000E+00
 8.3375007E-01  0.0000000E+00
 8.4525007E-01  0.0000000E+00
 8.5675007E-01  0.0000000E+00
 8.6825007E-01  0.0000000E+00
 8.7975001E-01  0.0000000E+00
 8.9125001E-01  0.0000000E+00
 9.0275002E-01  0.0000000E+00
 9.1425002E-01  0.0000000E+00
 9.2575002E-01  0.0000000E+00
 9.3725002E-01  0.0000000E+00
 9.4875002E-01  0.0000000E+00
 9.6025002E-01  0.0000000E+00
 9.7175002E-01  0.0000000E+00
 9.8325002E-01  0.0000000E+00
 9.9475002E-01  0.0000000E+00
 1.0062500E+00  0.0000000E+00
 1.0177500E+00  0.0000000E+00
 1.0292500E+00  0.0000000E+00
 1.0407500E+00  0.0000000E+00
 1.0522500E+00  0.0000000E+00
 1.0637500E+00  0.0000000E+00
 1.0752500E+00  0.0000000E+00
 1.0867500E+00  0.0000000E+00
 1.0982500E+00  0.0000000E+00
 1.1097500E+00  0.0000000E+00
 1.1212500E+00  0.0000000E+00
 1.1327500E+00  0.0000000E+00
 1.1442500E+00  0.0000000E+00
 1.1557500E+00  0.0000000E+00
 1.1672500E+00  0.0000000E+00
 1.1787500E+00  0.0000000E+00
 1.1902500E+00  0.0000000E+00
 1.2017500E+00  0.0000000E+00
 1.2132500E+00  0.0000000E+00
 1.2247500E+00  0.0000000E+00
 1.2362500E+00  0.0000000E+00
 1.2477500E+00  0.0000000E+00
 1.2592500E+00  0.0000000E+00
 1.2707500E+00  0.0000000E+00
 1.2822500E+00  0.0000000E+00
 1.2937500E+00  0.0000000E+00
 1.3052500E+00  0.0000000E+00
 1.3167500E+00  0.0000000E+00
 1.3282501E+00  0.0000000E+00
 1.3397501E+00  0.0000000E+00
 1.3512501E+00  0.0000000E+00
 1.3627501E+00  0.0000000E+00
 1.3742501E+00  0.0000000E+00
 1.3857501E+00  0.0000000E+00
 1.3972501E+00  0.0000000E+00
 1.4087501E+00  0.0000000E+00
 1.4202501E+00  0.0000000E+00
 1.4317501E+00  0.0000000E+00
 1.4432501E+00  0.0000000E+00
 1.4547501E+00  0.0000000E+00
 1.4662501E+00  0.0000000E+00
 1.4777501E+00  0.0000000E+00
 1.4892501E+00  0.0000000E+00
 1.5007501E+00  0.0000000E+00
 1.5122501E+00  0.0000000E+00
 1.5237501E+00  0.0000000E+00
 1.5352501E+00  0.0000000E+00
 1.5467501E+00  0.0000000E+00
 1.5582501E+00  0.0000000E+00
 1.5697501E+00  0.0000000E+00
 1.5812501E+00  0.0000000E+00
 1.5927501E+00  0.0000000E+00
 1.6042501E+00  0.0000000E+00
 1.6157501E+00  0.0000000E+00
 1.6272501E+00  0.0000000E+00
 1.6387501E+00  0.0000000E+00
 1.6502501E+00  0.0000000E+00
 1.6617501E+00  0.0000000E+00
 1.6732501E+00  0.0000000E+00
 1.6847501E+00  0.0000000E+00
 1.6962501E+00  0.0000000E+00
 1.7077501E+00  0.0000000E+00
 1.7192501E+00  0.0000000E+00
 1.7307501E+00  0.0000000E+00
 1.7422501E+00  0.0000000E+00
 1.7537501E+00  0.0000000E+00
 1.7652501E+00  0.0000000E+00
 1.7767501E+00  0.0000000E+00
 1.7882501E+00  0.0000000E+00
 1.7997501E+00  0.0000000E+00
 1.8112501E+00  0.0000000E+00
 1.8227501E+00  0.0000000E+00
 1.8342501E+00  0.0000000E+00
 1.8457501E+00  0.0000000E+00
 1.8572501E+00  0.0000000E+00
 1.8687501E+00  0.0000000E+00
 1.8802501E+00  0.0000000E+00
 1.8917501E+00  0.0000000E+00
 1.9032501E+00  0.0000000E+00
 1.9147501E+00  0.0000000E+00
 1.9262501E+00  0.0000000E+00
 1.9377501E+00  0.0000000E+00
 1.9492501E+00  0.0000000E+00
 1.9607501E+00  0.0000000E+00
 1.9722501E+00  0.0000000E+00
 1.9837501E+00  0.0000000E+00
 1.9952501E+00  0.0000000E+00
 2.0067501E+00  0.0000000E+00
 2.0182500E+00  0.0000000E+00
 2.0297501E+00  0.0000000E+00
 2.0412500E+00  0.0000000E+00
 2.0527501E+00  0.0000000E+00
 2.0642500E+00  0.0000000E+00
 2.0757501E+00  0.0000000E+00
 2.0872500E+00  0.0000000E+00
 2.0987501E+00  0.0000000E+00
 2.1102500E+00  0.0000000E+00
 2.1217501E+00  0.0000000E+00
 2.1332500E+00  0.0000000E+00
 2.1447501E+00  0.0000000E+00
 2.1562500E+00  0.0000000E+00
 2.1677501E+00  0.0000000E+00
 2.1792500E+00  0.0000000E+00
 2.1907501E+00  0.0000000E+00
 2.2022500E+00  0.0000000E+00
 2.2137501E+00  0.0000000E+00
 2.2252500E+00  0.0000000E+00
 2.2367501E+00  0.0000000E+00
 2.2482500E+00  0.0000000E+00
 2.2597501E+00  0.0000000E+00
 2.2712500E+00  0.0000000E+00
 2.2827501E+00  0.0000000E+00
 2.2942500E+00  0.0000000E+00
 2.3057501E+00  0.0000000E+00
 2.3172500E+00  0.0000000E+00
 2.3287501E+00  0.0000000E+00
 2.3402500E+00  0.0000000E+00
 2.3517501E+00  0.0000000E+00
 2.3632500E+00  0.0000000E+00
 2.3747501E+00  0.0000000E+00
 2.3862500E+00  0.0000000E+00
 2.3977501E+00  0.0000000E+00
 2.4092500E+00  0.0000000E+00
 2.4207501E+00  0.0000000E+00
 2.4322500E+00  0.0000000E+00
 2.4437501E+00  0.0000000E+00
 2.4552500E+00  0.0000000E+00
 2.4667501E+00  0.0000000E+00
 2.4782500E+00  0.0000000E+00
 2.4897501E+00  0.0000000E+00
 2.5012500E+00  0.0000000E+00
 2.5127501E+00  0.0000000E+00
 2.5242500E+00  0.0000000E+00
 2.5357502E+00  0.0000000E+00
 2.5472500E+00  0.0000000E+00
 2.5587502E+00  0.0000000E+00
 2.5702500E+00  0.0000000E+00
 2.5817502E+00  0.0000000E+00
 2.5932500E+00  0.0000000E+00
 2.6047502E+00  0.0000000E+00
 2.6162500E+00  0.0000000E+00
 2.6277502E+00  0.0000000E+00
 2.6392500E+00  0.0000000E+00
 2.6507502E+00  0.0000000E+00
 2.6622500E+00  0.0000000E+00
 2.6737502E+00  0.0000000E+00
 2.6852500E+00  0.0000000E+00
 2.6967502E+00  0.0000000E+00
 2.7082500E+00  0.0000000E+00
 2.7197502E+00  0.0000000E+00
 2.7312500E+00  0.0000000E+00
 2.7427502E+00  0.0000000E+00
 2.7542500E+00  0.0000000E+00
 2.7657502E+00  0.0000000E+00
 2.7772501E+00  0.0000000E+00
 2.7887502E+00  0.0000000E+00
 2.8002501E+00  0.0000000E+00
 2.8117502E+00  0.0000000E+00
 2.8232501E+00  3.4830021E+01
 2.8347502E+00  3.4128868E+01
 2.8462501E+00  3.3997055E+01
 2.8577502E+00  3.4107685E+01
 2.8692501E+00  3.3949158E+01
 2.8807502E+00  3.3922581E+01
 2.8922501E+00  3.4127422E+01
 2.9037502E+00  3.4122723E+01
 2.9152501E+00  3.4748093E+01
 2.9267502E+00  3.5215336E+01
 2.9382501E+00  3.5645153E+01
 2.9497502E+00  3.6040588E+01
 2.9612501E+00  3.5861843E+01
 2.9727502E+00  3.5869682E+01
 2.9842501E+00  3.5398609E+01
 2.9957502E+00  3.5194824E+01
 3.0072501E+00  3.5423187E+01
 3.0187502E+00  3.5216621E+01
 3.0302501E+00  3.5416729E+01
 3.0417502E+00  3.5615669E+01
 3.0532501E+00  3.5911602E+01
 3.0647502E+00  3.5772011E+01
 3.0762501E+00  3.5185959E+01
 3.0877502E+00  3.4878567E+01
 3.0992501E+00  3.4870842E+01
 3.1107502E+00  3.4616856E+01
 3.1222501E+00  3.4569595E+01
 3.1337502E+00  3.4342888E+01
 3.1452501E+00  3.4617851E+01
 3.1567502E+00  3.4960423E+01
 3.1682501E+00  3.5562847E+01
 3.1797502E+00  3.6100800E+01
 3.1912501E+00  3.6205933E+01
 3.2027502E+00  3.6294483E+01
 3.2142501E+00  3.6298061E+01
 3.2257502E+00  3.6167053E+01
 3.2372501E+00  3.5592426E+01
 3.2487502E+00  3.4946053E+01
 3.2602501E+00  3.4813316E+01
 3.2717502E+00  3.4675835E+01
 3.2832501E+00  3.4479065E+01
 3.2947502E+00  3.4566174E+01
 3.3062501E+00  3.4765785E+01
 3.3177502E+00  3.5063244E+01
 3.3292501E+00  3.5229095E+01
 3.3407502E+00  3.5191597E+01
 3.3522501E+00  3.5035919E+01
 3.3637502E+00  3.4973557E+01
 3.3752501E+00  3.4891403E+01
 3.3867502E+00  3.4901711E+01
 3.3982501E+00  3.4899109E+01
 3.4097502E+00  3.5064522E+01
 3.4212501E+00  3.5437260E+01
 3.4327502E+00  3.5366005E+01
 3.4442501E+00  3.5082870E+01
 3.4557502E+00  3.4984360E+01
 3.4672501E+00  3.4807079E+01
 3.4787502E+00  3.4788467E+01
 3.4902501E+00  3.4703896E+01
 3.5017502E+00  3.4507343E+01
 3.5132501E+00  3.4380516E+01
 3.5247502E+00  3.4142593E+01
 3.5362501E+00  3.4073059E+01
 3.5477502E+00  3.3843903E+01
 3.5592501E+00  3.3756893E+01
 3.5707502E+00  3.3531960E+01
 3.5822501E+00  3.3501789E+01
 3.5937502E+00  3.3337620E+01
 3.6052501E+00  3.3353531E+01
 3.6167502E+00  3.3391899E+01
 3.6282501E+00  3.3360016E+01
 3.6397502E+00  3.3325211E+01
 3.6512501E+00  3.3424961E+01
 3.6627502E+00  3.3541653E+01
 3.6742501E+00  3.3603672E+01
 3.6857502E+00  3.3561943E+01
 3.6972501E+00  3.3504486E+01
 3.7087502E+00  3.3488491E+01
 3.7202501E+00  3.3448822E+01
 3.7317502E+00  3.3618820E+01
 3.7432501E+00  3.3541965E+01
 3.7547503E+00  3.3559505E+01
 3.7662501E+00  3.3288654E+01
 3.7777503E+00  3.3102871E+01
 3.7892501E+00  3.2784172E+01
 3.8007503E+00  3.2598259E+01
 3.8122501E+00  3.2649986E+01
 3.8237503E+00  3.2863674E+01
 3.8352501E+00  3.3057159E+01
 3.8467503E+00  3.3086742E+01
 3.8582501E+00  3.2968147E+01
 3.8697503E+00  3.2726532E+01
 3.8812501E+00  3.2661034E+01
 3.8927503E+00  3.2426575E+01
 3.9042501E+00  3.2277672E+01
 3.9157503E+00  3.2440590E+01
 3.9272501E+00  3.2591316E+01
 3.9387503E+00  3.2836769E+01
 3.9502501E+00  3.2795391E+01
 3.9617503E+00  3.2772339E+01
 3.9732502E+00  3.2864124E+01
 3.9847503E+00  3.3142757E+01
 3.9962502E+00  3.3164497E+01
 4.0077500E+00  3.3220753E+01
 4.0192504E+00  3.2903370E+01
 4.0307503E+00  3.2757542E+01
 4.0422502E+00  3.2575508E+01
 4.0537500E+00  3.2340714E+01
 4.0652504E+00  3.2414806E+01
 4.0767503E+00  3.2413261E+01
 4.0882502E+00  3.2662777E+01
 4.0997500E+00  3.2783890E+01
 4.1112504E+00  3.2871952E+01
 4.1227503E+00  3.2801071E+01
 4.1342502E+00  3.2742821E+01
 4.1457500E+00  3.2821903E+01
 4.1572504E+00  3.2671844E+01
 4.1687503E+00  3.2586262E+01
 4.1802502E+00  3.2371155E+01
 4.1917500E+00  3.2367271E+01
 4.2032504E+00  3.2324635E+01
 4.2147503E+00  3.2286270E+01
 4.2262502E+00  3.2290993E+01
 4.2377501E+00  3.2271412E+01
 4.2492504E+00  3.2164474E+01
 4.2607503E+00  3.2133797E+01
 4.2722502E+00  3.2056999E+01
 4.2837501E+00  3.2178860E+01
 4.2952504E+00  3.2223125E+01
 4.3067503E+00  3.2274170E+01
 4.3182502E+00  3.2298679E+01
 4.3297501E+00  3.2377228E+01
 4.3412504E+00  3.2532761E+01
 4.3527503E+00  3.2552082E+01
 4.3642502E+00  3.2650433E+01
 4.3757501E+00  3.2507042E+01
 4.3872504E+00  3.2606956E+01
 4.3987503E+00  3.2620930E+01
 4.4102502E+00  3.2709827E+01
 4.4217501E+00  3.2695454E+01
 4.4332504E+00  3.2605419E+01
 4.4447503E+00  3.2537117E+01
 4.4562502E+00  3.2456600E+01
 4.4677501E+00  3.2553841E+01
 4.4792504E+00  3.2528370E+01
 4.4907503E+00  3.2677208E+01
 4.5022502E+00  3.2620010E+01
 4.5137501E+00  3.2671238E+01
 4.5252504E+00  3.2773975E+01
 4.5367503E+00  3.2829815E+01
 4.5482502E+00  3.2899281E+01
 4.5597501E+00  3.2863319E+01
 4.5712504E+00  3.2765816E+01
 4.5827503E+00  3.2753880E+01
 4.5942502E+00  3.2785179E+01
 4.6057501E+00  3.2863819E+01
 4.6172504E+00  3.2911060E+01
 4.6287503E+00  3.2789322E+01
 4.6402502E+00  3.2708073E+01
 4.6517501E+00  3.2661835E+01
 4.6632504E+00  3.2776321E+01
 4.6747503E+00  3.2765869E+01
 4.6862502E+00  3.2888378E+01
 4.6977501E+00  3.3059261E+01
 4.7092505E+00  3.3253555E+01
 4.7207503E+00  3.3128613E+01
 4.7322502E+00  3.2916546E+01
 4.7437501E+00  3.2633018E+01
 4.7552505E+00  3.2546814E+01
 4.7667503E+00  3.2499733E+01
 4.7782502E+00  3.2570042E+01
 4.7897501E+00  3.2892212E+01
 4.8012505E+00  3.2952141E+01
 4.8127503E+00  3.3071697E+01
 4.8242502E+00  3.2932693E+01
 4.8357501E+00  3.2913315E+01
 4.8472505E+00  3.2775223E+01
 4.8587503E+00  3.2853855E+01
 4.8702502E+00  3.2865658E+01
 4.8817501E+00  3.2822674E+01
 4.8932505E+00  3.2772202E+01
 4.9047503E+00  3.2688156E+01
 4.9162502E+00  3.2927074E+01
 4.9277501E+00  3.2954411E+01
 4.9392505E+00  3.3204063E+01
 4.9507504E+00  3.3239857E+01
 4.9622502E+00  3.3124058E+01
 4.9737501E+00  3.3178921E+01
 4.9852505E+00  3.3241173E+01
 4.9967504E+00  3.3493317E+01
 5.0082502E+00  3.3414005E+01
 5.0197501E+00  3.3333691E+01
 5.0312505E+00  3.3350945E+01
 5.0427504E+00  3.3248768E+01
 5.0542502E+00  3.3176582E+01
 5.0657501E+00  3.3068062E+01
 5.0772505E+00  3.3069828E+01
 5.0887504E+00  3.3193649E+01
 5.1002502E+00  3.3271210E+01
 5.1117501E+00  3.3340199E+01
 5.1232505E+00  3.3486885E+01
 5.1347504E+00  3.3649166E+01
 5.1462502E+00  3.3936604E+01
 5.1577501E+00  3.4066093E+01
 5.1692505E+00  3.4195045E+01
 5.1807504E+00  3.4298008E+01
 5.1922503E+00  3.4361755E+01
 5.2037501E+00  3.4275372E+01
 5.2152505E+00  3.4160324E+01
 5.2267504E+00  3.4083019E+01
 5.2382503E+00  3.4016884E+01
 5.2497501E+00  3.4083427E+01
 5.2612505E+00  3.4113174E+01
 5.2727504E+00  3.4156250E+01
 5.2842503E+00  3.4171844E+01
 5.2957501E+00  3.4251892E+01
 5.3072500E+00  3.4327187E+01
 5.3187504E+00  3.4455360E+01
 5.3302503E+00  3.4543701E+01
 5.3417501E+00  3.4626869E+01
 5.3532500E+00  3.4637226E+01
 5.3647504E+00  3.4683704E+01
 5.3762503E+00  3.4780560E+01
 5.3877501E+00  3.4852314E+01
 5.3992500E+00  3.4785557E+01
 5.4107504E+00  3.4751060E+01
 5.4222503E+00  3.4670498E+01
 5.4337502E+00  3.4557251E+01
 5.4452500E+00  3.4613262E+01
 5.4567504E+00  3.4650906E+01
 5.4682503E+00  3.4761959E+01
 5.4797502E+00  3.4819935E+01
 5.4912500E+00  3.4914997E+01
 5.5027504E+00  3.5060650E+01
 5.5142503E+00  3.5056301E+01
 5.5257502E+00  3.5084766E+01
 5.5372500E+00  3.4989071E+01
 5.5487504E+00  3.5050968E+01
 5.5602503E+00  3.5025215E+01
 5.5717502E+00  3.5162193E+01
 5.5832500E+00  3.5303432E+01
 5.5947504E+00  3.5486919E+01
 5.6062503E+00  3.5740891E+01
 5.6177502E+00  3.5787090E+01
 5.6292500E+00  3.5785820E+01
 5.6407504E+00  3.5671097E+01
 5.6522503E+00  3.5552700E+01
 5.6637502E+00  3.5584267E+01
 5.6752501E+00  3.5518307E+01
 5.6867504E+00  3.5549313E+01
 5.6982503E+00  3.5498444E+01
 5.7097502E+00  3.5502239E+01
 5.7212501E+00  3.5519032E+01
 5.7327504E+00  3.5595203E+01
 5.7442503E+00  3.5583485E+01
 5.7557502E+00  3.5797523E+01
 5.7672501E+00  3.5859829E+01
 5.7787504E+00  3.6036411E+01
 5.7902503E+00  3.6061569E+01
 5.8017502E+00  3.6129154E+01
 5.8132501E+00  3.5992683E+01
 5.8247504E+00  3.5895782E+01
 5.8362503E+00  3.5800610E+01
 5.8477502E+00  3.5829216E+01
 5.8592501E+00  3.5791931E+01
 5.8707504E+00  3.5820183E+01
 5.8822503E+00  3.5964958E+01
 5.8937502E+00  3.6069874E+01
 5.9052501E+00  3.6364876E+01
 5.9167504E+00  3.6727783E+01
 5.9282503E+00  3.7381302E+01
 5.9397502E+00  3.8840393E+01
 5.9512501E+00  4.0243450E+01
 5.9627504E+00  4.1975929E+01
 5.9742503E+00  4.4827484E+01
 5.9857502E+00  4.5387470E+01
 5.9972501E+00  4.5067619E+01
 6.0087504E+00  4.2906403E+01
 6.0202503E+00  4.0969315E+01
 6.0317502E+00  3.9896275E+01
 6.0432501E+00  3.8112679E+01
 6.0547504E+00  3.7590363E+01
 6.0662503E+00  3.7213921E+01
 6.0777502E+00  3.7094219E+01
 6.0892501E+00  3.7156242E+01
 6.1007504E+00  3.7250011E+01
 6.1122503E+00  3.7296856E+01
 6.1237502E+00  3.7241489E+01
 6.1352501E+00  3.7166485E+01
 6.1467505E+00  3.7031780E+01
 6.1582503E+00  3.7061607E+01
 6.1697502E+00  3.7028976E+01
 6.1812501E+00  3.7073288E+01
 6.1927505E+00  3.7102970E+01
 6.2042503E+00  3.7146690E+01
 6.2157502E+00  3.7272205E+01
 6.2272501E+00  3.7396473E+01
 6.2387505E+00  3.7440472E+01
 6.2502503E+00  3.7511272E+01
 6.2617502E+00  3.7538605E+01
 6.2732501E+00  3.7654156E+01
 6.2847505E+00  3.7798325E+01
 6.2962503E+00  3.7931015E+01
 6.3077502E+00  3.8125763E+01
 6.3192501E+00  3.8334736E+01
 6.3307505E+00  3.8513298E+01
 6.3422503E+00  3.8660572E+01
 6.3537502E+00  3.8754025E+01
 6.3652501E+00  3.8807716E+01
 6.3767505E+00  3.8779045E+01
 6.3882504E+00  3.8771240E+01
 6.3997502E+00  3.8654022E+01
 6.4112501E+00  3.8617252E+01
 6.4227505E+00  3.8537266E+01
 6.4342504E+00  3.8567612E+01
 6.4457502E+00  3.8757397E+01
 6.4572501E+00  3.8745167E+01
 6.4687505E+00  3.8920666E+01
 6.4802504E+00  3.8934746E+01
 6.4917502E+00  3.9129620E+01
 6.5032501E+00  3.9336319E+01
 6.5147505E+00  3.9455776E+01
 6.5262504E+00  3.9550526E+01
 6.5377502E+00  3.9599850E+01
 6.5492501E+00  3.9696304E+01
 6.5607505E+00  3.9777260E+01
 6.5722504E+00  3.9804184E+01
 6.5837502E+00  3.9728455E+01
 6.5952501E+00  3.9757938E+01
 6.6067505E+00  3.9818287E+01
 6.6182504E+00  3.9976238E+01
 6.6297503E+00  4.0071674E+01
 6.6412501E+00  4.0285934E+01
 6.6527505E+00  4.0361248E+01
 6.6642504E+00  4.0497543E+01
 6.6757503E+00  4.0443005E+01
 6.6872501E+00  4.0445507E+01
 6.6987505E+00  4.0487236E+01
 6.7102504E+00  4.0515095E+01
 6.7217503E+00  4.0603027E+01
 6.7332501E+00  4.0661549E+01
 6.7447505E+00  4.0765808E+01
 6.7562504E+00  4.0960918E+01
 6.7677503E+00  4.1171101E+01
 6.7792501E+00  4.1279060E+01
 6.7907505E+00  4.1363037E+01
 6.8022504E+00  4.1439915E+01
 6.8137503E+00  4.1561680E+01
 6.8252501E+00  4.1640697E+01
 6.8367505E+00  4.1630844E+01
 6.8482504E+00  4.1682320E+01
 6.8597503E+00  4.1749786E+01
 6.8712502E+00  4.1880802E+01
 6.8827505E+00  4.2016613E+01
 6.8942504E+00  4.2173595E+01
 6.9057503E+00  4.2333847E+01
 6.9172502E+00  4.2438023E+01
 6.9287505E+00  4.2515919E+01
 6.9402504E+00  4.2538692E+01
 6.9517503E+00  4.2579807E+01
 6.9632502E+00  4.2729649E+01
 6.9747505E+00  4.2914867E+01
 6.9862504E+00  4.3104649E+01
 6.9977503E+00  4.3263924E+01
 7.0092502E+00  4.3214329E+01
 7.0207505E+00  4.3227951E+01
 7.0322504E+00  4.3028839E+01
 7.0437503E+00  4.3070091E+01
 7.0552502E+00  4.3034966E+01
 7.0667505E+00  4.3103718E+01
 7.0782504E+00  4.3091515E+01
 7.0897503E+00  4.3125565E+01
 7.1012502E+00  4.3251804E+01
 7.1127505E+00  4.3357937E+01
 7.1242504E+00  4.3533371E+01
 7.1357503E+00  4.3568974E+01
 7.1472502E+00  4.3682507E+01
 7.1587505E+00  4.3647125E+01
 7.1702504E+00  4.3617233E+01
 7.1817503E+00  4.3532700E+01
 7.1932502E+00  4.3523880E+01
 7.2047505E+00  4.3543541E+01
 7.2162504E+00  4.3561611E+01
 7.2277503E+00  4.3667793E+01
 7.2392502E+00  4.3781883E+01
 7.2507505E+00  4.3915016E+01
 7.2622504E+00  4.4132397E+01
 7.2737503E+00  4.4336914E+01
 7.2852502E+00  4.4467072E+01
 7.2967505E+00  4.4517990E+01
 7.3082504E+00  4.4465633E+01
 7.3197503E+00  4.4391956E+01
 7.3312502E+00  4.4386997E+01
 7.3427505E+00  4.4291889E+01
 7.3542504E+00  4.4384655E+01
 7.3657503E+00  4.4290844E+01
 7.3772502E+00  4.4316578E+01
 7.3887506E+00  4.4190563E+01
 7.4002504E+00  4.4088936E+01
 7.4117503E+00  4.4059601E+01
 7.4232502E+00  4.4208714E+01
 7.4347506E+00  4.4375328E+01
 7.4462504E+00  4.4518726E+01
 7.4577503E+00  4.4545570E+01
 7.4692502E+00  4.4557072E+01
 7.4807506E+00  4.4531784E+01
 7.4922504E+00  4.4537796E+01
 7.5037503E+00  4.4539528E+01
 7.5152502E+00  4.4504333E+01
 7.5267506E+00  4.4511997E+01
 7.5382504E+00  4.4570400E+01
 7.5497503E+00  4.4616280E+01
 7.5612502E+00  4.4699051E+01
 7.5727506E+00  4.4746025E+01
 7.5842505E+00  4.4820213E+01
 7.5957503E+00  4.4804035E+01
 7.6072502E+00  4.4812069E+01
 7.6187506E+00  4.4784103E+01
 7.6302505E+00  4.4800224E+01
 7.6417503E+00  4.4734882E+01
 7.6532502E+00  4.4717491E+01
 7.6647506E+00  4.4638508E+01
 7.6762505E+00  4.4583176E+01
 7.6877503E+00  4.4521187E+01
 7.6992502E+00  4.4470474E+01
 7.7107506E+00  4.4499138E+01
 7.7222505E+00  4.4533916E+01
 7.7337503E+00  4.4678154E+01
 7.7452502E+00  4.4754101E+01
 7.7567506E+00  4.4809002E+01
 7.7682505E+00  4.4829689E+01
 7.7797503E+00  4.4874168E+01
 7.7912502E+00  4.4956062E+01
 7.8027506E+00  4.5075439E+01
 7.8142505E+00  4.5020676E+01
 7.8257504E+00  4.5046436E+01
 7.8372502E+00  4.4967461E+01
 7.8487506E+00  4.4860409E+01
 7.8602505E+00  4.4791229E+01
 7.8717504E+00  4.4632473E+01
 7.8832502E+00  4.4537350E+01
 7.8947506E+00  4.4359947E+01
 7.9062505E+00  4.4258255E+01
 7.9177504E+00  4.4200748E+01
 7.9292502E+00  4.4159058E+01
 7.9407506E+00  4.4100597E+01
 7.9522505E+00  4.4098541E+01
 7.9637504E+00  4.4158966E+01
 7.9752502E+00  4.4082085E+01
 7.9867506E+00  4.4079159E+01
 7.9982505E+00  4.4001560E+01
 8.0097504E+00  4.3899689E+01
 8.0212507E+00  4.3847206E+01
 8.0327501E+00  4.3675991E+01
 8.0442505E+00  4.3663445E+01
 8.0557508E+00  4.3480869E+01
 8.0672503E+00  4.3371235E+01
 8.0787506E+00  4.3298077E+01
 8.0902500E+00  4.3310776E+01
 8.1017504E+00  4.3406258E+01
 8.1132507E+00  4.3321552E+01
 8.1247501E+00  4.3191635E+01
 8.1362505E+00  4.2937206E+01
 8.1477509E+00  4.2820305E+01
 8.1592503E+00  4.2706356E+01
 8.1707506E+00  4.2601727E+01
 8.1822500E+00  4.2341022E+01
 8.1937504E+00  4.2223045E+01
 8.2052507E+00  4.2055225E+01
 8.2167501E+00  4.2045601E+01
 8.2282505E+00  4.1971958E+01
 8.2397509E+00  4.1932877E+01
 8.2512503E+00  4.1857300E+01
 8.2627506E+00  4.1711422E+01
 8.2742500E+00  4.1521885E+01
 8.2857504E+00  4.1273182E+01
 8.2972507E+00  4.1049728E+01
 8.3087502E+00  4.0862888E+01
 8.3202505E+00  4.0741909E+01
 8.3317509E+00  4.0585960E+01
 8.3432503E+00  4.0420540E+01
 8.3547506E+00  4.0233406E+01
 8.3662500E+00  4.0109882E+01
 8.3777504E+00  3.9985069E+01
 8.3892508E+00  3.9901043E+01
 8.4007502E+00  3.9774754E+01
 8.4122505E+00  3.9723190E+01
 8.4237509E+00  3.9619919E+01
 8.4352503E+00  3.9496277E+01
 8.4467506E+00  3.9287201E+01
 8.4582500E+00  3.9116421E+01
 8.4697504E+00  3.8903160E+01
 8.4812508E+00  3.8732574E+01
 8.4927502E+00  3.8680035E+01
 8.5042505E+00  3.8593834E+01
 8.5157509E+00  3.8545425E+01
 8.5272503E+00  3.8246204E+01
 8.5387506E+00  3.8097061E+01
 8.5502501E+00  3.7781162E+01
 8.5617504E+00  3.7616768E+01
 8.5732508E+00  3.7430607E+01
 8.5847502E+00  3.7255753E+01
 8.5962505E+00  3.7052639E+01
 8.6077509E+00  3.6787647E+01
 8.6192503E+00  3.6672577E+01
 8.6307507E+00  3.6491570E+01
 8.6422501E+00  3.6320332E+01
 8.6537504E+00  3.6100845E+01
 8.6652508E+00  3.5921028E+01
 8.6767502E+00  3.5765244E+01
 8.6882505E+00  3.5632908E+01
 8.6997509E+00  3.5472530E+01
 8.7112503E+00  3.5281200E+01
 8.7227507E+00  3.5108925E+01
 8.7342501E+00  3.4891293E+01
 8.7457504E+00  3.4728024E+01
 8.7572508E+00  3.4496937E+01
 8.7687502E+00  3.4356316E+01
 8.7802505E+00  3.4179298E+01
 8.7917500E+00  3.3991333E+01
 8.8032503E+00  3.3806492E+01
 8.8147507E+00  3.3621353E+01
 8.8262501E+00  3.3425964E+01
 8.8377504E+00  3.3271416E+01
 8.8492508E+00  3.2993649E+01
 8.8607502E+00  3.2851780E+01
 8.8722506E+00  3.2608028E+01
 8.8837500E+00  3.2472897E+01
 8.8952503E+00  3.2302910E+01
 8.9067507E+00  3.2202187E+01
 8.9182501E+00  3.2100201E+01
 8.9297504E+00  3.2007370E+01
 8.9412508E+00  3.1858316E+01
 8.9527502E+00  3.1762287E+01
 8.9642506E+00  3.1572359E+01
 8.9757500E+00  3.1417206E+01
 8.9872503E+00  3.1210047E+01
 8.9987507E+00  3.0999496E+01
 9.0102501E+00  3.0829027E+01
 9.0217505E+00  3.0631010E+01
 9.0332508E+00  3.0587017E+01
 9.0447502E+00  3.0505486E+01
 9.0562506E+00  3.0411116E+01
 9.0677500E+00  3.0309238E+01
 9.0792503E+00  3.0172625E+01
 9.0907507E+00  3.0062506E+01
 9.1022501E+00  2.9910484E+01
 9.1137505E+00  2.9699659E+01
 9.1252508E+00  2.9667177E+01
 9.1367502E+00  2.9604401E+01
 9.1482506E+00  2.9612698E+01
 9.1597500E+00  2.9517250E+01
 9.1712503E+00  2.9408310E+01
 9.1827507E+00  2.9329330E+01
 9.1942501E+00  2.9155218E+01
 9.2057505E+00  2.9007486E+01
 9.2172508E+00  2.8847961E+01
 9.2287502E+00  2.8689985E+01
 9.2402506E+00  2.8512352E+01
 9.2517500E+00  2.8368872E+01
 9.2632504E+00  2.8269817E+01
 9.2747507E+00  2.8242363E+01
 9.2862501E+00  2.8133047E+01
 9.2977505E+00  2.8089853E+01
 9.3092508E+00  2.7997866E+01
 9.3207502E+00  2.7963377E+01
 9.3322506E+00  2.7854549E+01
 9.3437500E+00  2.7754372E+01
 9.3552504E+00  2.7684349E+01
 9.3667507E+00  2.7584398E+01
 9.3782501E+00  2.7457924E+01
 9.3897505E+00  2.7220118E+01
 9.4012508E+00  2.7063135E+01
 9.4127502E+00  2.6937157E+01
 9.4242506E+00  2.6913860E+01
 9.4357500E+00  2.6927000E+01
 9.4472504E+00  2.6888462E+01
 9.4587507E+00  2.6850826E+01
 9.4702501E+00  2.6730019E+01
 9.4817505E+00  2.6699261E+01
 9.4932508E+00  2.6554882E+01
 9.5047503E+00  2.6504320E+01
 9.5162506E+00  2.6382681E+01
 9.5277500E+00  2.6381182E+01
 9.5392504E+00  2.6320278E+01
 9.5507507E+00  2.6305986E+01
 9.5622501E+00  2.6225044E+01
 9.5737505E+00  2.6145376E+01
 9.5852509E+00  2.6026432E+01
 9.5967503E+00  2.5990913E+01
 9.6082506E+00  2.5929598E+01
 9.6197500E+00  2.5882172E+01
 9.6312504E+00  2.5818920E+01
 9.6427507E+00  2.5801855E+01
 9.6542501E+00  2.5761938E+01
 9.6657505E+00  2.5732489E+01
 9.6772509E+00  2.5607929E+01
 9.6887503E+00  2.5527393E+01
 9.7002506E+00  2.5374014E+01
 9.7117500E+00  2.5377346E+01
 9.7232504E+00  2.5380419E+01
 9.7347507E+00  2.5404867E+01
 9.7462502E+00  2.5372072E+01
 9.7577505E+00  2.5304869E+01
 9.7692509E+00  2.5247597E+01
 9.7807503E+00  2.5233671E+01
 9.7922506E+00  2.5173733E+01
 9.8037500E+00  2.5114365E+01
 9.8152504E+00  2.4992453E+01
 9.8267508E+00  2.4890236E+01
 9.8382502E+00  2.4832813E+01
 9.8497505E+00  2.4804306E+01
 9.8612509E+00  2.4798269E+01
 9.8727503E+00  2.4755962E+01
 9.8842506E+00  2.4704695E+01
 9.8957500E+00  2.4726923E+01
 9.9072504E+00  2.4734734E+01
 9.9187508E+00  2.4733782E+01
 9.9302502E+00  2.4661209E+01
 9.9417505E+00  2.4602964E+01
 9.9532509E+00  2.4551300E+01
 9.9647503E+00  2.4521845E+01
 9.9762506E+00  2.4534702E+01
 9.9877501E+00  2.4550163E+01
 9.9992504E+00  2.4523781E+01
 1.0010751E+01  2.4522329E+01
 1.0022250E+01  2.4452295E+01
 1.0033751E+01  2.4462065E+01
 1.0045251E+01  2.4360100E+01
 1.0056750E+01  2.4294264E+01
 1.0068251E+01  2.4198769E+01
 1.0079750E+01  2.4119009E+01
 1.0091250E+01  2.4026045E+01
 1.0102751E+01  2.3995466E+01
 1.0114250E+01  2.4013487E+01
 1.0125751E+01  2.4053772E+01
 1.0137251E+01  2.4045275E+01
 1.0148750E+01  2.4048586E+01
 1.0160251E+01  2.4066639E+01
 1.0171750E+01  2.4075794E+01
 1.0183250E+01  2.4046402E+01
 1.0194751E+01  2.3999386E+01
 1.0206250E+01  2.3955271E+01
 1.0217751E+01  2.3878122E+01
 1.0229251E+01  2.3866579E+01
 1.0240750E+01  2.3774626E+01
 1.0252251E+01  2.3782417E+01
 1.0263750E+01  2.3727797E+01
 1.0275250E+01  2.3761932E+01
 1.0286751E+01  2.3760014E+01
 1.0298250E+01  2.3799381E+01
 1.0309751E+01  2.3800032E+01
 1.0321251E+01  2.3775864E+01
 1.0332750E+01  2.3702185E+01
 1.0344251E+01  2.3624866E+01
 1.0355750E+01  2.3552505E+01
 1.0367250E+01  2.3476192E+01
 1.0378751E+01  2.3447525E+01
 1.0390250E+01  2.3425669E+01
 1.0401751E+01  2.3436720E+01
 1.0413251E+01  2.3364847E+01
 1.0424750E+01  2.3300690E+01
 1.0436251E+01  2.3195375E+01
 1.0447750E+01  2.3195047E+01
 1.0459250E+01  2.3183270E+01
 1.0470751E+01  2.3281702E+01
 1.0482250E+01  2.3312754E+01
 1.0493751E+01  2.3409687E+01
 1.0505251E+01  2.3461340E+01
 1.0516750E+01  2.3498451E+01
 1.0528251E+01  2.3417088E+01
 1.0539750E+01  2.3305006E+01
 1.0551250E+01  2.3208399E+01
 1.0562751E+01  2.3180372E+01
 1.0574250E+01  2.3067190E+01
 1.0585751E+01  2.2996086E+01
 1.0597251E+01  2.2928612E+01
 1.0608750E+01  2.2951933E+01
 1.0620251E+01  2.2978594E+01
 1.0631750E+01  2.3001753E+01
 1.0643250E+01  2.3051371E+01
 1.0654751E+01  2.3105440E+01
 1.0666250E+01  2.3144045E+01
 1.0677751E+01  2.3092289E+01
 1.0689251E+01  2.3050920E+01
 1.0700750E+01  2.3061731E+01
 1.0712251E+01  2.3086136E+01
 1.0723750E+01  2.3077288E+01
 1.0735250E+01  2.3010263E+01
 1.0746751E+01  2.2954000E+01
 1.0758250E+01  2.2907026E+01
 1.0769751E+01  2.2826962E+01
 1.0781251E+01  2.2815472E+01
 1.0792750E+01  2.2776083E+01
 1.0804251E+01  2.2820683E+01
 1.0815750E+01  2.2831802E+01
 1.0827250E+01  2.2831440E+01
 1.0838751E+01  2.2849157E+01
 1.0850250E+01  2.2811533E+01
 1.0861751E+01  2.2813026E+01
 1.0873251E+01  2.2768936E+01
 1.0884750E+01  2.2731644E+01
 1.0896251E+01  2.2688156E+01
 1.0907750E+01  2.2640186E+01
 1.0919250E+01  2.2613169E+01
 1.0930751E+01  2.2617487E+01
 1.0942250E+01  2.2604116E+01
 1.0953751E+01  2.2616714E+01
 1.0965251E+01  2.2619257E+01
 1.0976750E+01  2.2665787E+01
 1.0988251E+01  2.2660788E+01
 1.0999750E+01  2.2638874E+01
 1.1011250E+01  2.2609318E+01
 1.1022751E+01  2.2568991E+01
 1.1034250E+01  2.2608896E+01
 1.1045751E+01  2.2551624E+01
 1.1057251E+01  2.2556948E+01
 1.1068750E+01  2.2477304E+01
 1.1080251E+01  2.2499039E+01
 1.1091750E+01  2.2479582E+01
 1.1103251E+01  2.2552549E+01
 1.1114751E+01  2.2537226E+01
 1.1126250E+01  2.2524326E+01
 1.1137751E+01  2.2485115E+01
 1.1149251E+01  2.2485207E+01
 1.1160750E+01  2.2552290E+01
 1.1172251E+01  2.2595728E+01
 1.1183750E+01  2.2627125E+01
 1.1195251E+01  2.2652678E+01
 1.1206751E+01  2.2627651E+01
 1.1218250E+01  2.2585026E+01
 1.1229751E+01  2.2518295E+01
 1.1241251E+01  2.2513041E+01
 1.1252750E+01  2.2560188E+01
 1.1264251E+01  2.2588522E+01
 1.1275750E+01  2.2566139E+01
 1.1287251E+01  2.2566668E+01
 1.1298751E+01  2.2588888E+01
 1.1310250E+01  2.2605614E+01
 1.1321751E+01  2.2597082E+01
 1.1333251E+01  2.2552319E+01
 1.1344750E+01  2.2525761E+01
 1.1356251E+01  2.2496479E+01
 1.1367750E+01  2.2557022E+01
 1.1379251E+01  2.2604603E+01
 1.1390751E+01  2.2672943E+01
 1.1402250E+01  2.2755129E+01
 1.1413751E+01  2.2719786E+01
 1.1425251E+01  2.2730246E+01
 1.1436750E+01  2.2698000E+01
 1.1448251E+01  2.2753078E+01
 1.1459750E+01  2.2755726E+01
 1.1471251E+01  2.2722694E+01
 1.1482751E+01  2.2713543E+01
 1.1494250E+01  2.2750401E+01
 1.1505751E+01  2.2803621E+01
 1.1517251E+01  2.3004671E+01
 1.1528750E+01  2.3268282E+01
 1.1540251E+01  2.3776976E+01
 1.1551750E+01  2.4248106E+01
 1.1563251E+01  2.5468285E+01
 1.1574751E+01  2.6106684E+01
 1.1586250E+01  2.8425760E+01
 1.1597751E+01  2.8367037E+01
 1.1609251E+01  3.0307278E+01
 1.1620750E+01  2.8250010E+01
 1.1632251E+01  2.8364269E+01
 1.1643750E+01  2.5481447E+01
 1.1655251E+01  2.4938875E+01
 1.1666751E+01  2.3388292E+01
 1.1678250E+01  2.3141493E+01
 1.1689751E+01  2.2760675E+01
 1.1701251E+01  2.2654968E+01
 1.1712750E+01  2.2614935E+01
 1.1724251E+01  2.2582458E+01
 1.1735750E+01  2.2625904E+01
 1.1747251E+01  2.2615805E+01
 1.1758751E+01  2.2606962E+01
 1.1770250E+01  2.2552782E+01
 1.1781751E+01  2.2533686E+01
 1.1793251E+01  2.2493736E+01
 1.1804750E+01  2.2513613E+01
 1.1816251E+01  2.2474035E+01
 1.1827750E+01  2.2504704E+01
 1.1839251E+01  2.2466246E+01
 1.1850751E+01  2.2402031E+01
 1.1862250E+01  2.2356556E+01
 1.1873751E+01  2.2328676E+01
 1.1885251E+01  2.2333704E+01
 1.1896750E+01  2.2381573E+01
 1.1908251E+01  2.2483044E+01
 1.1919750E+01  2.2633635E+01
 1.1931251E+01  2.2736330E+01
 1.1942751E+01  2.2848427E+01
 1.1954250E+01  2.2926270E+01
 1.1965751E+01  2.3035789E+01
 1.1977251E+01  2.3108038E+01
 1.1988750E+01  2.3068808E+01
 1.2000251E+01  2.2980928E+01
 1.2011750E+01  2.2793694E+01
 1.2023251E+01  2.2746687E+01
 1.2034751E+01  2.2677740E+01
 1.2046250E+01  2.2715672E+01
 1.2057751E+01  2.2793781E+01
 1.2069251E+01  2.2850445E+01
 1.2080750E+01  2.3079832E+01
 1.2092251E+01  2.3109558E+01
 1.2103750E+01  2.3206596E+01
 1.2115251E+01  2.3049887E+01
 1.2126751E+01  2.2980839E+01
 1.2138250E+01  2.2823805E+01
 1.2149751E+01  2.2701550E+01
 1.2161251E+01  2.2592272E+01
 1.2172750E+01  2.2506676E+01
 1.2184251E+01  2.2480284E+01
 1.2195750E+01  2.2433432E+01
 1.2207251E+01  2.2399006E+01
 1.2218751E+01  2.2355215E+01
 1.2230250E+01  2.2403727E+01
 1.2241751E+01  2.2478765E+01
 1.2253251E+01  2.2552248E+01
 1.2264750E+01  2.2612823E+01
 1.2276251E+01  2.2593004E+01
 1.2287750E+01  2.2573458E+01
 1.2299251E+01  2.2525105E+01
 1.2310751E+01  2.2546459E+01
 1.2322250E+01  2.2494692E+01
 1.2333751E+01  2.2485424E+01
 1.2345250E+01  2.2476072E+01
 1.2356750E+01  2.2506670E+01
 1.2368251E+01  2.2525784E+01
 1.2379750E+01  2.2509811E+01
 1.2391251E+01  2.2493748E+01
 1.2402751E+01  2.2478777E+01
 1.2414250E+01  2.2477400E+01
 1.2425751E+01  2.2488638E+01
 1.2437250E+01  2.2512608E+01
 1.2448750E+01  2.2499441E+01
 1.2460251E+01  2.2497677E+01
 1.2471750E+01  2.2497438E+01
 1.2483251E+01  2.2502840E+01
 1.2494751E+01  2.2531622E+01
 1.2506250E+01  2.2480385E+01
 1.2517751E+01  2.2530220E+01
 1.2529250E+01  2.2559063E+01
 1.2540751E+01  2.2668425E+01
 1.2552251E+01  2.2729324E+01
 1.2563750E+01  2.2749294E+01
 1.2575251E+01  2.2729523E+01
 1.2586751E+01  2.2737024E+01
 1.2598250E+01  2.2776237E+01
 1.2609751E+01  2.2822269E+01
 1.2621250E+01  2.2848017E+01
 1.2632751E+01  2.2841450E+01
 1.2644251E+01  2.2843666E+01
 1.2655750E+01  2.2826088E+01
 1.2667251E+01  2.2826830E+01
 1.2678751E+01  2.2845104E+01
 1.2690250E+01  2.2874615E+01
 1.2701751E+01  2.2880970E+01
 1.2713250E+01  2.2909956E+01
 1.2724751E+01  2.2913830E+01
 1.2736251E+01  2.2970268E+01
 1.2747750E+01  2.3027802E+01
 1.2759251E+01  2.3115934E+01
 1.2770751E+01  2.3150541E+01
 1.2782250E+01  2.3161015E+01
 1.2793751E+01  2.3059906E+01
 1.2805250E+01  2.3100775E+01
 1.2816751E+01  2.3116873E+01
 1.2828251E+01  2.3218588E+01
 1.2839750E+01  2.3227776E+01
 1.2851251E+01  2.3234224E+01
 1.2862751E+01  2.3269142E+01
 1.2874250E+01  2.3276651E+01
 1.2885751E+01  2.3266432E+01
 1.2897250E+01  2.3304764E+01
 1.2908751E+01  2.3422724E+01
 1.2920251E+01  2.3564173E+01
 1.2931750E+01  2.3705961E+01
 1.2943251E+01  2.3761353E+01
 1.2954751E+01  2.3803999E+01
 1.2966250E+01  2.3801725E+01
 1.2977751E+01  2.3866749E+01
 1.2989250E+01  2.3874771E+01
 1.3000751E+01  2.3893349E+01
 1.3012251E+01  2.3911070E+01
 1.3023750E+01  2.4014088E+01
 1.3035251E+01  2.4118807E+01
 1.3046751E+01  2.4202320E+01
 1.3058250E+01  2.4303835E+01
 1.3069751E+01  2.4380621E+01
 1.3081250E+01  2.4483263E+01
 1.3092751E+01  2.4619757E+01
 1.3104251E+01  2.4751072E+01
 1.3115750E+01  2.4901154E+01
 1.3127251E+01  2.4999218E+01
 1.3138751E+01  2.5164713E+01
 1.3150250E+01  2.5296024E+01
 1.3161751E+01  2.5402056E+01
 1.3173250E+01  2.5486759E+01
 1.3184751E+01  2.5623293E+01
 1.3196251E+01  2.5768972E+01
 1.3207750E+01  2.5920853E+01
 1.3219251E+01  2.6005560E+01
 1.3230751E+01  2.6224747E+01
 1.3242250E+01  2.6357464E+01
 1.3253751E+01  2.6502916E+01
 1.3265250E+01  2.6638683E+01
 1.3276751E+01  2.6809658E+01
 1.3288251E+01  2.6982166E+01
 1.3299750E+01  2.7085032E+01
 1.3311251E+01  2.7166105E+01
 1.3322751E+01  2.7281023E+01
 1.3334250E+01  2.7351322E+01
 1.3345751E+01  2.7563463E+01
 1.3357250E+01  2.7676527E+01
 1.3368751E+01  2.7816896E+01
 1.3380251E+01  2.7934404E+01
 1.3391750E+01  2.8107134E+01
 1.3403251E+01  2.8282793E+01
 1.3414751E+01  2.8445473E+01
 1.3426250E+01  2.8599855E+01
 1.3437751E+01  2.8729548E+01
 1.3449250E+01  2.8750898E+01
 1.3460751E+01  2.8795004E+01
 1.3472251E+01  2.8818827E+01
 1.3483750E+01  2.8927691E+01
 1.3495251E+01  2.8994621E+01
 1.3506751E+01  2.9164743E+01
 1.3518250E+01  2.9307693E+01
 1.3529751E+01  2.9454531E+01
 1.3541250E+01  2.9582247E+01
 1.3552751E+01  2.9667381E+01
 1.3564251E+01  2.9747368E+01
 1.3575750E+01  2.9777462E+01
 1.3587251E+01  2.9857964E+01
 1.3598751E+01  2.9895493E+01
 1.3610250E+01  2.9841829E+01
 1.3621751E+01  2.9803829E+01
 1.3633250E+01  2.9785656E+01
 1.3644751E+01  2.9843981E+01
 1.3656251E+01  2.9903252E+01
 1.3667750E+01  2.9979244E+01
 1.3679251E+01  2.9955441E+01
 1.3690751E+01  2.9899296E+01
 1.3702250E+01  2.9822676E+01
 1.3713751E+01  2.9781956E+01
 1.3725250E+01  2.9692289E+01
 1.3736751E+01  2.9615982E+01
 1.3748251E+01  2.9524227E+01
 1.3759750E+01  2.9494198E+01
 1.3771251E+01  2.9392811E+01
 1.3782751E+01  2.9399897E+01
 1.3794250E+01  2.9318405E+01
 1.3805751E+01  2.9346382E+01
 1.3817250E+01  2.9254164E+01
 1.3828751E+01  2.9217821E+01
 1.3840251E+01  2.9088549E+01
 1.3851750E+01  2.9053495E+01
 1.3863251E+01  2.9017508E+01
 1.3874751E+01  2.9074371E+01
 1.3886250E+01  2.9173006E+01
 1.3897751E+01  2.9460587E+01
 1.3909250E+01  2.9771284E+01
 1.3920751E+01  3.0283838E+01
 1.3932251E+01  3.0659458E+01
 1.3943750E+01  3.0955488E+01
 1.3955251E+01  3.1021917E+01
 1.3966751E+01  3.0827753E+01
 1.3978251E+01  3.0431850E+01
 1.3989751E+01  2.9809591E+01
 1.4001250E+01  2.9221790E+01
 1.4012751E+01  2.8740135E+01
 1.4024251E+01  2.8334955E+01
 1.4035750E+01  2.8125290E+01
 1.4047251E+01  2.7901606E+01
 1.4058751E+01  2.7765877E+01
 1.4070251E+01  2.7636356E+01
 1.4081751E+01  2.7544044E+01
 1.4093250E+01  2.7510706E+01
 1.4104751E+01  2.7430590E+01
 1.4116251E+01  2.7371964E+01
 1.4127750E+01  2.7318436E+01
 1.4139251E+01  2.7276119E+01
 1.4150751E+01  2.7179707E+01
 1.4162251E+01  2.7091776E+01
 1.4173751E+01  2.6966080E+01
 1.4185250E+01  2.6850365E+01
 1.4196751E+01  2.6746462E+01
 1.4208251E+01  2.6647545E+01
 1.4219750E+01  2.6588018E+01
 1.4231251E+01  2.6507326E+01
 1.4242751E+01  2.6527786E+01
 1.4254251E+01  2.6479605E+01
 1.4265751E+01  2.6449249E+01
 1.4277250E+01  2.6400267E+01
 1.4288751E+01  2.6355709E+01
 1.4300251E+01  2.6325352E+01
 1.4311750E+01  2.6297421E+01
 1.4323251E+01  2.6280199E+01
 1.4334751E+01  2.6305277E+01
 1.4346251E+01  2.6270147E+01
 1.4357751E+01  2.6258253E+01
 1.4369250E+01  2.6174610E+01
 1.4380751E+01  2.6131819E+01
 1.4392251E+01  2.6088976E+01
 1.4403750E+01  2.6047798E+01
 1.4415251E+01  2.6005110E+01
 1.4426751E+01  2.5946978E+01
 1.4438251E+01  2.5881552E+01
 1.4449751E+01  2.5814505E+01
 1.4461250E+01  2.5715878E+01
 1.4472751E+01  2.5667742E+01
 1.4484251E+01  2.5646685E+01
 1.4495750E+01  2.5614920E+01
 1.4507251E+01  2.5666904E+01
 1.4518751E+01  2.5669525E+01
 1.4530251E+01  2.5724873E+01
 1.4541751E+01  2.5704393E+01
 1.4553250E+01  2.5698292E+01
 1.4564751E+01  2.5634962E+01
 1.4576251E+01  2.5557413E+01
 1.4587750E+01  2.5516178E+01
 1.4599251E+01  2.5447172E+01
 1.4610751E+01  2.5427711E+01
 1.4622251E+01  2.5396658E+01
 1.4633751E+01  2.5408140E+01
 1.4645250E+01  2.5408316E+01
 1.4656751E+01  2.5338648E+01
 1.4668251E+01  2.5293497E+01
 1.4679750E+01  2.5224051E+01
 1.4691251E+01  2.5251120E+01
 1.4702751E+01  2.5282028E+01
 1.4714251E+01  2.5306837E+01
 1.4725751E+01  2.5283691E+01
 1.4737250E+01  2.5279293E+01
 1.4748751E+01  2.5237534E+01
 1.4760251E+01  2.5279118E+01
 1.4771750E+01  2.5278078E+01
 1.4783251E+01  2.5259495E+01
 1.4794751E+01  2.5189043E+01
 1.4806251E+01  2.5094000E+01
 1.4817751E+01  2.5039335E+01
 1.4829250E+01  2.5046307E+01
 1.4840751E+01  2.5049986E+01
 1.4852251E+01  2.5025974E+01
 1.4863750E+01  2.4967428E+01
 1.4875251E+01  2.4935318E+01
 1.4886751E+01  2.4983231E+01
 1.4898251E+01  2.5012173E+01
 1.4909751E+01  2.5059668E+01
 1.4921250E+01  2.5029951E+01
 1.4932751E+01  2.4994038E+01
 1.4944251E+01  2.4953510E+01
 1.4955750E+01  2.4980968E+01
 1.4967251E+01  2.4951975E+01
 1.4978751E+01  2.4918003E+01
 1.4990251E+01  2.4865789E+01
 1.5001751E+01  2.4839716E+01
 1.5013250E+01  2.4898003E+01
 1.5024751E+01  2.4912107E+01
 1.5036251E+01  2.4920084E+01
 1.5047750E+01  2.4871090E+01
 1.5059251E+01  2.4863848E+01
 1.5070751E+01  2.4880562E+01
 1.5082251E+01  2.4845158E+01
 1.5093751E+01  2.4877193E+01
 1.5105250E+01  2.4881874E+01
 1.5116751E+01  2.4901953E+01
 1.5128251E+01  2.4880312E+01
 1.5139750E+01  2.4947075E+01
 1.5151251E+01  2.5087374E+01
 1.5162751E+01  2.5263487E+01
 1.5174251E+01  2.5472282E+01
 1.5185751E+01  2.5565430E+01
 1.5197250E+01  2.5594168E+01
 1.5208751E+01  2.5520449E+01
 1.5220251E+01  2.5476274E+01
 1.5231750E+01  2.5278019E+01
 1.5243251E+01  2.5085150E+01
 1.5254751E+01  2.4913511E+01
 1.5266251E+01  2.4838818E+01
 1.5277751E+01  2.4778442E+01
 1.5289250E+01  2.4795687E+01
 1.5300751E+01  2.4741940E+01
 1.5312251E+01  2.4721552E+01
 1.5323750E+01  2.4647383E+01
 1.5335251E+01  2.4618162E+01
 1.5346751E+01  2.4573872E+01
 1.5358251E+01  2.4563162E+01
 1.5369751E+01  2.4593769E+01
 1.5381250E+01  2.4554352E+01
 1.5392751E+01  2.4539261E+01
 1.5404251E+01  2.4494183E+01
 1.5415751E+01  2.4478117E+01
 1.5427251E+01  2.4456276E+01
 1.5438751E+01  2.4478115E+01
 1.5450251E+01  2.4471828E+01
 1.5461751E+01  2.4466358E+01
 1.5473250E+01  2.4446634E+01
 1.5484751E+01  2.4456230E+01
 1.5496251E+01  2.4425762E+01
 1.5507751E+01  2.4394117E+01
 1.5519251E+01  2.4380432E+01
 1.5530751E+01  2.4383947E+01
 1.5542251E+01  2.4403320E+01
 1.5553751E+01  2.4424059E+01
 1.5565250E+01  2.4489323E+01
 1.5576751E+01  2.4507072E+01
 1.5588251E+01  2.4593176E+01
 1.5599751E+01  2.4616610E+01
 1.5611251E+01  2.4654991E+01
 1.5622751E+01  2.4593933E+01
 1.5634251E+01  2.4515032E+01
 1.5645751E+01  2.4483089E+01
 1.5657250E+01  2.4457136E+01
 1.5668751E+01  2.4535351E+01
 1.5680251E+01  2.4578938E+01
 1.5691751E+01  2.4644245E+01
 1.5703251E+01  2.4654984E+01
 1.5714751E+01  2.4668228E+01
 1.5726251E+01  2.4684244E+01
 1.5737751E+01  2.4620653E+01
 1.5749250E+01  2.4596291E+01
 1.5760751E+01  2.4548624E+01
 1.5772251E+01  2.4584023E+01
 1.5783751E+01  2.4530058E+01
 1.5795251E+01  2.4596603E+01
 1.5806751E+01  2.4633839E+01
 1.5818251E+01  2.4710249E+01
 1.5829751E+01  2.4677034E+01
 1.5841250E+01  2.4627810E+01
 1.5852751E+01  2.4579882E+01
 1.5864251E+01  2.4551823E+01
 1.5875751E+01  2.4570644E+01
 1.5887251E+01  2.4587967E+01
 1.5898750E+01  2.4619814E+01
 1.5910251E+01  2.4690855E+01
 1.5921751E+01  2.4685242E+01
 1.5933250E+01  2.4682653E+01
 1.5944751E+01  2.4597116E+01
 1.5956251E+01  2.4554760E+01
 1.5967751E+01  2.4550575E+01
 1.5979251E+01  2.4609646E+01
 1.5990750E+01  2.4706398E+01
 1.6002251E+01  2.4712006E+01
 1.6013750E+01  2.4732683E+01
 1.6025251E+01  2.4723949E+01
 1.6036751E+01  2.4791624E+01
 1.6048250E+01  2.4746767E+01
 1.6059752E+01  2.4775291E+01
 1.6071251E+01  2.4722034E+01
 1.6082750E+01  2.4727688E+01
 1.6094252E+01  2.4686747E+01
 1.6105751E+01  2.4757421E+01
 1.6117250E+01  2.4801186E+01
 1.6128750E+01  2.4801680E+01
 1.6140251E+01  2.4802917E+01
 1.6151751E+01  2.4820658E+01
 1.6163250E+01  2.4880161E+01
 1.6174751E+01  2.4826067E+01
 1.6186251E+01  2.4890228E+01
 1.6197750E+01  2.4790483E+01
 1.6209251E+01  2.4907024E+01
 1.6220751E+01  2.4876694E+01
 1.6232250E+01  2.5062412E+01
 1.6243752E+01  2.5068960E+01
 1.6255251E+01  2.5127630E+01
 1.6266750E+01  2.5169615E+01
 1.6278252E+01  2.5115732E+01
 1.6289751E+01  2.5195890E+01
 1.6301250E+01  2.4998186E+01
 1.6312750E+01  2.5118904E+01
 1.6324251E+01  2.4922380E+01
 1.6335751E+01  2.4973015E+01
 1.6347250E+01  2.4792028E+01
 1.6358751E+01  2.4787540E+01
 1.6370251E+01  2.4696085E+01
 1.6381750E+01  2.4712902E+01
 1.6393251E+01  2.4746082E+01
 1.6404751E+01  2.4784231E+01
 1.6416250E+01  2.4831156E+01
 1.6427752E+01  2.4818529E+01
 1.6439251E+01  2.4828136E+01
 1.6450750E+01  2.4798260E+01
 1.6462252E+01  2.4729067E+01
 1.6473751E+01  2.4651791E+01
 1.6485250E+01  2.4599365E+01
 1.6496750E+01  2.4617586E+01
 1.6508251E+01  2.4627068E+01
 1.6519751E+01  2.4608080E+01
 1.6531250E+01  2.4574183E+01
 1.6542751E+01  2.4594181E+01
 1.6554251E+01  2.4628662E+01
 1.6565750E+01  2.4689417E+01
 1.6577251E+01  2.4667347E+01
 1.6588751E+01  2.4649616E+01
 1.6600250E+01  2.4604229E+01
 1.6611752E+01  2.4604719E+01
 1.6623251E+01  2.4601629E+01
 1.6634750E+01  2.4624838E+01
 1.6646252E+01  2.4606709E+01
 1.6657751E+01  2.4687239E+01
 1.6669250E+01  2.4768011E+01
 1.6680750E+01  2.4831985E+01
 1.6692251E+01  2.4800547E+01
 1.6703751E+01  2.4768057E+01
 1.6715250E+01  2.4691145E+01
 1.6726751E+01  2.4610456E+01
 1.6738251E+01  2.4563833E+01
 1.6749750E+01  2.4579136E+01
 1.6761251E+01  2.4560688E+01
 1.6772751E+01  2.4569170E+01
 1.6784250E+01  2.4578033E+01
 1.6795752E+01  2.4618549E+01
 1.6807251E+01  2.4598799E+01
 1.6818750E+01  2.4587067E+01
 1.6830252E+01  2.4543777E+01
 1.6841751E+01  2.4564888E+01
 1.6853251E+01  2.4560886E+01
 1.6864750E+01  2.4563972E+01
 1.6876251E+01  2.4452847E+01
 1.6887751E+01  2.4363281E+01
 1.6899250E+01  2.4325758E+01
 1.6910751E+01  2.4378948E+01
 1.6922251E+01  2.4417957E+01
 1.6933750E+01  2.4437836E+01
 1.6945251E+01  2.4466127E+01
 1.6956751E+01  2.4519402E+01
 1.6968250E+01  2.4573259E+01
 1.6979752E+01  2.4577259E+01
 1.6991251E+01  2.4567823E+01
 1.7002750E+01  2.4511288E+01
 1.7014252E+01  2.4449438E+01
 1.7025751E+01  2.4361290E+01
 1.7037251E+01  2.4250137E+01
 1.7048750E+01  2.4169565E+01
 1.7060251E+01  2.4109308E+01
 1.7071751E+01  2.4102402E+01
 1.7083250E+01  2.4116087E+01
 1.7094751E+01  2.4166269E+01
 1.7106251E+01  2.4193268E+01
 1.7117750E+01  2.4164913E+01
 1.7129251E+01  2.4121887E+01
 1.7140751E+01  2.4131001E+01
 1.7152250E+01  2.4102577E+01
 1.7163752E+01  2.4118738E+01
 1.7175251E+01  2.4123003E+01
 1.7186750E+01  2.4159702E+01
 1.7198252E+01  2.4160511E+01
 1.7209751E+01  2.4173740E+01
 1.7221251E+01  2.4160303E+01
 1.7232750E+01  2.4175306E+01
 1.7244251E+01  2.4194841E+01
 1.7255751E+01  2.4147108E+01
 1.7267250E+01  2.4114906E+01
 1.7278751E+01  2.4108402E+01
 1.7290251E+01  2.4137127E+01
 1.7301750E+01  2.4199919E+01
 1.7313251E+01  2.4233166E+01
 1.7324751E+01  2.4254337E+01
 1.7336250E+01  2.4210020E+01
 1.7347752E+01  2.4193621E+01
 1.7359251E+01  2.4174395E+01
 1.7370750E+01  2.4104868E+01
 1.7382252E+01  2.4010735E+01
 1.7393751E+01  2.3966002E+01
 1.7405251E+01  2.3974529E+01
 1.7416750E+01  2.4029884E+01
 1.7428251E+01  2.4089926E+01
 1.7439751E+01  2.4136408E+01
 1.7451250E+01  2.4088028E+01
 1.7462751E+01  2.4048162E+01
 1.7474251E+01  2.3994728E+01
 1.7485750E+01  2.3994173E+01
 1.7497252E+01  2.3994858E+01
 1.7508751E+01  2.3960064E+01
 1.7520250E+01  2.3891123E+01
 1.7531752E+01  2.3854897E+01
 1.7543251E+01  2.3817957E+01
 1.7554750E+01  2.3761477E+01
 1.7566252E+01  2.3698832E+01
 1.7577751E+01  2.3699743E+01
 1.7589251E+01  2.3718023E+01
 1.7600750E+01  2.3790897E+01
 1.7612251E+01  2.3823668E+01
 1.7623751E+01  2.3841810E+01
 1.7635250E+01  2.3799652E+01
 1.7646751E+01  2.3744347E+01
 1.7658251E+01  2.3711893E+01
 1.7669750E+01  2.3716652E+01
 1.7681252E+01  2.3726763E+01
 1.7692751E+01  2.3736027E+01
 1.7704250E+01  2.3750956E+01
 1.7715752E+01  2.3733168E+01
 1.7727251E+01  2.3691759E+01
 1.7738750E+01  2.3673996E+01
 1.7750252E+01  2.3715567E+01
 1.7761751E+01  2.3758865E+01
 1.7773251E+01  2.3789989E+01
 1.7784750E+01  2.3818853E+01
 1.7796251E+01  2.3839001E+01
 1.7807751E+01  2.3830454E+01
 1.7819250E+01  2.3803022E+01
 1.7830751E+01  2.3759260E+01
 1.7842251E+01  2.3812773E+01
 1.7853750E+01  2.3837261E+01
 1.7865252E+01  2.3880722E+01
 1.7876751E+01  2.3875103E+01
 1.7888250E+01  2.3893860E+01
 1.7899752E+01  2.3865053E+01
 1.7911251E+01  2.3842623E+01
 1.7922750E+01  2.3810116E+01
 1.7934252E+01  2.3756317E+01
 1.7945751E+01  2.3699907E+01
 1.7957251E+01  2.3664082E+01
 1.7968750E+01  2.3695133E+01
 1.7980251E+01  2.3739113E+01
 1.7991751E+01  2.3797268E+01
 1.8003250E+01  2.3859299E+01
 1.8014751E+01  2.3851309E+01
 1.8026251E+01  2.3845110E+01
 1.8037750E+01  2.3818302E+01
 1.8049252E+01  2.3864128E+01
 1.8060751E+01  2.3895884E+01
 1.8072250E+01  2.3934830E+01
 1.8083752E+01  2.3993683E+01
 1.8095251E+01  2.4062880E+01
 1.8106750E+01  2.4062950E+01
 1.8118252E+01  2.3987589E+01
 1.8129751E+01  2.3940983E+01
 1.8141251E+01  2.3890163E+01
 1.8152750E+01  2.3871330E+01
 1.8164251E+01  2.3798294E+01
 1.8175751E+01  2.3712742E+01
 1.8187250E+01  2.3637381E+01
 1.8198751E+01  2.3622255E+01
 1.8210251E+01  2.3669817E+01
 1.8221750E+01  2.3702438E+01
 1.8233252E+01  2.3718529E+01
 1.8244751E+01  2.3712301E+01
 1.8256250E+01  2.3719589E+01
 1.8267752E+01  2.3685301E+01
 1.8279251E+01  2.3616442E+01
 1.8290751E+01  2.3557167E+01
 1.8302252E+01  2.3560465E+01
 1.8313751E+01  2.3521940E+01
 1.8325251E+01  2.3496931E+01
 1.8336750E+01  2.3494448E+01
 1.8348251E+01  2.3506035E+01
 1.8359751E+01  2.3569500E+01
 1.8371250E+01  2.3595581E+01
 1.8382751E+01  2.3646433E+01
 1.8394251E+01  2.3660677E+01
 1.8405750E+01  2.3662067E+01
 1.8417252E+01  2.3633984E+01
 1.8428751E+01  2.3591688E+01
 1.8440250E+01  2.3579054E+01
 1.8451752E+01  2.3570091E+01
 1.8463251E+01  2.3593815E+01
 1.8474751E+01  2.3628962E+01
 1.8486252E+01  2.3610941E+01
 1.8497751E+01  2.3575357E+01
 1.8509251E+01  2.3597427E+01
 1.8520750E+01  2.3588415E+01
 1.8532251E+01  2.3601831E+01
 1.8543751E+01  2.3524929E+01
 1.8555250E+01  2.3553101E+01
 1.8566751E+01  2.3490837E+01
 1.8578251E+01  2.3521097E+01
 1.8589750E+01  2.3546900E+01
 1.8601252E+01  2.3584351E+01
 1.8612751E+01  2.3596310E+01
 1.8624250E+01  2.3596460E+01
 1.8635752E+01  2.3668919E+01
 1.8647251E+01  2.3661247E+01
 1.8658751E+01  2.3618286E+01
 1.8670252E+01  2.3565994E+01
 1.8681751E+01  2.3554905E+01
 1.8693251E+01  2.3605047E+01
 1.8704750E+01  2.3594614E+01
 1.8716251E+01  2.3616116E+01
 1.8727751E+01  2.3587719E+01
 1.8739250E+01  2.3607784E+01
 1.8750751E+01  2.3613691E+01
 1.8762251E+01  2.3631933E+01
 1.8773750E+01  2.3601713E+01
 1.8785252E+01  2.3591873E+01
 1.8796751E+01  2.3566187E+01
 1.8808250E+01  2.3526190E+01
 1.8819752E+01  2.3535484E+01
 1.8831251E+01  2.3529108E+01
 1.8842751E+01  2.3559116E+01
 1.8854252E+01  2.3534422E+01
 1.8865751E+01  2.3582726E+01
 1.8877251E+01  2.3656269E+01
 1.8888750E+01  2.3691153E+01
 1.8900251E+01  2.3658333E+01
 1.8911751E+01  2.3632883E+01
 1.8923250E+01  2.3641167E+01
 1.8934752E+01  2.3592192E+01
 1.8946251E+01  2.3606037E+01
 1.8957750E+01  2.3600344E+01
 1.8969252E+01  2.3616213E+01
 1.8980751E+01  2.3515291E+01
 1.8992250E+01  2.3497412E+01
 1.9003752E+01  2.3516071E+01
 1.9015251E+01  2.3525751E+01
 1.9026751E+01  2.3523849E+01
 1.9038252E+01  2.3466925E+01
 1.9049751E+01  2.3471056E+01
 1.9061251E+01  2.3459827E+01
 1.9072750E+01  2.3526585E+01
 1.9084251E+01  2.3533812E+01
 1.9095751E+01  2.3553764E+01
 1.9107250E+01  2.3558302E+01
 1.9118752E+01  2.3527716E+01
 1.9130251E+01  2.3503595E+01
 1.9141750E+01  2.3465948E+01
 1.9153252E+01  2.3502182E+01
 1.9164751E+01  2.3498135E+01
 1.9176250E+01  2.3493105E+01
 1.9187752E+01  2.3475874E+01
 1.9199251E+01  2.3496124E+01
 1.9210751E+01  2.3489145E+01
 1.9222252E+01  2.3541206E+01
 1.9233751E+01  2.3523151E+01
 1.9245251E+01  2.3573494E+01
 1.9256750E+01  2.3561718E+01
 1.9268251E+01  2.3551268E+01
 1.9279751E+01  2.3474094E+01
 1.9291250E+01  2.3444904E+01
 1.9302752E+01  2.3459892E+01
 1.9314251E+01  2.3503735E+01
 1.9325750E+01  2.3492199E+01
 1.9337252E+01  2.3498611E+01
 1.9348751E+01  2.3474487E+01
 1.9360250E+01  2.3495960E+01
 1.9371752E+01  2.3541798E+01
 1.9383251E+01  2.3533562E+01
 1.9394751E+01  2.3567488E+01
 1.9406250E+01  2.3561571E+01
 1.9417751E+01  2.3638882E+01
 1.9429251E+01  2.3635334E+01
 1.9440750E+01  2.3662436E+01
 1.9452251E+01  2.3639908E+01
 1.9463751E+01  2.3683266E+01
 1.9475250E+01  2.3663925E+01
 1.9486752E+01  2.3642534E+01
 1.9498251E+01  2.3620029E+01
 1.9509750E+01  2.3636551E+01
 1.9521252E+01  2.3680101E+01
 1.9532751E+01  2.3678734E+01
 1.9544250E+01  2.3680891E+01
 1.9555752E+01  2.3634115E+01
 1.9567251E+01  2.3603474E+01
 1.9578751E+01  2.3571291E+01
 1.9590250E+01  2.3560364E+01
 1.9601751E+01  2.3535885E+01
 1.9613251E+01  2.3548328E+01
 1.9624750E+01  2.3601274E+01
 1.9636251E+01  2.3711824E+01
 1.9647751E+01  2.3861586E+01
 1.9659250E+01  2.4079620E+01
 1.9670752E+01  2.4292433E+01
 1.9682251E+01  2.4603584E+01
 1.9693750E+01  2.4975435E+01
 1.9705252E+01  2.5279097E+01
 1.9716751E+01  2.5418772E+01
 1.9728251E+01  2.5379799E+01
 1.9739752E+01  2.5141663E+01
 1.9751251E+01  2.4850878E+01
 1.9762751E+01  2.4581791E+01
 1.9774250E+01  2.4411652E+01
 1.9785751E+01  2.4277416E+01
 1.9797251E+01  2.4234623E+01
 1.9808750E+01  2.4271975E+01
 1.9820251E+01  2.4390512E+01
 1.9831751E+01  2.4642275E+01
 1.9843250E+01  2.4876009E+01
 1.9854752E+01  2.5116974E+01
 1.9866251E+01  2.5252466E+01
 1.9877750E+01  2.5193033E+01
 1.9889252E+01  2.5006042E+01
 1.9900751E+01  2.4764137E+01
 1.9912251E+01  2.4489897E+01
 1.9923752E+01  2.4199589E+01
 1.9935251E+01  2.3949829E+01
 1.9946751E+01  2.3784361E+01
 1.9958250E+01  2.3666361E+01
 1.9969751E+01  2.3659151E+01
 1.9981251E+01  2.3654081E+01
 1.9992750E+01  2.3660194E+01
 2.0004251E+01  2.3632616E+01
 2.0015751E+01  2.3629847E+01
 2.0027250E+01  2.3636990E+01
 2.0038752E+01  2.3622868E+01
 2.0050251E+01  2.3654327E+01
 2.0061750E+01  2.3591352E+01
 2.0073252E+01  2.3558903E+01
 2.0084751E+01  2.3508165E+01
 2.0096251E+01  2.3592361E+01
 2.0107752E+01  2.3632616E+01
 2.0119251E+01  2.3699766E+01
 2.0130751E+01  2.3689663E+01
 2.0142250E+01  2.3673372E+01
 2.0153751E+01  2.3644394E+01
 2.0165251E+01  2.3669329E+01
 2.0176750E+01  2.3664797E+01
 2.0188251E+01  2.3617128E+01
 2.0199751E+01  2.3573063E+01
 2.0211250E+01  2.3532913E+01
 2.0222752E+01  2.3584436E+01
 2.0234251E+01  2.3597622E+01
 2.0245750E+01  2.3665102E+01
 2.0257252E+01  2.3692204E+01
 2.0268751E+01  2.3734232E+01
 2.0280251E+01  2.3700245E+01
 2.0291752E+01  2.3706352E+01
 2.0303251E+01  2.3674294E+01
 2.0314751E+01  2.3658567E+01
 2.0326250E+01  2.3684772E+01
 2.0337751E+01  2.3739256E+01
 2.0349251E+01  2.3746058E+01
 2.0360750E+01  2.3692133E+01
 2.0372252E+01  2.3692089E+01
 2.0383751E+01  2.3703598E+01
 2.0395250E+01  2.3754892E+01
 2.0406752E+01  2.3763456E+01
 2.0418251E+01  2.3802668E+01
 2.0429750E+01  2.3794687E+01
 2.0441252E+01  2.3715620E+01
 2.0452751E+01  2.3668867E+01
 2.0464251E+01  2.3654629E+01
 2.0475752E+01  2.3658852E+01
 2.0487251E+01  2.3681631E+01
 2.0498751E+01  2.3714602E+01
 2.0510250E+01  2.3724457E+01
 2.0521751E+01  2.3716284E+01
 2.0533251E+01  2.3741133E+01
 2.0544750E+01  2.3780502E+01
 2.0556252E+01  2.3823624E+01
 2.0567751E+01  2.3817320E+01
 2.0579250E+01  2.3802973E+01
 2.0590752E+01  2.3813784E+01
 2.0602251E+01  2.3862114E+01
 2.0613750E+01  2.3850069E+01
 2.0625252E+01  2.3906950E+01
 2.0636751E+01  2.3883780E+01
 2.0648251E+01  2.3875828E+01
 2.0659752E+01  2.3819269E+01
 2.0671251E+01  2.3870506E+01
 2.0682751E+01  2.3941355E+01
 2.0694250E+01  2.3988111E+01
 2.0705751E+01  2.4059158E+01
 2.0717251E+01  2.4144154E+01
 2.0728750E+01  2.4228685E+01
 2.0740252E+01  2.4530367E+01
 2.0751751E+01  2.4567234E+01
 2.0763250E+01  2.5067825E+01
 2.0774752E+01  2.5071522E+01
 2.0786251E+01  2.5126253E+01
 2.0797750E+01  2.4786297E+01
 2.0809252E+01  2.4666788E+01
 2.0820751E+01  2.4458311E+01
 2.0832251E+01  2.4155464E+01
 2.0843752E+01  2.4089493E+01
 2.0855251E+01  2.3936684E+01
 2.0866751E+01  2.3914158E+01
 2.0878250E+01  2.3952459E+01
 2.0889751E+01  2.3929543E+01
 2.0901251E+01  2.3981153E+01
 2.0912750E+01  2.3965595E+01
 2.0924252E+01  2.3955965E+01
 2.0935751E+01  2.3941357E+01
 2.0947250E+01  2.3944471E+01
 2.0958752E+01  2.3960747E+01
 2.0970251E+01  2.3970352E+01
 2.0981750E+01  2.4097639E+01
 2.0993252E+01  2.4182400E+01
 2.1004751E+01  2.4174248E+01
 2.1016251E+01  2.3952078E+01
 2.1027752E+01  2.3846453E+01
 2.1039251E+01  2.3834942E+01
 2.1050751E+01  2.3840298E+01
 2.1062250E+01  2.3843121E+01
 2.1073751E+01  2.3828432E+01
 2.1085251E+01  2.3832220E+01
 2.1096750E+01  2.3802418E+01
 2.1108252E+01  2.3856413E+01
 2.1119751E+01  2.3868427E+01
 2.1131250E+01  2.3885487E+01
 2.1142752E+01  2.3836529E+01
 2.1154251E+01  2.3775644E+01
 2.1165751E+01  2.3742992E+01
 2.1177252E+01  2.3762287E+01
 2.1188751E+01  2.3808958E+01
 2.1200251E+01  2.3851912E+01
 2.1211752E+01  2.3854868E+01
 2.1223251E+01  2.3845253E+01
 2.1234751E+01  2.3814905E+01
 2.1246250E+01  2.3853788E+01
 2.1257751E+01  2.3883240E+01
 2.1269251E+01  2.3878580E+01
 2.1280750E+01  2.3856709E+01
 2.1292252E+01  2.3847263E+01
 2.1303751E+01  2.3847622E+01
 2.1315250E+01  2.3837545E+01
 2.1326752E+01  2.3857487E+01
 2.1338251E+01  2.3879467E+01
 2.1349751E+01  2.3901289E+01
 2.1361252E+01  2.3855253E+01
 2.1372751E+01  2.3848263E+01
 2.1384251E+01  2.3799225E+01
 2.1395752E+01  2.3807938E+01
 2.1407251E+01  2.3830311E+01
 2.1418751E+01  2.3869987E+01
 2.1430250E+01  2.3907995E+01
 2.1441751E+01  2.3875664E+01
 2.1453251E+01  2.3912376E+01
 2.1464750E+01  2.3888283E+01
 2.1476252E+01  2.3847801E+01
 2.1487751E+01  2.3868294E+01
 2.1499250E+01  2.3879869E+01
 2.1510752E+01  2.3904673E+01
 2.1522251E+01  2.3893692E+01
 2.1533751E+01  2.3926371E+01
 2.1545252E+01  2.3950485E+01
 2.1556751E+01  2.3963409E+01
 2.1568251E+01  2.3967079E+01
 2.1579752E+01  2.4025404E+01
 2.1591251E+01  2.4072180E+01
 2.1602751E+01  2.4097418E+01
 2.1614250E+01  2.4070566E+01
 2.1625751E+01  2.4069626E+01
 2.1637251E+01  2.4131969E+01
 2.1648750E+01  2.4136284E+01
 2.1660252E+01  2.4142317E+01
 2.1671751E+01  2.4071478E+01
 2.1683250E+01  2.4048782E+01
 2.1694752E+01  2.4040007E+01
 2.1706251E+01  2.4077780E+01
 2.1717751E+01  2.4093050E+01
 2.1729252E+01  2.4130558E+01
 2.1740751E+01  2.4136520E+01
 2.1752251E+01  2.4106819E+01
 2.1763752E+01  2.4086483E+01
 2.1775251E+01  2.4091248E+01
 2.1786751E+01  2.4108627E+01
 2.1798250E+01  2.4090210E+01
 2.1809752E+01  2.4073195E+01
 2.1821251E+01  2.4062708E+01
 2.1832750E+01  2.4045965E+01
 2.1844252E+01  2.4081110E+01
 2.1855751E+01  2.4148237E+01
 2.1867250E+01  2.4187845E+01
 2.1878752E+01  2.4165678E+01
 2.1890251E+01  2.4096069E+01
 2.1901751E+01  2.4087553E+01
 2.1913252E+01  2.4060030E+01
 2.1924751E+01  2.4101036E+01
 2.1936251E+01  2.4124931E+01
 2.1947752E+01  2.4171707E+01
 2.1959251E+01  2.4196028E+01
 2.1970751E+01  2.4205534E+01
 2.1982250E+01  2.4197382E+01
 2.1993752E+01  2.4218864E+01
 2.2005251E+01  2.4264206E+01
 2.2016750E+01  2.4274620E+01
 2.2028252E+01  2.4249651E+01
 2.2039751E+01  2.4228321E+01
 2.2051250E+01  2.4188856E+01
 2.2062752E+01  2.4124241E+01
 2.2074251E+01  2.4125263E+01
 2.2085751E+01  2.4172903E+01
 2.2097252E+01  2.4219746E+01
 2.2108751E+01  2.4251329E+01
 2.2120251E+01  2.4363262E+01
 2.2131752E+01  2.4320272E+01
 2.2143251E+01  2.4340933E+01
 2.2154751E+01  2.4337831E+01
 2.2166250E+01  2.4402452E+01
 2.2177752E+01  2.4366652E+01
 2.2189251E+01  2.4361902E+01
 2.2200750E+01  2.4358227E+01
 2.2212252E+01  2.4368559E+01
 2.2223751E+01  2.4381489E+01
 2.2235250E+01  2.4429192E+01
 2.2246752E+01  2.4510603E+01
 2.2258251E+01  2.4518200E+01
 2.2269751E+01  2.4472588E+01
 2.2281252E+01  2.4464977E+01
 2.2292751E+01  2.4464355E+01
 2.2304251E+01  2.4474628E+01
 2.2315752E+01  2.4447468E+01
 2.2327251E+01  2.4431675E+01
 2.2338751E+01  2.4459135E+01
 2.2350250E+01  2.4485191E+01
 2.2361752E+01  2.4496178E+01
 2.2373251E+01  2.4512737E+01
 2.2384750E+01  2.4496834E+01
 2.2396252E+01  2.4446333E+01
 2.2407751E+01  2.4435696E+01
 2.2419250E+01  2.4464115E+01
 2.2430752E+01  2.4515966E+01
 2.2442251E+01  2.4583767E+01
 2.2453751E+01  2.4616240E+01
 2.2465252E+01  2.4607922E+01
 2.2476751E+01  2.4534868E+01
 2.2488251E+01  2.4522650E+01
 2.2499752E+01  2.4532652E+01
 2.2511251E+01  2.4552370E+01
 2.2522751E+01  2.4626493E+01
 2.2534250E+01  2.4681328E+01
 2.2545752E+01  2.4738136E+01
 2.2557251E+01  2.4757235E+01
 2.2568750E+01  2.4764351E+01
 2.2580252E+01  2.4788755E+01
 2.2591751E+01  2.4819185E+01
 2.2603251E+01  2.4840721E+01
 2.2614752E+01  2.4913881E+01
 2.2626251E+01  2.4946756E+01
 2.2637751E+01  2.4968779E+01
 2.2649252E+01  2.4953569E+01
 2.2660751E+01  2.4989574E+01
 2.2672251E+01  2.5034700E+01
 2.2683752E+01  2.5099270E+01
 2.2695251E+01  2.5113567E+01
 2.2706751E+01  2.5106606E+01
 2.2718250E+01  2.5127790E+01
 2.2729752E+01  2.5141542E+01
 2.2741251E+01  2.5172756E+01
 2.2752750E+01  2.5141758E+01
 2.2764252E+01  2.5139025E+01
 2.2775751E+01  2.5126030E+01
 2.2787251E+01  2.5144140E+01
 2.2798752E+01  2.5213732E+01
 2.2810251E+01  2.5334883E+01
 2.2821751E+01  2.5380024E+01
 2.2833252E+01  2.5426561E+01
 2.2844751E+01  2.5413961E+01
 2.2856251E+01  2.5471590E+01
 2.2867750E+01  2.5527637E+01
 2.2879251E+01  2.5582018E+01
 2.2890751E+01  2.5683392E+01
 2.2902250E+01  2.5745342E+01
 2.2913752E+01  2.5899864E+01
 2.2925251E+01  2.5922766E+01
 2.2936750E+01  2.5943888E+01
 2.2948252E+01  2.5893799E+01
 2.2959751E+01  2.5906746E+01
 2.2971251E+01  2.6001080E+01
 2.2982752E+01  2.6074471E+01
 2.2994251E+01  2.6195997E+01
