F:\20151113_APS_34IDE\\Brian\Particle1\OCV\Data_0104.tif
2-Theta Angle (Degrees)
Intensity
       2000
 5.7500005E-03  0.0000000E+00
 1.7250001E-02  0.0000000E+00
 2.8750001E-02  0.0000000E+00
 4.0250003E-02  0.0000000E+00
 5.1750004E-02  0.0000000E+00
 6.3250005E-02  0.0000000E+00
 7.4750006E-02  0.0000000E+00
 8.6250007E-02  0.0000000E+00
 9.7750008E-02  0.0000000E+00
 1.0925001E-01  0.0000000E+00
 1.2075000E-01  0.0000000E+00
 1.3225001E-01  0.0000000E+00
 1.4375001E-01  0.0000000E+00
 1.5525001E-01  0.0000000E+00
 1.6675001E-01  0.0000000E+00
 1.7825001E-01  0.0000000E+00
 1.8975002E-01  0.0000000E+00
 2.0125002E-01  0.0000000E+00
 2.1275002E-01  0.0000000E+00
 2.2425000E-01  0.0000000E+00
 2.3575000E-01  0.0000000E+00
 2.4725001E-01  0.0000000E+00
 2.5875002E-01  0.0000000E+00
 2.7025002E-01  0.0000000E+00
 2.8175002E-01  0.0000000E+00
 2.9325002E-01  0.0000000E+00
 3.0475003E-01  0.0000000E+00
 3.1625003E-01  0.0000000E+00
 3.2775003E-01  0.0000000E+00
 3.3925003E-01  0.0000000E+00
 3.5075003E-01  0.0000000E+00
 3.6225003E-01  0.0000000E+00
 3.7375003E-01  0.0000000E+00
 3.8525003E-01  0.0000000E+00
 3.9675003E-01  0.0000000E+00
 4.0825003E-01  0.0000000E+00
 4.1975003E-01  0.0000000E+00
 4.3125004E-01  0.0000000E+00
 4.4275001E-01  0.0000000E+00
 4.5425001E-01  0.0000000E+00
 4.6575001E-01  0.0000000E+00
 4.7725001E-01  0.0000000E+00
 4.8875001E-01  0.0000000E+00
 5.0025004E-01  0.0000000E+00
 5.1175004E-01  0.0000000E+00
 5.2325004E-01  0.0000000E+00
 5.3475004E-01  0.0000000E+00
 5.4625005E-01  0.0000000E+00
 5.5775005E-01  0.0000000E+00
 5.6925005E-01  0.0000000E+00
 5.8075005E-01  0.0000000E+00
 5.9225005E-01  0.0000000E+00
 6.0375005E-01  0.0000000E+00
 6.1525005E-01  0.0000000E+00
 6.2675005E-01  0.0000000E+00
 6.3825005E-01  0.0000000E+00
 6.4975005E-01  0.0000000E+00
 6.6125005E-01  0.0000000E+00
 6.7275006E-01  0.0000000E+00
 6.8425006E-01  0.0000000E+00
 6.9575006E-01  0.0000000E+00
 7.0725006E-01  0.0000000E+00
 7.1875006E-01  0.0000000E+00
 7.3025006E-01  0.0000000E+00
 7.4175006E-01  0.0000000E+00
 7.5325006E-01  0.0000000E+00
 7.6475006E-01  0.0000000E+00
 7.7625006E-01  0.0000000E+00
 7.8775007E-01  0.0000000E+00
 7.9925007E-01  0.0000000E+00
 8.1075007E-01  0.0000000E+00
 8.2225007E-01  0.0000000E+00
 8.3375007E-01  0.0000000E+00
 8.4525007E-01  0.0000000E+00
 8.5675007E-01  0.0000000E+00
 8.6825007E-01  0.0000000E+00
 8.7975001E-01  0.0000000E+00
 8.9125001E-01  0.0000000E+00
 9.0275002E-01  0.0000000E+00
 9.1425002E-01  0.0000000E+00
 9.2575002E-01  0.0000000E+00
 9.3725002E-01  0.0000000E+00
 9.4875002E-01  0.0000000E+00
 9.6025002E-01  0.0000000E+00
 9.7175002E-01  0.0000000E+00
 9.8325002E-01  0.0000000E+00
 9.9475002E-01  0.0000000E+00
 1.0062500E+00  0.0000000E+00
 1.0177500E+00  0.0000000E+00
 1.0292500E+00  0.0000000E+00
 1.0407500E+00  0.0000000E+00
 1.0522500E+00  0.0000000E+00
 1.0637500E+00  0.0000000E+00
 1.0752500E+00  0.0000000E+00
 1.0867500E+00  0.0000000E+00
 1.0982500E+00  0.0000000E+00
 1.1097500E+00  0.0000000E+00
 1.1212500E+00  0.0000000E+00
 1.1327500E+00  0.0000000E+00
 1.1442500E+00  0.0000000E+00
 1.1557500E+00  0.0000000E+00
 1.1672500E+00  0.0000000E+00
 1.1787500E+00  0.0000000E+00
 1.1902500E+00  0.0000000E+00
 1.2017500E+00  0.0000000E+00
 1.2132500E+00  0.0000000E+00
 1.2247500E+00  0.0000000E+00
 1.2362500E+00  0.0000000E+00
 1.2477500E+00  0.0000000E+00
 1.2592500E+00  0.0000000E+00
 1.2707500E+00  0.0000000E+00
 1.2822500E+00  0.0000000E+00
 1.2937500E+00  0.0000000E+00
 1.3052500E+00  0.0000000E+00
 1.3167500E+00  0.0000000E+00
 1.3282501E+00  0.0000000E+00
 1.3397501E+00  0.0000000E+00
 1.3512501E+00  0.0000000E+00
 1.3627501E+00  0.0000000E+00
 1.3742501E+00  0.0000000E+00
 1.3857501E+00  0.0000000E+00
 1.3972501E+00  0.0000000E+00
 1.4087501E+00  0.0000000E+00
 1.4202501E+00  0.0000000E+00
 1.4317501E+00  0.0000000E+00
 1.4432501E+00  0.0000000E+00
 1.4547501E+00  0.0000000E+00
 1.4662501E+00  0.0000000E+00
 1.4777501E+00  0.0000000E+00
 1.4892501E+00  0.0000000E+00
 1.5007501E+00  0.0000000E+00
 1.5122501E+00  0.0000000E+00
 1.5237501E+00  0.0000000E+00
 1.5352501E+00  0.0000000E+00
 1.5467501E+00  0.0000000E+00
 1.5582501E+00  0.0000000E+00
 1.5697501E+00  0.0000000E+00
 1.5812501E+00  0.0000000E+00
 1.5927501E+00  0.0000000E+00
 1.6042501E+00  0.0000000E+00
 1.6157501E+00  0.0000000E+00
 1.6272501E+00  0.0000000E+00
 1.6387501E+00  0.0000000E+00
 1.6502501E+00  0.0000000E+00
 1.6617501E+00  0.0000000E+00
 1.6732501E+00  0.0000000E+00
 1.6847501E+00  0.0000000E+00
 1.6962501E+00  0.0000000E+00
 1.7077501E+00  0.0000000E+00
 1.7192501E+00  0.0000000E+00
 1.7307501E+00  0.0000000E+00
 1.7422501E+00  0.0000000E+00
 1.7537501E+00  0.0000000E+00
 1.7652501E+00  0.0000000E+00
 1.7767501E+00  0.0000000E+00
 1.7882501E+00  0.0000000E+00
 1.7997501E+00  0.0000000E+00
 1.8112501E+00  0.0000000E+00
 1.8227501E+00  0.0000000E+00
 1.8342501E+00  0.0000000E+00
 1.8457501E+00  0.0000000E+00
 1.8572501E+00  0.0000000E+00
 1.8687501E+00  0.0000000E+00
 1.8802501E+00  0.0000000E+00
 1.8917501E+00  0.0000000E+00
 1.9032501E+00  0.0000000E+00
 1.9147501E+00  0.0000000E+00
 1.9262501E+00  0.0000000E+00
 1.9377501E+00  0.0000000E+00
 1.9492501E+00  0.0000000E+00
 1.9607501E+00  0.0000000E+00
 1.9722501E+00  0.0000000E+00
 1.9837501E+00  0.0000000E+00
 1.9952501E+00  0.0000000E+00
 2.0067501E+00  0.0000000E+00
 2.0182500E+00  0.0000000E+00
 2.0297501E+00  0.0000000E+00
 2.0412500E+00  0.0000000E+00
 2.0527501E+00  0.0000000E+00
 2.0642500E+00  0.0000000E+00
 2.0757501E+00  0.0000000E+00
 2.0872500E+00  0.0000000E+00
 2.0987501E+00  0.0000000E+00
 2.1102500E+00  0.0000000E+00
 2.1217501E+00  0.0000000E+00
 2.1332500E+00  0.0000000E+00
 2.1447501E+00  0.0000000E+00
 2.1562500E+00  0.0000000E+00
 2.1677501E+00  0.0000000E+00
 2.1792500E+00  0.0000000E+00
 2.1907501E+00  0.0000000E+00
 2.2022500E+00  0.0000000E+00
 2.2137501E+00  0.0000000E+00
 2.2252500E+00  0.0000000E+00
 2.2367501E+00  0.0000000E+00
 2.2482500E+00  0.0000000E+00
 2.2597501E+00  0.0000000E+00
 2.2712500E+00  0.0000000E+00
 2.2827501E+00  0.0000000E+00
 2.2942500E+00  0.0000000E+00
 2.3057501E+00  0.0000000E+00
 2.3172500E+00  0.0000000E+00
 2.3287501E+00  0.0000000E+00
 2.3402500E+00  0.0000000E+00
 2.3517501E+00  0.0000000E+00
 2.3632500E+00  0.0000000E+00
 2.3747501E+00  0.0000000E+00
 2.3862500E+00  0.0000000E+00
 2.3977501E+00  0.0000000E+00
 2.4092500E+00  0.0000000E+00
 2.4207501E+00  0.0000000E+00
 2.4322500E+00  0.0000000E+00
 2.4437501E+00  0.0000000E+00
 2.4552500E+00  0.0000000E+00
 2.4667501E+00  0.0000000E+00
 2.4782500E+00  0.0000000E+00
 2.4897501E+00  0.0000000E+00
 2.5012500E+00  0.0000000E+00
 2.5127501E+00  0.0000000E+00
 2.5242500E+00  0.0000000E+00
 2.5357502E+00  0.0000000E+00
 2.5472500E+00  0.0000000E+00
 2.5587502E+00  0.0000000E+00
 2.5702500E+00  0.0000000E+00
 2.5817502E+00  0.0000000E+00
 2.5932500E+00  0.0000000E+00
 2.6047502E+00  0.0000000E+00
 2.6162500E+00  0.0000000E+00
 2.6277502E+00  0.0000000E+00
 2.6392500E+00  0.0000000E+00
 2.6507502E+00  0.0000000E+00
 2.6622500E+00  0.0000000E+00
 2.6737502E+00  0.0000000E+00
 2.6852500E+00  0.0000000E+00
 2.6967502E+00  0.0000000E+00
 2.7082500E+00  0.0000000E+00
 2.7197502E+00  0.0000000E+00
 2.7312500E+00  0.0000000E+00
 2.7427502E+00  0.0000000E+00
 2.7542500E+00  0.0000000E+00
 2.7657502E+00  0.0000000E+00
 2.7772501E+00  0.0000000E+00
 2.7887502E+00  0.0000000E+00
 2.8002501E+00  0.0000000E+00
 2.8117502E+00  0.0000000E+00
 2.8232501E+00  3.1974684E+01
 2.8347502E+00  3.3806324E+01
 2.8462501E+00  3.3890068E+01
 2.8577502E+00  3.4242493E+01
 2.8692501E+00  3.4402695E+01
 2.8807502E+00  3.5101944E+01
 2.8922501E+00  3.5364380E+01
 2.9037502E+00  3.5528069E+01
 2.9152501E+00  3.5576752E+01
 2.9267502E+00  3.5710621E+01
 2.9382501E+00  3.5521362E+01
 2.9497502E+00  3.5351238E+01
 2.9612501E+00  3.4391830E+01
 2.9727502E+00  3.4284946E+01
 2.9842501E+00  3.4184498E+01
 2.9957502E+00  3.4749226E+01
 3.0072501E+00  3.4998051E+01
 3.0187502E+00  3.5237728E+01
 3.0302501E+00  3.4984558E+01
 3.0417502E+00  3.5124355E+01
 3.0532501E+00  3.4842312E+01
 3.0647502E+00  3.4598450E+01
 3.0762501E+00  3.4338707E+01
 3.0877502E+00  3.4024464E+01
 3.0992501E+00  3.4158958E+01
 3.1107502E+00  3.4112877E+01
 3.1222501E+00  3.4325817E+01
 3.1337502E+00  3.4368259E+01
 3.1452501E+00  3.4643696E+01
 3.1567502E+00  3.4679012E+01
 3.1682501E+00  3.4741940E+01
 3.1797502E+00  3.4739059E+01
 3.1912501E+00  3.4509975E+01
 3.2027502E+00  3.4508690E+01
 3.2142501E+00  3.4354134E+01
 3.2257502E+00  3.4299488E+01
 3.2372501E+00  3.4415096E+01
 3.2487502E+00  3.4481224E+01
 3.2602501E+00  3.4880939E+01
 3.2717502E+00  3.5132168E+01
 3.2832501E+00  3.5164333E+01
 3.2947502E+00  3.5313602E+01
 3.3062501E+00  3.5164211E+01
 3.3177502E+00  3.5058655E+01
 3.3292501E+00  3.5068218E+01
 3.3407502E+00  3.5088253E+01
 3.3522501E+00  3.5273212E+01
 3.3637502E+00  3.4901699E+01
 3.3752501E+00  3.4960331E+01
 3.3867502E+00  3.4563583E+01
 3.3982501E+00  3.4686218E+01
 3.4097502E+00  3.4466240E+01
 3.4212501E+00  3.4581196E+01
 3.4327502E+00  3.4493889E+01
 3.4442501E+00  3.4255756E+01
 3.4557502E+00  3.4286686E+01
 3.4672501E+00  3.4419182E+01
 3.4787502E+00  3.4405136E+01
 3.4902501E+00  3.4529572E+01
 3.5017502E+00  3.4106747E+01
 3.5132501E+00  3.3913876E+01
 3.5247502E+00  3.3896999E+01
 3.5362501E+00  3.3915817E+01
 3.5477502E+00  3.4043625E+01
 3.5592501E+00  3.3762577E+01
 3.5707502E+00  3.3715309E+01
 3.5822501E+00  3.3701004E+01
 3.5937502E+00  3.3545681E+01
 3.6052501E+00  3.3308872E+01
 3.6167502E+00  3.2992260E+01
 3.6282501E+00  3.2791759E+01
 3.6397502E+00  3.2732529E+01
 3.6512501E+00  3.2733150E+01
 3.6627502E+00  3.2812019E+01
 3.6742501E+00  3.2774635E+01
 3.6857502E+00  3.2760891E+01
 3.6972501E+00  3.2624298E+01
 3.7087502E+00  3.2594738E+01
 3.7202501E+00  3.2629128E+01
 3.7317502E+00  3.2868706E+01
 3.7432501E+00  3.3339169E+01
 3.7547503E+00  3.3664955E+01
 3.7662501E+00  3.3658867E+01
 3.7777503E+00  3.3471382E+01
 3.7892501E+00  3.3072548E+01
 3.8007503E+00  3.2845280E+01
 3.8122501E+00  3.2686230E+01
 3.8237503E+00  3.2563915E+01
 3.8352501E+00  3.2630070E+01
 3.8467503E+00  3.2656403E+01
 3.8582501E+00  3.2741211E+01
 3.8697503E+00  3.2797195E+01
 3.8812501E+00  3.2863686E+01
 3.8927503E+00  3.2802647E+01
 3.9042501E+00  3.2802498E+01
 3.9157503E+00  3.2595707E+01
 3.9272501E+00  3.2629150E+01
 3.9387503E+00  3.2501572E+01
 3.9502501E+00  3.2496147E+01
 3.9617503E+00  3.2388901E+01
 3.9732502E+00  3.2492634E+01
 3.9847503E+00  3.2626308E+01
 3.9962502E+00  3.2837708E+01
 4.0077500E+00  3.2797134E+01
 4.0192504E+00  3.2733669E+01
 4.0307503E+00  3.2647099E+01
 4.0422502E+00  3.2755455E+01
 4.0537500E+00  3.2890808E+01
 4.0652504E+00  3.2961353E+01
 4.0767503E+00  3.2819412E+01
 4.0882502E+00  3.2783558E+01
 4.0997500E+00  3.2671246E+01
 4.1112504E+00  3.2599358E+01
 4.1227503E+00  3.2510876E+01
 4.1342502E+00  3.2442375E+01
 4.1457500E+00  3.2466286E+01
 4.1572504E+00  3.2149490E+01
 4.1687503E+00  3.2127621E+01
 4.1802502E+00  3.1917206E+01
 4.1917500E+00  3.2059364E+01
 4.2032504E+00  3.2042046E+01
 4.2147503E+00  3.2185932E+01
 4.2262502E+00  3.2307041E+01
 4.2377501E+00  3.2278824E+01
 4.2492504E+00  3.2180286E+01
 4.2607503E+00  3.2273380E+01
 4.2722502E+00  3.2216240E+01
 4.2837501E+00  3.2419716E+01
 4.2952504E+00  3.2365829E+01
 4.3067503E+00  3.2526779E+01
 4.3182502E+00  3.2503078E+01
 4.3297501E+00  3.2584682E+01
 4.3412504E+00  3.2553173E+01
 4.3527503E+00  3.2449249E+01
 4.3642502E+00  3.2399971E+01
 4.3757501E+00  3.2430309E+01
 4.3872504E+00  3.2536716E+01
 4.3987503E+00  3.2506989E+01
 4.4102502E+00  3.2562870E+01
 4.4217501E+00  3.2610241E+01
 4.4332504E+00  3.2741829E+01
 4.4447503E+00  3.2632404E+01
 4.4562502E+00  3.2711033E+01
 4.4677501E+00  3.2673008E+01
 4.4792504E+00  3.2771572E+01
 4.4907503E+00  3.2606239E+01
 4.5022502E+00  3.2580971E+01
 4.5137501E+00  3.2452816E+01
 4.5252504E+00  3.2462070E+01
 4.5367503E+00  3.2447262E+01
 4.5482502E+00  3.2440689E+01
 4.5597501E+00  3.2528160E+01
 4.5712504E+00  3.2524609E+01
 4.5827503E+00  3.2572891E+01
 4.5942502E+00  3.2529297E+01
 4.6057501E+00  3.2540379E+01
 4.6172504E+00  3.2626720E+01
 4.6287503E+00  3.2740353E+01
 4.6402502E+00  3.2824490E+01
 4.6517501E+00  3.2973183E+01
 4.6632504E+00  3.2971874E+01
 4.6747503E+00  3.2992100E+01
 4.6862502E+00  3.2991604E+01
 4.6977501E+00  3.2954800E+01
 4.7092505E+00  3.2913479E+01
 4.7207503E+00  3.2755482E+01
 4.7322502E+00  3.2633354E+01
 4.7437501E+00  3.2606934E+01
 4.7552505E+00  3.2592194E+01
 4.7667503E+00  3.2760418E+01
 4.7782502E+00  3.2661049E+01
 4.7897501E+00  3.2708153E+01
 4.8012505E+00  3.2593746E+01
 4.8127503E+00  3.2730423E+01
 4.8242502E+00  3.2661545E+01
 4.8357501E+00  3.2661354E+01
 4.8472505E+00  3.2662003E+01
 4.8587503E+00  3.2864758E+01
 4.8702502E+00  3.2859875E+01
 4.8817501E+00  3.2817787E+01
 4.8932505E+00  3.2693977E+01
 4.9047503E+00  3.2565956E+01
 4.9162502E+00  3.2508274E+01
 4.9277501E+00  3.2348072E+01
 4.9392505E+00  3.2387108E+01
 4.9507504E+00  3.2423073E+01
 4.9622502E+00  3.2507927E+01
 4.9737501E+00  3.2581688E+01
 4.9852505E+00  3.2672577E+01
 4.9967504E+00  3.2771385E+01
 5.0082502E+00  3.3038002E+01
 5.0197501E+00  3.3133102E+01
 5.0312505E+00  3.3343929E+01
 5.0427504E+00  3.3334785E+01
 5.0542502E+00  3.3328636E+01
 5.0657501E+00  3.3294350E+01
 5.0772505E+00  3.3320496E+01
 5.0887504E+00  3.3435558E+01
 5.1002502E+00  3.3531372E+01
 5.1117501E+00  3.3630867E+01
 5.1232505E+00  3.3602921E+01
 5.1347504E+00  3.3624424E+01
 5.1462502E+00  3.3686260E+01
 5.1577501E+00  3.3768600E+01
 5.1692505E+00  3.3834095E+01
 5.1807504E+00  3.3785236E+01
 5.1922503E+00  3.3891228E+01
 5.2037501E+00  3.3947243E+01
 5.2152505E+00  3.3974365E+01
 5.2267504E+00  3.3999081E+01
 5.2382503E+00  3.4087017E+01
 5.2497501E+00  3.4246807E+01
 5.2612505E+00  3.4359261E+01
 5.2727504E+00  3.4311657E+01
 5.2842503E+00  3.4208946E+01
 5.2957501E+00  3.4229076E+01
 5.3072500E+00  3.4130661E+01
 5.3187504E+00  3.4256985E+01
 5.3302503E+00  3.4258072E+01
 5.3417501E+00  3.4310150E+01
 5.3532500E+00  3.4363224E+01
 5.3647504E+00  3.4315487E+01
 5.3762503E+00  3.4434277E+01
 5.3877501E+00  3.4529427E+01
 5.3992500E+00  3.4695358E+01
 5.4107504E+00  3.4731453E+01
 5.4222503E+00  3.4739426E+01
 5.4337502E+00  3.4657516E+01
 5.4452500E+00  3.4696163E+01
 5.4567504E+00  3.4669903E+01
 5.4682503E+00  3.4789829E+01
 5.4797502E+00  3.4876045E+01
 5.4912500E+00  3.4964058E+01
 5.5027504E+00  3.5009415E+01
 5.5142503E+00  3.5023552E+01
 5.5257502E+00  3.5076267E+01
 5.5372500E+00  3.5175457E+01
 5.5487504E+00  3.5299000E+01
 5.5602503E+00  3.5324116E+01
 5.5717502E+00  3.5343552E+01
 5.5832500E+00  3.5403553E+01
 5.5947504E+00  3.5471054E+01
 5.6062503E+00  3.5535896E+01
 5.6177502E+00  3.5515118E+01
 5.6292500E+00  3.5619541E+01
 5.6407504E+00  3.5706535E+01
 5.6522503E+00  3.5783001E+01
 5.6637502E+00  3.6030827E+01
 5.6752501E+00  3.6124237E+01
 5.6867504E+00  3.6121975E+01
 5.6982503E+00  3.5964512E+01
 5.7097502E+00  3.5820694E+01
 5.7212501E+00  3.5788181E+01
 5.7327504E+00  3.5790268E+01
 5.7442503E+00  3.5758377E+01
 5.7557502E+00  3.5769096E+01
 5.7672501E+00  3.5769531E+01
 5.7787504E+00  3.5846081E+01
 5.7902503E+00  3.5973885E+01
 5.8017502E+00  3.6083801E+01
 5.8132501E+00  3.6189796E+01
 5.8247504E+00  3.6273300E+01
 5.8362503E+00  3.6341911E+01
 5.8477502E+00  3.6411816E+01
 5.8592501E+00  3.6517593E+01
 5.8707504E+00  3.6643139E+01
 5.8822503E+00  3.7023163E+01
 5.8937502E+00  3.7440323E+01
 5.9052501E+00  3.7810509E+01
 5.9167504E+00  3.8878490E+01
 5.9282503E+00  4.0233059E+01
 5.9397502E+00  4.1914738E+01
 5.9512501E+00  4.6336285E+01
 5.9627504E+00  4.8710861E+01
 5.9742503E+00  5.0863270E+01
 5.9857502E+00  5.4854221E+01
 5.9972501E+00  5.3759029E+01
 6.0087504E+00  5.3009418E+01
 6.0202503E+00  4.6900154E+01
 6.0317502E+00  4.4558403E+01
 6.0432501E+00  4.2342052E+01
 6.0547504E+00  3.9684216E+01
 6.0662503E+00  3.8560596E+01
 6.0777502E+00  3.7975048E+01
 6.0892501E+00  3.7522594E+01
 6.1007504E+00  3.7352074E+01
 6.1122503E+00  3.7234821E+01
 6.1237502E+00  3.7165020E+01
 6.1352501E+00  3.7026352E+01
 6.1467505E+00  3.6990009E+01
 6.1582503E+00  3.6958138E+01
 6.1697502E+00  3.7041557E+01
 6.1812501E+00  3.7143291E+01
 6.1927505E+00  3.7301460E+01
 6.2042503E+00  3.7367565E+01
 6.2157502E+00  3.7480110E+01
 6.2272501E+00  3.7524685E+01
 6.2387505E+00  3.7537251E+01
 6.2502503E+00  3.7517498E+01
 6.2617502E+00  3.7467392E+01
 6.2732501E+00  3.7576466E+01
 6.2847505E+00  3.7675179E+01
 6.2962503E+00  3.7843571E+01
 6.3077502E+00  3.7908733E+01
 6.3192501E+00  3.7850674E+01
 6.3307505E+00  3.7909817E+01
 6.3422503E+00  3.7968204E+01
 6.3537502E+00  3.8102154E+01
 6.3652501E+00  3.8182888E+01
 6.3767505E+00  3.8327915E+01
 6.3882504E+00  3.8404198E+01
 6.3997502E+00  3.8549583E+01
 6.4112501E+00  3.8564873E+01
 6.4227505E+00  3.8666508E+01
 6.4342504E+00  3.8623592E+01
 6.4457502E+00  3.8686375E+01
 6.4572501E+00  3.8607353E+01
 6.4687505E+00  3.8692356E+01
 6.4802504E+00  3.8661381E+01
 6.4917502E+00  3.8799091E+01
 6.5032501E+00  3.8913612E+01
 6.5147505E+00  3.9080616E+01
 6.5262504E+00  3.9154335E+01
 6.5377502E+00  3.9217972E+01
 6.5492501E+00  3.9218235E+01
 6.5607505E+00  3.9387360E+01
 6.5722504E+00  3.9521721E+01
 6.5837502E+00  3.9689098E+01
 6.5952501E+00  3.9663265E+01
 6.6067505E+00  3.9719067E+01
 6.6182504E+00  3.9778706E+01
 6.6297503E+00  3.9865589E+01
 6.6412501E+00  3.9824577E+01
 6.6527505E+00  3.9915142E+01
 6.6642504E+00  4.0070972E+01
 6.6757503E+00  4.0215031E+01
 6.6872501E+00  4.0298077E+01
 6.6987505E+00  4.0387947E+01
 6.7102504E+00  4.0567150E+01
 6.7217503E+00  4.0713493E+01
 6.7332501E+00  4.0810856E+01
 6.7447505E+00  4.0882816E+01
 6.7562504E+00  4.1051537E+01
 6.7677503E+00  4.1160454E+01
 6.7792501E+00  4.1355984E+01
 6.7907505E+00  4.1351784E+01
 6.8022504E+00  4.1442245E+01
 6.8137503E+00  4.1438953E+01
 6.8252501E+00  4.1440620E+01
 6.8367505E+00  4.1467514E+01
 6.8482504E+00  4.1536964E+01
 6.8597503E+00  4.1647240E+01
 6.8712502E+00  4.1704014E+01
 6.8827505E+00  4.1741043E+01
 6.8942504E+00  4.1811161E+01
 6.9057503E+00  4.1791508E+01
 6.9172502E+00  4.1889324E+01
 6.9287505E+00  4.1921719E+01
 6.9402504E+00  4.2035831E+01
 6.9517503E+00  4.2110649E+01
 6.9632502E+00  4.2209461E+01
 6.9747505E+00  4.2361954E+01
 6.9862504E+00  4.2381058E+01
 6.9977503E+00  4.2493439E+01
 7.0092502E+00  4.2512184E+01
 7.0207505E+00  4.2558170E+01
 7.0322504E+00  4.2555969E+01
 7.0437503E+00  4.2523201E+01
 7.0552502E+00  4.2542316E+01
 7.0667505E+00  4.2539288E+01
 7.0782504E+00  4.2549770E+01
 7.0897503E+00  4.2631596E+01
 7.1012502E+00  4.2806538E+01
 7.1127505E+00  4.3007751E+01
 7.1242504E+00  4.3193539E+01
 7.1357503E+00  4.3299236E+01
 7.1472502E+00  4.3369629E+01
 7.1587505E+00  4.3397541E+01
 7.1702504E+00  4.3290726E+01
 7.1817503E+00  4.3257351E+01
 7.1932502E+00  4.3349583E+01
 7.2047505E+00  4.3434044E+01
 7.2162504E+00  4.3404976E+01
 7.2277503E+00  4.3386398E+01
 7.2392502E+00  4.3341274E+01
 7.2507505E+00  4.3374146E+01
 7.2622504E+00  4.3317764E+01
 7.2737503E+00  4.3367069E+01
 7.2852502E+00  4.3447544E+01
 7.2967505E+00  4.3504803E+01
 7.3082504E+00  4.3638412E+01
 7.3197503E+00  4.3866650E+01
 7.3312502E+00  4.4049061E+01
 7.3427505E+00  4.4183285E+01
 7.3542504E+00  4.4202274E+01
 7.3657503E+00  4.4106091E+01
 7.3772502E+00  4.3959122E+01
 7.3887506E+00  4.3801300E+01
 7.4002504E+00  4.3738487E+01
 7.4117503E+00  4.3814903E+01
 7.4232502E+00  4.3856289E+01
 7.4347506E+00  4.3988960E+01
 7.4462504E+00  4.4025970E+01
 7.4577503E+00  4.4115265E+01
 7.4692502E+00  4.4151600E+01
 7.4807506E+00  4.4224689E+01
 7.4922504E+00  4.4323997E+01
 7.5037503E+00  4.4414001E+01
 7.5152502E+00  4.4544186E+01
 7.5267506E+00  4.4515999E+01
 7.5382504E+00  4.4491699E+01
 7.5497503E+00  4.4333920E+01
 7.5612502E+00  4.4263226E+01
 7.5727506E+00  4.4179222E+01
 7.5842505E+00  4.4166683E+01
 7.5957503E+00  4.4159569E+01
 7.6072502E+00  4.4262280E+01
 7.6187506E+00  4.4280582E+01
 7.6302505E+00  4.4344788E+01
 7.6417503E+00  4.4374378E+01
 7.6532502E+00  4.4364067E+01
 7.6647506E+00  4.4210106E+01
 7.6762505E+00  4.4131519E+01
 7.6877503E+00  4.4081509E+01
 7.6992502E+00  4.4150955E+01
 7.7107506E+00  4.4184483E+01
 7.7222505E+00  4.4298317E+01
 7.7337503E+00  4.4365807E+01
 7.7452502E+00  4.4345318E+01
 7.7567506E+00  4.4278107E+01
 7.7682505E+00  4.4235706E+01
 7.7797503E+00  4.4219528E+01
 7.7912502E+00  4.4183937E+01
 7.8027506E+00  4.4074753E+01
 7.8142505E+00  4.4022018E+01
 7.8257504E+00  4.3971596E+01
 7.8372502E+00  4.3986816E+01
 7.8487506E+00  4.3975498E+01
 7.8602505E+00  4.3957245E+01
 7.8717504E+00  4.3895889E+01
 7.8832502E+00  4.3822567E+01
 7.8947506E+00  4.3844612E+01
 7.9062505E+00  4.3869598E+01
 7.9177504E+00  4.3929474E+01
 7.9292502E+00  4.3940437E+01
 7.9407506E+00  4.3923347E+01
 7.9522505E+00  4.3857178E+01
 7.9637504E+00  4.3783390E+01
 7.9752502E+00  4.3621197E+01
 7.9867506E+00  4.3597378E+01
 7.9982505E+00  4.3471527E+01
 8.0097504E+00  4.3455982E+01
 8.0212507E+00  4.3339462E+01
 8.0327501E+00  4.3240883E+01
 8.0442505E+00  4.3220875E+01
 8.0557508E+00  4.3205280E+01
 8.0672503E+00  4.3093239E+01
 8.0787506E+00  4.3033928E+01
 8.0902500E+00  4.2887012E+01
 8.1017504E+00  4.2884739E+01
 8.1132507E+00  4.2773491E+01
 8.1247501E+00  4.2720356E+01
 8.1362505E+00  4.2637287E+01
 8.1477509E+00  4.2537056E+01
 8.1592503E+00  4.2439335E+01
 8.1707506E+00  4.2331959E+01
 8.1822500E+00  4.2079918E+01
 8.1937504E+00  4.1874542E+01
 8.2052507E+00  4.1648670E+01
 8.2167501E+00  4.1505867E+01
 8.2282505E+00  4.1334385E+01
 8.2397509E+00  4.1233658E+01
 8.2512503E+00  4.1191906E+01
 8.2627506E+00  4.1157906E+01
 8.2742500E+00  4.1084618E+01
 8.2857504E+00  4.0929718E+01
 8.2972507E+00  4.0834072E+01
 8.3087502E+00  4.0610107E+01
 8.3202505E+00  4.0441994E+01
 8.3317509E+00  4.0200584E+01
 8.3432503E+00  4.0044872E+01
 8.3547506E+00  3.9920364E+01
 8.3662500E+00  3.9965515E+01
 8.3777504E+00  3.9878757E+01
 8.3892508E+00  3.9781258E+01
 8.4007502E+00  3.9568356E+01
 8.4122505E+00  3.9392460E+01
 8.4237509E+00  3.9306675E+01
 8.4352503E+00  3.9067032E+01
 8.4467506E+00  3.8892971E+01
 8.4582500E+00  3.8698421E+01
 8.4697504E+00  3.8508137E+01
 8.4812508E+00  3.8359863E+01
 8.4927502E+00  3.8059628E+01
 8.5042505E+00  3.7868546E+01
 8.5157509E+00  3.7707188E+01
 8.5272503E+00  3.7577297E+01
 8.5387506E+00  3.7426697E+01
 8.5502501E+00  3.7220387E+01
 8.5617504E+00  3.7130383E+01
 8.5732508E+00  3.6990414E+01
 8.5847502E+00  3.6771900E+01
 8.5962505E+00  3.6515789E+01
 8.6077509E+00  3.6341908E+01
 8.6192503E+00  3.6179676E+01
 8.6307507E+00  3.6052284E+01
 8.6422501E+00  3.5897129E+01
 8.6537504E+00  3.5738579E+01
 8.6652508E+00  3.5603371E+01
 8.6767502E+00  3.5354973E+01
 8.6882505E+00  3.5246071E+01
 8.6997509E+00  3.5004974E+01
 8.7112503E+00  3.4802437E+01
 8.7227507E+00  3.4575470E+01
 8.7342501E+00  3.4392334E+01
 8.7457504E+00  3.4253658E+01
 8.7572508E+00  3.4063766E+01
 8.7687502E+00  3.3909782E+01
 8.7802505E+00  3.3771385E+01
 8.7917500E+00  3.3657925E+01
 8.8032503E+00  3.3549252E+01
 8.8147507E+00  3.3378689E+01
 8.8262501E+00  3.3267929E+01
 8.8377504E+00  3.3109047E+01
 8.8492508E+00  3.2977795E+01
 8.8607502E+00  3.2790592E+01
 8.8722506E+00  3.2594860E+01
 8.8837500E+00  3.2370533E+01
 8.8952503E+00  3.2202454E+01
 8.9067507E+00  3.1990135E+01
 8.9182501E+00  3.1861729E+01
 8.9297504E+00  3.1685122E+01
 8.9412508E+00  3.1574566E+01
 8.9527502E+00  3.1506107E+01
 8.9642506E+00  3.1449238E+01
 8.9757500E+00  3.1317139E+01
 8.9872503E+00  3.1219732E+01
 8.9987507E+00  3.0999844E+01
 9.0102501E+00  3.0831509E+01
 9.0217505E+00  3.0570293E+01
 9.0332508E+00  3.0337870E+01
 9.0447502E+00  3.0160677E+01
 9.0562506E+00  2.9962866E+01
 9.0677500E+00  2.9910658E+01
 9.0792503E+00  2.9819157E+01
 9.0907507E+00  2.9699879E+01
 9.1022501E+00  2.9550583E+01
 9.1137505E+00  2.9464453E+01
 9.1252508E+00  2.9382923E+01
 9.1367502E+00  2.9229113E+01
 9.1482506E+00  2.9134432E+01
 9.1597500E+00  2.9013731E+01
 9.1712503E+00  2.8939306E+01
 9.1827507E+00  2.8791592E+01
 9.1942501E+00  2.8684900E+01
 9.2057505E+00  2.8553146E+01
 9.2172508E+00  2.8428452E+01
 9.2287502E+00  2.8313864E+01
 9.2402506E+00  2.8184769E+01
 9.2517500E+00  2.8088715E+01
 9.2632504E+00  2.7953314E+01
 9.2747507E+00  2.7817463E+01
 9.2862501E+00  2.7636370E+01
 9.2977505E+00  2.7487110E+01
 9.3092508E+00  2.7417812E+01
 9.3207502E+00  2.7347441E+01
 9.3322506E+00  2.7318350E+01
 9.3437500E+00  2.7210539E+01
 9.3552504E+00  2.7171312E+01
 9.3667507E+00  2.7048176E+01
 9.3782501E+00  2.7020235E+01
 9.3897505E+00  2.6939659E+01
 9.4012508E+00  2.6943121E+01
 9.4127502E+00  2.6919956E+01
 9.4242506E+00  2.6871502E+01
 9.4357500E+00  2.6728760E+01
 9.4472504E+00  2.6593075E+01
 9.4587507E+00  2.6467651E+01
 9.4702501E+00  2.6412989E+01
 9.4817505E+00  2.6398905E+01
 9.4932508E+00  2.6410780E+01
 9.5047503E+00  2.6447128E+01
 9.5162506E+00  2.6467796E+01
 9.5277500E+00  2.6459738E+01
 9.5392504E+00  2.6374126E+01
 9.5507507E+00  2.6229536E+01
 9.5622501E+00  2.6083715E+01
 9.5737505E+00  2.5970177E+01
 9.5852509E+00  2.5836317E+01
 9.5967503E+00  2.5816771E+01
 9.6082506E+00  2.5783459E+01
 9.6197500E+00  2.5787067E+01
 9.6312504E+00  2.5737652E+01
 9.6427507E+00  2.5682299E+01
 9.6542501E+00  2.5586168E+01
 9.6657505E+00  2.5464766E+01
 9.6772509E+00  2.5289129E+01
 9.6887503E+00  2.5161476E+01
 9.7002506E+00  2.5042877E+01
 9.7117500E+00  2.5001583E+01
 9.7232504E+00  2.5022692E+01
 9.7347507E+00  2.5001259E+01
 9.7462502E+00  2.5017839E+01
 9.7577505E+00  2.5028017E+01
 9.7692509E+00  2.5060905E+01
 9.7807503E+00  2.5076941E+01
 9.7922506E+00  2.5011446E+01
 9.8037500E+00  2.4984060E+01
 9.8152504E+00  2.4933697E+01
 9.8267508E+00  2.4872099E+01
 9.8382502E+00  2.4807684E+01
 9.8497505E+00  2.4736540E+01
 9.8612509E+00  2.4730072E+01
 9.8727503E+00  2.4689232E+01
 9.8842506E+00  2.4643988E+01
 9.8957500E+00  2.4616932E+01
 9.9072504E+00  2.4488077E+01
 9.9187508E+00  2.4460630E+01
 9.9302502E+00  2.4371920E+01
 9.9417505E+00  2.4419027E+01
 9.9532509E+00  2.4408125E+01
 9.9647503E+00  2.4393023E+01
 9.9762506E+00  2.4375008E+01
 9.9877501E+00  2.4328999E+01
 9.9992504E+00  2.4285704E+01
 1.0010751E+01  2.4179720E+01
 1.0022250E+01  2.4161003E+01
 1.0033751E+01  2.4143503E+01
 1.0045251E+01  2.4146553E+01
 1.0056750E+01  2.4118628E+01
 1.0068251E+01  2.4073751E+01
 1.0079750E+01  2.4064550E+01
 1.0091250E+01  2.4004837E+01
 1.0102751E+01  2.3981400E+01
 1.0114250E+01  2.3935875E+01
 1.0125751E+01  2.3936064E+01
 1.0137251E+01  2.3914577E+01
 1.0148750E+01  2.3923796E+01
 1.0160251E+01  2.3887182E+01
 1.0171750E+01  2.3847101E+01
 1.0183250E+01  2.3755091E+01
 1.0194751E+01  2.3710501E+01
 1.0206250E+01  2.3678671E+01
 1.0217751E+01  2.3762098E+01
 1.0229251E+01  2.3771196E+01
 1.0240750E+01  2.3794527E+01
 1.0252251E+01  2.3727085E+01
 1.0263750E+01  2.3657335E+01
 1.0275250E+01  2.3627489E+01
 1.0286751E+01  2.3600552E+01
 1.0298250E+01  2.3626701E+01
 1.0309751E+01  2.3664457E+01
 1.0321251E+01  2.3617445E+01
 1.0332750E+01  2.3630079E+01
 1.0344251E+01  2.3590441E+01
 1.0355750E+01  2.3569366E+01
 1.0367250E+01  2.3477642E+01
 1.0378751E+01  2.3383986E+01
 1.0390250E+01  2.3392717E+01
 1.0401751E+01  2.3411940E+01
 1.0413251E+01  2.3398792E+01
 1.0424750E+01  2.3302944E+01
 1.0436251E+01  2.3276459E+01
 1.0447750E+01  2.3254910E+01
 1.0459250E+01  2.3248178E+01
 1.0470751E+01  2.3197588E+01
 1.0482250E+01  2.3172970E+01
 1.0493751E+01  2.3194551E+01
 1.0505251E+01  2.3186691E+01
 1.0516750E+01  2.3191645E+01
 1.0528251E+01  2.3168545E+01
 1.0539750E+01  2.3087795E+01
 1.0551250E+01  2.3019423E+01
 1.0562751E+01  2.2955359E+01
 1.0574250E+01  2.2911066E+01
 1.0585751E+01  2.2851538E+01
 1.0597251E+01  2.2804760E+01
 1.0608750E+01  2.2817286E+01
 1.0620251E+01  2.2865364E+01
 1.0631750E+01  2.2914770E+01
 1.0643250E+01  2.2903461E+01
 1.0654751E+01  2.2938086E+01
 1.0666250E+01  2.2915945E+01
 1.0677751E+01  2.2911840E+01
 1.0689251E+01  2.2844492E+01
 1.0700750E+01  2.2818787E+01
 1.0712251E+01  2.2799753E+01
 1.0723750E+01  2.2788025E+01
 1.0735250E+01  2.2780401E+01
 1.0746751E+01  2.2791325E+01
 1.0758250E+01  2.2813431E+01
 1.0769751E+01  2.2826952E+01
 1.0781251E+01  2.2864483E+01
 1.0792750E+01  2.2861099E+01
 1.0804251E+01  2.2857256E+01
 1.0815750E+01  2.2797920E+01
 1.0827250E+01  2.2813093E+01
 1.0838751E+01  2.2729631E+01
 1.0850250E+01  2.2728720E+01
 1.0861751E+01  2.2658133E+01
 1.0873251E+01  2.2693710E+01
 1.0884750E+01  2.2680248E+01
 1.0896251E+01  2.2681417E+01
 1.0907750E+01  2.2691473E+01
 1.0919250E+01  2.2681313E+01
 1.0930751E+01  2.2632248E+01
 1.0942250E+01  2.2585779E+01
 1.0953751E+01  2.2579823E+01
 1.0965251E+01  2.2525766E+01
 1.0976750E+01  2.2521753E+01
 1.0988251E+01  2.2474577E+01
 1.0999750E+01  2.2551500E+01
 1.1011250E+01  2.2551468E+01
 1.1022751E+01  2.2581171E+01
 1.1034250E+01  2.2571583E+01
 1.1045751E+01  2.2544226E+01
 1.1057251E+01  2.2498001E+01
 1.1068750E+01  2.2425695E+01
 1.1080251E+01  2.2475410E+01
 1.1091750E+01  2.2533020E+01
 1.1103251E+01  2.2632771E+01
 1.1114751E+01  2.2657515E+01
 1.1126250E+01  2.2644300E+01
 1.1137751E+01  2.2613199E+01
 1.1149251E+01  2.2597849E+01
 1.1160750E+01  2.2591608E+01
 1.1172251E+01  2.2560787E+01
 1.1183750E+01  2.2512135E+01
 1.1195251E+01  2.2465994E+01
 1.1206751E+01  2.2498413E+01
 1.1218250E+01  2.2482906E+01
 1.1229751E+01  2.2484787E+01
 1.1241251E+01  2.2413252E+01
 1.1252750E+01  2.2362494E+01
 1.1264251E+01  2.2329479E+01
 1.1275750E+01  2.2348825E+01
 1.1287251E+01  2.2407887E+01
 1.1298751E+01  2.2464928E+01
 1.1310250E+01  2.2521217E+01
 1.1321751E+01  2.2551567E+01
 1.1333251E+01  2.2591722E+01
 1.1344750E+01  2.2570557E+01
 1.1356251E+01  2.2561390E+01
 1.1367750E+01  2.2550438E+01
 1.1379251E+01  2.2596306E+01
 1.1390751E+01  2.2620516E+01
 1.1402250E+01  2.2689535E+01
 1.1413751E+01  2.2648605E+01
 1.1425251E+01  2.2654797E+01
 1.1436750E+01  2.2627890E+01
 1.1448251E+01  2.2723444E+01
 1.1459750E+01  2.2797966E+01
 1.1471251E+01  2.2869745E+01
 1.1482751E+01  2.2947096E+01
 1.1494250E+01  2.3053768E+01
 1.1505751E+01  2.3224678E+01
 1.1517251E+01  2.3472832E+01
 1.1528750E+01  2.3889172E+01
 1.1540251E+01  2.4498547E+01
 1.1551750E+01  2.5265869E+01
 1.1563251E+01  2.6558943E+01
 1.1574751E+01  2.7839796E+01
 1.1586250E+01  2.9476244E+01
 1.1597751E+01  3.1284157E+01
 1.1609251E+01  3.1684158E+01
 1.1620750E+01  3.1243734E+01
 1.1632251E+01  2.9618317E+01
 1.1643750E+01  2.7962061E+01
 1.1655251E+01  2.6114693E+01
 1.1666751E+01  2.4401703E+01
 1.1678250E+01  2.3685518E+01
 1.1689751E+01  2.3278145E+01
 1.1701251E+01  2.3006922E+01
 1.1712750E+01  2.2896130E+01
 1.1724251E+01  2.2812468E+01
 1.1735750E+01  2.2771006E+01
 1.1747251E+01  2.2756210E+01
 1.1758751E+01  2.2719440E+01
 1.1770250E+01  2.2636648E+01
 1.1781751E+01  2.2550993E+01
 1.1793251E+01  2.2519039E+01
 1.1804750E+01  2.2525360E+01
 1.1816251E+01  2.2568352E+01
 1.1827750E+01  2.2629433E+01
 1.1839251E+01  2.2648146E+01
 1.1850751E+01  2.2610983E+01
 1.1862250E+01  2.2584188E+01
 1.1873751E+01  2.2562437E+01
 1.1885251E+01  2.2570032E+01
 1.1896750E+01  2.2602329E+01
 1.1908251E+01  2.2666656E+01
 1.1919750E+01  2.2830887E+01
 1.1931251E+01  2.3079678E+01
 1.1942751E+01  2.3279020E+01
 1.1954250E+01  2.3948830E+01
 1.1965751E+01  2.4213900E+01
 1.1977251E+01  2.4537741E+01
 1.1988750E+01  2.4753517E+01
 1.2000251E+01  2.4696604E+01
 1.2011750E+01  2.4665060E+01
 1.2023251E+01  2.4097929E+01
 1.2034751E+01  2.4001448E+01
 1.2046250E+01  2.3912401E+01
 1.2057751E+01  2.3940126E+01
 1.2069251E+01  2.4609337E+01
 1.2080750E+01  2.5113600E+01
 1.2092251E+01  2.5679361E+01
 1.2103750E+01  2.6015255E+01
 1.2115251E+01  2.5893492E+01
 1.2126751E+01  2.5570730E+01
 1.2138250E+01  2.4805622E+01
 1.2149751E+01  2.4285261E+01
 1.2161251E+01  2.3799932E+01
 1.2172750E+01  2.3332603E+01
 1.2184251E+01  2.3156935E+01
 1.2195750E+01  2.2960459E+01
 1.2207251E+01  2.2863310E+01
 1.2218751E+01  2.2689192E+01
 1.2230250E+01  2.2635729E+01
 1.2241751E+01  2.2519228E+01
 1.2253251E+01  2.2492390E+01
 1.2264750E+01  2.2499502E+01
 1.2276251E+01  2.2535944E+01
 1.2287750E+01  2.2606264E+01
 1.2299251E+01  2.2565557E+01
 1.2310751E+01  2.2642658E+01
 1.2322250E+01  2.2594360E+01
 1.2333751E+01  2.2646839E+01
 1.2345250E+01  2.2598740E+01
 1.2356750E+01  2.2672813E+01
 1.2368251E+01  2.2657661E+01
 1.2379750E+01  2.2699125E+01
 1.2391251E+01  2.2646469E+01
 1.2402751E+01  2.2645634E+01
 1.2414250E+01  2.2617954E+01
 1.2425751E+01  2.2658817E+01
 1.2437250E+01  2.2660786E+01
 1.2448750E+01  2.2653467E+01
 1.2460251E+01  2.2671118E+01
 1.2471750E+01  2.2677984E+01
 1.2483251E+01  2.2710419E+01
 1.2494751E+01  2.2674852E+01
 1.2506250E+01  2.2644094E+01
 1.2517751E+01  2.2559086E+01
 1.2529250E+01  2.2558910E+01
 1.2540751E+01  2.2611519E+01
 1.2552251E+01  2.2711557E+01
 1.2563750E+01  2.2746670E+01
 1.2575251E+01  2.2792761E+01
 1.2586751E+01  2.2783432E+01
 1.2598250E+01  2.2804384E+01
 1.2609751E+01  2.2822186E+01
 1.2621250E+01  2.2888433E+01
 1.2632751E+01  2.2891191E+01
 1.2644251E+01  2.2830147E+01
 1.2655750E+01  2.2805273E+01
 1.2667251E+01  2.2834900E+01
 1.2678751E+01  2.2867260E+01
 1.2690250E+01  2.2892834E+01
 1.2701751E+01  2.2884651E+01
 1.2713250E+01  2.2931431E+01
 1.2724751E+01  2.2935532E+01
 1.2736251E+01  2.2969011E+01
 1.2747750E+01  2.3026321E+01
 1.2759251E+01  2.3054935E+01
 1.2770751E+01  2.3082880E+01
 1.2782250E+01  2.3118881E+01
 1.2793751E+01  2.3170538E+01
 1.2805250E+01  2.3225674E+01
 1.2816751E+01  2.3218555E+01
 1.2828251E+01  2.3244865E+01
 1.2839750E+01  2.3213694E+01
 1.2851251E+01  2.3246014E+01
 1.2862751E+01  2.3318119E+01
 1.2874250E+01  2.3424353E+01
 1.2885751E+01  2.3502726E+01
 1.2897250E+01  2.3548122E+01
 1.2908751E+01  2.3620758E+01
 1.2920251E+01  2.3642284E+01
 1.2931750E+01  2.3741659E+01
 1.2943251E+01  2.3788443E+01
 1.2954751E+01  2.3811201E+01
 1.2966250E+01  2.3807430E+01
 1.2977751E+01  2.3800850E+01
 1.2989250E+01  2.3833151E+01
 1.3000751E+01  2.3881470E+01
 1.3012251E+01  2.3993570E+01
 1.3023750E+01  2.4105341E+01
 1.3035251E+01  2.4201748E+01
 1.3046751E+01  2.4270203E+01
 1.3058250E+01  2.4371117E+01
 1.3069751E+01  2.4433447E+01
 1.3081250E+01  2.4524910E+01
 1.3092751E+01  2.4674610E+01
 1.3104251E+01  2.4860327E+01
 1.3115750E+01  2.5056416E+01
 1.3127251E+01  2.5157274E+01
 1.3138751E+01  2.5199335E+01
 1.3150250E+01  2.5294092E+01
 1.3161751E+01  2.5373613E+01
 1.3173250E+01  2.5543083E+01
 1.3184751E+01  2.5642862E+01
 1.3196251E+01  2.5796839E+01
 1.3207750E+01  2.5885120E+01
 1.3219251E+01  2.6003628E+01
 1.3230751E+01  2.6119083E+01
 1.3242250E+01  2.6288721E+01
 1.3253751E+01  2.6431242E+01
 1.3265250E+01  2.6607609E+01
 1.3276751E+01  2.6731426E+01
 1.3288251E+01  2.6867691E+01
 1.3299750E+01  2.6987518E+01
 1.3311251E+01  2.7127342E+01
 1.3322751E+01  2.7323090E+01
 1.3334250E+01  2.7481953E+01
 1.3345751E+01  2.7651598E+01
 1.3357250E+01  2.7827133E+01
 1.3368751E+01  2.7916801E+01
 1.3380251E+01  2.8053755E+01
 1.3391750E+01  2.8168901E+01
 1.3403251E+01  2.8373922E+01
 1.3414751E+01  2.8471581E+01
 1.3426250E+01  2.8566320E+01
 1.3437751E+01  2.8618893E+01
 1.3449250E+01  2.8674957E+01
 1.3460751E+01  2.8727449E+01
 1.3472251E+01  2.8813988E+01
 1.3483750E+01  2.8923172E+01
 1.3495251E+01  2.9039507E+01
 1.3506751E+01  2.9142916E+01
 1.3518250E+01  2.9273203E+01
 1.3529751E+01  2.9365185E+01
 1.3541250E+01  2.9568607E+01
 1.3552751E+01  2.9640808E+01
 1.3564251E+01  2.9687111E+01
 1.3575750E+01  2.9639111E+01
 1.3587251E+01  2.9644053E+01
 1.3598751E+01  2.9714521E+01
 1.3610250E+01  2.9730925E+01
 1.3621751E+01  2.9813345E+01
 1.3633250E+01  2.9817604E+01
 1.3644751E+01  2.9906355E+01
 1.3656251E+01  2.9913275E+01
 1.3667750E+01  2.9969790E+01
 1.3679251E+01  3.0005293E+01
 1.3690751E+01  3.0006031E+01
 1.3702250E+01  2.9985760E+01
 1.3713751E+01  2.9968182E+01
 1.3725250E+01  2.9989635E+01
 1.3736751E+01  3.0041927E+01
 1.3748251E+01  3.0046751E+01
 1.3759750E+01  3.0101757E+01
 1.3771251E+01  3.0101030E+01
 1.3782751E+01  3.0169956E+01
 1.3794250E+01  3.0214476E+01
 1.3805751E+01  3.0335878E+01
 1.3817250E+01  3.0479244E+01
 1.3828751E+01  3.0675644E+01
 1.3840251E+01  3.1031002E+01
 1.3851750E+01  3.1507786E+01
 1.3863251E+01  3.2511417E+01
 1.3874751E+01  3.4181412E+01
 1.3886250E+01  3.6093933E+01
 1.3897751E+01  4.1869980E+01
 1.3909250E+01  4.5690769E+01
 1.3920751E+01  5.3097782E+01
 1.3932251E+01  6.1653950E+01
 1.3943750E+01  6.4028191E+01
 1.3955251E+01  6.6509491E+01
 1.3966751E+01  6.1711643E+01
 1.3978251E+01  5.8824947E+01
 1.3989751E+01  5.0510128E+01
 1.4001250E+01  4.3603729E+01
 1.4012751E+01  3.9353779E+01
 1.4024251E+01  3.5074051E+01
 1.4035750E+01  3.2657761E+01
 1.4047251E+01  3.1010029E+01
 1.4058751E+01  2.9917334E+01
 1.4070251E+01  2.9316414E+01
 1.4081751E+01  2.8935915E+01
 1.4093250E+01  2.8633432E+01
 1.4104751E+01  2.8388222E+01
 1.4116251E+01  2.8138582E+01
 1.4127750E+01  2.7925701E+01
 1.4139251E+01  2.7763918E+01
 1.4150751E+01  2.7624783E+01
 1.4162251E+01  2.7529110E+01
 1.4173751E+01  2.7451929E+01
 1.4185250E+01  2.7266212E+01
 1.4196751E+01  2.7129204E+01
 1.4208251E+01  2.6934978E+01
 1.4219750E+01  2.6859018E+01
 1.4231251E+01  2.6667049E+01
 1.4242751E+01  2.6591475E+01
 1.4254251E+01  2.6523954E+01
 1.4265751E+01  2.6515995E+01
 1.4277250E+01  2.6477188E+01
 1.4288751E+01  2.6406952E+01
 1.4300251E+01  2.6359762E+01
 1.4311750E+01  2.6282951E+01
 1.4323251E+01  2.6267872E+01
 1.4334751E+01  2.6277889E+01
 1.4346251E+01  2.6262844E+01
 1.4357751E+01  2.6234974E+01
 1.4369250E+01  2.6174963E+01
 1.4380751E+01  2.6191109E+01
 1.4392251E+01  2.6105137E+01
 1.4403750E+01  2.6082943E+01
 1.4415251E+01  2.5976561E+01
 1.4426751E+01  2.5945215E+01
 1.4438251E+01  2.5890245E+01
 1.4449751E+01  2.5849062E+01
 1.4461250E+01  2.5824451E+01
 1.4472751E+01  2.5741459E+01
 1.4484251E+01  2.5677792E+01
 1.4495750E+01  2.5632698E+01
 1.4507251E+01  2.5632288E+01
 1.4518751E+01  2.5593538E+01
 1.4530251E+01  2.5530363E+01
 1.4541751E+01  2.5493845E+01
 1.4553250E+01  2.5507633E+01
 1.4564751E+01  2.5502327E+01
 1.4576251E+01  2.5500008E+01
 1.4587750E+01  2.5409937E+01
 1.4599251E+01  2.5355949E+01
 1.4610751E+01  2.5302330E+01
 1.4622251E+01  2.5367336E+01
 1.4633751E+01  2.5360523E+01
 1.4645250E+01  2.5351061E+01
 1.4656751E+01  2.5293051E+01
 1.4668251E+01  2.5217649E+01
 1.4679750E+01  2.5184853E+01
 1.4691251E+01  2.5182632E+01
 1.4702751E+01  2.5195469E+01
 1.4714251E+01  2.5188862E+01
 1.4725751E+01  2.5151382E+01
 1.4737250E+01  2.5109890E+01
 1.4748751E+01  2.5078110E+01
 1.4760251E+01  2.5001863E+01
 1.4771750E+01  2.5032415E+01
 1.4783251E+01  2.4996624E+01
 1.4794751E+01  2.5056698E+01
 1.4806251E+01  2.5016365E+01
 1.4817751E+01  2.4968071E+01
 1.4829250E+01  2.4858253E+01
 1.4840751E+01  2.4776245E+01
 1.4852251E+01  2.4724432E+01
 1.4863750E+01  2.4698381E+01
 1.4875251E+01  2.4675787E+01
 1.4886751E+01  2.4720413E+01
 1.4898251E+01  2.4771238E+01
 1.4909751E+01  2.4939470E+01
 1.4921250E+01  2.4969536E+01
 1.4932751E+01  2.4983246E+01
 1.4944251E+01  2.4929129E+01
 1.4955750E+01  2.4908072E+01
 1.4967251E+01  2.4867743E+01
 1.4978751E+01  2.4828789E+01
 1.4990251E+01  2.4810749E+01
 1.5001751E+01  2.4849445E+01
 1.5013250E+01  2.4893024E+01
 1.5024751E+01  2.4951977E+01
 1.5036251E+01  2.4937338E+01
 1.5047750E+01  2.4871187E+01
 1.5059251E+01  2.4827549E+01
 1.5070751E+01  2.4808161E+01
 1.5082251E+01  2.4775835E+01
 1.5093751E+01  2.4804905E+01
 1.5105250E+01  2.4891563E+01
 1.5116751E+01  2.5063223E+01
 1.5128251E+01  2.5230551E+01
 1.5139750E+01  2.5504663E+01
 1.5151251E+01  2.5854710E+01
 1.5162751E+01  2.6500374E+01
 1.5174251E+01  2.7138884E+01
 1.5185751E+01  2.7522257E+01
 1.5197250E+01  2.7969730E+01
 1.5208751E+01  2.7812023E+01
 1.5220251E+01  2.7817066E+01
 1.5231750E+01  2.7118608E+01
 1.5243251E+01  2.6642382E+01
 1.5254751E+01  2.5988810E+01
 1.5266251E+01  2.5408766E+01
 1.5277751E+01  2.5136883E+01
 1.5289250E+01  2.4910513E+01
 1.5300751E+01  2.4834103E+01
 1.5312251E+01  2.4754972E+01
 1.5323750E+01  2.4704262E+01
 1.5335251E+01  2.4697554E+01
 1.5346751E+01  2.4684446E+01
 1.5358251E+01  2.4681217E+01
 1.5369751E+01  2.4689058E+01
 1.5381250E+01  2.4733593E+01
 1.5392751E+01  2.4746519E+01
 1.5404251E+01  2.4773680E+01
 1.5415751E+01  2.4730312E+01
 1.5427251E+01  2.4714657E+01
 1.5438751E+01  2.4697403E+01
 1.5450251E+01  2.4688066E+01
 1.5461751E+01  2.4616116E+01
 1.5473250E+01  2.4520073E+01
 1.5484751E+01  2.4493904E+01
 1.5496251E+01  2.4500643E+01
 1.5507751E+01  2.4523710E+01
 1.5519251E+01  2.4519577E+01
 1.5530751E+01  2.4507654E+01
 1.5542251E+01  2.4518679E+01
 1.5553751E+01  2.4496225E+01
 1.5565250E+01  2.4572868E+01
 1.5576751E+01  2.4600967E+01
 1.5588251E+01  2.4700954E+01
 1.5599751E+01  2.4717083E+01
 1.5611251E+01  2.4735783E+01
 1.5622751E+01  2.4764912E+01
 1.5634251E+01  2.4772598E+01
 1.5645751E+01  2.4771160E+01
 1.5657250E+01  2.4757599E+01
 1.5668751E+01  2.4733871E+01
 1.5680251E+01  2.4744122E+01
 1.5691751E+01  2.4699701E+01
 1.5703251E+01  2.4741198E+01
 1.5714751E+01  2.4701750E+01
 1.5726251E+01  2.4672249E+01
 1.5737751E+01  2.4585648E+01
 1.5749250E+01  2.4533762E+01
 1.5760751E+01  2.4504793E+01
 1.5772251E+01  2.4525858E+01
 1.5783751E+01  2.4538528E+01
 1.5795251E+01  2.4557539E+01
 1.5806751E+01  2.4605871E+01
 1.5818251E+01  2.4581987E+01
 1.5829751E+01  2.4535563E+01
 1.5841250E+01  2.4479183E+01
 1.5852751E+01  2.4511089E+01
 1.5864251E+01  2.4488348E+01
 1.5875751E+01  2.4510061E+01
 1.5887251E+01  2.4506016E+01
 1.5898750E+01  2.4522970E+01
 1.5910251E+01  2.4568705E+01
 1.5921751E+01  2.4545156E+01
 1.5933250E+01  2.4555574E+01
 1.5944751E+01  2.4505970E+01
 1.5956251E+01  2.4554226E+01
 1.5967751E+01  2.4588459E+01
 1.5979251E+01  2.4602034E+01
 1.5990750E+01  2.4607012E+01
 1.6002251E+01  2.4548763E+01
 1.6013750E+01  2.4536329E+01
 1.6025251E+01  2.4522545E+01
 1.6036751E+01  2.4564720E+01
 1.6048250E+01  2.4618412E+01
 1.6059752E+01  2.4713697E+01
 1.6071251E+01  2.4709465E+01
 1.6082750E+01  2.4762587E+01
 1.6094252E+01  2.4773102E+01
 1.6105751E+01  2.4823841E+01
 1.6117250E+01  2.4817032E+01
 1.6128750E+01  2.4799133E+01
 1.6140251E+01  2.4827953E+01
 1.6151751E+01  2.4848577E+01
 1.6163250E+01  2.4949863E+01
 1.6174751E+01  2.4948380E+01
 1.6186251E+01  2.5113453E+01
 1.6197750E+01  2.5093058E+01
 1.6209251E+01  2.5451433E+01
 1.6220751E+01  2.5480196E+01
 1.6232250E+01  2.5940434E+01
 1.6243752E+01  2.6072786E+01
 1.6255251E+01  2.6345427E+01
 1.6266750E+01  2.6477768E+01
 1.6278252E+01  2.6234041E+01
 1.6289751E+01  2.6224106E+01
 1.6301250E+01  2.5576887E+01
 1.6312750E+01  2.5547859E+01
 1.6324251E+01  2.5048120E+01
 1.6335751E+01  2.5048683E+01
 1.6347250E+01  2.4841957E+01
 1.6358751E+01  2.4800091E+01
 1.6370251E+01  2.4714043E+01
 1.6381750E+01  2.4670963E+01
 1.6393251E+01  2.4717438E+01
 1.6404751E+01  2.4736244E+01
 1.6416250E+01  2.4790037E+01
 1.6427752E+01  2.4752468E+01
 1.6439251E+01  2.4727121E+01
 1.6450750E+01  2.4649532E+01
 1.6462252E+01  2.4603577E+01
 1.6473751E+01  2.4547318E+01
 1.6485250E+01  2.4594618E+01
 1.6496750E+01  2.4613297E+01
 1.6508251E+01  2.4626345E+01
 1.6519751E+01  2.4592970E+01
 1.6531250E+01  2.4602337E+01
 1.6542751E+01  2.4616037E+01
 1.6554251E+01  2.4590107E+01
 1.6565750E+01  2.4572157E+01
 1.6577251E+01  2.4590559E+01
 1.6588751E+01  2.4626205E+01
 1.6600250E+01  2.4620888E+01
 1.6611752E+01  2.4638065E+01
 1.6623251E+01  2.4609127E+01
 1.6634750E+01  2.4606483E+01
 1.6646252E+01  2.4616600E+01
 1.6657751E+01  2.4648500E+01
 1.6669250E+01  2.4677929E+01
 1.6680750E+01  2.4674023E+01
 1.6692251E+01  2.4661467E+01
 1.6703751E+01  2.4584528E+01
 1.6715250E+01  2.4561241E+01
 1.6726751E+01  2.4559525E+01
 1.6738251E+01  2.4580828E+01
 1.6749750E+01  2.4565228E+01
 1.6761251E+01  2.4574408E+01
 1.6772751E+01  2.4616213E+01
 1.6784250E+01  2.4611732E+01
 1.6795752E+01  2.4582928E+01
 1.6807251E+01  2.4494110E+01
 1.6818750E+01  2.4449549E+01
 1.6830252E+01  2.4348688E+01
 1.6841751E+01  2.4305071E+01
 1.6853251E+01  2.4264803E+01
 1.6864750E+01  2.4324160E+01
 1.6876251E+01  2.4339655E+01
 1.6887751E+01  2.4334394E+01
 1.6899250E+01  2.4307251E+01
 1.6910751E+01  2.4291506E+01
 1.6922251E+01  2.4308632E+01
 1.6933750E+01  2.4318941E+01
 1.6945251E+01  2.4358925E+01
 1.6956751E+01  2.4366562E+01
 1.6968250E+01  2.4389799E+01
 1.6979752E+01  2.4380039E+01
 1.6991251E+01  2.4350016E+01
 1.7002750E+01  2.4294746E+01
 1.7014252E+01  2.4324400E+01
 1.7025751E+01  2.4294048E+01
 1.7037251E+01  2.4260973E+01
 1.7048750E+01  2.4145931E+01
 1.7060251E+01  2.4132998E+01
 1.7071751E+01  2.4148726E+01
 1.7083250E+01  2.4210232E+01
 1.7094751E+01  2.4214174E+01
 1.7106251E+01  2.4201029E+01
 1.7117750E+01  2.4179146E+01
 1.7129251E+01  2.4167509E+01
 1.7140751E+01  2.4180943E+01
 1.7152250E+01  2.4106443E+01
 1.7163752E+01  2.4078945E+01
 1.7175251E+01  2.4056650E+01
 1.7186750E+01  2.4111574E+01
 1.7198252E+01  2.4115873E+01
 1.7209751E+01  2.4099560E+01
 1.7221251E+01  2.4134453E+01
 1.7232750E+01  2.4142380E+01
 1.7244251E+01  2.4193975E+01
 1.7255751E+01  2.4115108E+01
 1.7267250E+01  2.4103888E+01
 1.7278751E+01  2.4054682E+01
 1.7290251E+01  2.4064720E+01
 1.7301750E+01  2.4110516E+01
 1.7313251E+01  2.4143198E+01
 1.7324751E+01  2.4149012E+01
 1.7336250E+01  2.4053007E+01
 1.7347752E+01  2.4007269E+01
 1.7359251E+01  2.4001287E+01
 1.7370750E+01  2.4005808E+01
 1.7382252E+01  2.3972040E+01
 1.7393751E+01  2.3923265E+01
 1.7405251E+01  2.3897743E+01
 1.7416750E+01  2.3904232E+01
 1.7428251E+01  2.4004822E+01
 1.7439751E+01  2.4069773E+01
 1.7451250E+01  2.4086714E+01
 1.7462751E+01  2.4094261E+01
 1.7474251E+01  2.4078085E+01
 1.7485750E+01  2.4125294E+01
 1.7497252E+01  2.4106153E+01
 1.7508751E+01  2.4104307E+01
 1.7520250E+01  2.3999771E+01
 1.7531752E+01  2.3934803E+01
 1.7543251E+01  2.3927368E+01
 1.7554750E+01  2.3915459E+01
 1.7566252E+01  2.3913786E+01
 1.7577751E+01  2.3892576E+01
 1.7589251E+01  2.3876802E+01
 1.7600750E+01  2.3921473E+01
 1.7612251E+01  2.3917723E+01
 1.7623751E+01  2.3968737E+01
 1.7635250E+01  2.3896122E+01
 1.7646751E+01  2.3881662E+01
 1.7658251E+01  2.3789148E+01
 1.7669750E+01  2.3755068E+01
 1.7681252E+01  2.3732456E+01
 1.7692751E+01  2.3750263E+01
 1.7704250E+01  2.3735058E+01
 1.7715752E+01  2.3671787E+01
 1.7727251E+01  2.3652407E+01
 1.7738750E+01  2.3631006E+01
 1.7750252E+01  2.3687868E+01
 1.7761751E+01  2.3715521E+01
 1.7773251E+01  2.3790071E+01
 1.7784750E+01  2.3773346E+01
 1.7796251E+01  2.3792345E+01
 1.7807751E+01  2.3793865E+01
 1.7819250E+01  2.3836689E+01
 1.7830751E+01  2.3873400E+01
 1.7842251E+01  2.3881554E+01
 1.7853750E+01  2.3879593E+01
 1.7865252E+01  2.3815695E+01
 1.7876751E+01  2.3798296E+01
 1.7888250E+01  2.3773954E+01
 1.7899752E+01  2.3764309E+01
 1.7911251E+01  2.3785778E+01
 1.7922750E+01  2.3839664E+01
 1.7934252E+01  2.3871868E+01
 1.7945751E+01  2.3885067E+01
 1.7957251E+01  2.3874601E+01
 1.7968750E+01  2.3914625E+01
 1.7980251E+01  2.4067814E+01
 1.7991751E+01  2.4249037E+01
 1.8003250E+01  2.4487139E+01
 1.8014751E+01  2.4560091E+01
 1.8026251E+01  2.4701860E+01
 1.8037750E+01  2.4965616E+01
 1.8049252E+01  2.5238132E+01
 1.8060751E+01  2.5793934E+01
 1.8072250E+01  2.6290487E+01
 1.8083752E+01  2.7068789E+01
 1.8095251E+01  2.7623604E+01
 1.8106750E+01  2.8117672E+01
 1.8118252E+01  2.8243832E+01
 1.8129751E+01  2.7913067E+01
 1.8141251E+01  2.7281122E+01
 1.8152750E+01  2.6429977E+01
 1.8164251E+01  2.5647053E+01
 1.8175751E+01  2.5001188E+01
 1.8187250E+01  2.4536625E+01
 1.8198751E+01  2.4228386E+01
 1.8210251E+01  2.4033863E+01
 1.8221750E+01  2.3940931E+01
 1.8233252E+01  2.3864458E+01
 1.8244751E+01  2.3758110E+01
 1.8256250E+01  2.3676003E+01
 1.8267752E+01  2.3658308E+01
 1.8279251E+01  2.3631151E+01
 1.8290751E+01  2.3638012E+01
 1.8302252E+01  2.3596350E+01
 1.8313751E+01  2.3594002E+01
 1.8325251E+01  2.3598490E+01
 1.8336750E+01  2.3631887E+01
 1.8348251E+01  2.3682924E+01
 1.8359751E+01  2.3667492E+01
 1.8371250E+01  2.3638807E+01
 1.8382751E+01  2.3627798E+01
 1.8394251E+01  2.3670984E+01
 1.8405750E+01  2.3698162E+01
 1.8417252E+01  2.3654507E+01
 1.8428751E+01  2.3597527E+01
 1.8440250E+01  2.3547731E+01
 1.8451752E+01  2.3592436E+01
 1.8463251E+01  2.3738777E+01
 1.8474751E+01  2.3788820E+01
 1.8486252E+01  2.3808186E+01
 1.8497751E+01  2.3739014E+01
 1.8509251E+01  2.3740299E+01
 1.8520750E+01  2.3554811E+01
 1.8532251E+01  2.3524118E+01
 1.8543751E+01  2.3474411E+01
 1.8555250E+01  2.3500174E+01
 1.8566751E+01  2.3514343E+01
 1.8578251E+01  2.3545280E+01
 1.8589750E+01  2.3613541E+01
 1.8601252E+01  2.3611904E+01
 1.8612751E+01  2.3596607E+01
 1.8624250E+01  2.3521303E+01
 1.8635752E+01  2.3491894E+01
 1.8647251E+01  2.3470173E+01
 1.8658751E+01  2.3432360E+01
 1.8670252E+01  2.3445326E+01
 1.8681751E+01  2.3470461E+01
 1.8693251E+01  2.3517685E+01
 1.8704750E+01  2.3514513E+01
 1.8716251E+01  2.3495087E+01
 1.8727751E+01  2.3490091E+01
 1.8739250E+01  2.3482010E+01
 1.8750751E+01  2.3485891E+01
 1.8762251E+01  2.3435154E+01
 1.8773750E+01  2.3411745E+01
 1.8785252E+01  2.3395761E+01
 1.8796751E+01  2.3431740E+01
 1.8808250E+01  2.3445984E+01
 1.8819752E+01  2.3495861E+01
 1.8831251E+01  2.3547523E+01
 1.8842751E+01  2.3613934E+01
 1.8854252E+01  2.3583788E+01
 1.8865751E+01  2.3551506E+01
 1.8877251E+01  2.3499662E+01
 1.8888750E+01  2.3491203E+01
 1.8900251E+01  2.3487288E+01
 1.8911751E+01  2.3503870E+01
 1.8923250E+01  2.3573589E+01
 1.8934752E+01  2.3621702E+01
 1.8946251E+01  2.3700977E+01
 1.8957750E+01  2.3621628E+01
 1.8969252E+01  2.3559208E+01
 1.8980751E+01  2.3466356E+01
 1.8992250E+01  2.3463814E+01
 1.9003752E+01  2.3458378E+01
 1.9015251E+01  2.3502214E+01
 1.9026751E+01  2.3580122E+01
 1.9038252E+01  2.3652321E+01
 1.9049751E+01  2.3672899E+01
 1.9061251E+01  2.3617294E+01
 1.9072750E+01  2.3578022E+01
 1.9084251E+01  2.3563972E+01
 1.9095751E+01  2.3584024E+01
 1.9107250E+01  2.3557474E+01
 1.9118752E+01  2.3549225E+01
 1.9130251E+01  2.3577829E+01
 1.9141750E+01  2.3578587E+01
 1.9153252E+01  2.3554083E+01
 1.9164751E+01  2.3457535E+01
 1.9176250E+01  2.3427670E+01
 1.9187752E+01  2.3432241E+01
 1.9199251E+01  2.3434145E+01
 1.9210751E+01  2.3474268E+01
 1.9222252E+01  2.3471010E+01
 1.9233751E+01  2.3463997E+01
 1.9245251E+01  2.3449884E+01
 1.9256750E+01  2.3521532E+01
 1.9268251E+01  2.3603754E+01
 1.9279751E+01  2.3561954E+01
 1.9291250E+01  2.3534369E+01
 1.9302752E+01  2.3512798E+01
 1.9314251E+01  2.3550131E+01
 1.9325750E+01  2.3575481E+01
 1.9337252E+01  2.3634178E+01
 1.9348751E+01  2.3641432E+01
 1.9360250E+01  2.3636141E+01
 1.9371752E+01  2.3631941E+01
 1.9383251E+01  2.3655420E+01
 1.9394751E+01  2.3714767E+01
 1.9406250E+01  2.3725416E+01
 1.9417751E+01  2.3721256E+01
 1.9429251E+01  2.3681269E+01
 1.9440750E+01  2.3635042E+01
 1.9452251E+01  2.3593191E+01
 1.9463751E+01  2.3552288E+01
 1.9475250E+01  2.3535961E+01
 1.9486752E+01  2.3536444E+01
 1.9498251E+01  2.3525291E+01
 1.9509750E+01  2.3541891E+01
 1.9521252E+01  2.3574066E+01
 1.9532751E+01  2.3629351E+01
 1.9544250E+01  2.3727394E+01
 1.9555752E+01  2.3745720E+01
 1.9567251E+01  2.3815601E+01
 1.9578751E+01  2.3864790E+01
 1.9590250E+01  2.3960947E+01
 1.9601751E+01  2.4041674E+01
 1.9613251E+01  2.4145321E+01
 1.9624750E+01  2.4298458E+01
 1.9636251E+01  2.4489576E+01
 1.9647751E+01  2.4755344E+01
 1.9659250E+01  2.5200836E+01
 1.9670752E+01  2.5847778E+01
 1.9682251E+01  2.6831774E+01
 1.9693750E+01  2.8190498E+01
 1.9705252E+01  2.9456627E+01
 1.9716751E+01  3.0992750E+01
 1.9728251E+01  3.1707094E+01
 1.9739752E+01  3.1816721E+01
 1.9751251E+01  3.0989340E+01
 1.9762751E+01  2.9784061E+01
 1.9774250E+01  2.8506659E+01
 1.9785751E+01  2.7401552E+01
 1.9797251E+01  2.6720016E+01
 1.9808750E+01  2.6453840E+01
 1.9820251E+01  2.6686367E+01
 1.9831751E+01  2.7242321E+01
 1.9843250E+01  2.7989325E+01
 1.9854752E+01  2.8773300E+01
 1.9866251E+01  2.9416412E+01
 1.9877750E+01  2.9612448E+01
 1.9889252E+01  2.9237663E+01
 1.9900751E+01  2.8498417E+01
 1.9912251E+01  2.7515596E+01
 1.9923752E+01  2.6406967E+01
 1.9935251E+01  2.5500618E+01
 1.9946751E+01  2.4839432E+01
 1.9958250E+01  2.4428211E+01
 1.9969751E+01  2.4232738E+01
 1.9981251E+01  2.4091433E+01
 1.9992750E+01  2.3984608E+01
 2.0004251E+01  2.3897633E+01
 2.0015751E+01  2.3848413E+01
 2.0027250E+01  2.3779617E+01
 2.0038752E+01  2.3774900E+01
 2.0050251E+01  2.3762550E+01
 2.0061750E+01  2.3739212E+01
 2.0073252E+01  2.3735693E+01
 2.0084751E+01  2.3731754E+01
 2.0096251E+01  2.3766459E+01
 2.0107752E+01  2.3761448E+01
 2.0119251E+01  2.3806196E+01
 2.0130751E+01  2.3763039E+01
 2.0142250E+01  2.3767658E+01
 2.0153751E+01  2.3748108E+01
 2.0165251E+01  2.3745554E+01
 2.0176750E+01  2.3703856E+01
 2.0188251E+01  2.3653193E+01
 2.0199751E+01  2.3636293E+01
 2.0211250E+01  2.3641882E+01
 2.0222752E+01  2.3698471E+01
 2.0234251E+01  2.3755960E+01
 2.0245750E+01  2.3790936E+01
 2.0257252E+01  2.3805634E+01
 2.0268751E+01  2.3799799E+01
 2.0280251E+01  2.3836353E+01
 2.0291752E+01  2.3786860E+01
 2.0303251E+01  2.3710093E+01
 2.0314751E+01  2.3702084E+01
 2.0326250E+01  2.3724697E+01
 2.0337751E+01  2.3764196E+01
 2.0349251E+01  2.3771961E+01
 2.0360750E+01  2.3816135E+01
 2.0372252E+01  2.3792450E+01
 2.0383751E+01  2.3753674E+01
 2.0395250E+01  2.3728903E+01
 2.0406752E+01  2.3747316E+01
 2.0418251E+01  2.3750189E+01
 2.0429750E+01  2.3771557E+01
 2.0441252E+01  2.3794847E+01
 2.0452751E+01  2.3845675E+01
 2.0464251E+01  2.3852697E+01
 2.0475752E+01  2.3822945E+01
 2.0487251E+01  2.3778563E+01
 2.0498751E+01  2.3725203E+01
 2.0510250E+01  2.3680393E+01
 2.0521751E+01  2.3607952E+01
 2.0533251E+01  2.3632681E+01
 2.0544750E+01  2.3663103E+01
 2.0556252E+01  2.3737701E+01
 2.0567751E+01  2.3739044E+01
 2.0579250E+01  2.3749409E+01
 2.0590752E+01  2.3804279E+01
 2.0602251E+01  2.3892179E+01
 2.0613750E+01  2.3949425E+01
 2.0625252E+01  2.3979458E+01
 2.0636751E+01  2.3981615E+01
 2.0648251E+01  2.4002436E+01
 2.0659752E+01  2.4075846E+01
 2.0671251E+01  2.4228880E+01
 2.0682751E+01  2.4413729E+01
 2.0694250E+01  2.4824389E+01
 2.0705751E+01  2.5296116E+01
 2.0717251E+01  2.6008385E+01
 2.0728750E+01  2.6635502E+01
 2.0740252E+01  2.7124397E+01
 2.0751751E+01  2.7352991E+01
 2.0763250E+01  2.7232706E+01
 2.0774752E+01  2.6939070E+01
 2.0786251E+01  2.6354904E+01
 2.0797750E+01  2.5874950E+01
 2.0809252E+01  2.5280571E+01
 2.0820751E+01  2.4875858E+01
 2.0832251E+01  2.4565889E+01
 2.0843752E+01  2.4375311E+01
 2.0855251E+01  2.4217813E+01
 2.0866751E+01  2.4102772E+01
 2.0878250E+01  2.4050335E+01
 2.0889751E+01  2.4046335E+01
 2.0901251E+01  2.4036783E+01
 2.0912750E+01  2.4022831E+01
 2.0924252E+01  2.4003521E+01
 2.0935751E+01  2.4001173E+01
 2.0947250E+01  2.4001839E+01
 2.0958752E+01  2.3935745E+01
 2.0970251E+01  2.4167458E+01
 2.0981750E+01  2.4196407E+01
 2.0993252E+01  2.4284714E+01
 2.1004751E+01  2.4139820E+01
 2.1016251E+01  2.4143288E+01
 2.1027752E+01  2.3981943E+01
 2.1039251E+01  2.3883928E+01
 2.1050751E+01  2.3872702E+01
 2.1062250E+01  2.3848125E+01
 2.1073751E+01  2.3844584E+01
 2.1085251E+01  2.3845510E+01
 2.1096750E+01  2.3851109E+01
 2.1108252E+01  2.3867916E+01
 2.1119751E+01  2.3877529E+01
 2.1131250E+01  2.3886515E+01
 2.1142752E+01  2.3852568E+01
 2.1154251E+01  2.3803833E+01
 2.1165751E+01  2.3767031E+01
 2.1177252E+01  2.3821611E+01
 2.1188751E+01  2.3860083E+01
 2.1200251E+01  2.3892565E+01
 2.1211752E+01  2.3897854E+01
 2.1223251E+01  2.3853062E+01
 2.1234751E+01  2.3820055E+01
 2.1246250E+01  2.3799435E+01
 2.1257751E+01  2.3854378E+01
 2.1269251E+01  2.3887365E+01
 2.1280750E+01  2.3941568E+01
 2.1292252E+01  2.3949152E+01
 2.1303751E+01  2.3934492E+01
 2.1315250E+01  2.3901794E+01
 2.1326752E+01  2.3899914E+01
 2.1338251E+01  2.3924883E+01
 2.1349751E+01  2.3957329E+01
 2.1361252E+01  2.4021158E+01
 2.1372751E+01  2.4069221E+01
 2.1384251E+01  2.4052616E+01
 2.1395752E+01  2.3985378E+01
 2.1407251E+01  2.3908989E+01
 2.1418751E+01  2.3885174E+01
 2.1430250E+01  2.3870815E+01
 2.1441751E+01  2.3860428E+01
 2.1453251E+01  2.3854893E+01
 2.1464750E+01  2.3881353E+01
 2.1476252E+01  2.3899853E+01
 2.1487751E+01  2.3940865E+01
 2.1499250E+01  2.3934574E+01
 2.1510752E+01  2.3969929E+01
 2.1522251E+01  2.3997890E+01
 2.1533751E+01  2.4049097E+01
 2.1545252E+01  2.4093941E+01
 2.1556751E+01  2.4076496E+01
 2.1568251E+01  2.4080328E+01
 2.1579752E+01  2.4083025E+01
 2.1591251E+01  2.4135078E+01
 2.1602751E+01  2.4170475E+01
 2.1614250E+01  2.4147207E+01
 2.1625751E+01  2.4122934E+01
 2.1637251E+01  2.4099659E+01
 2.1648750E+01  2.4117477E+01
 2.1660252E+01  2.4154472E+01
 2.1671751E+01  2.4191610E+01
 2.1683250E+01  2.4171831E+01
 2.1694752E+01  2.4136992E+01
 2.1706251E+01  2.4119366E+01
 2.1717751E+01  2.4122860E+01
 2.1729252E+01  2.4105473E+01
 2.1740751E+01  2.4088526E+01
 2.1752251E+01  2.4039051E+01
 2.1763752E+01  2.3988983E+01
 2.1775251E+01  2.3982483E+01
 2.1786751E+01  2.4048731E+01
 2.1798250E+01  2.4100014E+01
 2.1809752E+01  2.4123672E+01
 2.1821251E+01  2.4178015E+01
 2.1832750E+01  2.4183977E+01
 2.1844252E+01  2.4227804E+01
 2.1855751E+01  2.4178631E+01
 2.1867250E+01  2.4158731E+01
 2.1878752E+01  2.4112518E+01
 2.1890251E+01  2.4097122E+01
 2.1901751E+01  2.4135584E+01
 2.1913252E+01  2.4135992E+01
 2.1924751E+01  2.4151455E+01
 2.1936251E+01  2.4166143E+01
 2.1947752E+01  2.4186258E+01
 2.1959251E+01  2.4218775E+01
 2.1970751E+01  2.4241213E+01
 2.1982250E+01  2.4272322E+01
 2.1993752E+01  2.4281013E+01
 2.2005251E+01  2.4286415E+01
 2.2016750E+01  2.4293890E+01
 2.2028252E+01  2.4302902E+01
 2.2039751E+01  2.4367943E+01
 2.2051250E+01  2.4334698E+01
 2.2062752E+01  2.4387569E+01
 2.2074251E+01  2.4404810E+01
 2.2085751E+01  2.4387320E+01
 2.2097252E+01  2.4300541E+01
 2.2108751E+01  2.4348843E+01
 2.2120251E+01  2.4411783E+01
 2.2131752E+01  2.4430382E+01
 2.2143251E+01  2.4425760E+01
 2.2154751E+01  2.4351768E+01
 2.2166250E+01  2.4297216E+01
 2.2177752E+01  2.4257654E+01
 2.2189251E+01  2.4291695E+01
 2.2200750E+01  2.4311588E+01
 2.2212252E+01  2.4355522E+01
 2.2223751E+01  2.4360449E+01
 2.2235250E+01  2.4355219E+01
 2.2246752E+01  2.4352474E+01
 2.2258251E+01  2.4339230E+01
 2.2269751E+01  2.4285990E+01
 2.2281252E+01  2.4293900E+01
 2.2292751E+01  2.4364531E+01
 2.2304251E+01  2.4465069E+01
 2.2315752E+01  2.4482031E+01
 2.2327251E+01  2.4472910E+01
 2.2338751E+01  2.4499281E+01
 2.2350250E+01  2.4534697E+01
 2.2361752E+01  2.4581587E+01
 2.2373251E+01  2.4592102E+01
 2.2384750E+01  2.4546692E+01
 2.2396252E+01  2.4477007E+01
 2.2407751E+01  2.4407572E+01
 2.2419250E+01  2.4380339E+01
 2.2430752E+01  2.4441309E+01
 2.2442251E+01  2.4500036E+01
 2.2453751E+01  2.4537893E+01
 2.2465252E+01  2.4504835E+01
 2.2476751E+01  2.4475252E+01
 2.2488251E+01  2.4503067E+01
 2.2499752E+01  2.4537197E+01
 2.2511251E+01  2.4593884E+01
 2.2522751E+01  2.4678581E+01
 2.2534250E+01  2.4755350E+01
 2.2545752E+01  2.4799545E+01
 2.2557251E+01  2.4790743E+01
 2.2568750E+01  2.4771900E+01
 2.2580252E+01  2.4805679E+01
 2.2591751E+01  2.4854660E+01
 2.2603251E+01  2.4922010E+01
 2.2614752E+01  2.4906887E+01
 2.2626251E+01  2.4932178E+01
 2.2637751E+01  2.4946838E+01
 2.2649252E+01  2.5006577E+01
 2.2660751E+01  2.4985939E+01
 2.2672251E+01  2.4979065E+01
 2.2683752E+01  2.5031775E+01
 2.2695251E+01  2.5111715E+01
 2.2706751E+01  2.5143932E+01
 2.2718250E+01  2.5152391E+01
 2.2729752E+01  2.5148195E+01
 2.2741251E+01  2.5183706E+01
 2.2752750E+01  2.5223017E+01
 2.2764252E+01  2.5288372E+01
 2.2775751E+01  2.5377169E+01
 2.2787251E+01  2.5352737E+01
 2.2798752E+01  2.5363007E+01
 2.2810251E+01  2.5407888E+01
 2.2821751E+01  2.5472017E+01
 2.2833252E+01  2.5515057E+01
 2.2844751E+01  2.5565014E+01
 2.2856251E+01  2.5601509E+01
 2.2867750E+01  2.5620733E+01
 2.2879251E+01  2.5630007E+01
 2.2890751E+01  2.5678392E+01
 2.2902250E+01  2.5692366E+01
 2.2913752E+01  2.5807604E+01
 2.2925251E+01  2.5899395E+01
 2.2936750E+01  2.5971989E+01
 2.2948252E+01  2.6021408E+01
 2.2959751E+01  2.6134995E+01
 2.2971251E+01  2.6373209E+01
 2.2982752E+01  2.6547625E+01
 2.2994251E+01  2.6735592E+01
