F:\20151113_APS_34IDE\\Brian\Particle1\OCV\Data_0141.tif
2-Theta Angle (Degrees)
Intensity
       2000
 5.7500005E-03  0.0000000E+00
 1.7250001E-02  0.0000000E+00
 2.8750001E-02  0.0000000E+00
 4.0250003E-02  0.0000000E+00
 5.1750004E-02  0.0000000E+00
 6.3250005E-02  0.0000000E+00
 7.4750006E-02  0.0000000E+00
 8.6250007E-02  0.0000000E+00
 9.7750008E-02  0.0000000E+00
 1.0925001E-01  0.0000000E+00
 1.2075000E-01  0.0000000E+00
 1.3225001E-01  0.0000000E+00
 1.4375001E-01  0.0000000E+00
 1.5525001E-01  0.0000000E+00
 1.6675001E-01  0.0000000E+00
 1.7825001E-01  0.0000000E+00
 1.8975002E-01  0.0000000E+00
 2.0125002E-01  0.0000000E+00
 2.1275002E-01  0.0000000E+00
 2.2425000E-01  0.0000000E+00
 2.3575000E-01  0.0000000E+00
 2.4725001E-01  0.0000000E+00
 2.5875002E-01  0.0000000E+00
 2.7025002E-01  0.0000000E+00
 2.8175002E-01  0.0000000E+00
 2.9325002E-01  0.0000000E+00
 3.0475003E-01  0.0000000E+00
 3.1625003E-01  0.0000000E+00
 3.2775003E-01  0.0000000E+00
 3.3925003E-01  0.0000000E+00
 3.5075003E-01  0.0000000E+00
 3.6225003E-01  0.0000000E+00
 3.7375003E-01  0.0000000E+00
 3.8525003E-01  0.0000000E+00
 3.9675003E-01  0.0000000E+00
 4.0825003E-01  0.0000000E+00
 4.1975003E-01  0.0000000E+00
 4.3125004E-01  0.0000000E+00
 4.4275001E-01  0.0000000E+00
 4.5425001E-01  0.0000000E+00
 4.6575001E-01  0.0000000E+00
 4.7725001E-01  0.0000000E+00
 4.8875001E-01  0.0000000E+00
 5.0025004E-01  0.0000000E+00
 5.1175004E-01  0.0000000E+00
 5.2325004E-01  0.0000000E+00
 5.3475004E-01  0.0000000E+00
 5.4625005E-01  0.0000000E+00
 5.5775005E-01  0.0000000E+00
 5.6925005E-01  0.0000000E+00
 5.8075005E-01  0.0000000E+00
 5.9225005E-01  0.0000000E+00
 6.0375005E-01  0.0000000E+00
 6.1525005E-01  0.0000000E+00
 6.2675005E-01  0.0000000E+00
 6.3825005E-01  0.0000000E+00
 6.4975005E-01  0.0000000E+00
 6.6125005E-01  0.0000000E+00
 6.7275006E-01  0.0000000E+00
 6.8425006E-01  0.0000000E+00
 6.9575006E-01  0.0000000E+00
 7.0725006E-01  0.0000000E+00
 7.1875006E-01  0.0000000E+00
 7.3025006E-01  0.0000000E+00
 7.4175006E-01  0.0000000E+00
 7.5325006E-01  0.0000000E+00
 7.6475006E-01  0.0000000E+00
 7.7625006E-01  0.0000000E+00
 7.8775007E-01  0.0000000E+00
 7.9925007E-01  0.0000000E+00
 8.1075007E-01  0.0000000E+00
 8.2225007E-01  0.0000000E+00
 8.3375007E-01  0.0000000E+00
 8.4525007E-01  0.0000000E+00
 8.5675007E-01  0.0000000E+00
 8.6825007E-01  0.0000000E+00
 8.7975001E-01  0.0000000E+00
 8.9125001E-01  0.0000000E+00
 9.0275002E-01  0.0000000E+00
 9.1425002E-01  0.0000000E+00
 9.2575002E-01  0.0000000E+00
 9.3725002E-01  0.0000000E+00
 9.4875002E-01  0.0000000E+00
 9.6025002E-01  0.0000000E+00
 9.7175002E-01  0.0000000E+00
 9.8325002E-01  0.0000000E+00
 9.9475002E-01  0.0000000E+00
 1.0062500E+00  0.0000000E+00
 1.0177500E+00  0.0000000E+00
 1.0292500E+00  0.0000000E+00
 1.0407500E+00  0.0000000E+00
 1.0522500E+00  0.0000000E+00
 1.0637500E+00  0.0000000E+00
 1.0752500E+00  0.0000000E+00
 1.0867500E+00  0.0000000E+00
 1.0982500E+00  0.0000000E+00
 1.1097500E+00  0.0000000E+00
 1.1212500E+00  0.0000000E+00
 1.1327500E+00  0.0000000E+00
 1.1442500E+00  0.0000000E+00
 1.1557500E+00  0.0000000E+00
 1.1672500E+00  0.0000000E+00
 1.1787500E+00  0.0000000E+00
 1.1902500E+00  0.0000000E+00
 1.2017500E+00  0.0000000E+00
 1.2132500E+00  0.0000000E+00
 1.2247500E+00  0.0000000E+00
 1.2362500E+00  0.0000000E+00
 1.2477500E+00  0.0000000E+00
 1.2592500E+00  0.0000000E+00
 1.2707500E+00  0.0000000E+00
 1.2822500E+00  0.0000000E+00
 1.2937500E+00  0.0000000E+00
 1.3052500E+00  0.0000000E+00
 1.3167500E+00  0.0000000E+00
 1.3282501E+00  0.0000000E+00
 1.3397501E+00  0.0000000E+00
 1.3512501E+00  0.0000000E+00
 1.3627501E+00  0.0000000E+00
 1.3742501E+00  0.0000000E+00
 1.3857501E+00  0.0000000E+00
 1.3972501E+00  0.0000000E+00
 1.4087501E+00  0.0000000E+00
 1.4202501E+00  0.0000000E+00
 1.4317501E+00  0.0000000E+00
 1.4432501E+00  0.0000000E+00
 1.4547501E+00  0.0000000E+00
 1.4662501E+00  0.0000000E+00
 1.4777501E+00  0.0000000E+00
 1.4892501E+00  0.0000000E+00
 1.5007501E+00  0.0000000E+00
 1.5122501E+00  0.0000000E+00
 1.5237501E+00  0.0000000E+00
 1.5352501E+00  0.0000000E+00
 1.5467501E+00  0.0000000E+00
 1.5582501E+00  0.0000000E+00
 1.5697501E+00  0.0000000E+00
 1.5812501E+00  0.0000000E+00
 1.5927501E+00  0.0000000E+00
 1.6042501E+00  0.0000000E+00
 1.6157501E+00  0.0000000E+00
 1.6272501E+00  0.0000000E+00
 1.6387501E+00  0.0000000E+00
 1.6502501E+00  0.0000000E+00
 1.6617501E+00  0.0000000E+00
 1.6732501E+00  0.0000000E+00
 1.6847501E+00  0.0000000E+00
 1.6962501E+00  0.0000000E+00
 1.7077501E+00  0.0000000E+00
 1.7192501E+00  0.0000000E+00
 1.7307501E+00  0.0000000E+00
 1.7422501E+00  0.0000000E+00
 1.7537501E+00  0.0000000E+00
 1.7652501E+00  0.0000000E+00
 1.7767501E+00  0.0000000E+00
 1.7882501E+00  0.0000000E+00
 1.7997501E+00  0.0000000E+00
 1.8112501E+00  0.0000000E+00
 1.8227501E+00  0.0000000E+00
 1.8342501E+00  0.0000000E+00
 1.8457501E+00  0.0000000E+00
 1.8572501E+00  0.0000000E+00
 1.8687501E+00  0.0000000E+00
 1.8802501E+00  0.0000000E+00
 1.8917501E+00  0.0000000E+00
 1.9032501E+00  0.0000000E+00
 1.9147501E+00  0.0000000E+00
 1.9262501E+00  0.0000000E+00
 1.9377501E+00  0.0000000E+00
 1.9492501E+00  0.0000000E+00
 1.9607501E+00  0.0000000E+00
 1.9722501E+00  0.0000000E+00
 1.9837501E+00  0.0000000E+00
 1.9952501E+00  0.0000000E+00
 2.0067501E+00  0.0000000E+00
 2.0182500E+00  0.0000000E+00
 2.0297501E+00  0.0000000E+00
 2.0412500E+00  0.0000000E+00
 2.0527501E+00  0.0000000E+00
 2.0642500E+00  0.0000000E+00
 2.0757501E+00  0.0000000E+00
 2.0872500E+00  0.0000000E+00
 2.0987501E+00  0.0000000E+00
 2.1102500E+00  0.0000000E+00
 2.1217501E+00  0.0000000E+00
 2.1332500E+00  0.0000000E+00
 2.1447501E+00  0.0000000E+00
 2.1562500E+00  0.0000000E+00
 2.1677501E+00  0.0000000E+00
 2.1792500E+00  0.0000000E+00
 2.1907501E+00  0.0000000E+00
 2.2022500E+00  0.0000000E+00
 2.2137501E+00  0.0000000E+00
 2.2252500E+00  0.0000000E+00
 2.2367501E+00  0.0000000E+00
 2.2482500E+00  0.0000000E+00
 2.2597501E+00  0.0000000E+00
 2.2712500E+00  0.0000000E+00
 2.2827501E+00  0.0000000E+00
 2.2942500E+00  0.0000000E+00
 2.3057501E+00  0.0000000E+00
 2.3172500E+00  0.0000000E+00
 2.3287501E+00  0.0000000E+00
 2.3402500E+00  0.0000000E+00
 2.3517501E+00  0.0000000E+00
 2.3632500E+00  0.0000000E+00
 2.3747501E+00  0.0000000E+00
 2.3862500E+00  0.0000000E+00
 2.3977501E+00  0.0000000E+00
 2.4092500E+00  0.0000000E+00
 2.4207501E+00  0.0000000E+00
 2.4322500E+00  0.0000000E+00
 2.4437501E+00  0.0000000E+00
 2.4552500E+00  0.0000000E+00
 2.4667501E+00  0.0000000E+00
 2.4782500E+00  0.0000000E+00
 2.4897501E+00  0.0000000E+00
 2.5012500E+00  0.0000000E+00
 2.5127501E+00  0.0000000E+00
 2.5242500E+00  0.0000000E+00
 2.5357502E+00  0.0000000E+00
 2.5472500E+00  0.0000000E+00
 2.5587502E+00  0.0000000E+00
 2.5702500E+00  0.0000000E+00
 2.5817502E+00  0.0000000E+00
 2.5932500E+00  0.0000000E+00
 2.6047502E+00  0.0000000E+00
 2.6162500E+00  0.0000000E+00
 2.6277502E+00  0.0000000E+00
 2.6392500E+00  0.0000000E+00
 2.6507502E+00  0.0000000E+00
 2.6622500E+00  0.0000000E+00
 2.6737502E+00  0.0000000E+00
 2.6852500E+00  0.0000000E+00
 2.6967502E+00  0.0000000E+00
 2.7082500E+00  0.0000000E+00
 2.7197502E+00  0.0000000E+00
 2.7312500E+00  0.0000000E+00
 2.7427502E+00  0.0000000E+00
 2.7542500E+00  0.0000000E+00
 2.7657502E+00  0.0000000E+00
 2.7772501E+00  0.0000000E+00
 2.7887502E+00  0.0000000E+00
 2.8002501E+00  0.0000000E+00
 2.8117502E+00  0.0000000E+00
 2.8232501E+00  3.5081509E+01
 2.8347502E+00  3.4889187E+01
 2.8462501E+00  3.4884037E+01
 2.8577502E+00  3.5329529E+01
 2.8692501E+00  3.5206196E+01
 2.8807502E+00  3.5694469E+01
 2.8922501E+00  3.5477676E+01
 2.9037502E+00  3.5578888E+01
 2.9152501E+00  3.5371994E+01
 2.9267502E+00  3.5342220E+01
 2.9382501E+00  3.5421967E+01
 2.9497502E+00  3.5603355E+01
 2.9612501E+00  3.5630135E+01
 2.9727502E+00  3.5522270E+01
 2.9842501E+00  3.5472301E+01
 2.9957502E+00  3.5894043E+01
 3.0072501E+00  3.6229767E+01
 3.0187502E+00  3.6530350E+01
 3.0302501E+00  3.6707821E+01
 3.0417502E+00  3.6774326E+01
 3.0532501E+00  3.6537605E+01
 3.0647502E+00  3.6468323E+01
 3.0762501E+00  3.5959660E+01
 3.0877502E+00  3.5614334E+01
 3.0992501E+00  3.4985115E+01
 3.1107502E+00  3.4713318E+01
 3.1222501E+00  3.4393673E+01
 3.1337502E+00  3.4319355E+01
 3.1452501E+00  3.4563366E+01
 3.1567502E+00  3.4673077E+01
 3.1682501E+00  3.4548347E+01
 3.1797502E+00  3.4451420E+01
 3.1912501E+00  3.4307823E+01
 3.2027502E+00  3.4674450E+01
 3.2142501E+00  3.4658924E+01
 3.2257502E+00  3.5178097E+01
 3.2372501E+00  3.4996376E+01
 3.2487502E+00  3.5612846E+01
 3.2602501E+00  3.5872189E+01
 3.2717502E+00  3.5970490E+01
 3.2832501E+00  3.6031109E+01
 3.2947502E+00  3.5743847E+01
 3.3062501E+00  3.5381809E+01
 3.3177502E+00  3.5032543E+01
 3.3292501E+00  3.4440796E+01
 3.3407502E+00  3.4589725E+01
 3.3522501E+00  3.4442734E+01
 3.3637502E+00  3.4552666E+01
 3.3752501E+00  3.4786751E+01
 3.3867502E+00  3.4514839E+01
 3.3982501E+00  3.4162960E+01
 3.4097502E+00  3.3603039E+01
 3.4212501E+00  3.3225685E+01
 3.4327502E+00  3.3254646E+01
 3.4442501E+00  3.3223286E+01
 3.4557502E+00  3.3351593E+01
 3.4672501E+00  3.3492058E+01
 3.4787502E+00  3.3488579E+01
 3.4902501E+00  3.3754951E+01
 3.5017502E+00  3.3402473E+01
 3.5132501E+00  3.3569675E+01
 3.5247502E+00  3.3524193E+01
 3.5362501E+00  3.3721233E+01
 3.5477502E+00  3.3594940E+01
 3.5592501E+00  3.3457958E+01
 3.5707502E+00  3.3383095E+01
 3.5822501E+00  3.3427605E+01
 3.5937502E+00  3.3425289E+01
 3.6052501E+00  3.3360390E+01
 3.6167502E+00  3.3290085E+01
 3.6282501E+00  3.3101254E+01
 3.6397502E+00  3.3048733E+01
 3.6512501E+00  3.2983170E+01
 3.6627502E+00  3.3055603E+01
 3.6742501E+00  3.3034363E+01
 3.6857502E+00  3.3095474E+01
 3.6972501E+00  3.3038773E+01
 3.7087502E+00  3.3029308E+01
 3.7202501E+00  3.2716187E+01
 3.7317502E+00  3.2791672E+01
 3.7432501E+00  3.2641689E+01
 3.7547503E+00  3.2851368E+01
 3.7662501E+00  3.2803623E+01
 3.7777503E+00  3.2769516E+01
 3.7892501E+00  3.2667934E+01
 3.8007503E+00  3.2538849E+01
 3.8122501E+00  3.2424778E+01
 3.8237503E+00  3.2387585E+01
 3.8352501E+00  3.2583691E+01
 3.8467503E+00  3.2842846E+01
 3.8582501E+00  3.3048000E+01
 3.8697503E+00  3.3082565E+01
 3.8812501E+00  3.3177341E+01
 3.8927503E+00  3.3127304E+01
 3.9042501E+00  3.3056194E+01
 3.9157503E+00  3.2864250E+01
 3.9272501E+00  3.2711750E+01
 3.9387503E+00  3.2569736E+01
 3.9502501E+00  3.2604179E+01
 3.9617503E+00  3.2709888E+01
 3.9732502E+00  3.2833397E+01
 3.9847503E+00  3.3014565E+01
 3.9962502E+00  3.3073380E+01
 4.0077500E+00  3.3048115E+01
 4.0192504E+00  3.2800152E+01
 4.0307503E+00  3.2558029E+01
 4.0422502E+00  3.2452213E+01
 4.0537500E+00  3.2164154E+01
 4.0652504E+00  3.2181026E+01
 4.0767503E+00  3.2191723E+01
 4.0882502E+00  3.2370819E+01
 4.0997500E+00  3.2412807E+01
 4.1112504E+00  3.2431805E+01
 4.1227503E+00  3.2330605E+01
 4.1342502E+00  3.2368374E+01
 4.1457500E+00  3.2390820E+01
 4.1572504E+00  3.2377693E+01
 4.1687503E+00  3.2336025E+01
 4.1802502E+00  3.2080154E+01
 4.1917500E+00  3.2182182E+01
 4.2032504E+00  3.2104839E+01
 4.2147503E+00  3.2307457E+01
 4.2262502E+00  3.2226997E+01
 4.2377501E+00  3.2314854E+01
 4.2492504E+00  3.2255085E+01
 4.2607503E+00  3.2424702E+01
 4.2722502E+00  3.2398006E+01
 4.2837501E+00  3.2402977E+01
 4.2952504E+00  3.2245930E+01
 4.3067503E+00  3.2243401E+01
 4.3182502E+00  3.2275360E+01
 4.3297501E+00  3.2202534E+01
 4.3412504E+00  3.2345474E+01
 4.3527503E+00  3.2468811E+01
 4.3642502E+00  3.2671513E+01
 4.3757501E+00  3.2744579E+01
 4.3872504E+00  3.2648209E+01
 4.3987503E+00  3.2560898E+01
 4.4102502E+00  3.2555897E+01
 4.4217501E+00  3.2568913E+01
 4.4332504E+00  3.2749756E+01
 4.4447503E+00  3.2813972E+01
 4.4562502E+00  3.2801029E+01
 4.4677501E+00  3.2774338E+01
 4.4792504E+00  3.2716164E+01
 4.4907503E+00  3.2713749E+01
 4.5022502E+00  3.2791210E+01
 4.5137501E+00  3.2757378E+01
 4.5252504E+00  3.2808830E+01
 4.5367503E+00  3.2762894E+01
 4.5482502E+00  3.2612766E+01
 4.5597501E+00  3.2539135E+01
 4.5712504E+00  3.2316978E+01
 4.5827503E+00  3.2255650E+01
 4.5942502E+00  3.2130802E+01
 4.6057501E+00  3.2170017E+01
 4.6172504E+00  3.2192207E+01
 4.6287503E+00  3.2493305E+01
 4.6402502E+00  3.2591068E+01
 4.6517501E+00  3.2883961E+01
 4.6632504E+00  3.2813572E+01
 4.6747503E+00  3.2946442E+01
 4.6862502E+00  3.2972927E+01
 4.6977501E+00  3.3086887E+01
 4.7092505E+00  3.2994225E+01
 4.7207503E+00  3.2874687E+01
 4.7322502E+00  3.2692989E+01
 4.7437501E+00  3.2594532E+01
 4.7552505E+00  3.2575951E+01
 4.7667503E+00  3.2673019E+01
 4.7782502E+00  3.2772575E+01
 4.7897501E+00  3.2771835E+01
 4.8012505E+00  3.2744370E+01
 4.8127503E+00  3.2689705E+01
 4.8242502E+00  3.2666245E+01
 4.8357501E+00  3.2573601E+01
 4.8472505E+00  3.2639263E+01
 4.8587503E+00  3.2747509E+01
 4.8702502E+00  3.2874725E+01
 4.8817501E+00  3.2956768E+01
 4.8932505E+00  3.2946934E+01
 4.9047503E+00  3.2941860E+01
 4.9162502E+00  3.3064365E+01
 4.9277501E+00  3.3096149E+01
 4.9392505E+00  3.3074730E+01
 4.9507504E+00  3.2871113E+01
 4.9622502E+00  3.2780792E+01
 4.9737501E+00  3.2880428E+01
 4.9852505E+00  3.2953423E+01
 4.9967504E+00  3.3126041E+01
 5.0082502E+00  3.3288445E+01
 5.0197501E+00  3.3370045E+01
 5.0312505E+00  3.3485199E+01
 5.0427504E+00  3.3379017E+01
 5.0542502E+00  3.3305763E+01
 5.0657501E+00  3.3089687E+01
 5.0772505E+00  3.2945744E+01
 5.0887504E+00  3.2919735E+01
 5.1002502E+00  3.2918709E+01
 5.1117501E+00  3.3008640E+01
 5.1232505E+00  3.3039871E+01
 5.1347504E+00  3.3223557E+01
 5.1462502E+00  3.3385036E+01
 5.1577501E+00  3.3535473E+01
 5.1692505E+00  3.3711857E+01
 5.1807504E+00  3.3766754E+01
 5.1922503E+00  3.3898312E+01
 5.2037501E+00  3.3871082E+01
 5.2152505E+00  3.3852486E+01
 5.2267504E+00  3.3943436E+01
 5.2382503E+00  3.3965256E+01
 5.2497501E+00  3.3966797E+01
 5.2612505E+00  3.3908817E+01
 5.2727504E+00  3.3900459E+01
 5.2842503E+00  3.3949284E+01
 5.2957501E+00  3.4016148E+01
 5.3072500E+00  3.3991119E+01
 5.3187504E+00  3.4110802E+01
 5.3302503E+00  3.4085209E+01
 5.3417501E+00  3.4119858E+01
 5.3532500E+00  3.4174278E+01
 5.3647504E+00  3.4095352E+01
 5.3762503E+00  3.4163883E+01
 5.3877501E+00  3.4209305E+01
 5.3992500E+00  3.4241619E+01
 5.4107504E+00  3.4223507E+01
 5.4222503E+00  3.4223278E+01
 5.4337502E+00  3.4233845E+01
 5.4452500E+00  3.4431812E+01
 5.4567504E+00  3.4561665E+01
 5.4682503E+00  3.4772511E+01
 5.4797502E+00  3.4798046E+01
 5.4912500E+00  3.4694862E+01
 5.5027504E+00  3.4760693E+01
 5.5142503E+00  3.4715595E+01
 5.5257502E+00  3.4781208E+01
 5.5372500E+00  3.4710621E+01
 5.5487504E+00  3.4709652E+01
 5.5602503E+00  3.4664871E+01
 5.5717502E+00  3.4601051E+01
 5.5832500E+00  3.4687553E+01
 5.5947504E+00  3.4713558E+01
 5.6062503E+00  3.4885139E+01
 5.6177502E+00  3.4991150E+01
 5.6292500E+00  3.5144966E+01
 5.6407504E+00  3.5198494E+01
 5.6522503E+00  3.5211761E+01
 5.6637502E+00  3.5276608E+01
 5.6752501E+00  3.5401680E+01
 5.6867504E+00  3.5322052E+01
 5.6982503E+00  3.5164864E+01
 5.7097502E+00  3.5112118E+01
 5.7212501E+00  3.5281757E+01
 5.7327504E+00  3.5501408E+01
 5.7442503E+00  3.5621071E+01
 5.7557502E+00  3.5670376E+01
 5.7672501E+00  3.5610676E+01
 5.7787504E+00  3.5526180E+01
 5.7902503E+00  3.5553684E+01
 5.8017502E+00  3.5583141E+01
 5.8132501E+00  3.5728210E+01
 5.8247504E+00  3.5683823E+01
 5.8362503E+00  3.5879059E+01
 5.8477502E+00  3.5964195E+01
 5.8592501E+00  3.5987297E+01
 5.8707504E+00  3.6024475E+01
 5.8822503E+00  3.6133396E+01
 5.8937502E+00  3.6283070E+01
 5.9052501E+00  3.6404640E+01
 5.9167504E+00  3.6296383E+01
 5.9282503E+00  3.6326019E+01
 5.9397502E+00  3.6394363E+01
 5.9512501E+00  3.6612659E+01
 5.9627504E+00  3.6903851E+01
 5.9742503E+00  3.7037495E+01
 5.9857502E+00  3.7155087E+01
 5.9972501E+00  3.7103615E+01
 6.0087504E+00  3.6911900E+01
 6.0202503E+00  3.6669182E+01
 6.0317502E+00  3.6382076E+01
 6.0432501E+00  3.6110508E+01
 6.0547504E+00  3.6041222E+01
 6.0662503E+00  3.6165409E+01
 6.0777502E+00  3.6269901E+01
 6.0892501E+00  3.6415897E+01
 6.1007504E+00  3.6485897E+01
 6.1122503E+00  3.6569981E+01
 6.1237502E+00  3.6554108E+01
 6.1352501E+00  3.6524143E+01
 6.1467505E+00  3.6528988E+01
 6.1582503E+00  3.6607330E+01
 6.1697502E+00  3.6587845E+01
 6.1812501E+00  3.6645359E+01
 6.1927505E+00  3.6673908E+01
 6.2042503E+00  3.6607414E+01
 6.2157502E+00  3.6708504E+01
 6.2272501E+00  3.6777504E+01
 6.2387505E+00  3.6937138E+01
 6.2502503E+00  3.7026871E+01
 6.2617502E+00  3.7141842E+01
 6.2732501E+00  3.7327728E+01
 6.2847505E+00  3.7432617E+01
 6.2962503E+00  3.7527950E+01
 6.3077502E+00  3.7551407E+01
 6.3192501E+00  3.7660652E+01
 6.3307505E+00  3.7695217E+01
 6.3422503E+00  3.7860363E+01
 6.3537502E+00  3.7948204E+01
 6.3652501E+00  3.8076012E+01
 6.3767505E+00  3.8147213E+01
 6.3882504E+00  3.8224102E+01
 6.3997502E+00  3.8170963E+01
 6.4112501E+00  3.8229591E+01
 6.4227505E+00  3.8292950E+01
 6.4342504E+00  3.8483532E+01
 6.4457502E+00  3.8684700E+01
 6.4572501E+00  3.8721493E+01
 6.4687505E+00  3.8830021E+01
 6.4802504E+00  3.8865849E+01
 6.4917502E+00  3.8923748E+01
 6.5032501E+00  3.8986034E+01
 6.5147505E+00  3.8914528E+01
 6.5262504E+00  3.8947945E+01
 6.5377502E+00  3.9009705E+01
 6.5492501E+00  3.9128391E+01
 6.5607505E+00  3.9270840E+01
 6.5722504E+00  3.9379330E+01
 6.5837502E+00  3.9412472E+01
 6.5952501E+00  3.9510376E+01
 6.6067505E+00  3.9625153E+01
 6.6182504E+00  3.9680172E+01
 6.6297503E+00  3.9879692E+01
 6.6412501E+00  3.9941975E+01
 6.6527505E+00  4.0080761E+01
 6.6642504E+00  4.0167889E+01
 6.6757503E+00  4.0205585E+01
 6.6872501E+00  4.0318298E+01
 6.6987505E+00  4.0327801E+01
 6.7102504E+00  4.0411758E+01
 6.7217503E+00  4.0450310E+01
 6.7332501E+00  4.0540005E+01
 6.7447505E+00  4.0709763E+01
 6.7562504E+00  4.0905060E+01
 6.7677503E+00  4.1055523E+01
 6.7792501E+00  4.1097851E+01
 6.7907505E+00  4.1165062E+01
 6.8022504E+00  4.1192341E+01
 6.8137503E+00  4.1237225E+01
 6.8252501E+00  4.1331367E+01
 6.8367505E+00  4.1452644E+01
 6.8482504E+00  4.1628490E+01
 6.8597503E+00  4.1745342E+01
 6.8712502E+00  4.1866692E+01
 6.8827505E+00  4.1886040E+01
 6.8942504E+00  4.1987511E+01
 6.9057503E+00  4.2003216E+01
 6.9172502E+00  4.2007935E+01
 6.9287505E+00  4.1936722E+01
 6.9402504E+00  4.1893703E+01
 6.9517503E+00  4.1974781E+01
 6.9632502E+00  4.2050148E+01
 6.9747505E+00  4.2145626E+01
 6.9862504E+00  4.2146282E+01
 6.9977503E+00  4.2163666E+01
 7.0092502E+00  4.2225002E+01
 7.0207505E+00  4.2359299E+01
 7.0322504E+00  4.2474026E+01
 7.0437503E+00  4.2578445E+01
 7.0552502E+00  4.2616989E+01
 7.0667505E+00  4.2690392E+01
 7.0782504E+00  4.2640266E+01
 7.0897503E+00  4.2696327E+01
 7.1012502E+00  4.2720211E+01
 7.1127505E+00  4.2800724E+01
 7.1242504E+00  4.2851162E+01
 7.1357503E+00  4.2929615E+01
 7.1472502E+00  4.2954193E+01
 7.1587505E+00  4.2997940E+01
 7.1702504E+00  4.3006397E+01
 7.1817503E+00  4.3102188E+01
 7.1932502E+00  4.3223587E+01
 7.2047505E+00  4.3288994E+01
 7.2162504E+00  4.3390186E+01
 7.2277503E+00  4.3466244E+01
 7.2392502E+00  4.3465912E+01
 7.2507505E+00  4.3566879E+01
 7.2622504E+00  4.3511322E+01
 7.2737503E+00  4.3592354E+01
 7.2852502E+00  4.3461380E+01
 7.2967505E+00  4.3476768E+01
 7.3082504E+00  4.3505882E+01
 7.3197503E+00  4.3589481E+01
 7.3312502E+00  4.3660908E+01
 7.3427505E+00  4.3695301E+01
 7.3542504E+00  4.3720211E+01
 7.3657503E+00  4.3785221E+01
 7.3772502E+00  4.3846870E+01
 7.3887506E+00  4.3899036E+01
 7.4002504E+00  4.3980236E+01
 7.4117503E+00  4.4101620E+01
 7.4232502E+00  4.4121532E+01
 7.4347506E+00  4.4162796E+01
 7.4462504E+00  4.4161633E+01
 7.4577503E+00  4.4172890E+01
 7.4692502E+00  4.4202190E+01
 7.4807506E+00  4.4202255E+01
 7.4922504E+00  4.4199886E+01
 7.5037503E+00  4.4227413E+01
 7.5152502E+00  4.4290436E+01
 7.5267506E+00  4.4355221E+01
 7.5382504E+00  4.4403244E+01
 7.5497503E+00  4.4351158E+01
 7.5612502E+00  4.4436779E+01
 7.5727506E+00  4.4477688E+01
 7.5842505E+00  4.4538635E+01
 7.5957503E+00  4.4571793E+01
 7.6072502E+00  4.4579594E+01
 7.6187506E+00  4.4606037E+01
 7.6302505E+00  4.4595760E+01
 7.6417503E+00  4.4595169E+01
 7.6532502E+00  4.4553776E+01
 7.6647506E+00  4.4446281E+01
 7.6762505E+00  4.4355324E+01
 7.6877503E+00  4.4256432E+01
 7.6992502E+00  4.4247330E+01
 7.7107506E+00  4.4334705E+01
 7.7222505E+00  4.4344837E+01
 7.7337503E+00  4.4397686E+01
 7.7452502E+00  4.4240391E+01
 7.7567506E+00  4.4203102E+01
 7.7682505E+00  4.4101513E+01
 7.7797503E+00  4.4128773E+01
 7.7912502E+00  4.4193043E+01
 7.8027506E+00  4.4184963E+01
 7.8142505E+00  4.4297642E+01
 7.8257504E+00  4.4249790E+01
 7.8372502E+00  4.4326595E+01
 7.8487506E+00  4.4275043E+01
 7.8602505E+00  4.4323818E+01
 7.8717504E+00  4.4244473E+01
 7.8832502E+00  4.4174984E+01
 7.8947506E+00  4.3993755E+01
 7.9062505E+00  4.3938240E+01
 7.9177504E+00  4.3864578E+01
 7.9292502E+00  4.3882786E+01
 7.9407506E+00  4.3916435E+01
 7.9522505E+00  4.3808033E+01
 7.9637504E+00  4.3636219E+01
 7.9752502E+00  4.3503803E+01
 7.9867506E+00  4.3430283E+01
 7.9982505E+00  4.3447109E+01
 8.0097504E+00  4.3380383E+01
 8.0212507E+00  4.3375130E+01
 8.0327501E+00  4.3377525E+01
 8.0442505E+00  4.3366001E+01
 8.0557508E+00  4.3321106E+01
 8.0672503E+00  4.3153675E+01
 8.0787506E+00  4.3045956E+01
 8.0902500E+00  4.2970657E+01
 8.1017504E+00  4.2925102E+01
 8.1132507E+00  4.2799740E+01
 8.1247501E+00  4.2630188E+01
 8.1362505E+00  4.2501732E+01
 8.1477509E+00  4.2402973E+01
 8.1592503E+00  4.2315975E+01
 8.1707506E+00  4.2227699E+01
 8.1822500E+00  4.2055611E+01
 8.1937504E+00  4.1949516E+01
 8.2052507E+00  4.1807369E+01
 8.2167501E+00  4.1781715E+01
 8.2282505E+00  4.1757500E+01
 8.2397509E+00  4.1708637E+01
 8.2512503E+00  4.1621460E+01
 8.2627506E+00  4.1447304E+01
 8.2742500E+00  4.1290760E+01
 8.2857504E+00  4.1114948E+01
 8.2972507E+00  4.0986137E+01
 8.3087502E+00  4.0829128E+01
 8.3202505E+00  4.0806633E+01
 8.3317509E+00  4.0603420E+01
 8.3432503E+00  4.0494019E+01
 8.3547506E+00  4.0245003E+01
 8.3662500E+00  4.0036743E+01
 8.3777504E+00  3.9819378E+01
 8.3892508E+00  3.9567043E+01
 8.4007502E+00  3.9427944E+01
 8.4122505E+00  3.9187870E+01
 8.4237509E+00  3.9066605E+01
 8.4352503E+00  3.8825935E+01
 8.4467506E+00  3.8743340E+01
 8.4582500E+00  3.8573898E+01
 8.4697504E+00  3.8497395E+01
 8.4812508E+00  3.8259438E+01
 8.4927502E+00  3.8061176E+01
 8.5042505E+00  3.7848274E+01
 8.5157509E+00  3.7718857E+01
 8.5272503E+00  3.7502995E+01
 8.5387506E+00  3.7355450E+01
 8.5502501E+00  3.7091312E+01
 8.5617504E+00  3.6892807E+01
 8.5732508E+00  3.6654533E+01
 8.5847502E+00  3.6505753E+01
 8.5962505E+00  3.6299606E+01
 8.6077509E+00  3.6228485E+01
 8.6192503E+00  3.6091579E+01
 8.6307507E+00  3.5975407E+01
 8.6422501E+00  3.5812531E+01
 8.6537504E+00  3.5663158E+01
 8.6652508E+00  3.5565945E+01
 8.6767502E+00  3.5366493E+01
 8.6882505E+00  3.5257412E+01
 8.6997509E+00  3.5122940E+01
 8.7112503E+00  3.5009987E+01
 8.7227507E+00  3.4811012E+01
 8.7342501E+00  3.4650200E+01
 8.7457504E+00  3.4416553E+01
 8.7572508E+00  3.4187435E+01
 8.7687502E+00  3.3965549E+01
 8.7802505E+00  3.3796215E+01
 8.7917500E+00  3.3632324E+01
 8.8032503E+00  3.3425648E+01
 8.8147507E+00  3.3261452E+01
 8.8262501E+00  3.3082485E+01
 8.8377504E+00  3.2968296E+01
 8.8492508E+00  3.2739944E+01
 8.8607502E+00  3.2586128E+01
 8.8722506E+00  3.2381641E+01
 8.8837500E+00  3.2220539E+01
 8.8952503E+00  3.2085144E+01
 8.9067507E+00  3.1955732E+01
 8.9182501E+00  3.1845781E+01
 8.9297504E+00  3.1677744E+01
 8.9412508E+00  3.1451550E+01
 8.9527502E+00  3.1245510E+01
 8.9642506E+00  3.1097708E+01
 8.9757500E+00  3.0981390E+01
 8.9872503E+00  3.0866392E+01
 8.9987507E+00  3.0675064E+01
 9.0102501E+00  3.0443411E+01
 9.0217505E+00  3.0231209E+01
 9.0332508E+00  3.0133564E+01
 9.0447502E+00  3.0053787E+01
 9.0562506E+00  2.9967916E+01
 9.0677500E+00  2.9848244E+01
 9.0792503E+00  2.9776049E+01
 9.0907507E+00  2.9655485E+01
 9.1022501E+00  2.9491264E+01
 9.1137505E+00  2.9299528E+01
 9.1252508E+00  2.9150055E+01
 9.1367502E+00  2.9065233E+01
 9.1482506E+00  2.9043056E+01
 9.1597500E+00  2.8976162E+01
 9.1712503E+00  2.8876659E+01
 9.1827507E+00  2.8685469E+01
 9.1942501E+00  2.8552031E+01
 9.2057505E+00  2.8359024E+01
 9.2172508E+00  2.8293221E+01
 9.2287502E+00  2.8161261E+01
 9.2402506E+00  2.8131233E+01
 9.2517500E+00  2.8033379E+01
 9.2632504E+00  2.8010681E+01
 9.2747507E+00  2.7946020E+01
 9.2862501E+00  2.7825941E+01
 9.2977505E+00  2.7729858E+01
 9.3092508E+00  2.7658010E+01
 9.3207502E+00  2.7595955E+01
 9.3322506E+00  2.7524164E+01
 9.3437500E+00  2.7358511E+01
 9.3552504E+00  2.7282883E+01
 9.3667507E+00  2.7213320E+01
 9.3782501E+00  2.7169209E+01
 9.3897505E+00  2.7087564E+01
 9.4012508E+00  2.6948217E+01
 9.4127502E+00  2.6859781E+01
 9.4242506E+00  2.6779278E+01
 9.4357500E+00  2.6727282E+01
 9.4472504E+00  2.6676041E+01
 9.4587507E+00  2.6622456E+01
 9.4702501E+00  2.6617638E+01
 9.4817505E+00  2.6557180E+01
 9.4932508E+00  2.6501106E+01
 9.5047503E+00  2.6376097E+01
 9.5162506E+00  2.6318161E+01
 9.5277500E+00  2.6210012E+01
 9.5392504E+00  2.6182993E+01
 9.5507507E+00  2.6061739E+01
 9.5622501E+00  2.5964653E+01
 9.5737505E+00  2.5823187E+01
 9.5852509E+00  2.5725761E+01
 9.5967503E+00  2.5662149E+01
 9.6082506E+00  2.5572975E+01
 9.6197500E+00  2.5554937E+01
 9.6312504E+00  2.5477642E+01
 9.6427507E+00  2.5432291E+01
 9.6542501E+00  2.5397608E+01
 9.6657505E+00  2.5436232E+01
 9.6772509E+00  2.5436472E+01
 9.6887503E+00  2.5296724E+01
 9.7002506E+00  2.5185755E+01
 9.7117500E+00  2.5124119E+01
 9.7232504E+00  2.5181625E+01
 9.7347507E+00  2.5167522E+01
 9.7462502E+00  2.5235178E+01
 9.7577505E+00  2.5206062E+01
 9.7692509E+00  2.5170517E+01
 9.7807503E+00  2.5037977E+01
 9.7922506E+00  2.4945992E+01
 9.8037500E+00  2.4895140E+01
 9.8152504E+00  2.4803308E+01
 9.8267508E+00  2.4733414E+01
 9.8382502E+00  2.4617142E+01
 9.8497505E+00  2.4591032E+01
 9.8612509E+00  2.4530252E+01
 9.8727503E+00  2.4493544E+01
 9.8842506E+00  2.4438374E+01
 9.8957500E+00  2.4387806E+01
 9.9072504E+00  2.4364880E+01
 9.9187508E+00  2.4330378E+01
 9.9302502E+00  2.4311050E+01
 9.9417505E+00  2.4285540E+01
 9.9532509E+00  2.4248486E+01
 9.9647503E+00  2.4236164E+01
 9.9762506E+00  2.4220957E+01
 9.9877501E+00  2.4246649E+01
 9.9992504E+00  2.4223080E+01
 1.0010751E+01  2.4209873E+01
 1.0022250E+01  2.4158142E+01
 1.0033751E+01  2.4091946E+01
 1.0045251E+01  2.4037895E+01
 1.0056750E+01  2.3922295E+01
 1.0068251E+01  2.3921055E+01
 1.0079750E+01  2.3888805E+01
 1.0091250E+01  2.3872850E+01
 1.0102751E+01  2.3873680E+01
 1.0114250E+01  2.3837250E+01
 1.0125751E+01  2.3859699E+01
 1.0137251E+01  2.3826031E+01
 1.0148750E+01  2.3856945E+01
 1.0160251E+01  2.3770378E+01
 1.0171750E+01  2.3649860E+01
 1.0183250E+01  2.3556219E+01
 1.0194751E+01  2.3520128E+01
 1.0206250E+01  2.3514694E+01
 1.0217751E+01  2.3507225E+01
 1.0229251E+01  2.3543720E+01
 1.0240750E+01  2.3542589E+01
 1.0252251E+01  2.3454367E+01
 1.0263750E+01  2.3335100E+01
 1.0275250E+01  2.3360868E+01
 1.0286751E+01  2.3400543E+01
 1.0298250E+01  2.3461447E+01
 1.0309751E+01  2.3499479E+01
 1.0321251E+01  2.3502598E+01
 1.0332750E+01  2.3483145E+01
 1.0344251E+01  2.3415100E+01
 1.0355750E+01  2.3363285E+01
 1.0367250E+01  2.3318165E+01
 1.0378751E+01  2.3287254E+01
 1.0390250E+01  2.3251858E+01
 1.0401751E+01  2.3223389E+01
 1.0413251E+01  2.3141129E+01
 1.0424750E+01  2.3069378E+01
 1.0436251E+01  2.3084589E+01
 1.0447750E+01  2.3043694E+01
 1.0459250E+01  2.3041624E+01
 1.0470751E+01  2.3020058E+01
 1.0482250E+01  2.3058092E+01
 1.0493751E+01  2.3090591E+01
 1.0505251E+01  2.3067320E+01
 1.0516750E+01  2.3093712E+01
 1.0528251E+01  2.3084211E+01
 1.0539750E+01  2.3094923E+01
 1.0551250E+01  2.3066677E+01
 1.0562751E+01  2.3058262E+01
 1.0574250E+01  2.2996494E+01
 1.0585751E+01  2.2926430E+01
 1.0597251E+01  2.2875477E+01
 1.0608750E+01  2.2835615E+01
 1.0620251E+01  2.2839598E+01
 1.0631750E+01  2.2862202E+01
 1.0643250E+01  2.2864510E+01
 1.0654751E+01  2.2821644E+01
 1.0666250E+01  2.2765106E+01
 1.0677751E+01  2.2716782E+01
 1.0689251E+01  2.2727741E+01
 1.0700750E+01  2.2690542E+01
 1.0712251E+01  2.2748800E+01
 1.0723750E+01  2.2710117E+01
 1.0735250E+01  2.2728365E+01
 1.0746751E+01  2.2689251E+01
 1.0758250E+01  2.2720711E+01
 1.0769751E+01  2.2742310E+01
 1.0781251E+01  2.2730177E+01
 1.0792750E+01  2.2694965E+01
 1.0804251E+01  2.2665947E+01
 1.0815750E+01  2.2596680E+01
 1.0827250E+01  2.2570942E+01
 1.0838751E+01  2.2529919E+01
 1.0850250E+01  2.2531410E+01
 1.0861751E+01  2.2557859E+01
 1.0873251E+01  2.2562675E+01
 1.0884750E+01  2.2565620E+01
 1.0896251E+01  2.2459869E+01
 1.0907750E+01  2.2419178E+01
 1.0919250E+01  2.2392866E+01
 1.0930751E+01  2.2414902E+01
 1.0942250E+01  2.2405897E+01
 1.0953751E+01  2.2397221E+01
 1.0965251E+01  2.2386581E+01
 1.0976750E+01  2.2421936E+01
 1.0988251E+01  2.2444946E+01
 1.0999750E+01  2.2476278E+01
 1.1011250E+01  2.2434847E+01
 1.1022751E+01  2.2429277E+01
 1.1034250E+01  2.2381634E+01
 1.1045751E+01  2.2363728E+01
 1.1057251E+01  2.2357275E+01
 1.1068750E+01  2.2417309E+01
 1.1080251E+01  2.2429739E+01
 1.1091750E+01  2.2414684E+01
 1.1103251E+01  2.2361223E+01
 1.1114751E+01  2.2364105E+01
 1.1126250E+01  2.2321272E+01
 1.1137751E+01  2.2276211E+01
 1.1149251E+01  2.2203978E+01
 1.1160750E+01  2.2183813E+01
 1.1172251E+01  2.2147985E+01
 1.1183750E+01  2.2170452E+01
 1.1195251E+01  2.2161200E+01
 1.1206751E+01  2.2202497E+01
 1.1218250E+01  2.2142714E+01
 1.1229751E+01  2.2148203E+01
 1.1241251E+01  2.2146748E+01
 1.1252750E+01  2.2147182E+01
 1.1264251E+01  2.2150467E+01
 1.1275750E+01  2.2180380E+01
 1.1287251E+01  2.2186857E+01
 1.1298751E+01  2.2230000E+01
 1.1310250E+01  2.2223116E+01
 1.1321751E+01  2.2269915E+01
 1.1333251E+01  2.2217787E+01
 1.1344750E+01  2.2168932E+01
 1.1356251E+01  2.2135231E+01
 1.1367750E+01  2.2187780E+01
 1.1379251E+01  2.2216877E+01
 1.1390751E+01  2.2259960E+01
 1.1402250E+01  2.2319099E+01
 1.1413751E+01  2.2299858E+01
 1.1425251E+01  2.2336092E+01
 1.1436750E+01  2.2263006E+01
 1.1448251E+01  2.2294048E+01
 1.1459750E+01  2.2272484E+01
 1.1471251E+01  2.2328432E+01
 1.1482751E+01  2.2300491E+01
 1.1494250E+01  2.2296425E+01
 1.1505751E+01  2.2220444E+01
 1.1517251E+01  2.2239531E+01
 1.1528750E+01  2.2295753E+01
 1.1540251E+01  2.2357857E+01
 1.1551750E+01  2.2440372E+01
 1.1563251E+01  2.2477030E+01
 1.1574751E+01  2.2581591E+01
 1.1586250E+01  2.2636612E+01
 1.1597751E+01  2.2711758E+01
 1.1609251E+01  2.2702236E+01
 1.1620750E+01  2.2667992E+01
 1.1632251E+01  2.2571339E+01
 1.1643750E+01  2.2452581E+01
 1.1655251E+01  2.2356527E+01
 1.1666751E+01  2.2219156E+01
 1.1678250E+01  2.2107992E+01
 1.1689751E+01  2.2080776E+01
 1.1701251E+01  2.2103456E+01
 1.1712750E+01  2.2182230E+01
 1.1724251E+01  2.2204906E+01
 1.1735750E+01  2.2254913E+01
 1.1747251E+01  2.2271463E+01
 1.1758751E+01  2.2264597E+01
 1.1770250E+01  2.2181837E+01
 1.1781751E+01  2.2119143E+01
 1.1793251E+01  2.2052013E+01
 1.1804750E+01  2.2016716E+01
 1.1816251E+01  2.2000912E+01
 1.1827750E+01  2.2002539E+01
 1.1839251E+01  2.2055927E+01
 1.1850751E+01  2.2066126E+01
 1.1862250E+01  2.2139130E+01
 1.1873751E+01  2.2166506E+01
 1.1885251E+01  2.2203468E+01
 1.1896750E+01  2.2196159E+01
 1.1908251E+01  2.2182222E+01
 1.1919750E+01  2.2194059E+01
 1.1931251E+01  2.2254015E+01
 1.1942751E+01  2.2313496E+01
 1.1954250E+01  2.2378645E+01
 1.1965751E+01  2.2418068E+01
 1.1977251E+01  2.2494537E+01
 1.1988750E+01  2.2491776E+01
 1.2000251E+01  2.2468149E+01
 1.2011750E+01  2.2391926E+01
 1.2023251E+01  2.2324863E+01
 1.2034751E+01  2.2302151E+01
 1.2046250E+01  2.2325251E+01
 1.2057751E+01  2.2404943E+01
 1.2069251E+01  2.2484713E+01
 1.2080750E+01  2.2597918E+01
 1.2092251E+01  2.2602238E+01
 1.2103750E+01  2.2649261E+01
 1.2115251E+01  2.2560871E+01
 1.2126751E+01  2.2578287E+01
 1.2138250E+01  2.2462910E+01
 1.2149751E+01  2.2410139E+01
 1.2161251E+01  2.2344973E+01
 1.2172750E+01  2.2338753E+01
 1.2184251E+01  2.2342850E+01
 1.2195750E+01  2.2355118E+01
 1.2207251E+01  2.2253473E+01
 1.2218751E+01  2.2222795E+01
 1.2230250E+01  2.2177916E+01
 1.2241751E+01  2.2245161E+01
 1.2253251E+01  2.2222208E+01
 1.2264750E+01  2.2223680E+01
 1.2276251E+01  2.2181623E+01
 1.2287750E+01  2.2193068E+01
 1.2299251E+01  2.2211077E+01
 1.2310751E+01  2.2247988E+01
 1.2322250E+01  2.2246628E+01
 1.2333751E+01  2.2242529E+01
 1.2345250E+01  2.2157404E+01
 1.2356750E+01  2.2126526E+01
 1.2368251E+01  2.2054800E+01
 1.2379750E+01  2.2097618E+01
 1.2391251E+01  2.2093414E+01
 1.2402751E+01  2.2131630E+01
 1.2414250E+01  2.2158957E+01
 1.2425751E+01  2.2221571E+01
 1.2437250E+01  2.2290865E+01
 1.2448750E+01  2.2299349E+01
 1.2460251E+01  2.2329868E+01
 1.2471750E+01  2.2362999E+01
 1.2483251E+01  2.2439808E+01
 1.2494751E+01  2.2466976E+01
 1.2506250E+01  2.2414606E+01
 1.2517751E+01  2.2358675E+01
 1.2529250E+01  2.2328699E+01
 1.2540751E+01  2.2395914E+01
 1.2552251E+01  2.2478661E+01
 1.2563750E+01  2.2515060E+01
 1.2575251E+01  2.2490524E+01
 1.2586751E+01  2.2450773E+01
 1.2598250E+01  2.2453066E+01
 1.2609751E+01  2.2498844E+01
 1.2621250E+01  2.2595901E+01
 1.2632751E+01  2.2698160E+01
 1.2644251E+01  2.2733480E+01
 1.2655750E+01  2.2703222E+01
 1.2667251E+01  2.2680088E+01
 1.2678751E+01  2.2658760E+01
 1.2690250E+01  2.2679508E+01
 1.2701751E+01  2.2638958E+01
 1.2713250E+01  2.2675089E+01
 1.2724751E+01  2.2661959E+01
 1.2736251E+01  2.2693409E+01
 1.2747750E+01  2.2743607E+01
 1.2759251E+01  2.2788708E+01
 1.2770751E+01  2.2854059E+01
 1.2782250E+01  2.2850029E+01
 1.2793751E+01  2.2872995E+01
 1.2805250E+01  2.2934332E+01
 1.2816751E+01  2.3031786E+01
 1.2828251E+01  2.3126427E+01
 1.2839750E+01  2.3118868E+01
 1.2851251E+01  2.3115503E+01
 1.2862751E+01  2.3115969E+01
 1.2874250E+01  2.3181053E+01
 1.2885751E+01  2.3210373E+01
 1.2897250E+01  2.3238329E+01
 1.2908751E+01  2.3264055E+01
 1.2920251E+01  2.3312531E+01
 1.2931750E+01  2.3387613E+01
 1.2943251E+01  2.3399689E+01
 1.2954751E+01  2.3433842E+01
 1.2966250E+01  2.3471769E+01
 1.2977751E+01  2.3564087E+01
 1.2989250E+01  2.3611130E+01
 1.3000751E+01  2.3665064E+01
 1.3012251E+01  2.3713335E+01
 1.3023750E+01  2.3848179E+01
 1.3035251E+01  2.3907429E+01
 1.3046751E+01  2.4013084E+01
 1.3058250E+01  2.4073046E+01
 1.3069751E+01  2.4176414E+01
 1.3081250E+01  2.4317703E+01
 1.3092751E+01  2.4425198E+01
 1.3104251E+01  2.4518274E+01
 1.3115750E+01  2.4565470E+01
 1.3127251E+01  2.4619766E+01
 1.3138751E+01  2.4721203E+01
 1.3150250E+01  2.4849239E+01
 1.3161751E+01  2.4996563E+01
 1.3173250E+01  2.5123472E+01
 1.3184751E+01  2.5251747E+01
 1.3196251E+01  2.5388760E+01
 1.3207750E+01  2.5594147E+01
 1.3219251E+01  2.5747366E+01
 1.3230751E+01  2.5917500E+01
 1.3242250E+01  2.6065041E+01
 1.3253751E+01  2.6188471E+01
 1.3265250E+01  2.6305925E+01
 1.3276751E+01  2.6454897E+01
 1.3288251E+01  2.6568327E+01
 1.3299750E+01  2.6779518E+01
 1.3311251E+01  2.6873598E+01
 1.3322751E+01  2.7051022E+01
 1.3334250E+01  2.7146427E+01
 1.3345751E+01  2.7260004E+01
 1.3357250E+01  2.7432045E+01
 1.3368751E+01  2.7541437E+01
 1.3380251E+01  2.7705988E+01
 1.3391750E+01  2.7829203E+01
 1.3403251E+01  2.8015440E+01
 1.3414751E+01  2.8178951E+01
 1.3426250E+01  2.8307484E+01
 1.3437751E+01  2.8425875E+01
 1.3449250E+01  2.8525221E+01
 1.3460751E+01  2.8638908E+01
 1.3472251E+01  2.8696339E+01
 1.3483750E+01  2.8838139E+01
 1.3495251E+01  2.8955627E+01
 1.3506751E+01  2.9125351E+01
 1.3518250E+01  2.9216633E+01
 1.3529751E+01  2.9304262E+01
 1.3541250E+01  2.9361208E+01
 1.3552751E+01  2.9404436E+01
 1.3564251E+01  2.9454453E+01
 1.3575750E+01  2.9505465E+01
 1.3587251E+01  2.9543440E+01
 1.3598751E+01  2.9541992E+01
 1.3610250E+01  2.9487875E+01
 1.3621751E+01  2.9425457E+01
 1.3633250E+01  2.9409233E+01
 1.3644751E+01  2.9418486E+01
 1.3656251E+01  2.9405354E+01
 1.3667750E+01  2.9443239E+01
 1.3679251E+01  2.9490622E+01
 1.3690751E+01  2.9522293E+01
 1.3702250E+01  2.9480902E+01
 1.3713751E+01  2.9402798E+01
 1.3725250E+01  2.9366085E+01
 1.3736751E+01  2.9309517E+01
 1.3748251E+01  2.9257593E+01
 1.3759750E+01  2.9153955E+01
 1.3771251E+01  2.9059273E+01
 1.3782751E+01  2.8956308E+01
 1.3794250E+01  2.8903042E+01
 1.3805751E+01  2.8813272E+01
 1.3817250E+01  2.8753063E+01
 1.3828751E+01  2.8703104E+01
 1.3840251E+01  2.8612268E+01
 1.3851750E+01  2.8527664E+01
 1.3863251E+01  2.8446899E+01
 1.3874751E+01  2.8423159E+01
 1.3886250E+01  2.8472324E+01
 1.3897751E+01  2.8525688E+01
 1.3909250E+01  2.8655155E+01
 1.3920751E+01  2.8855572E+01
 1.3932251E+01  2.9009008E+01
 1.3943750E+01  2.9097694E+01
 1.3955251E+01  2.9127962E+01
 1.3966751E+01  2.8994669E+01
 1.3978251E+01  2.8773966E+01
 1.3989751E+01  2.8407612E+01
 1.4001250E+01  2.8200586E+01
 1.4012751E+01  2.7968414E+01
 1.4024251E+01  2.7702265E+01
 1.4035750E+01  2.7504932E+01
 1.4047251E+01  2.7291506E+01
 1.4058751E+01  2.7212248E+01
 1.4070251E+01  2.7071989E+01
 1.4081751E+01  2.7044857E+01
 1.4093250E+01  2.6985594E+01
 1.4104751E+01  2.6940653E+01
 1.4116251E+01  2.6921066E+01
 1.4127750E+01  2.6841192E+01
 1.4139251E+01  2.6776831E+01
 1.4150751E+01  2.6658211E+01
 1.4162251E+01  2.6585270E+01
 1.4173751E+01  2.6549885E+01
 1.4185250E+01  2.6551617E+01
 1.4196751E+01  2.6553556E+01
 1.4208251E+01  2.6512012E+01
 1.4219750E+01  2.6440336E+01
 1.4231251E+01  2.6311211E+01
 1.4242751E+01  2.6177652E+01
 1.4254251E+01  2.6080008E+01
 1.4265751E+01  2.6042778E+01
 1.4277250E+01  2.6023296E+01
 1.4288751E+01  2.6053976E+01
 1.4300251E+01  2.6064249E+01
 1.4311750E+01  2.6076656E+01
 1.4323251E+01  2.6022984E+01
 1.4334751E+01  2.5982494E+01
 1.4346251E+01  2.5895697E+01
 1.4357751E+01  2.5830336E+01
 1.4369250E+01  2.5776056E+01
 1.4380751E+01  2.5777473E+01
 1.4392251E+01  2.5765654E+01
 1.4403750E+01  2.5761631E+01
 1.4415251E+01  2.5760780E+01
 1.4426751E+01  2.5739983E+01
 1.4438251E+01  2.5637009E+01
 1.4449751E+01  2.5530405E+01
 1.4461250E+01  2.5423822E+01
 1.4472751E+01  2.5355909E+01
 1.4484251E+01  2.5318672E+01
 1.4495750E+01  2.5316107E+01
 1.4507251E+01  2.5329443E+01
 1.4518751E+01  2.5300537E+01
 1.4530251E+01  2.5277876E+01
 1.4541751E+01  2.5262218E+01
 1.4553250E+01  2.5294725E+01
 1.4564751E+01  2.5325254E+01
 1.4576251E+01  2.5344608E+01
 1.4587750E+01  2.5310814E+01
 1.4599251E+01  2.5222433E+01
 1.4610751E+01  2.5128180E+01
 1.4622251E+01  2.5018116E+01
 1.4633751E+01  2.4950228E+01
 1.4645250E+01  2.4907995E+01
 1.4656751E+01  2.4900202E+01
 1.4668251E+01  2.4876383E+01
 1.4679750E+01  2.4908197E+01
 1.4691251E+01  2.4905909E+01
 1.4702751E+01  2.4932846E+01
 1.4714251E+01  2.4910379E+01
 1.4725751E+01  2.4900742E+01
 1.4737250E+01  2.4851351E+01
 1.4748751E+01  2.4852571E+01
 1.4760251E+01  2.4833422E+01
 1.4771750E+01  2.4853714E+01
 1.4783251E+01  2.4838196E+01
 1.4794751E+01  2.4853346E+01
 1.4806251E+01  2.4845858E+01
 1.4817751E+01  2.4790539E+01
 1.4829250E+01  2.4756386E+01
 1.4840751E+01  2.4736143E+01
 1.4852251E+01  2.4753471E+01
 1.4863750E+01  2.4720251E+01
 1.4875251E+01  2.4699482E+01
 1.4886751E+01  2.4666416E+01
 1.4898251E+01  2.4673063E+01
 1.4909751E+01  2.4654665E+01
 1.4921250E+01  2.4644711E+01
 1.4932751E+01  2.4649441E+01
 1.4944251E+01  2.4658291E+01
 1.4955750E+01  2.4632284E+01
 1.4967251E+01  2.4593773E+01
 1.4978751E+01  2.4539452E+01
 1.4990251E+01  2.4498474E+01
 1.5001751E+01  2.4454893E+01
 1.5013250E+01  2.4500286E+01
 1.5024751E+01  2.4546413E+01
 1.5036251E+01  2.4571917E+01
 1.5047750E+01  2.4516449E+01
 1.5059251E+01  2.4481224E+01
 1.5070751E+01  2.4486958E+01
 1.5082251E+01  2.4491211E+01
 1.5093751E+01  2.4487694E+01
 1.5105250E+01  2.4466900E+01
 1.5116751E+01  2.4419386E+01
 1.5128251E+01  2.4342890E+01
 1.5139750E+01  2.4360722E+01
 1.5151251E+01  2.4447617E+01
 1.5162751E+01  2.4531986E+01
 1.5174251E+01  2.4569542E+01
 1.5185751E+01  2.4586182E+01
 1.5197250E+01  2.4597441E+01
 1.5208751E+01  2.4588432E+01
 1.5220251E+01  2.4572712E+01
 1.5231750E+01  2.4530712E+01
 1.5243251E+01  2.4444311E+01
 1.5254751E+01  2.4355133E+01
 1.5266251E+01  2.4291368E+01
 1.5277751E+01  2.4240286E+01
 1.5289250E+01  2.4213879E+01
 1.5300751E+01  2.4172504E+01
 1.5312251E+01  2.4140839E+01
 1.5323750E+01  2.4140030E+01
 1.5335251E+01  2.4155926E+01
 1.5346751E+01  2.4194496E+01
 1.5358251E+01  2.4246609E+01
 1.5369751E+01  2.4248415E+01
 1.5381250E+01  2.4273512E+01
 1.5392751E+01  2.4261667E+01
 1.5404251E+01  2.4332802E+01
 1.5415751E+01  2.4337111E+01
 1.5427251E+01  2.4331539E+01
 1.5438751E+01  2.4221085E+01
 1.5450251E+01  2.4162519E+01
 1.5461751E+01  2.4136974E+01
 1.5473250E+01  2.4158115E+01
 1.5484751E+01  2.4165133E+01
 1.5496251E+01  2.4183754E+01
 1.5507751E+01  2.4206879E+01
 1.5519251E+01  2.4186974E+01
 1.5530751E+01  2.4184704E+01
 1.5542251E+01  2.4183235E+01
 1.5553751E+01  2.4177944E+01
 1.5565250E+01  2.4184565E+01
 1.5576751E+01  2.4205643E+01
 1.5588251E+01  2.4261477E+01
 1.5599751E+01  2.4269247E+01
 1.5611251E+01  2.4286495E+01
 1.5622751E+01  2.4300926E+01
 1.5634251E+01  2.4278873E+01
 1.5645751E+01  2.4311714E+01
 1.5657250E+01  2.4266277E+01
 1.5668751E+01  2.4268862E+01
 1.5680251E+01  2.4233379E+01
 1.5691751E+01  2.4226084E+01
 1.5703251E+01  2.4253635E+01
 1.5714751E+01  2.4247667E+01
 1.5726251E+01  2.4320860E+01
 1.5737751E+01  2.4308338E+01
 1.5749250E+01  2.4322960E+01
 1.5760751E+01  2.4313351E+01
 1.5772251E+01  2.4308376E+01
 1.5783751E+01  2.4258791E+01
 1.5795251E+01  2.4255327E+01
 1.5806751E+01  2.4280861E+01
 1.5818251E+01  2.4282444E+01
 1.5829751E+01  2.4276758E+01
 1.5841250E+01  2.4206923E+01
 1.5852751E+01  2.4262346E+01
 1.5864251E+01  2.4226349E+01
 1.5875751E+01  2.4254433E+01
 1.5887251E+01  2.4229370E+01
 1.5898750E+01  2.4226273E+01
 1.5910251E+01  2.4225050E+01
 1.5921751E+01  2.4229202E+01
 1.5933250E+01  2.4310329E+01
 1.5944751E+01  2.4305084E+01
 1.5956251E+01  2.4255833E+01
 1.5967751E+01  2.4217731E+01
 1.5979251E+01  2.4230461E+01
 1.5990750E+01  2.4270609E+01
 1.6002251E+01  2.4276142E+01
 1.6013750E+01  2.4328625E+01
 1.6025251E+01  2.4393139E+01
 1.6036751E+01  2.4482073E+01
 1.6048250E+01  2.4497654E+01
 1.6059752E+01  2.4521776E+01
 1.6071251E+01  2.4524258E+01
 1.6082750E+01  2.4583618E+01
 1.6094252E+01  2.4542149E+01
 1.6105751E+01  2.4514666E+01
 1.6117250E+01  2.4501850E+01
 1.6128750E+01  2.4490154E+01
 1.6140251E+01  2.4570595E+01
 1.6151751E+01  2.4624762E+01
 1.6163250E+01  2.4723003E+01
 1.6174751E+01  2.4663658E+01
 1.6186251E+01  2.4724630E+01
 1.6197750E+01  2.4669811E+01
 1.6209251E+01  2.4845047E+01
 1.6220751E+01  2.4847202E+01
 1.6232250E+01  2.5075806E+01
 1.6243752E+01  2.5164980E+01
 1.6255251E+01  2.5245470E+01
 1.6266750E+01  2.5381481E+01
 1.6278252E+01  2.5201750E+01
 1.6289751E+01  2.5292076E+01
 1.6301250E+01  2.4862141E+01
 1.6312750E+01  2.4918890E+01
 1.6324251E+01  2.4595119E+01
 1.6335751E+01  2.4601955E+01
 1.6347250E+01  2.4432781E+01
 1.6358751E+01  2.4424374E+01
 1.6370251E+01  2.4329350E+01
 1.6381750E+01  2.4293789E+01
 1.6393251E+01  2.4326420E+01
 1.6404751E+01  2.4356768E+01
 1.6416250E+01  2.4419752E+01
 1.6427752E+01  2.4393389E+01
 1.6439251E+01  2.4409840E+01
 1.6450750E+01  2.4341936E+01
 1.6462252E+01  2.4336111E+01
 1.6473751E+01  2.4310951E+01
 1.6485250E+01  2.4366196E+01
 1.6496750E+01  2.4376276E+01
 1.6508251E+01  2.4373638E+01
 1.6519751E+01  2.4335794E+01
 1.6531250E+01  2.4293081E+01
 1.6542751E+01  2.4297693E+01
 1.6554251E+01  2.4307861E+01
 1.6565750E+01  2.4321726E+01
 1.6577251E+01  2.4310410E+01
 1.6588751E+01  2.4304365E+01
 1.6600250E+01  2.4358093E+01
 1.6611752E+01  2.4387001E+01
 1.6623251E+01  2.4339392E+01
 1.6634750E+01  2.4289440E+01
 1.6646252E+01  2.4243513E+01
 1.6657751E+01  2.4229780E+01
 1.6669250E+01  2.4261116E+01
 1.6680750E+01  2.4236086E+01
 1.6692251E+01  2.4248430E+01
 1.6703751E+01  2.4183735E+01
 1.6715250E+01  2.4179525E+01
 1.6726751E+01  2.4158171E+01
 1.6738251E+01  2.4178993E+01
 1.6749750E+01  2.4237429E+01
 1.6761251E+01  2.4191608E+01
 1.6772751E+01  2.4153130E+01
 1.6784250E+01  2.4082476E+01
 1.6795752E+01  2.4083279E+01
 1.6807251E+01  2.4029842E+01
 1.6818750E+01  2.4038504E+01
 1.6830252E+01  2.4079844E+01
 1.6841751E+01  2.4109484E+01
 1.6853251E+01  2.4107635E+01
 1.6864750E+01  2.4106110E+01
 1.6876251E+01  2.4164904E+01
 1.6887751E+01  2.4135653E+01
 1.6899250E+01  2.4078758E+01
 1.6910751E+01  2.4106779E+01
 1.6922251E+01  2.4161303E+01
 1.6933750E+01  2.4163687E+01
 1.6945251E+01  2.4109659E+01
 1.6956751E+01  2.4095139E+01
 1.6968250E+01  2.4043732E+01
 1.6979752E+01  2.4051407E+01
 1.6991251E+01  2.4003067E+01
 1.7002750E+01  2.4032967E+01
 1.7014252E+01  2.4037825E+01
 1.7025751E+01  2.4044876E+01
 1.7037251E+01  2.4021868E+01
 1.7048750E+01  2.3952505E+01
 1.7060251E+01  2.3908611E+01
 1.7071751E+01  2.3880653E+01
 1.7083250E+01  2.3857510E+01
 1.7094751E+01  2.3868549E+01
 1.7106251E+01  2.3869473E+01
 1.7117750E+01  2.3854216E+01
 1.7129251E+01  2.3867369E+01
 1.7140751E+01  2.3868000E+01
 1.7152250E+01  2.3945593E+01
 1.7163752E+01  2.3958519E+01
 1.7175251E+01  2.3979111E+01
 1.7186750E+01  2.3935503E+01
 1.7198252E+01  2.3907522E+01
 1.7209751E+01  2.3869534E+01
 1.7221251E+01  2.3832005E+01
 1.7232750E+01  2.3816786E+01
 1.7244251E+01  2.3778149E+01
 1.7255751E+01  2.3750566E+01
 1.7267250E+01  2.3721233E+01
 1.7278751E+01  2.3730286E+01
 1.7290251E+01  2.3773886E+01
 1.7301750E+01  2.3837324E+01
 1.7313251E+01  2.3834566E+01
 1.7324751E+01  2.3816013E+01
 1.7336250E+01  2.3763254E+01
 1.7347752E+01  2.3752993E+01
 1.7359251E+01  2.3690264E+01
 1.7370750E+01  2.3673479E+01
 1.7382252E+01  2.3663908E+01
 1.7393751E+01  2.3595610E+01
 1.7405251E+01  2.3592258E+01
 1.7416750E+01  2.3605841E+01
 1.7428251E+01  2.3643486E+01
 1.7439751E+01  2.3677006E+01
 1.7451250E+01  2.3688095E+01
 1.7462751E+01  2.3713497E+01
 1.7474251E+01  2.3679775E+01
 1.7485750E+01  2.3720753E+01
 1.7497252E+01  2.3717489E+01
 1.7508751E+01  2.3671370E+01
 1.7520250E+01  2.3597200E+01
 1.7531752E+01  2.3582840E+01
 1.7543251E+01  2.3596008E+01
 1.7554750E+01  2.3611279E+01
 1.7566252E+01  2.3606361E+01
 1.7577751E+01  2.3608963E+01
 1.7589251E+01  2.3570177E+01
 1.7600750E+01  2.3596025E+01
 1.7612251E+01  2.3581175E+01
 1.7623751E+01  2.3592909E+01
 1.7635250E+01  2.3552265E+01
 1.7646751E+01  2.3525333E+01
 1.7658251E+01  2.3472574E+01
 1.7669750E+01  2.3453310E+01
 1.7681252E+01  2.3441601E+01
 1.7692751E+01  2.3425434E+01
 1.7704250E+01  2.3374157E+01
 1.7715752E+01  2.3346436E+01
 1.7727251E+01  2.3361897E+01
 1.7738750E+01  2.3364231E+01
 1.7750252E+01  2.3369551E+01
 1.7761751E+01  2.3367373E+01
 1.7773251E+01  2.3432184E+01
 1.7784750E+01  2.3454039E+01
 1.7796251E+01  2.3482254E+01
 1.7807751E+01  2.3465822E+01
 1.7819250E+01  2.3448040E+01
 1.7830751E+01  2.3425163E+01
 1.7842251E+01  2.3386507E+01
 1.7853750E+01  2.3401695E+01
 1.7865252E+01  2.3379539E+01
 1.7876751E+01  2.3413263E+01
 1.7888250E+01  2.3387068E+01
 1.7899752E+01  2.3385262E+01
 1.7911251E+01  2.3402451E+01
 1.7922750E+01  2.3462349E+01
 1.7934252E+01  2.3501673E+01
 1.7945751E+01  2.3546926E+01
 1.7957251E+01  2.3560040E+01
 1.7968750E+01  2.3589760E+01
 1.7980251E+01  2.3515366E+01
 1.7991751E+01  2.3492449E+01
 1.8003250E+01  2.3500204E+01
 1.8014751E+01  2.3534491E+01
 1.8026251E+01  2.3516312E+01
 1.8037750E+01  2.3480949E+01
 1.8049252E+01  2.3463120E+01
 1.8060751E+01  2.3480688E+01
 1.8072250E+01  2.3509657E+01
 1.8083752E+01  2.3564606E+01
 1.8095251E+01  2.3583303E+01
 1.8106750E+01  2.3556175E+01
 1.8118252E+01  2.3565432E+01
 1.8129751E+01  2.3544247E+01
 1.8141251E+01  2.3566589E+01
 1.8152750E+01  2.3569168E+01
 1.8164251E+01  2.3650486E+01
 1.8175751E+01  2.3636309E+01
 1.8187250E+01  2.3569773E+01
 1.8198751E+01  2.3494997E+01
 1.8210251E+01  2.3449287E+01
 1.8221750E+01  2.3445795E+01
 1.8233252E+01  2.3437872E+01
 1.8244751E+01  2.3392565E+01
 1.8256250E+01  2.3326357E+01
 1.8267752E+01  2.3230135E+01
 1.8279251E+01  2.3267338E+01
 1.8290751E+01  2.3301645E+01
 1.8302252E+01  2.3345730E+01
 1.8313751E+01  2.3352934E+01
 1.8325251E+01  2.3407532E+01
 1.8336750E+01  2.3392448E+01
 1.8348251E+01  2.3382591E+01
 1.8359751E+01  2.3376102E+01
 1.8371250E+01  2.3391262E+01
 1.8382751E+01  2.3403839E+01
 1.8394251E+01  2.3412327E+01
 1.8405750E+01  2.3448143E+01
 1.8417252E+01  2.3464144E+01
 1.8428751E+01  2.3416334E+01
 1.8440250E+01  2.3423038E+01
 1.8451752E+01  2.3356762E+01
 1.8463251E+01  2.3370708E+01
 1.8474751E+01  2.3299633E+01
 1.8486252E+01  2.3274801E+01
 1.8497751E+01  2.3215082E+01
 1.8509251E+01  2.3200388E+01
 1.8520750E+01  2.3223948E+01
 1.8532251E+01  2.3230843E+01
 1.8543751E+01  2.3205454E+01
 1.8555250E+01  2.3162609E+01
 1.8566751E+01  2.3133476E+01
 1.8578251E+01  2.3124084E+01
 1.8589750E+01  2.3160507E+01
 1.8601252E+01  2.3224192E+01
 1.8612751E+01  2.3214823E+01
 1.8624250E+01  2.3214188E+01
 1.8635752E+01  2.3255091E+01
 1.8647251E+01  2.3270288E+01
 1.8658751E+01  2.3253906E+01
 1.8670252E+01  2.3241058E+01
 1.8681751E+01  2.3258598E+01
 1.8693251E+01  2.3251343E+01
 1.8704750E+01  2.3251844E+01
 1.8716251E+01  2.3275810E+01
 1.8727751E+01  2.3266943E+01
 1.8739250E+01  2.3238735E+01
 1.8750751E+01  2.3223953E+01
 1.8762251E+01  2.3193247E+01
 1.8773750E+01  2.3151426E+01
 1.8785252E+01  2.3168898E+01
 1.8796751E+01  2.3207937E+01
 1.8808250E+01  2.3230597E+01
 1.8819752E+01  2.3225508E+01
 1.8831251E+01  2.3156610E+01
 1.8842751E+01  2.3154243E+01
 1.8854252E+01  2.3136524E+01
 1.8865751E+01  2.3145666E+01
 1.8877251E+01  2.3147921E+01
 1.8888750E+01  2.3157974E+01
 1.8900251E+01  2.3166424E+01
 1.8911751E+01  2.3184162E+01
 1.8923250E+01  2.3277004E+01
 1.8934752E+01  2.3354467E+01
 1.8946251E+01  2.3428556E+01
 1.8957750E+01  2.3379610E+01
 1.8969252E+01  2.3331049E+01
 1.8980751E+01  2.3213530E+01
 1.8992250E+01  2.3149500E+01
 1.9003752E+01  2.3091742E+01
 1.9015251E+01  2.3130594E+01
 1.9026751E+01  2.3160692E+01
 1.9038252E+01  2.3121197E+01
 1.9049751E+01  2.3098055E+01
 1.9061251E+01  2.3147545E+01
 1.9072750E+01  2.3234404E+01
 1.9084251E+01  2.3294918E+01
 1.9095751E+01  2.3347071E+01
 1.9107250E+01  2.3306011E+01
 1.9118752E+01  2.3175283E+01
 1.9130251E+01  2.3123434E+01
 1.9141750E+01  2.3087051E+01
 1.9153252E+01  2.3077017E+01
 1.9164751E+01  2.3053701E+01
 1.9176250E+01  2.3149799E+01
 1.9187752E+01  2.3246332E+01
 1.9199251E+01  2.3329939E+01
 1.9210751E+01  2.3416775E+01
 1.9222252E+01  2.3453859E+01
 1.9233751E+01  2.3508387E+01
 1.9245251E+01  2.3482077E+01
 1.9256750E+01  2.3470287E+01
 1.9268251E+01  2.3412800E+01
 1.9279751E+01  2.3306480E+01
 1.9291250E+01  2.3222464E+01
 1.9302752E+01  2.3179075E+01
 1.9314251E+01  2.3160362E+01
 1.9325750E+01  2.3178490E+01
 1.9337252E+01  2.3248913E+01
 1.9348751E+01  2.3260044E+01
 1.9360250E+01  2.3274103E+01
 1.9371752E+01  2.3270229E+01
 1.9383251E+01  2.3280647E+01
 1.9394751E+01  2.3272058E+01
 1.9406250E+01  2.3292294E+01
 1.9417751E+01  2.3265446E+01
 1.9429251E+01  2.3269798E+01
 1.9440750E+01  2.3248230E+01
 1.9452251E+01  2.3275059E+01
 1.9463751E+01  2.3308083E+01
 1.9475250E+01  2.3369354E+01
 1.9486752E+01  2.3399855E+01
 1.9498251E+01  2.3356537E+01
 1.9509750E+01  2.3304003E+01
 1.9521252E+01  2.3296480E+01
 1.9532751E+01  2.3294558E+01
 1.9544250E+01  2.3282467E+01
 1.9555752E+01  2.3237123E+01
 1.9567251E+01  2.3228407E+01
 1.9578751E+01  2.3264254E+01
 1.9590250E+01  2.3271273E+01
 1.9601751E+01  2.3328909E+01
 1.9613251E+01  2.3353174E+01
 1.9624750E+01  2.3405989E+01
 1.9636251E+01  2.3443672E+01
 1.9647751E+01  2.3426441E+01
 1.9659250E+01  2.3435461E+01
 1.9670752E+01  2.3411348E+01
 1.9682251E+01  2.3424919E+01
 1.9693750E+01  2.3475351E+01
 1.9705252E+01  2.3565292E+01
 1.9716751E+01  2.3635372E+01
 1.9728251E+01  2.3658636E+01
 1.9739752E+01  2.3629414E+01
 1.9751251E+01  2.3628256E+01
 1.9762751E+01  2.3627758E+01
 1.9774250E+01  2.3588449E+01
 1.9785751E+01  2.3518644E+01
 1.9797251E+01  2.3458199E+01
 1.9808750E+01  2.3460213E+01
 1.9820251E+01  2.3453663E+01
 1.9831751E+01  2.3491600E+01
 1.9843250E+01  2.3487310E+01
 1.9854752E+01  2.3506990E+01
 1.9866251E+01  2.3538393E+01
 1.9877750E+01  2.3561062E+01
 1.9889252E+01  2.3547047E+01
 1.9900751E+01  2.3552832E+01
 1.9912251E+01  2.3530331E+01
 1.9923752E+01  2.3473700E+01
 1.9935251E+01  2.3393913E+01
 1.9946751E+01  2.3366152E+01
 1.9958250E+01  2.3353987E+01
 1.9969751E+01  2.3374289E+01
 1.9981251E+01  2.3387924E+01
 1.9992750E+01  2.3400261E+01
 2.0004251E+01  2.3397919E+01
 2.0015751E+01  2.3375624E+01
 2.0027250E+01  2.3355101E+01
 2.0038752E+01  2.3313448E+01
 2.0050251E+01  2.3284969E+01
 2.0061750E+01  2.3269255E+01
 2.0073252E+01  2.3292128E+01
 2.0084751E+01  2.3332342E+01
 2.0096251E+01  2.3377890E+01
 2.0107752E+01  2.3442879E+01
 2.0119251E+01  2.3504307E+01
 2.0130751E+01  2.3493624E+01
 2.0142250E+01  2.3482161E+01
 2.0153751E+01  2.3466511E+01
 2.0165251E+01  2.3454891E+01
 2.0176750E+01  2.3422102E+01
 2.0188251E+01  2.3396351E+01
 2.0199751E+01  2.3353785E+01
 2.0211250E+01  2.3345728E+01
 2.0222752E+01  2.3356272E+01
 2.0234251E+01  2.3372736E+01
 2.0245750E+01  2.3396999E+01
 2.0257252E+01  2.3406763E+01
 2.0268751E+01  2.3399181E+01
 2.0280251E+01  2.3403423E+01
 2.0291752E+01  2.3401133E+01
 2.0303251E+01  2.3316631E+01
 2.0314751E+01  2.3316086E+01
 2.0326250E+01  2.3317425E+01
 2.0337751E+01  2.3349022E+01
 2.0349251E+01  2.3373627E+01
 2.0360750E+01  2.3395142E+01
 2.0372252E+01  2.3348972E+01
 2.0383751E+01  2.3307476E+01
 2.0395250E+01  2.3288828E+01
 2.0406752E+01  2.3333323E+01
 2.0418251E+01  2.3390053E+01
 2.0429750E+01  2.3401495E+01
 2.0441252E+01  2.3397072E+01
 2.0452751E+01  2.3408930E+01
 2.0464251E+01  2.3493723E+01
 2.0475752E+01  2.3528572E+01
 2.0487251E+01  2.3584435E+01
 2.0498751E+01  2.3569647E+01
 2.0510250E+01  2.3502075E+01
 2.0521751E+01  2.3386635E+01
 2.0533251E+01  2.3332485E+01
 2.0544750E+01  2.3327208E+01
 2.0556252E+01  2.3416077E+01
 2.0567751E+01  2.3411777E+01
 2.0579250E+01  2.3387024E+01
 2.0590752E+01  2.3380083E+01
 2.0602251E+01  2.3419573E+01
 2.0613750E+01  2.3474047E+01
 2.0625252E+01  2.3500298E+01
 2.0636751E+01  2.3508913E+01
 2.0648251E+01  2.3492277E+01
 2.0659752E+01  2.3437820E+01
 2.0671251E+01  2.3417852E+01
 2.0682751E+01  2.3406782E+01
 2.0694250E+01  2.3454399E+01
 2.0705751E+01  2.3523563E+01
 2.0717251E+01  2.3562130E+01
 2.0728750E+01  2.3610497E+01
 2.0740252E+01  2.3660448E+01
 2.0751751E+01  2.3777634E+01
 2.0763250E+01  2.3802204E+01
 2.0774752E+01  2.3767090E+01
 2.0786251E+01  2.3711420E+01
 2.0797750E+01  2.3685741E+01
 2.0809252E+01  2.3653486E+01
 2.0820751E+01  2.3646698E+01
 2.0832251E+01  2.3625256E+01
 2.0843752E+01  2.3587210E+01
 2.0855251E+01  2.3556953E+01
 2.0866751E+01  2.3505196E+01
 2.0878250E+01  2.3492550E+01
 2.0889751E+01  2.3455692E+01
 2.0901251E+01  2.3497219E+01
 2.0912750E+01  2.3487818E+01
 2.0924252E+01  2.3496346E+01
 2.0935751E+01  2.3498356E+01
 2.0947250E+01  2.3505930E+01
 2.0958752E+01  2.3503618E+01
 2.0970251E+01  2.3499519E+01
 2.0981750E+01  2.3548616E+01
 2.0993252E+01  2.3571146E+01
 2.1004751E+01  2.3571701E+01
 2.1016251E+01  2.3527067E+01
 2.1027752E+01  2.3499445E+01
 2.1039251E+01  2.3484680E+01
 2.1050751E+01  2.3509495E+01
 2.1062250E+01  2.3529879E+01
 2.1073751E+01  2.3574095E+01
 2.1085251E+01  2.3539570E+01
 2.1096750E+01  2.3488167E+01
 2.1108252E+01  2.3413198E+01
 2.1119751E+01  2.3440559E+01
 2.1131250E+01  2.3464045E+01
 2.1142752E+01  2.3466047E+01
 2.1154251E+01  2.3439842E+01
 2.1165751E+01  2.3446959E+01
 2.1177252E+01  2.3502869E+01
 2.1188751E+01  2.3525541E+01
 2.1200251E+01  2.3553318E+01
 2.1211752E+01  2.3554071E+01
 2.1223251E+01  2.3557819E+01
 2.1234751E+01  2.3553019E+01
 2.1246250E+01  2.3581696E+01
 2.1257751E+01  2.3566679E+01
 2.1269251E+01  2.3533627E+01
 2.1280750E+01  2.3526730E+01
 2.1292252E+01  2.3549658E+01
 2.1303751E+01  2.3548002E+01
 2.1315250E+01  2.3495369E+01
 2.1326752E+01  2.3522306E+01
 2.1338251E+01  2.3538380E+01
 2.1349751E+01  2.3550556E+01
 2.1361252E+01  2.3549948E+01
 2.1372751E+01  2.3559601E+01
 2.1384251E+01  2.3531918E+01
 2.1395752E+01  2.3537281E+01
 2.1407251E+01  2.3557188E+01
 2.1418751E+01  2.3559862E+01
 2.1430250E+01  2.3559656E+01
 2.1441751E+01  2.3545473E+01
 2.1453251E+01  2.3547813E+01
 2.1464750E+01  2.3568184E+01
 2.1476252E+01  2.3596760E+01
 2.1487751E+01  2.3676893E+01
 2.1499250E+01  2.3691631E+01
 2.1510752E+01  2.3706455E+01
 2.1522251E+01  2.3701881E+01
 2.1533751E+01  2.3745968E+01
 2.1545252E+01  2.3752327E+01
 2.1556751E+01  2.3699999E+01
 2.1568251E+01  2.3658253E+01
 2.1579752E+01  2.3625681E+01
 2.1591251E+01  2.3639740E+01
 2.1602751E+01  2.3661106E+01
 2.1614250E+01  2.3685633E+01
 2.1625751E+01  2.3676691E+01
 2.1637251E+01  2.3637882E+01
 2.1648750E+01  2.3650423E+01
 2.1660252E+01  2.3679398E+01
 2.1671751E+01  2.3702618E+01
 2.1683250E+01  2.3689384E+01
 2.1694752E+01  2.3765375E+01
 2.1706251E+01  2.3804739E+01
 2.1717751E+01  2.3815659E+01
 2.1729252E+01  2.3743641E+01
 2.1740751E+01  2.3748201E+01
 2.1752251E+01  2.3703653E+01
 2.1763752E+01  2.3670284E+01
 2.1775251E+01  2.3671106E+01
 2.1786751E+01  2.3736801E+01
 2.1798250E+01  2.3765905E+01
 2.1809752E+01  2.3829868E+01
 2.1821251E+01  2.3860092E+01
 2.1832750E+01  2.3887480E+01
 2.1844252E+01  2.3887911E+01
 2.1855751E+01  2.3909304E+01
 2.1867250E+01  2.3938810E+01
 2.1878752E+01  2.3920891E+01
 2.1890251E+01  2.3906693E+01
 2.1901751E+01  2.3857576E+01
 2.1913252E+01  2.3817286E+01
 2.1924751E+01  2.3774374E+01
 2.1936251E+01  2.3789515E+01
 2.1947752E+01  2.3819851E+01
 2.1959251E+01  2.3813223E+01
 2.1970751E+01  2.3861496E+01
 2.1982250E+01  2.3853115E+01
 2.1993752E+01  2.3930819E+01
 2.2005251E+01  2.3924931E+01
 2.2016750E+01  2.3940660E+01
 2.2028252E+01  2.3925501E+01
 2.2039751E+01  2.3982510E+01
 2.2051250E+01  2.3993544E+01
 2.2062752E+01  2.4023348E+01
 2.2074251E+01  2.4123621E+01
 2.2085751E+01  2.4112053E+01
 2.2097252E+01  2.4111179E+01
 2.2108751E+01  2.4042862E+01
 2.2120251E+01  2.4064178E+01
 2.2131752E+01  2.3975946E+01
 2.2143251E+01  2.4015896E+01
 2.2154751E+01  2.3960236E+01
 2.2166250E+01  2.3935871E+01
 2.2177752E+01  2.3919510E+01
 2.2189251E+01  2.4015253E+01
 2.2200750E+01  2.4026426E+01
 2.2212252E+01  2.4218477E+01
 2.2223751E+01  2.4288851E+01
 2.2235250E+01  2.4344795E+01
 2.2246752E+01  2.4240364E+01
 2.2258251E+01  2.4220839E+01
 2.2269751E+01  2.4107046E+01
 2.2281252E+01  2.4070351E+01
 2.2292751E+01  2.4126703E+01
 2.2304251E+01  2.4172281E+01
 2.2315752E+01  2.4207077E+01
 2.2327251E+01  2.4225830E+01
 2.2338751E+01  2.4251581E+01
 2.2350250E+01  2.4222954E+01
 2.2361752E+01  2.4229568E+01
 2.2373251E+01  2.4259720E+01
 2.2384750E+01  2.4267109E+01
 2.2396252E+01  2.4259584E+01
 2.2407751E+01  2.4238483E+01
 2.2419250E+01  2.4233799E+01
 2.2430752E+01  2.4273184E+01
 2.2442251E+01  2.4347679E+01
 2.2453751E+01  2.4364594E+01
 2.2465252E+01  2.4299723E+01
 2.2476751E+01  2.4248459E+01
 2.2488251E+01  2.4286039E+01
 2.2499752E+01  2.4340267E+01
 2.2511251E+01  2.4401928E+01
 2.2522751E+01  2.4437769E+01
 2.2534250E+01  2.4438463E+01
 2.2545752E+01  2.4477749E+01
 2.2557251E+01  2.4468107E+01
 2.2568750E+01  2.4444021E+01
 2.2580252E+01  2.4441805E+01
 2.2591751E+01  2.4489885E+01
 2.2603251E+01  2.4525280E+01
 2.2614752E+01  2.4591169E+01
 2.2626251E+01  2.4660749E+01
 2.2637751E+01  2.4688543E+01
 2.2649252E+01  2.4680439E+01
 2.2660751E+01  2.4677610E+01
 2.2672251E+01  2.4667664E+01
 2.2683752E+01  2.4739746E+01
 2.2695251E+01  2.4810581E+01
 2.2706751E+01  2.4867300E+01
 2.2718250E+01  2.4866505E+01
 2.2729752E+01  2.4897869E+01
 2.2741251E+01  2.4917250E+01
 2.2752750E+01  2.4941877E+01
 2.2764252E+01  2.4926863E+01
 2.2775751E+01  2.4876520E+01
 2.2787251E+01  2.4840122E+01
 2.2798752E+01  2.4927198E+01
 2.2810251E+01  2.5005354E+01
 2.2821751E+01  2.5031273E+01
 2.2833252E+01  2.5042170E+01
 2.2844751E+01  2.5096508E+01
 2.2856251E+01  2.5107601E+01
 2.2867750E+01  2.5139515E+01
 2.2879251E+01  2.5167200E+01
 2.2890751E+01  2.5259348E+01
 2.2902250E+01  2.5287010E+01
 2.2913752E+01  2.5386642E+01
 2.2925251E+01  2.5455564E+01
 2.2936750E+01  2.5486126E+01
 2.2948252E+01  2.5521299E+01
 2.2959751E+01  2.5523327E+01
 2.2971251E+01  2.5647137E+01
 2.2982752E+01  2.5708992E+01
 2.2994251E+01  2.5770962E+01
