F:\20151113_APS_34IDE\\Brian\Particle1\OCV\Data_0016.tif
2-Theta Angle (Degrees)
Intensity
       2000
 5.7500005E-03  0.0000000E+00
 1.7250001E-02  0.0000000E+00
 2.8750001E-02  0.0000000E+00
 4.0250003E-02  0.0000000E+00
 5.1750004E-02  0.0000000E+00
 6.3250005E-02  0.0000000E+00
 7.4750006E-02  0.0000000E+00
 8.6250007E-02  0.0000000E+00
 9.7750008E-02  0.0000000E+00
 1.0925001E-01  0.0000000E+00
 1.2075000E-01  0.0000000E+00
 1.3225001E-01  0.0000000E+00
 1.4375001E-01  0.0000000E+00
 1.5525001E-01  0.0000000E+00
 1.6675001E-01  0.0000000E+00
 1.7825001E-01  0.0000000E+00
 1.8975002E-01  0.0000000E+00
 2.0125002E-01  0.0000000E+00
 2.1275002E-01  0.0000000E+00
 2.2425000E-01  0.0000000E+00
 2.3575000E-01  0.0000000E+00
 2.4725001E-01  0.0000000E+00
 2.5875002E-01  0.0000000E+00
 2.7025002E-01  0.0000000E+00
 2.8175002E-01  0.0000000E+00
 2.9325002E-01  0.0000000E+00
 3.0475003E-01  0.0000000E+00
 3.1625003E-01  0.0000000E+00
 3.2775003E-01  0.0000000E+00
 3.3925003E-01  0.0000000E+00
 3.5075003E-01  0.0000000E+00
 3.6225003E-01  0.0000000E+00
 3.7375003E-01  0.0000000E+00
 3.8525003E-01  0.0000000E+00
 3.9675003E-01  0.0000000E+00
 4.0825003E-01  0.0000000E+00
 4.1975003E-01  0.0000000E+00
 4.3125004E-01  0.0000000E+00
 4.4275001E-01  0.0000000E+00
 4.5425001E-01  0.0000000E+00
 4.6575001E-01  0.0000000E+00
 4.7725001E-01  0.0000000E+00
 4.8875001E-01  0.0000000E+00
 5.0025004E-01  0.0000000E+00
 5.1175004E-01  0.0000000E+00
 5.2325004E-01  0.0000000E+00
 5.3475004E-01  0.0000000E+00
 5.4625005E-01  0.0000000E+00
 5.5775005E-01  0.0000000E+00
 5.6925005E-01  0.0000000E+00
 5.8075005E-01  0.0000000E+00
 5.9225005E-01  0.0000000E+00
 6.0375005E-01  0.0000000E+00
 6.1525005E-01  0.0000000E+00
 6.2675005E-01  0.0000000E+00
 6.3825005E-01  0.0000000E+00
 6.4975005E-01  0.0000000E+00
 6.6125005E-01  0.0000000E+00
 6.7275006E-01  0.0000000E+00
 6.8425006E-01  0.0000000E+00
 6.9575006E-01  0.0000000E+00
 7.0725006E-01  0.0000000E+00
 7.1875006E-01  0.0000000E+00
 7.3025006E-01  0.0000000E+00
 7.4175006E-01  0.0000000E+00
 7.5325006E-01  0.0000000E+00
 7.6475006E-01  0.0000000E+00
 7.7625006E-01  0.0000000E+00
 7.8775007E-01  0.0000000E+00
 7.9925007E-01  0.0000000E+00
 8.1075007E-01  0.0000000E+00
 8.2225007E-01  0.0000000E+00
 8.3375007E-01  0.0000000E+00
 8.4525007E-01  0.0000000E+00
 8.5675007E-01  0.0000000E+00
 8.6825007E-01  0.0000000E+00
 8.7975001E-01  0.0000000E+00
 8.9125001E-01  0.0000000E+00
 9.0275002E-01  0.0000000E+00
 9.1425002E-01  0.0000000E+00
 9.2575002E-01  0.0000000E+00
 9.3725002E-01  0.0000000E+00
 9.4875002E-01  0.0000000E+00
 9.6025002E-01  0.0000000E+00
 9.7175002E-01  0.0000000E+00
 9.8325002E-01  0.0000000E+00
 9.9475002E-01  0.0000000E+00
 1.0062500E+00  0.0000000E+00
 1.0177500E+00  0.0000000E+00
 1.0292500E+00  0.0000000E+00
 1.0407500E+00  0.0000000E+00
 1.0522500E+00  0.0000000E+00
 1.0637500E+00  0.0000000E+00
 1.0752500E+00  0.0000000E+00
 1.0867500E+00  0.0000000E+00
 1.0982500E+00  0.0000000E+00
 1.1097500E+00  0.0000000E+00
 1.1212500E+00  0.0000000E+00
 1.1327500E+00  0.0000000E+00
 1.1442500E+00  0.0000000E+00
 1.1557500E+00  0.0000000E+00
 1.1672500E+00  0.0000000E+00
 1.1787500E+00  0.0000000E+00
 1.1902500E+00  0.0000000E+00
 1.2017500E+00  0.0000000E+00
 1.2132500E+00  0.0000000E+00
 1.2247500E+00  0.0000000E+00
 1.2362500E+00  0.0000000E+00
 1.2477500E+00  0.0000000E+00
 1.2592500E+00  0.0000000E+00
 1.2707500E+00  0.0000000E+00
 1.2822500E+00  0.0000000E+00
 1.2937500E+00  0.0000000E+00
 1.3052500E+00  0.0000000E+00
 1.3167500E+00  0.0000000E+00
 1.3282501E+00  0.0000000E+00
 1.3397501E+00  0.0000000E+00
 1.3512501E+00  0.0000000E+00
 1.3627501E+00  0.0000000E+00
 1.3742501E+00  0.0000000E+00
 1.3857501E+00  0.0000000E+00
 1.3972501E+00  0.0000000E+00
 1.4087501E+00  0.0000000E+00
 1.4202501E+00  0.0000000E+00
 1.4317501E+00  0.0000000E+00
 1.4432501E+00  0.0000000E+00
 1.4547501E+00  0.0000000E+00
 1.4662501E+00  0.0000000E+00
 1.4777501E+00  0.0000000E+00
 1.4892501E+00  0.0000000E+00
 1.5007501E+00  0.0000000E+00
 1.5122501E+00  0.0000000E+00
 1.5237501E+00  0.0000000E+00
 1.5352501E+00  0.0000000E+00
 1.5467501E+00  0.0000000E+00
 1.5582501E+00  0.0000000E+00
 1.5697501E+00  0.0000000E+00
 1.5812501E+00  0.0000000E+00
 1.5927501E+00  0.0000000E+00
 1.6042501E+00  0.0000000E+00
 1.6157501E+00  0.0000000E+00
 1.6272501E+00  0.0000000E+00
 1.6387501E+00  0.0000000E+00
 1.6502501E+00  0.0000000E+00
 1.6617501E+00  0.0000000E+00
 1.6732501E+00  0.0000000E+00
 1.6847501E+00  0.0000000E+00
 1.6962501E+00  0.0000000E+00
 1.7077501E+00  0.0000000E+00
 1.7192501E+00  0.0000000E+00
 1.7307501E+00  0.0000000E+00
 1.7422501E+00  0.0000000E+00
 1.7537501E+00  0.0000000E+00
 1.7652501E+00  0.0000000E+00
 1.7767501E+00  0.0000000E+00
 1.7882501E+00  0.0000000E+00
 1.7997501E+00  0.0000000E+00
 1.8112501E+00  0.0000000E+00
 1.8227501E+00  0.0000000E+00
 1.8342501E+00  0.0000000E+00
 1.8457501E+00  0.0000000E+00
 1.8572501E+00  0.0000000E+00
 1.8687501E+00  0.0000000E+00
 1.8802501E+00  0.0000000E+00
 1.8917501E+00  0.0000000E+00
 1.9032501E+00  0.0000000E+00
 1.9147501E+00  0.0000000E+00
 1.9262501E+00  0.0000000E+00
 1.9377501E+00  0.0000000E+00
 1.9492501E+00  0.0000000E+00
 1.9607501E+00  0.0000000E+00
 1.9722501E+00  0.0000000E+00
 1.9837501E+00  0.0000000E+00
 1.9952501E+00  0.0000000E+00
 2.0067501E+00  0.0000000E+00
 2.0182500E+00  0.0000000E+00
 2.0297501E+00  0.0000000E+00
 2.0412500E+00  0.0000000E+00
 2.0527501E+00  0.0000000E+00
 2.0642500E+00  0.0000000E+00
 2.0757501E+00  0.0000000E+00
 2.0872500E+00  0.0000000E+00
 2.0987501E+00  0.0000000E+00
 2.1102500E+00  0.0000000E+00
 2.1217501E+00  0.0000000E+00
 2.1332500E+00  0.0000000E+00
 2.1447501E+00  0.0000000E+00
 2.1562500E+00  0.0000000E+00
 2.1677501E+00  0.0000000E+00
 2.1792500E+00  0.0000000E+00
 2.1907501E+00  0.0000000E+00
 2.2022500E+00  0.0000000E+00
 2.2137501E+00  0.0000000E+00
 2.2252500E+00  0.0000000E+00
 2.2367501E+00  0.0000000E+00
 2.2482500E+00  0.0000000E+00
 2.2597501E+00  0.0000000E+00
 2.2712500E+00  0.0000000E+00
 2.2827501E+00  0.0000000E+00
 2.2942500E+00  0.0000000E+00
 2.3057501E+00  0.0000000E+00
 2.3172500E+00  0.0000000E+00
 2.3287501E+00  0.0000000E+00
 2.3402500E+00  0.0000000E+00
 2.3517501E+00  0.0000000E+00
 2.3632500E+00  0.0000000E+00
 2.3747501E+00  0.0000000E+00
 2.3862500E+00  0.0000000E+00
 2.3977501E+00  0.0000000E+00
 2.4092500E+00  0.0000000E+00
 2.4207501E+00  0.0000000E+00
 2.4322500E+00  0.0000000E+00
 2.4437501E+00  0.0000000E+00
 2.4552500E+00  0.0000000E+00
 2.4667501E+00  0.0000000E+00
 2.4782500E+00  0.0000000E+00
 2.4897501E+00  0.0000000E+00
 2.5012500E+00  0.0000000E+00
 2.5127501E+00  0.0000000E+00
 2.5242500E+00  0.0000000E+00
 2.5357502E+00  0.0000000E+00
 2.5472500E+00  0.0000000E+00
 2.5587502E+00  0.0000000E+00
 2.5702500E+00  0.0000000E+00
 2.5817502E+00  0.0000000E+00
 2.5932500E+00  0.0000000E+00
 2.6047502E+00  0.0000000E+00
 2.6162500E+00  0.0000000E+00
 2.6277502E+00  0.0000000E+00
 2.6392500E+00  0.0000000E+00
 2.6507502E+00  0.0000000E+00
 2.6622500E+00  0.0000000E+00
 2.6737502E+00  0.0000000E+00
 2.6852500E+00  0.0000000E+00
 2.6967502E+00  0.0000000E+00
 2.7082500E+00  0.0000000E+00
 2.7197502E+00  0.0000000E+00
 2.7312500E+00  0.0000000E+00
 2.7427502E+00  0.0000000E+00
 2.7542500E+00  0.0000000E+00
 2.7657502E+00  0.0000000E+00
 2.7772501E+00  0.0000000E+00
 2.7887502E+00  0.0000000E+00
 2.8002501E+00  0.0000000E+00
 2.8117502E+00  0.0000000E+00
 2.8232501E+00  3.4131336E+01
 2.8347502E+00  3.4786552E+01
 2.8462501E+00  3.4829994E+01
 2.8577502E+00  3.4762379E+01
 2.8692501E+00  3.4761139E+01
 2.8807502E+00  3.4870892E+01
 2.8922501E+00  3.4663521E+01
 2.9037502E+00  3.4913269E+01
 2.9152501E+00  3.5556213E+01
 2.9267502E+00  3.6043068E+01
 2.9382501E+00  3.6470837E+01
 2.9497502E+00  3.6599369E+01
 2.9612501E+00  3.6766174E+01
 2.9727502E+00  3.6703590E+01
 2.9842501E+00  3.6504993E+01
 2.9957502E+00  3.6931171E+01
 3.0072501E+00  3.7313824E+01
 3.0187502E+00  3.7420708E+01
 3.0302501E+00  3.6722595E+01
 3.0417502E+00  3.6151047E+01
 3.0532501E+00  3.5749287E+01
 3.0647502E+00  3.5809540E+01
 3.0762501E+00  3.5476643E+01
 3.0877502E+00  3.5252384E+01
 3.0992501E+00  3.5187653E+01
 3.1107502E+00  3.5203903E+01
 3.1222501E+00  3.5518597E+01
 3.1337502E+00  3.5442009E+01
 3.1452501E+00  3.5761501E+01
 3.1567502E+00  3.5560574E+01
 3.1682501E+00  3.5321243E+01
 3.1797502E+00  3.5190895E+01
 3.1912501E+00  3.4893620E+01
 3.2027502E+00  3.4982185E+01
 3.2142501E+00  3.4791058E+01
 3.2257502E+00  3.4952049E+01
 3.2372501E+00  3.5097065E+01
 3.2487502E+00  3.5320377E+01
 3.2602501E+00  3.5358078E+01
 3.2717502E+00  3.5469528E+01
 3.2832501E+00  3.5137970E+01
 3.2947502E+00  3.5195168E+01
 3.3062501E+00  3.4913300E+01
 3.3177502E+00  3.5059978E+01
 3.3292501E+00  3.5146271E+01
 3.3407502E+00  3.5173771E+01
 3.3522501E+00  3.4980270E+01
 3.3637502E+00  3.4656406E+01
 3.3752501E+00  3.4352520E+01
 3.3867502E+00  3.4053864E+01
 3.3982501E+00  3.4104336E+01
 3.4097502E+00  3.4063786E+01
 3.4212501E+00  3.4213848E+01
 3.4327502E+00  3.4412075E+01
 3.4442501E+00  3.4339066E+01
 3.4557502E+00  3.4447697E+01
 3.4672501E+00  3.4233574E+01
 3.4787502E+00  3.4238960E+01
 3.4902501E+00  3.4297161E+01
 3.5017502E+00  3.4230766E+01
 3.5132501E+00  3.4247707E+01
 3.5247502E+00  3.4389366E+01
 3.5362501E+00  3.4568512E+01
 3.5477502E+00  3.4693138E+01
 3.5592501E+00  3.4700619E+01
 3.5707502E+00  3.4293083E+01
 3.5822501E+00  3.4322598E+01
 3.5937502E+00  3.4093929E+01
 3.6052501E+00  3.4274834E+01
 3.6167502E+00  3.3987869E+01
 3.6282501E+00  3.3660091E+01
 3.6397502E+00  3.3394249E+01
 3.6512501E+00  3.3342899E+01
 3.6627502E+00  3.3375385E+01
 3.6742501E+00  3.3410694E+01
 3.6857502E+00  3.3429382E+01
 3.6972501E+00  3.3323444E+01
 3.7087502E+00  3.3059490E+01
 3.7202501E+00  3.2965286E+01
 3.7317502E+00  3.3047947E+01
 3.7432501E+00  3.3233097E+01
 3.7547503E+00  3.3134598E+01
 3.7662501E+00  3.3228672E+01
 3.7777503E+00  3.3016354E+01
 3.7892501E+00  3.2818600E+01
 3.8007503E+00  3.2302162E+01
 3.8122501E+00  3.2205280E+01
 3.8237503E+00  3.2155945E+01
 3.8352501E+00  3.2403576E+01
 3.8467503E+00  3.2543476E+01
 3.8582501E+00  3.2727886E+01
 3.8697503E+00  3.2949028E+01
 3.8812501E+00  3.3104744E+01
 3.8927503E+00  3.3156597E+01
 3.9042501E+00  3.3169067E+01
 3.9157503E+00  3.2957977E+01
 3.9272501E+00  3.2844273E+01
 3.9387503E+00  3.2736992E+01
 3.9502501E+00  3.2695206E+01
 3.9617503E+00  3.2751350E+01
 3.9732502E+00  3.2713398E+01
 3.9847503E+00  3.2700115E+01
 3.9962502E+00  3.2772869E+01
 4.0077500E+00  3.2651405E+01
 4.0192504E+00  3.2919350E+01
 4.0307503E+00  3.2710949E+01
 4.0422502E+00  3.2925804E+01
 4.0537500E+00  3.2713840E+01
 4.0652504E+00  3.2907909E+01
 4.0767503E+00  3.2805790E+01
 4.0882502E+00  3.2883163E+01
 4.0997500E+00  3.2876236E+01
 4.1112504E+00  3.2688652E+01
 4.1227503E+00  3.2596848E+01
 4.1342502E+00  3.2486698E+01
 4.1457500E+00  3.2624668E+01
 4.1572504E+00  3.2698563E+01
 4.1687503E+00  3.2750412E+01
 4.1802502E+00  3.2817978E+01
 4.1917500E+00  3.2797832E+01
 4.2032504E+00  3.2873657E+01
 4.2147503E+00  3.2762821E+01
 4.2262502E+00  3.2861984E+01
 4.2377501E+00  3.2791042E+01
 4.2492504E+00  3.2704662E+01
 4.2607503E+00  3.2588474E+01
 4.2722502E+00  3.2397991E+01
 4.2837501E+00  3.2291893E+01
 4.2952504E+00  3.2115108E+01
 4.3067503E+00  3.2202984E+01
 4.3182502E+00  3.2463272E+01
 4.3297501E+00  3.2647457E+01
 4.3412504E+00  3.2651260E+01
 4.3527503E+00  3.2738602E+01
 4.3642502E+00  3.2683163E+01
 4.3757501E+00  3.2813877E+01
 4.3872504E+00  3.2650436E+01
 4.3987503E+00  3.2594654E+01
 4.4102502E+00  3.2627392E+01
 4.4217501E+00  3.2609631E+01
 4.4332504E+00  3.2656406E+01
 4.4447503E+00  3.2526337E+01
 4.4562502E+00  3.2403103E+01
 4.4677501E+00  3.2295593E+01
 4.4792504E+00  3.2288010E+01
 4.4907503E+00  3.2312145E+01
 4.5022502E+00  3.2496216E+01
 4.5137501E+00  3.2554337E+01
 4.5252504E+00  3.2738441E+01
 4.5367503E+00  3.2632450E+01
 4.5482502E+00  3.2649830E+01
 4.5597501E+00  3.2550247E+01
 4.5712504E+00  3.2637432E+01
 4.5827503E+00  3.2537151E+01
 4.5942502E+00  3.2610081E+01
 4.6057501E+00  3.2473206E+01
 4.6172504E+00  3.2487377E+01
 4.6287503E+00  3.2405369E+01
 4.6402502E+00  3.2485298E+01
 4.6517501E+00  3.2601772E+01
 4.6632504E+00  3.2627529E+01
 4.6747503E+00  3.2587189E+01
 4.6862502E+00  3.2470901E+01
 4.6977501E+00  3.2480721E+01
 4.7092505E+00  3.2472015E+01
 4.7207503E+00  3.2573124E+01
 4.7322502E+00  3.2487015E+01
 4.7437501E+00  3.2569153E+01
 4.7552505E+00  3.2509453E+01
 4.7667503E+00  3.2714893E+01
 4.7782502E+00  3.2804836E+01
 4.7897501E+00  3.2826881E+01
 4.8012505E+00  3.2799736E+01
 4.8127503E+00  3.2715874E+01
 4.8242502E+00  3.2676346E+01
 4.8357501E+00  3.2587479E+01
 4.8472505E+00  3.2630211E+01
 4.8587503E+00  3.2779339E+01
 4.8702502E+00  3.2886379E+01
 4.8817501E+00  3.2904495E+01
 4.8932505E+00  3.2911709E+01
 4.9047503E+00  3.2950485E+01
 4.9162502E+00  3.3088200E+01
 4.9277501E+00  3.3083454E+01
 4.9392505E+00  3.3224701E+01
 4.9507504E+00  3.3200287E+01
 4.9622502E+00  3.3248947E+01
 4.9737501E+00  3.3228966E+01
 4.9852505E+00  3.3257637E+01
 4.9967504E+00  3.3340710E+01
 5.0082502E+00  3.3428978E+01
 5.0197501E+00  3.3407055E+01
 5.0312505E+00  3.3458031E+01
 5.0427504E+00  3.3472851E+01
 5.0542502E+00  3.3629429E+01
 5.0657501E+00  3.3627266E+01
 5.0772505E+00  3.3673809E+01
 5.0887504E+00  3.3682934E+01
 5.1002502E+00  3.3814812E+01
 5.1117501E+00  3.3854053E+01
 5.1232505E+00  3.3809608E+01
 5.1347504E+00  3.3860310E+01
 5.1462502E+00  3.3923988E+01
 5.1577501E+00  3.3941143E+01
 5.1692505E+00  3.3893761E+01
 5.1807504E+00  3.3796406E+01
 5.1922503E+00  3.3869068E+01
 5.2037501E+00  3.3873829E+01
 5.2152505E+00  3.3929909E+01
 5.2267504E+00  3.3982929E+01
 5.2382503E+00  3.4098614E+01
 5.2497501E+00  3.4118847E+01
 5.2612505E+00  3.4238319E+01
 5.2727504E+00  3.4088291E+01
 5.2842503E+00  3.4219692E+01
 5.2957501E+00  3.4162655E+01
 5.3072500E+00  3.4382324E+01
 5.3187504E+00  3.4539646E+01
 5.3302503E+00  3.4676037E+01
 5.3417501E+00  3.4785816E+01
 5.3532500E+00  3.4736324E+01
 5.3647504E+00  3.4717819E+01
 5.3762503E+00  3.4751110E+01
 5.3877501E+00  3.5035931E+01
 5.3992500E+00  3.5126240E+01
 5.4107504E+00  3.5109390E+01
 5.4222503E+00  3.4962608E+01
 5.4337502E+00  3.4874832E+01
 5.4452500E+00  3.4860947E+01
 5.4567504E+00  3.4876789E+01
 5.4682503E+00  3.4956760E+01
 5.4797502E+00  3.5067173E+01
 5.4912500E+00  3.5142326E+01
 5.5027504E+00  3.5215214E+01
 5.5142503E+00  3.5294922E+01
 5.5257502E+00  3.5319389E+01
 5.5372500E+00  3.5177498E+01
 5.5487504E+00  3.5044304E+01
 5.5602503E+00  3.5025852E+01
 5.5717502E+00  3.4991104E+01
 5.5832500E+00  3.5015003E+01
 5.5947504E+00  3.4985806E+01
 5.6062503E+00  3.5188950E+01
 5.6177502E+00  3.5230247E+01
 5.6292500E+00  3.5278217E+01
 5.6407504E+00  3.5171726E+01
 5.6522503E+00  3.5186764E+01
 5.6637502E+00  3.5284477E+01
 5.6752501E+00  3.5385303E+01
 5.6867504E+00  3.5487614E+01
 5.6982503E+00  3.5356659E+01
 5.7097502E+00  3.5294094E+01
 5.7212501E+00  3.5292152E+01
 5.7327504E+00  3.5349136E+01
 5.7442503E+00  3.5469944E+01
 5.7557502E+00  3.5512741E+01
 5.7672501E+00  3.5558640E+01
 5.7787504E+00  3.5480282E+01
 5.7902503E+00  3.5513695E+01
 5.8017502E+00  3.5536415E+01
 5.8132501E+00  3.5866486E+01
 5.8247504E+00  3.6013065E+01
 5.8362503E+00  3.6158428E+01
 5.8477502E+00  3.6206345E+01
 5.8592501E+00  3.6217495E+01
 5.8707504E+00  3.6464508E+01
 5.8822503E+00  3.6734695E+01
 5.8937502E+00  3.7251690E+01
 5.9052501E+00  3.7711094E+01
 5.9167504E+00  3.8408634E+01
 5.9282503E+00  3.9175983E+01
 5.9397502E+00  4.1022003E+01
 5.9512501E+00  4.2828457E+01
 5.9627504E+00  4.5456432E+01
 5.9742503E+00  4.8107094E+01
 5.9857502E+00  5.0171757E+01
 5.9972501E+00  5.0357731E+01
 6.0087504E+00  4.8865273E+01
 6.0202503E+00  4.6083084E+01
 6.0317502E+00  4.3872223E+01
 6.0432501E+00  4.1257217E+01
 6.0547504E+00  3.9881554E+01
 6.0662503E+00  3.8751225E+01
 6.0777502E+00  3.8041397E+01
 6.0892501E+00  3.7652824E+01
 6.1007504E+00  3.7409611E+01
 6.1122503E+00  3.7349838E+01
 6.1237502E+00  3.7295734E+01
 6.1352501E+00  3.7150730E+01
 6.1467505E+00  3.7080784E+01
 6.1582503E+00  3.7226437E+01
 6.1697502E+00  3.7275921E+01
 6.1812501E+00  3.7370007E+01
 6.1927505E+00  3.7325466E+01
 6.2042503E+00  3.7228771E+01
 6.2157502E+00  3.7268307E+01
 6.2272501E+00  3.7279015E+01
 6.2387505E+00  3.7340687E+01
 6.2502503E+00  3.7398933E+01
 6.2617502E+00  3.7412540E+01
 6.2732501E+00  3.7549534E+01
 6.2847505E+00  3.7697594E+01
 6.2962503E+00  3.7780674E+01
 6.3077502E+00  3.7960915E+01
 6.3192501E+00  3.8001457E+01
 6.3307505E+00  3.8237453E+01
 6.3422503E+00  3.8243252E+01
 6.3537502E+00  3.8237579E+01
 6.3652501E+00  3.8218182E+01
 6.3767505E+00  3.8242149E+01
 6.3882504E+00  3.8321835E+01
 6.3997502E+00  3.8249954E+01
 6.4112501E+00  3.8341915E+01
 6.4227505E+00  3.8457451E+01
 6.4342504E+00  3.8616787E+01
 6.4457502E+00  3.8688503E+01
 6.4572501E+00  3.8811440E+01
 6.4687505E+00  3.8860928E+01
 6.4802504E+00  3.8843666E+01
 6.4917502E+00  3.8776730E+01
 6.5032501E+00  3.8899784E+01
 6.5147505E+00  3.8966686E+01
 6.5262504E+00  3.9090405E+01
 6.5377502E+00  3.9195995E+01
 6.5492501E+00  3.9270119E+01
 6.5607505E+00  3.9452751E+01
 6.5722504E+00  3.9440479E+01
 6.5837502E+00  3.9561462E+01
 6.5952501E+00  3.9678108E+01
 6.6067505E+00  3.9788948E+01
 6.6182504E+00  3.9930939E+01
 6.6297503E+00  4.0036652E+01
 6.6412501E+00  4.0089649E+01
 6.6527505E+00  4.0262470E+01
 6.6642504E+00  4.0295036E+01
 6.6757503E+00  4.0325806E+01
 6.6872501E+00  4.0263901E+01
 6.6987505E+00  4.0231888E+01
 6.7102504E+00  4.0341782E+01
 6.7217503E+00  4.0527439E+01
 6.7332501E+00  4.0681904E+01
 6.7447505E+00  4.0849003E+01
 6.7562504E+00  4.1063816E+01
 6.7677503E+00  4.1092999E+01
 6.7792501E+00  4.1176205E+01
 6.7907505E+00  4.1225113E+01
 6.8022504E+00  4.1307304E+01
 6.8137503E+00  4.1422302E+01
 6.8252501E+00  4.1470619E+01
 6.8367505E+00  4.1587460E+01
 6.8482504E+00  4.1654652E+01
 6.8597503E+00  4.1677979E+01
 6.8712502E+00  4.1655720E+01
 6.8827505E+00  4.1662548E+01
 6.8942504E+00  4.1705364E+01
 6.9057503E+00  4.1793800E+01
 6.9172502E+00  4.1918556E+01
 6.9287505E+00  4.1873840E+01
 6.9402504E+00  4.1983162E+01
 6.9517503E+00  4.2061245E+01
 6.9632502E+00  4.2288441E+01
 6.9747505E+00  4.2389114E+01
 6.9862504E+00  4.2417858E+01
 6.9977503E+00  4.2362480E+01
 7.0092502E+00  4.2324341E+01
 7.0207505E+00  4.2333027E+01
 7.0322504E+00  4.2425354E+01
 7.0437503E+00  4.2502579E+01
 7.0552502E+00  4.2684803E+01
 7.0667505E+00  4.2912560E+01
 7.0782504E+00  4.3071144E+01
 7.0897503E+00  4.3248798E+01
 7.1012502E+00  4.3333996E+01
 7.1127505E+00  4.3441685E+01
 7.1242504E+00  4.3466122E+01
 7.1357503E+00  4.3475094E+01
 7.1472502E+00  4.3421398E+01
 7.1587505E+00  4.3420506E+01
 7.1702504E+00  4.3372414E+01
 7.1817503E+00  4.3391403E+01
 7.1932502E+00  4.3446842E+01
 7.2047505E+00  4.3505493E+01
 7.2162504E+00  4.3551270E+01
 7.2277503E+00  4.3611099E+01
 7.2392502E+00  4.3663570E+01
 7.2507505E+00  4.3686256E+01
 7.2622504E+00  4.3723000E+01
 7.2737503E+00  4.3814598E+01
 7.2852502E+00  4.3885384E+01
 7.2967505E+00  4.3948551E+01
 7.3082504E+00  4.3977592E+01
 7.3197503E+00  4.4070370E+01
 7.3312502E+00  4.4196049E+01
 7.3427505E+00  4.4247646E+01
 7.3542504E+00  4.4398270E+01
 7.3657503E+00  4.4457695E+01
 7.3772502E+00  4.4499859E+01
 7.3887506E+00  4.4545948E+01
 7.4002504E+00  4.4438694E+01
 7.4117503E+00  4.4494350E+01
 7.4232502E+00  4.4372189E+01
 7.4347506E+00  4.4445942E+01
 7.4462504E+00  4.4365562E+01
 7.4577503E+00  4.4481892E+01
 7.4692502E+00  4.4533669E+01
 7.4807506E+00  4.4602970E+01
 7.4922504E+00  4.4648712E+01
 7.5037503E+00  4.4663406E+01
 7.5152502E+00  4.4670044E+01
 7.5267506E+00  4.4538651E+01
 7.5382504E+00  4.4450047E+01
 7.5497503E+00  4.4338444E+01
 7.5612502E+00  4.4360050E+01
 7.5727506E+00  4.4477600E+01
 7.5842505E+00  4.4547764E+01
 7.5957503E+00  4.4640976E+01
 7.6072502E+00  4.4578876E+01
 7.6187506E+00  4.4547813E+01
 7.6302505E+00  4.4547977E+01
 7.6417503E+00  4.4518166E+01
 7.6532502E+00  4.4598793E+01
 7.6647506E+00  4.4650829E+01
 7.6762505E+00  4.4635021E+01
 7.6877503E+00  4.4717018E+01
 7.6992502E+00  4.4659267E+01
 7.7107506E+00  4.4751030E+01
 7.7222505E+00  4.4753330E+01
 7.7337503E+00  4.4758156E+01
 7.7452502E+00  4.4773762E+01
 7.7567506E+00  4.4594658E+01
 7.7682505E+00  4.4481853E+01
 7.7797503E+00  4.4348568E+01
 7.7912502E+00  4.4345531E+01
 7.8027506E+00  4.4355946E+01
 7.8142505E+00  4.4329212E+01
 7.8257504E+00  4.4256775E+01
 7.8372502E+00  4.4294846E+01
 7.8487506E+00  4.4286205E+01
 7.8602505E+00  4.4365913E+01
 7.8717504E+00  4.4273598E+01
 7.8832502E+00  4.4244820E+01
 7.8947506E+00  4.4158314E+01
 7.9062505E+00  4.4205490E+01
 7.9177504E+00  4.4276306E+01
 7.9292502E+00  4.4285877E+01
 7.9407506E+00  4.4298000E+01
 7.9522505E+00  4.4165447E+01
 7.9637504E+00  4.4104034E+01
 7.9752502E+00  4.3966717E+01
 7.9867506E+00  4.3975338E+01
 7.9982505E+00  4.3972588E+01
 8.0097504E+00  4.3980507E+01
 8.0212507E+00  4.3849865E+01
 8.0327501E+00  4.3727516E+01
 8.0442505E+00  4.3511456E+01
 8.0557508E+00  4.3395573E+01
 8.0672503E+00  4.3325569E+01
 8.0787506E+00  4.3271935E+01
 8.0902500E+00  4.3352734E+01
 8.1017504E+00  4.3321743E+01
 8.1132507E+00  4.3353626E+01
 8.1247501E+00  4.3180283E+01
 8.1362505E+00  4.3116135E+01
 8.1477509E+00  4.2959732E+01
 8.1592503E+00  4.2867825E+01
 8.1707506E+00  4.2712238E+01
 8.1822500E+00  4.2551117E+01
 8.1937504E+00  4.2465931E+01
 8.2052507E+00  4.2362137E+01
 8.2167501E+00  4.2261600E+01
 8.2282505E+00  4.2125465E+01
 8.2397509E+00  4.2000893E+01
 8.2512503E+00  4.1888611E+01
 8.2627506E+00  4.1729847E+01
 8.2742500E+00  4.1454243E+01
 8.2857504E+00  4.1270439E+01
 8.2972507E+00  4.1021702E+01
 8.3087502E+00  4.0866341E+01
 8.3202505E+00  4.0754951E+01
 8.3317509E+00  4.0698120E+01
 8.3432503E+00  4.0685619E+01
 8.3547506E+00  4.0691414E+01
 8.3662500E+00  4.0646259E+01
 8.3777504E+00  4.0487209E+01
 8.3892508E+00  4.0167461E+01
 8.4007502E+00  3.9889713E+01
 8.4122505E+00  3.9689671E+01
 8.4237509E+00  3.9501144E+01
 8.4352503E+00  3.9331150E+01
 8.4467506E+00  3.9197845E+01
 8.4582500E+00  3.9051266E+01
 8.4697504E+00  3.8938599E+01
 8.4812508E+00  3.8743160E+01
 8.4927502E+00  3.8611282E+01
 8.5042505E+00  3.8420586E+01
 8.5157509E+00  3.8273453E+01
 8.5272503E+00  3.8084904E+01
 8.5387506E+00  3.7859749E+01
 8.5502501E+00  3.7564892E+01
 8.5617504E+00  3.7283096E+01
 8.5732508E+00  3.7137920E+01
 8.5847502E+00  3.6952225E+01
 8.5962505E+00  3.6767822E+01
 8.6077509E+00  3.6574303E+01
 8.6192503E+00  3.6522636E+01
 8.6307507E+00  3.6478737E+01
 8.6422501E+00  3.6427551E+01
 8.6537504E+00  3.6216743E+01
 8.6652508E+00  3.5995647E+01
 8.6767502E+00  3.5676350E+01
 8.6882505E+00  3.5439381E+01
 8.6997509E+00  3.5239437E+01
 8.7112503E+00  3.5074211E+01
 8.7227507E+00  3.4947098E+01
 8.7342501E+00  3.4761070E+01
 8.7457504E+00  3.4573704E+01
 8.7572508E+00  3.4336258E+01
 8.7687502E+00  3.4162224E+01
 8.7802505E+00  3.4020973E+01
 8.7917500E+00  3.3929253E+01
 8.8032503E+00  3.3837582E+01
 8.8147507E+00  3.3735577E+01
 8.8262501E+00  3.3627285E+01
 8.8377504E+00  3.3570385E+01
 8.8492508E+00  3.3417019E+01
 8.8607502E+00  3.3184063E+01
 8.8722506E+00  3.2940681E+01
 8.8837500E+00  3.2724167E+01
 8.8952503E+00  3.2562172E+01
 8.9067507E+00  3.2416794E+01
 8.9182501E+00  3.2332977E+01
 8.9297504E+00  3.2278408E+01
 8.9412508E+00  3.2063858E+01
 8.9527502E+00  3.1887440E+01
 8.9642506E+00  3.1702896E+01
 8.9757500E+00  3.1570955E+01
 8.9872503E+00  3.1329384E+01
 8.9987507E+00  3.1122843E+01
 9.0102501E+00  3.0871983E+01
 9.0217505E+00  3.0835033E+01
 9.0332508E+00  3.0776329E+01
 9.0447502E+00  3.0773954E+01
 9.0562506E+00  3.0614122E+01
 9.0677500E+00  3.0469332E+01
 9.0792503E+00  3.0356621E+01
 9.0907507E+00  3.0239866E+01
 9.1022501E+00  3.0067200E+01
 9.1137505E+00  2.9926117E+01
 9.1252508E+00  2.9806620E+01
 9.1367502E+00  2.9731514E+01
 9.1482506E+00  2.9648094E+01
 9.1597500E+00  2.9550598E+01
 9.1712503E+00  2.9427776E+01
 9.1827507E+00  2.9255569E+01
 9.1942501E+00  2.9085539E+01
 9.2057505E+00  2.8929646E+01
 9.2172508E+00  2.8829021E+01
 9.2287502E+00  2.8738417E+01
 9.2402506E+00  2.8692883E+01
 9.2517500E+00  2.8638126E+01
 9.2632504E+00  2.8600998E+01
 9.2747507E+00  2.8562592E+01
 9.2862501E+00  2.8468981E+01
 9.2977505E+00  2.8354811E+01
 9.3092508E+00  2.8221012E+01
 9.3207502E+00  2.8094086E+01
 9.3322506E+00  2.8037922E+01
 9.3437500E+00  2.7937572E+01
 9.3552504E+00  2.7886873E+01
 9.3667507E+00  2.7794863E+01
 9.3782501E+00  2.7763931E+01
 9.3897505E+00  2.7663074E+01
 9.4012508E+00  2.7650040E+01
 9.4127502E+00  2.7574427E+01
 9.4242506E+00  2.7583368E+01
 9.4357500E+00  2.7500912E+01
 9.4472504E+00  2.7468472E+01
 9.4587507E+00  2.7411781E+01
 9.4702501E+00  2.7318777E+01
 9.4817505E+00  2.7182665E+01
 9.4932508E+00  2.7017485E+01
 9.5047503E+00  2.6914795E+01
 9.5162506E+00  2.6861366E+01
 9.5277500E+00  2.6791220E+01
 9.5392504E+00  2.6730907E+01
 9.5507507E+00  2.6595581E+01
 9.5622501E+00  2.6576721E+01
 9.5737505E+00  2.6477222E+01
 9.5852509E+00  2.6444714E+01
 9.5967503E+00  2.6407335E+01
 9.6082506E+00  2.6389084E+01
 9.6197500E+00  2.6361427E+01
 9.6312504E+00  2.6224554E+01
 9.6427507E+00  2.6143332E+01
 9.6542501E+00  2.6039783E+01
 9.6657505E+00  2.5966192E+01
 9.6772509E+00  2.5858082E+01
 9.6887503E+00  2.5808514E+01
 9.7002506E+00  2.5782444E+01
 9.7117500E+00  2.5772753E+01
 9.7232504E+00  2.5736576E+01
 9.7347507E+00  2.5685677E+01
 9.7462502E+00  2.5631741E+01
 9.7577505E+00  2.5522884E+01
 9.7692509E+00  2.5465822E+01
 9.7807503E+00  2.5393061E+01
 9.7922506E+00  2.5384106E+01
 9.8037500E+00  2.5339794E+01
 9.8152504E+00  2.5324326E+01
 9.8267508E+00  2.5270178E+01
 9.8382502E+00  2.5266621E+01
 9.8497505E+00  2.5187756E+01
 9.8612509E+00  2.5089945E+01
 9.8727503E+00  2.5016069E+01
 9.8842506E+00  2.4993107E+01
 9.8957500E+00  2.5046207E+01
 9.9072504E+00  2.5081543E+01
 9.9187508E+00  2.5133154E+01
 9.9302502E+00  2.5102840E+01
 9.9417505E+00  2.5085085E+01
 9.9532509E+00  2.5004761E+01
 9.9647503E+00  2.4986992E+01
 9.9762506E+00  2.4995441E+01
 9.9877501E+00  2.4929604E+01
 9.9992504E+00  2.4921061E+01
 1.0010751E+01  2.4810616E+01
 1.0022250E+01  2.4807529E+01
 1.0033751E+01  2.4776592E+01
 1.0045251E+01  2.4675333E+01
 1.0056750E+01  2.4612164E+01
 1.0068251E+01  2.4547714E+01
 1.0079750E+01  2.4562052E+01
 1.0091250E+01  2.4541319E+01
 1.0102751E+01  2.4519773E+01
 1.0114250E+01  2.4526800E+01
 1.0125751E+01  2.4532661E+01
 1.0137251E+01  2.4502253E+01
 1.0148750E+01  2.4525257E+01
 1.0160251E+01  2.4529718E+01
 1.0171750E+01  2.4514095E+01
 1.0183250E+01  2.4428886E+01
 1.0194751E+01  2.4376942E+01
 1.0206250E+01  2.4351772E+01
 1.0217751E+01  2.4305714E+01
 1.0229251E+01  2.4204199E+01
 1.0240750E+01  2.4141848E+01
 1.0252251E+01  2.4063469E+01
 1.0263750E+01  2.4038431E+01
 1.0275250E+01  2.4004858E+01
 1.0286751E+01  2.3981331E+01
 1.0298250E+01  2.3939749E+01
 1.0309751E+01  2.3895462E+01
 1.0321251E+01  2.3868212E+01
 1.0332750E+01  2.3830822E+01
 1.0344251E+01  2.3794024E+01
 1.0355750E+01  2.3806494E+01
 1.0367250E+01  2.3790949E+01
 1.0378751E+01  2.3795351E+01
 1.0390250E+01  2.3811525E+01
 1.0401751E+01  2.3871044E+01
 1.0413251E+01  2.3845945E+01
 1.0424750E+01  2.3814493E+01
 1.0436251E+01  2.3729282E+01
 1.0447750E+01  2.3689007E+01
 1.0459250E+01  2.3661434E+01
 1.0470751E+01  2.3687197E+01
 1.0482250E+01  2.3705944E+01
 1.0493751E+01  2.3695461E+01
 1.0505251E+01  2.3668537E+01
 1.0516750E+01  2.3595146E+01
 1.0528251E+01  2.3482203E+01
 1.0539750E+01  2.3435020E+01
 1.0551250E+01  2.3427521E+01
 1.0562751E+01  2.3468372E+01
 1.0574250E+01  2.3392841E+01
 1.0585751E+01  2.3342815E+01
 1.0597251E+01  2.3297480E+01
 1.0608750E+01  2.3302973E+01
 1.0620251E+01  2.3370209E+01
 1.0631750E+01  2.3383120E+01
 1.0643250E+01  2.3411388E+01
 1.0654751E+01  2.3363070E+01
 1.0666250E+01  2.3318556E+01
 1.0677751E+01  2.3242083E+01
 1.0689251E+01  2.3193970E+01
 1.0700750E+01  2.3176607E+01
 1.0712251E+01  2.3158693E+01
 1.0723750E+01  2.3147308E+01
 1.0735250E+01  2.3118002E+01
 1.0746751E+01  2.3121168E+01
 1.0758250E+01  2.3090679E+01
 1.0769751E+01  2.3070719E+01
 1.0781251E+01  2.3057947E+01
 1.0792750E+01  2.3053732E+01
 1.0804251E+01  2.3036257E+01
 1.0815750E+01  2.3008034E+01
 1.0827250E+01  2.3030071E+01
 1.0838751E+01  2.3009747E+01
 1.0850250E+01  2.3087336E+01
 1.0861751E+01  2.3100241E+01
 1.0873251E+01  2.3178968E+01
 1.0884750E+01  2.3137629E+01
 1.0896251E+01  2.3096233E+01
 1.0907750E+01  2.3120501E+01
 1.0919250E+01  2.3143686E+01
 1.0930751E+01  2.3160254E+01
 1.0942250E+01  2.3153667E+01
 1.0953751E+01  2.3139044E+01
 1.0965251E+01  2.3133629E+01
 1.0976750E+01  2.3088749E+01
 1.0988251E+01  2.3009832E+01
 1.0999750E+01  2.2945236E+01
 1.1011250E+01  2.2887957E+01
 1.1022751E+01  2.2868521E+01
 1.1034250E+01  2.2875959E+01
 1.1045751E+01  2.2797331E+01
 1.1057251E+01  2.2816645E+01
 1.1068750E+01  2.2832687E+01
 1.1080251E+01  2.2913965E+01
 1.1091750E+01  2.2896175E+01
 1.1103251E+01  2.2884520E+01
 1.1114751E+01  2.2817341E+01
 1.1126250E+01  2.2793209E+01
 1.1137751E+01  2.2726561E+01
 1.1149251E+01  2.2777094E+01
 1.1160750E+01  2.2830996E+01
 1.1172251E+01  2.2873869E+01
 1.1183750E+01  2.2876797E+01
 1.1195251E+01  2.2848808E+01
 1.1206751E+01  2.2820868E+01
 1.1218250E+01  2.2768379E+01
 1.1229751E+01  2.2713354E+01
 1.1241251E+01  2.2746609E+01
 1.1252750E+01  2.2774467E+01
 1.1264251E+01  2.2785137E+01
 1.1275750E+01  2.2782181E+01
 1.1287251E+01  2.2749512E+01
 1.1298751E+01  2.2795858E+01
 1.1310250E+01  2.2837725E+01
 1.1321751E+01  2.2939793E+01
 1.1333251E+01  2.2951469E+01
 1.1344750E+01  2.2953707E+01
 1.1356251E+01  2.2952339E+01
 1.1367750E+01  2.3016081E+01
 1.1379251E+01  2.3073135E+01
 1.1390751E+01  2.3145691E+01
 1.1402250E+01  2.3300255E+01
 1.1413751E+01  2.3324167E+01
 1.1425251E+01  2.3322042E+01
 1.1436750E+01  2.3281460E+01
 1.1448251E+01  2.3345228E+01
 1.1459750E+01  2.3509081E+01
 1.1471251E+01  2.3638096E+01
 1.1482751E+01  2.3747492E+01
 1.1494250E+01  2.3911663E+01
 1.1505751E+01  2.4103981E+01
 1.1517251E+01  2.4627914E+01
 1.1528750E+01  2.5814558E+01
 1.1540251E+01  2.7584381E+01
 1.1551750E+01  3.1420616E+01
 1.1563251E+01  3.5880726E+01
 1.1574751E+01  3.8653271E+01
 1.1586250E+01  4.3268173E+01
 1.1597751E+01  4.3109879E+01
 1.1609251E+01  4.2375050E+01
 1.1620750E+01  3.7734165E+01
 1.1632251E+01  3.3389313E+01
 1.1643750E+01  3.0128973E+01
 1.1655251E+01  2.6262909E+01
 1.1666751E+01  2.5111643E+01
 1.1678250E+01  2.4317608E+01
 1.1689751E+01  2.3779211E+01
 1.1701251E+01  2.3530424E+01
 1.1712750E+01  2.3371840E+01
 1.1724251E+01  2.3222935E+01
 1.1735750E+01  2.3194309E+01
 1.1747251E+01  2.3124420E+01
 1.1758751E+01  2.3096476E+01
 1.1770250E+01  2.2974510E+01
 1.1781751E+01  2.2930447E+01
 1.1793251E+01  2.2927488E+01
 1.1804750E+01  2.2915348E+01
 1.1816251E+01  2.2916555E+01
 1.1827750E+01  2.2899639E+01
 1.1839251E+01  2.2915470E+01
 1.1850751E+01  2.2864508E+01
 1.1862250E+01  2.2842031E+01
 1.1873751E+01  2.2804550E+01
 1.1885251E+01  2.2846008E+01
 1.1896750E+01  2.2980947E+01
 1.1908251E+01  2.3070082E+01
 1.1919750E+01  2.3197983E+01
 1.1931251E+01  2.3268612E+01
 1.1942751E+01  2.3489477E+01
 1.1954250E+01  2.3786457E+01
 1.1965751E+01  2.4087975E+01
 1.1977251E+01  2.4351746E+01
 1.1988750E+01  2.4494585E+01
 1.2000251E+01  2.4447659E+01
 1.2011750E+01  2.4293190E+01
 1.2023251E+01  2.4061480E+01
 1.2034751E+01  2.4057159E+01
 1.2046250E+01  2.4160547E+01
 1.2057751E+01  2.4551451E+01
 1.2069251E+01  2.5183279E+01
 1.2080750E+01  2.5852594E+01
 1.2092251E+01  2.6388838E+01
 1.2103750E+01  2.6510818E+01
 1.2115251E+01  2.6382874E+01
 1.2126751E+01  2.5850594E+01
 1.2138250E+01  2.5218811E+01
 1.2149751E+01  2.4515266E+01
 1.2161251E+01  2.4021326E+01
 1.2172750E+01  2.3582903E+01
 1.2184251E+01  2.3297094E+01
 1.2195750E+01  2.3056711E+01
 1.2207251E+01  2.2934799E+01
 1.2218751E+01  2.2873783E+01
 1.2230250E+01  2.2894152E+01
 1.2241751E+01  2.2912645E+01
 1.2253251E+01  2.2922403E+01
 1.2264750E+01  2.2915136E+01
 1.2276251E+01  2.2864933E+01
 1.2287750E+01  2.2904430E+01
 1.2299251E+01  2.2876780E+01
 1.2310751E+01  2.2939133E+01
 1.2322250E+01  2.2901596E+01
 1.2333751E+01  2.2926662E+01
 1.2345250E+01  2.2884550E+01
 1.2356750E+01  2.2890638E+01
 1.2368251E+01  2.2852955E+01
 1.2379750E+01  2.2832018E+01
 1.2391251E+01  2.2781599E+01
 1.2402751E+01  2.2785225E+01
 1.2414250E+01  2.2819550E+01
 1.2425751E+01  2.2836870E+01
 1.2437250E+01  2.2892153E+01
 1.2448750E+01  2.2898996E+01
 1.2460251E+01  2.2933626E+01
 1.2471750E+01  2.2925013E+01
 1.2483251E+01  2.2918070E+01
 1.2494751E+01  2.2901472E+01
 1.2506250E+01  2.2933691E+01
 1.2517751E+01  2.2962355E+01
 1.2529250E+01  2.3044390E+01
 1.2540751E+01  2.3053331E+01
 1.2552251E+01  2.3096430E+01
 1.2563750E+01  2.3041399E+01
 1.2575251E+01  2.2976154E+01
 1.2586751E+01  2.2913803E+01
 1.2598250E+01  2.2940510E+01
 1.2609751E+01  2.2960482E+01
 1.2621250E+01  2.3027102E+01
 1.2632751E+01  2.3015553E+01
 1.2644251E+01  2.3090343E+01
 1.2655750E+01  2.3148579E+01
 1.2667251E+01  2.3233681E+01
 1.2678751E+01  2.3258802E+01
 1.2690250E+01  2.3254122E+01
 1.2701751E+01  2.3276320E+01
 1.2713250E+01  2.3348640E+01
 1.2724751E+01  2.3314219E+01
 1.2736251E+01  2.3297291E+01
 1.2747750E+01  2.3253319E+01
 1.2759251E+01  2.3347397E+01
 1.2770751E+01  2.3353323E+01
 1.2782250E+01  2.3404108E+01
 1.2793751E+01  2.3369904E+01
 1.2805250E+01  2.3447245E+01
 1.2816751E+01  2.3512644E+01
 1.2828251E+01  2.3577530E+01
 1.2839750E+01  2.3653864E+01
 1.2851251E+01  2.3641190E+01
 1.2862751E+01  2.3667860E+01
 1.2874250E+01  2.3632748E+01
 1.2885751E+01  2.3635801E+01
 1.2897250E+01  2.3680035E+01
 1.2908751E+01  2.3726839E+01
 1.2920251E+01  2.3791159E+01
 1.2931750E+01  2.3827694E+01
 1.2943251E+01  2.3893307E+01
 1.2954751E+01  2.3978998E+01
 1.2966250E+01  2.4081350E+01
 1.2977751E+01  2.4184959E+01
 1.2989250E+01  2.4181803E+01
 1.3000751E+01  2.4185186E+01
 1.3012251E+01  2.4196520E+01
 1.3023750E+01  2.4296930E+01
 1.3035251E+01  2.4368313E+01
 1.3046751E+01  2.4472675E+01
 1.3058250E+01  2.4562653E+01
 1.3069751E+01  2.4636301E+01
 1.3081250E+01  2.4713793E+01
 1.3092751E+01  2.4827936E+01
 1.3104251E+01  2.4966425E+01
 1.3115750E+01  2.5095947E+01
 1.3127251E+01  2.5207136E+01
 1.3138751E+01  2.5340742E+01
 1.3150250E+01  2.5484270E+01
 1.3161751E+01  2.5573805E+01
 1.3173250E+01  2.5718454E+01
 1.3184751E+01  2.5836243E+01
 1.3196251E+01  2.5989307E+01
 1.3207750E+01  2.6111431E+01
 1.3219251E+01  2.6290493E+01
 1.3230751E+01  2.6504875E+01
 1.3242250E+01  2.6700590E+01
 1.3253751E+01  2.6861847E+01
 1.3265250E+01  2.7000647E+01
 1.3276751E+01  2.7131701E+01
 1.3288251E+01  2.7272013E+01
 1.3299750E+01  2.7350019E+01
 1.3311251E+01  2.7392860E+01
 1.3322751E+01  2.7487827E+01
 1.3334250E+01  2.7668186E+01
 1.3345751E+01  2.7857893E+01
 1.3357250E+01  2.8073298E+01
 1.3368751E+01  2.8244608E+01
 1.3380251E+01  2.8418482E+01
 1.3391750E+01  2.8563452E+01
 1.3403251E+01  2.8750620E+01
 1.3414751E+01  2.8868900E+01
 1.3426250E+01  2.8914413E+01
 1.3437751E+01  2.8992870E+01
 1.3449250E+01  2.9073374E+01
 1.3460751E+01  2.9141766E+01
 1.3472251E+01  2.9170767E+01
 1.3483750E+01  2.9272242E+01
 1.3495251E+01  2.9312719E+01
 1.3506751E+01  2.9425196E+01
 1.3518250E+01  2.9520557E+01
 1.3529751E+01  2.9660498E+01
 1.3541250E+01  2.9725836E+01
 1.3552751E+01  2.9781252E+01
 1.3564251E+01  2.9840704E+01
 1.3575750E+01  2.9952984E+01
 1.3587251E+01  3.0016352E+01
 1.3598751E+01  3.0065645E+01
 1.3610250E+01  3.0028471E+01
 1.3621751E+01  3.0069706E+01
 1.3633250E+01  3.0050303E+01
 1.3644751E+01  3.0018799E+01
 1.3656251E+01  2.9958996E+01
 1.3667750E+01  2.9984734E+01
 1.3679251E+01  2.9966782E+01
 1.3690751E+01  2.9910414E+01
 1.3702250E+01  2.9821579E+01
 1.3713751E+01  2.9753637E+01
 1.3725250E+01  2.9719950E+01
 1.3736751E+01  2.9705576E+01
 1.3748251E+01  2.9697821E+01
 1.3759750E+01  2.9677475E+01
 1.3771251E+01  2.9693575E+01
 1.3782751E+01  2.9694515E+01
 1.3794250E+01  2.9651304E+01
 1.3805751E+01  2.9585537E+01
 1.3817250E+01  2.9524542E+01
 1.3828751E+01  2.9543125E+01
 1.3840251E+01  2.9539810E+01
 1.3851750E+01  2.9578667E+01
 1.3863251E+01  2.9706385E+01
 1.3874751E+01  2.9940742E+01
 1.3886250E+01  3.0354694E+01
 1.3897751E+01  3.1119236E+01
 1.3909250E+01  3.1976482E+01
 1.3920751E+01  3.3235458E+01
 1.3932251E+01  3.4380951E+01
 1.3943750E+01  3.5607021E+01
 1.3955251E+01  3.6100060E+01
 1.3966751E+01  3.6103428E+01
 1.3978251E+01  3.5197945E+01
 1.3989751E+01  3.3879250E+01
 1.4001250E+01  3.2348621E+01
 1.4012751E+01  3.0941891E+01
 1.4024251E+01  2.9927584E+01
 1.4035750E+01  2.9196470E+01
 1.4047251E+01  2.8717781E+01
 1.4058751E+01  2.8403543E+01
 1.4070251E+01  2.8239769E+01
 1.4081751E+01  2.8155373E+01
 1.4093250E+01  2.8041355E+01
 1.4104751E+01  2.7950880E+01
 1.4116251E+01  2.7849449E+01
 1.4127750E+01  2.7785843E+01
 1.4139251E+01  2.7680428E+01
 1.4150751E+01  2.7564787E+01
 1.4162251E+01  2.7524950E+01
 1.4173751E+01  2.7446232E+01
 1.4185250E+01  2.7383566E+01
 1.4196751E+01  2.7239092E+01
 1.4208251E+01  2.7139668E+01
 1.4219750E+01  2.7028881E+01
 1.4231251E+01  2.6911175E+01
 1.4242751E+01  2.6840528E+01
 1.4254251E+01  2.6777287E+01
 1.4265751E+01  2.6745981E+01
 1.4277250E+01  2.6641022E+01
 1.4288751E+01  2.6588079E+01
 1.4300251E+01  2.6549103E+01
 1.4311750E+01  2.6554983E+01
 1.4323251E+01  2.6496061E+01
 1.4334751E+01  2.6474997E+01
 1.4346251E+01  2.6479624E+01
 1.4357751E+01  2.6464733E+01
 1.4369250E+01  2.6429174E+01
 1.4380751E+01  2.6380543E+01
 1.4392251E+01  2.6382608E+01
 1.4403750E+01  2.6330923E+01
 1.4415251E+01  2.6252321E+01
 1.4426751E+01  2.6211142E+01
 1.4438251E+01  2.6201172E+01
 1.4449751E+01  2.6180037E+01
 1.4461250E+01  2.6108055E+01
 1.4472751E+01  2.5997452E+01
 1.4484251E+01  2.5971306E+01
 1.4495750E+01  2.5929373E+01
 1.4507251E+01  2.5934168E+01
 1.4518751E+01  2.5903292E+01
 1.4530251E+01  2.5859015E+01
 1.4541751E+01  2.5868969E+01
 1.4553250E+01  2.5795309E+01
 1.4564751E+01  2.5748371E+01
 1.4576251E+01  2.5656132E+01
 1.4587750E+01  2.5616838E+01
 1.4599251E+01  2.5609333E+01
 1.4610751E+01  2.5629095E+01
 1.4622251E+01  2.5663031E+01
 1.4633751E+01  2.5710333E+01
 1.4645250E+01  2.5723724E+01
 1.4656751E+01  2.5701241E+01
 1.4668251E+01  2.5620922E+01
 1.4679750E+01  2.5565922E+01
 1.4691251E+01  2.5547560E+01
 1.4702751E+01  2.5531445E+01
 1.4714251E+01  2.5494699E+01
 1.4725751E+01  2.5458105E+01
 1.4737250E+01  2.5464931E+01
 1.4748751E+01  2.5462032E+01
 1.4760251E+01  2.5458355E+01
 1.4771750E+01  2.5450253E+01
 1.4783251E+01  2.5448620E+01
 1.4794751E+01  2.5453173E+01
 1.4806251E+01  2.5365938E+01
 1.4817751E+01  2.5272646E+01
 1.4829250E+01  2.5217815E+01
 1.4840751E+01  2.5190756E+01
 1.4852251E+01  2.5229351E+01
 1.4863750E+01  2.5195189E+01
 1.4875251E+01  2.5198374E+01
 1.4886751E+01  2.5176243E+01
 1.4898251E+01  2.5153168E+01
 1.4909751E+01  2.5189840E+01
 1.4921250E+01  2.5176781E+01
 1.4932751E+01  2.5158278E+01
 1.4944251E+01  2.5129438E+01
 1.4955750E+01  2.5060682E+01
 1.4967251E+01  2.5073439E+01
 1.4978751E+01  2.5093983E+01
 1.4990251E+01  2.5117241E+01
 1.5001751E+01  2.5110155E+01
 1.5013250E+01  2.5097475E+01
 1.5024751E+01  2.5147438E+01
 1.5036251E+01  2.5135752E+01
 1.5047750E+01  2.5112751E+01
 1.5059251E+01  2.5112324E+01
 1.5070751E+01  2.5151308E+01
 1.5082251E+01  2.5121469E+01
 1.5093751E+01  2.5095739E+01
 1.5105250E+01  2.5140055E+01
 1.5116751E+01  2.5243412E+01
 1.5128251E+01  2.5330072E+01
 1.5139750E+01  2.5446650E+01
 1.5151251E+01  2.5695488E+01
 1.5162751E+01  2.5980743E+01
 1.5174251E+01  2.6359795E+01
 1.5185751E+01  2.6594387E+01
 1.5197250E+01  2.6821445E+01
 1.5208751E+01  2.6915707E+01
 1.5220251E+01  2.6938089E+01
 1.5231750E+01  2.6727669E+01
 1.5243251E+01  2.6345194E+01
 1.5254751E+01  2.5947102E+01
 1.5266251E+01  2.5590462E+01
 1.5277751E+01  2.5335535E+01
 1.5289250E+01  2.5159691E+01
 1.5300751E+01  2.5064653E+01
 1.5312251E+01  2.4973108E+01
 1.5323750E+01  2.4963993E+01
 1.5335251E+01  2.4977676E+01
 1.5346751E+01  2.5006098E+01
 1.5358251E+01  2.5025316E+01
 1.5369751E+01  2.5029272E+01
 1.5381250E+01  2.5028070E+01
 1.5392751E+01  2.4924677E+01
 1.5404251E+01  2.4876060E+01
 1.5415751E+01  2.4784187E+01
 1.5427251E+01  2.4663561E+01
 1.5438751E+01  2.4625038E+01
 1.5450251E+01  2.4603895E+01
 1.5461751E+01  2.4684353E+01
 1.5473250E+01  2.4651451E+01
 1.5484751E+01  2.4697285E+01
 1.5496251E+01  2.4731483E+01
 1.5507751E+01  2.4799147E+01
 1.5519251E+01  2.4868643E+01
 1.5530751E+01  2.4955591E+01
 1.5542251E+01  2.4958189E+01
 1.5553751E+01  2.4959723E+01
 1.5565250E+01  2.4963594E+01
 1.5576751E+01  2.4999872E+01
 1.5588251E+01  2.4977991E+01
 1.5599751E+01  2.4967892E+01
 1.5611251E+01  2.4919647E+01
 1.5622751E+01  2.4813198E+01
 1.5634251E+01  2.4719891E+01
 1.5645751E+01  2.4718571E+01
 1.5657250E+01  2.4756163E+01
 1.5668751E+01  2.4822027E+01
 1.5680251E+01  2.4854568E+01
 1.5691751E+01  2.4935940E+01
 1.5703251E+01  2.5012955E+01
 1.5714751E+01  2.5063822E+01
 1.5726251E+01  2.4995607E+01
 1.5737751E+01  2.4926991E+01
 1.5749250E+01  2.4879478E+01
 1.5760751E+01  2.4914286E+01
 1.5772251E+01  2.4908394E+01
 1.5783751E+01  2.4920359E+01
 1.5795251E+01  2.4876213E+01
 1.5806751E+01  2.4898489E+01
 1.5818251E+01  2.4892830E+01
 1.5829751E+01  2.4919687E+01
 1.5841250E+01  2.4874882E+01
 1.5852751E+01  2.4882748E+01
 1.5864251E+01  2.4835253E+01
 1.5875751E+01  2.4835411E+01
 1.5887251E+01  2.4854132E+01
 1.5898750E+01  2.4901255E+01
 1.5910251E+01  2.4944944E+01
 1.5921751E+01  2.4931198E+01
 1.5933250E+01  2.4925056E+01
 1.5944751E+01  2.4867847E+01
 1.5956251E+01  2.4853294E+01
 1.5967751E+01  2.4871407E+01
 1.5979251E+01  2.4892941E+01
 1.5990750E+01  2.4915245E+01
 1.6002251E+01  2.4908705E+01
 1.6013750E+01  2.4938368E+01
 1.6025251E+01  2.4909391E+01
 1.6036751E+01  2.4875536E+01
 1.6048250E+01  2.4860849E+01
 1.6059752E+01  2.4887482E+01
 1.6071251E+01  2.4909000E+01
 1.6082750E+01  2.4969822E+01
 1.6094252E+01  2.4967058E+01
 1.6105751E+01  2.5043787E+01
 1.6117250E+01  2.5019505E+01
 1.6128750E+01  2.5077742E+01
 1.6140251E+01  2.5121485E+01
 1.6151751E+01  2.5170221E+01
 1.6163250E+01  2.5227369E+01
 1.6174751E+01  2.5144993E+01
 1.6186251E+01  2.5353924E+01
 1.6197750E+01  2.5259041E+01
 1.6209251E+01  2.5683830E+01
 1.6220751E+01  2.5602201E+01
 1.6232250E+01  2.6047014E+01
 1.6243752E+01  2.6086834E+01
 1.6255251E+01  2.6327415E+01
 1.6266750E+01  2.6507475E+01
 1.6278252E+01  2.6222521E+01
 1.6289751E+01  2.6311728E+01
 1.6301250E+01  2.5653858E+01
 1.6312750E+01  2.5724617E+01
 1.6324251E+01  2.5262735E+01
 1.6335751E+01  2.5350288E+01
 1.6347250E+01  2.5126043E+01
 1.6358751E+01  2.5060501E+01
 1.6370251E+01  2.4942970E+01
 1.6381750E+01  2.4958101E+01
 1.6393251E+01  2.5018476E+01
 1.6404751E+01  2.5025330E+01
 1.6416250E+01  2.5034935E+01
 1.6427752E+01  2.4962626E+01
 1.6439251E+01  2.4934486E+01
 1.6450750E+01  2.4811914E+01
 1.6462252E+01  2.4733347E+01
 1.6473751E+01  2.4711914E+01
 1.6485250E+01  2.4790234E+01
 1.6496750E+01  2.4894520E+01
 1.6508251E+01  2.4891554E+01
 1.6519751E+01  2.4852068E+01
 1.6531250E+01  2.4793415E+01
 1.6542751E+01  2.4782854E+01
 1.6554251E+01  2.4767866E+01
 1.6565750E+01  2.4759375E+01
 1.6577251E+01  2.4798126E+01
 1.6588751E+01  2.4850744E+01
 1.6600250E+01  2.4858921E+01
 1.6611752E+01  2.4917547E+01
 1.6623251E+01  2.4878603E+01
 1.6634750E+01  2.4889383E+01
 1.6646252E+01  2.4812153E+01
 1.6657751E+01  2.4769613E+01
 1.6669250E+01  2.4747183E+01
 1.6680750E+01  2.4749159E+01
 1.6692251E+01  2.4807714E+01
 1.6703751E+01  2.4817244E+01
 1.6715250E+01  2.4815041E+01
 1.6726751E+01  2.4784361E+01
 1.6738251E+01  2.4784262E+01
 1.6749750E+01  2.4782911E+01
 1.6761251E+01  2.4758320E+01
 1.6772751E+01  2.4685331E+01
 1.6784250E+01  2.4666391E+01
 1.6795752E+01  2.4688896E+01
 1.6807251E+01  2.4719440E+01
 1.6818750E+01  2.4715567E+01
 1.6830252E+01  2.4742571E+01
 1.6841751E+01  2.4736095E+01
 1.6853251E+01  2.4693520E+01
 1.6864750E+01  2.4642899E+01
 1.6876251E+01  2.4628305E+01
 1.6887751E+01  2.4564278E+01
 1.6899250E+01  2.4549706E+01
 1.6910751E+01  2.4517700E+01
 1.6922251E+01  2.4573477E+01
 1.6933750E+01  2.4557650E+01
 1.6945251E+01  2.4615908E+01
 1.6956751E+01  2.4608393E+01
 1.6968250E+01  2.4631765E+01
 1.6979752E+01  2.4602407E+01
 1.6991251E+01  2.4596434E+01
 1.7002750E+01  2.4522018E+01
 1.7014252E+01  2.4457439E+01
 1.7025751E+01  2.4437721E+01
 1.7037251E+01  2.4450417E+01
 1.7048750E+01  2.4475130E+01
 1.7060251E+01  2.4451466E+01
 1.7071751E+01  2.4466919E+01
 1.7083250E+01  2.4473143E+01
 1.7094751E+01  2.4451334E+01
 1.7106251E+01  2.4429583E+01
 1.7117750E+01  2.4411266E+01
 1.7129251E+01  2.4401855E+01
 1.7140751E+01  2.4362268E+01
 1.7152250E+01  2.4368303E+01
 1.7163752E+01  2.4369085E+01
 1.7175251E+01  2.4384205E+01
 1.7186750E+01  2.4383812E+01
 1.7198252E+01  2.4426718E+01
 1.7209751E+01  2.4429012E+01
 1.7221251E+01  2.4381439E+01
 1.7232750E+01  2.4356977E+01
 1.7244251E+01  2.4365475E+01
 1.7255751E+01  2.4370117E+01
 1.7267250E+01  2.4365759E+01
 1.7278751E+01  2.4352985E+01
 1.7290251E+01  2.4344997E+01
 1.7301750E+01  2.4343706E+01
 1.7313251E+01  2.4339211E+01
 1.7324751E+01  2.4396893E+01
 1.7336250E+01  2.4401920E+01
 1.7347752E+01  2.4382132E+01
 1.7359251E+01  2.4329548E+01
 1.7370750E+01  2.4293255E+01
 1.7382252E+01  2.4222921E+01
 1.7393751E+01  2.4204382E+01
 1.7405251E+01  2.4171307E+01
 1.7416750E+01  2.4215439E+01
 1.7428251E+01  2.4199902E+01
 1.7439751E+01  2.4236502E+01
 1.7451250E+01  2.4250963E+01
 1.7462751E+01  2.4317297E+01
 1.7474251E+01  2.4383841E+01
 1.7485750E+01  2.4398588E+01
 1.7497252E+01  2.4375776E+01
 1.7508751E+01  2.4324526E+01
 1.7520250E+01  2.4243311E+01
 1.7531752E+01  2.4147058E+01
 1.7543251E+01  2.4126024E+01
 1.7554750E+01  2.4102446E+01
 1.7566252E+01  2.4098780E+01
 1.7577751E+01  2.4063503E+01
 1.7589251E+01  2.4055332E+01
 1.7600750E+01  2.4016138E+01
 1.7612251E+01  2.3995422E+01
 1.7623751E+01  2.4001671E+01
 1.7635250E+01  2.3983709E+01
 1.7646751E+01  2.3971081E+01
 1.7658251E+01  2.3977440E+01
 1.7669750E+01  2.4015734E+01
 1.7681252E+01  2.4035379E+01
 1.7692751E+01  2.4062113E+01
 1.7704250E+01  2.4086308E+01
 1.7715752E+01  2.4088833E+01
 1.7727251E+01  2.4091410E+01
 1.7738750E+01  2.4065229E+01
 1.7750252E+01  2.4044497E+01
 1.7761751E+01  2.4011845E+01
 1.7773251E+01  2.4021982E+01
 1.7784750E+01  2.4019953E+01
 1.7796251E+01  2.4049471E+01
 1.7807751E+01  2.4020151E+01
 1.7819250E+01  2.4024364E+01
 1.7830751E+01  2.3988668E+01
 1.7842251E+01  2.4005661E+01
 1.7853750E+01  2.3964964E+01
 1.7865252E+01  2.3969797E+01
 1.7876751E+01  2.3993143E+01
 1.7888250E+01  2.4027672E+01
 1.7899752E+01  2.4092304E+01
 1.7911251E+01  2.4171803E+01
 1.7922750E+01  2.4242914E+01
 1.7934252E+01  2.4205877E+01
 1.7945751E+01  2.4194334E+01
 1.7957251E+01  2.4171244E+01
 1.7968750E+01  2.4253260E+01
 1.7980251E+01  2.4323046E+01
 1.7991751E+01  2.4441553E+01
 1.8003250E+01  2.4538403E+01
 1.8014751E+01  2.4625746E+01
 1.8026251E+01  2.4722973E+01
 1.8037750E+01  2.4936714E+01
 1.8049252E+01  2.5155357E+01
 1.8060751E+01  2.5476212E+01
 1.8072250E+01  2.5760092E+01
 1.8083752E+01  2.6035097E+01
 1.8095251E+01  2.6271090E+01
 1.8106750E+01  2.6225716E+01
 1.8118252E+01  2.6098217E+01
 1.8129751E+01  2.5805828E+01
 1.8141251E+01  2.5465744E+01
 1.8152750E+01  2.5054234E+01
 1.8164251E+01  2.4670341E+01
 1.8175751E+01  2.4429609E+01
 1.8187250E+01  2.4244961E+01
 1.8198751E+01  2.4174915E+01
 1.8210251E+01  2.4142765E+01
 1.8221750E+01  2.4038157E+01
 1.8233252E+01  2.3921589E+01
 1.8244751E+01  2.3897257E+01
 1.8256250E+01  2.3905361E+01
 1.8267752E+01  2.3940311E+01
 1.8279251E+01  2.3937120E+01
 1.8290751E+01  2.3996443E+01
 1.8302252E+01  2.3945366E+01
 1.8313751E+01  2.3928280E+01
 1.8325251E+01  2.3889706E+01
 1.8336750E+01  2.3939062E+01
 1.8348251E+01  2.3939705E+01
 1.8359751E+01  2.3941603E+01
 1.8371250E+01  2.3937258E+01
 1.8382751E+01  2.3928926E+01
 1.8394251E+01  2.3965185E+01
 1.8405750E+01  2.3972794E+01
 1.8417252E+01  2.3965597E+01
 1.8428751E+01  2.3920547E+01
 1.8440250E+01  2.3914736E+01
 1.8451752E+01  2.3907774E+01
 1.8463251E+01  2.3938301E+01
 1.8474751E+01  2.3972500E+01
 1.8486252E+01  2.3938339E+01
 1.8497751E+01  2.3892895E+01
 1.8509251E+01  2.3806812E+01
 1.8520750E+01  2.3799644E+01
 1.8532251E+01  2.3781351E+01
 1.8543751E+01  2.3782230E+01
 1.8555250E+01  2.3812838E+01
 1.8566751E+01  2.3819504E+01
 1.8578251E+01  2.3852604E+01
 1.8589750E+01  2.3867649E+01
 1.8601252E+01  2.3935654E+01
 1.8612751E+01  2.3949490E+01
 1.8624250E+01  2.3927130E+01
 1.8635752E+01  2.3906820E+01
 1.8647251E+01  2.3855566E+01
 1.8658751E+01  2.3798664E+01
 1.8670252E+01  2.3762333E+01
 1.8681751E+01  2.3774580E+01
 1.8693251E+01  2.3823359E+01
 1.8704750E+01  2.3844397E+01
 1.8716251E+01  2.3786312E+01
 1.8727751E+01  2.3703640E+01
 1.8739250E+01  2.3595545E+01
 1.8750751E+01  2.3612232E+01
 1.8762251E+01  2.3645647E+01
 1.8773750E+01  2.3722546E+01
 1.8785252E+01  2.3763155E+01
 1.8796751E+01  2.3806179E+01
 1.8808250E+01  2.3777796E+01
 1.8819752E+01  2.3759233E+01
 1.8831251E+01  2.3751398E+01
 1.8842751E+01  2.3742403E+01
 1.8854252E+01  2.3703743E+01
 1.8865751E+01  2.3693151E+01
 1.8877251E+01  2.3713839E+01
 1.8888750E+01  2.3736584E+01
 1.8900251E+01  2.3770849E+01
 1.8911751E+01  2.3787285E+01
 1.8923250E+01  2.3801434E+01
 1.8934752E+01  2.3848452E+01
 1.8946251E+01  2.3877434E+01
 1.8957750E+01  2.3844461E+01
 1.8969252E+01  2.3717701E+01
 1.8980751E+01  2.3680067E+01
 1.8992250E+01  2.3645172E+01
 1.9003752E+01  2.3704082E+01
 1.9015251E+01  2.3789522E+01
 1.9026751E+01  2.3854727E+01
 1.9038252E+01  2.3898371E+01
 1.9049751E+01  2.3910606E+01
 1.9061251E+01  2.3957821E+01
 1.9072750E+01  2.3932238E+01
 1.9084251E+01  2.3929379E+01
 1.9095751E+01  2.3875429E+01
 1.9107250E+01  2.3834742E+01
 1.9118752E+01  2.3820742E+01
 1.9130251E+01  2.3861635E+01
 1.9141750E+01  2.3861935E+01
 1.9153252E+01  2.3839951E+01
 1.9164751E+01  2.3806252E+01
 1.9176250E+01  2.3805349E+01
 1.9187752E+01  2.3820919E+01
 1.9199251E+01  2.3848429E+01
 1.9210751E+01  2.3885727E+01
 1.9222252E+01  2.3816044E+01
 1.9233751E+01  2.3739857E+01
 1.9245251E+01  2.3703680E+01
 1.9256750E+01  2.3777790E+01
 1.9268251E+01  2.3840525E+01
 1.9279751E+01  2.3868252E+01
 1.9291250E+01  2.3891277E+01
 1.9302752E+01  2.3896589E+01
 1.9314251E+01  2.3882524E+01
 1.9325750E+01  2.3851267E+01
 1.9337252E+01  2.3865374E+01
 1.9348751E+01  2.3899193E+01
 1.9360250E+01  2.3929453E+01
 1.9371752E+01  2.3937241E+01
 1.9383251E+01  2.3967299E+01
 1.9394751E+01  2.3967823E+01
 1.9406250E+01  2.3962946E+01
 1.9417751E+01  2.3965654E+01
 1.9429251E+01  2.3927330E+01
 1.9440750E+01  2.3928881E+01
 1.9452251E+01  2.3904509E+01
 1.9463751E+01  2.3903805E+01
 1.9475250E+01  2.3922171E+01
 1.9486752E+01  2.3926098E+01
 1.9498251E+01  2.3915428E+01
 1.9509750E+01  2.3924379E+01
 1.9521252E+01  2.3970539E+01
 1.9532751E+01  2.4008619E+01
 1.9544250E+01  2.4047714E+01
 1.9555752E+01  2.4056551E+01
 1.9567251E+01  2.4051712E+01
 1.9578751E+01  2.4105471E+01
 1.9590250E+01  2.4198275E+01
 1.9601751E+01  2.4268787E+01
 1.9613251E+01  2.4348476E+01
 1.9624750E+01  2.4502203E+01
 1.9636251E+01  2.4684786E+01
 1.9647751E+01  2.4987034E+01
 1.9659250E+01  2.5207134E+01
 1.9670752E+01  2.5991186E+01
 1.9682251E+01  2.6632200E+01
 1.9693750E+01  2.7305449E+01
 1.9705252E+01  2.8561163E+01
 1.9716751E+01  2.8749220E+01
 1.9728251E+01  2.9577085E+01
 1.9739752E+01  2.8984974E+01
 1.9751251E+01  2.8803667E+01
 1.9762751E+01  2.7445019E+01
 1.9774250E+01  2.6943447E+01
 1.9785751E+01  2.6713865E+01
 1.9797251E+01  2.6707327E+01
 1.9808750E+01  2.7240334E+01
 1.9820251E+01  2.7802170E+01
 1.9831751E+01  2.9094652E+01
 1.9843250E+01  2.9288670E+01
 1.9854752E+01  3.0169123E+01
 1.9866251E+01  2.9454210E+01
 1.9877750E+01  2.9049980E+01
 1.9889252E+01  2.7502462E+01
 1.9900751E+01  2.6777824E+01
 1.9912251E+01  2.5903088E+01
 1.9923752E+01  2.5350311E+01
 1.9935251E+01  2.5041130E+01
 1.9946751E+01  2.4745275E+01
 1.9958250E+01  2.4587471E+01
 1.9969751E+01  2.4393635E+01
 1.9981251E+01  2.4266872E+01
 1.9992750E+01  2.4221354E+01
 2.0004251E+01  2.4156153E+01
 2.0015751E+01  2.4127953E+01
 2.0027250E+01  2.4098667E+01
 2.0038752E+01  2.4114677E+01
 2.0050251E+01  2.4135891E+01
 2.0061750E+01  2.4138458E+01
 2.0073252E+01  2.4150980E+01
 2.0084751E+01  2.4112286E+01
 2.0096251E+01  2.4169235E+01
 2.0107752E+01  2.4182274E+01
 2.0119251E+01  2.4210617E+01
 2.0130751E+01  2.4161716E+01
 2.0142250E+01  2.4171066E+01
 2.0153751E+01  2.4163664E+01
 2.0165251E+01  2.4151354E+01
 2.0176750E+01  2.4135277E+01
 2.0188251E+01  2.4050581E+01
 2.0199751E+01  2.3992296E+01
 2.0211250E+01  2.3946417E+01
 2.0222752E+01  2.3984404E+01
 2.0234251E+01  2.3985823E+01
 2.0245750E+01  2.4051722E+01
 2.0257252E+01  2.4056074E+01
 2.0268751E+01  2.4065542E+01
 2.0280251E+01  2.4061554E+01
 2.0291752E+01  2.4099815E+01
 2.0303251E+01  2.4085737E+01
 2.0314751E+01  2.4034197E+01
 2.0326250E+01  2.3969612E+01
 2.0337751E+01  2.3961105E+01
 2.0349251E+01  2.3994535E+01
 2.0360750E+01  2.4000441E+01
 2.0372252E+01  2.4003338E+01
 2.0383751E+01  2.4020872E+01
 2.0395250E+01  2.4011816E+01
 2.0406752E+01  2.4024275E+01
 2.0418251E+01  2.4066397E+01
 2.0429750E+01  2.4104252E+01
 2.0441252E+01  2.4099754E+01
 2.0452751E+01  2.4116938E+01
 2.0464251E+01  2.4096191E+01
 2.0475752E+01  2.4045254E+01
 2.0487251E+01  2.3992105E+01
 2.0498751E+01  2.3992369E+01
 2.0510250E+01  2.3980268E+01
 2.0521751E+01  2.4015326E+01
 2.0533251E+01  2.4012655E+01
 2.0544750E+01  2.4025120E+01
 2.0556252E+01  2.4031418E+01
 2.0567751E+01  2.4042866E+01
 2.0579250E+01  2.4080757E+01
 2.0590752E+01  2.4193907E+01
 2.0602251E+01  2.4274153E+01
 2.0613750E+01  2.4336210E+01
 2.0625252E+01  2.4375303E+01
 2.0636751E+01  2.4423368E+01
 2.0648251E+01  2.4448889E+01
 2.0659752E+01  2.4501001E+01
 2.0671251E+01  2.4638327E+01
 2.0682751E+01  2.4849134E+01
 2.0694250E+01  2.5119646E+01
 2.0705751E+01  2.5640398E+01
 2.0717251E+01  2.6378571E+01
 2.0728750E+01  2.7159054E+01
 2.0740252E+01  2.7910587E+01
 2.0751751E+01  2.8377142E+01
 2.0763250E+01  2.8522045E+01
 2.0774752E+01  2.8117970E+01
 2.0786251E+01  2.7576216E+01
 2.0797750E+01  2.6862158E+01
 2.0809252E+01  2.6143959E+01
 2.0820751E+01  2.5581287E+01
 2.0832251E+01  2.5073187E+01
 2.0843752E+01  2.4780939E+01
 2.0855251E+01  2.4565708E+01
 2.0866751E+01  2.4448383E+01
 2.0878250E+01  2.4427242E+01
 2.0889751E+01  2.4385986E+01
 2.0901251E+01  2.4416693E+01
 2.0912750E+01  2.4421780E+01
 2.0924252E+01  2.4421995E+01
 2.0935751E+01  2.4391405E+01
 2.0947250E+01  2.4372126E+01
 2.0958752E+01  2.4342066E+01
 2.0970251E+01  2.4289324E+01
 2.0981750E+01  2.4269281E+01
 2.0993252E+01  2.4269976E+01
 2.1004751E+01  2.4281881E+01
 2.1016251E+01  2.4251772E+01
 2.1027752E+01  2.4277588E+01
 2.1039251E+01  2.4265310E+01
 2.1050751E+01  2.4225494E+01
 2.1062250E+01  2.4182459E+01
 2.1073751E+01  2.4193037E+01
 2.1085251E+01  2.4145704E+01
 2.1096750E+01  2.4077148E+01
 2.1108252E+01  2.4088697E+01
 2.1119751E+01  2.4120642E+01
 2.1131250E+01  2.4149687E+01
 2.1142752E+01  2.4138561E+01
 2.1154251E+01  2.4067110E+01
 2.1165751E+01  2.4066217E+01
 2.1177252E+01  2.4106461E+01
 2.1188751E+01  2.4145184E+01
 2.1200251E+01  2.4131830E+01
 2.1211752E+01  2.4094650E+01
 2.1223251E+01  2.4104572E+01
 2.1234751E+01  2.4068579E+01
 2.1246250E+01  2.4150112E+01
 2.1257751E+01  2.4300781E+01
 2.1269251E+01  2.4502167E+01
 2.1280750E+01  2.4524147E+01
 2.1292252E+01  2.4585548E+01
 2.1303751E+01  2.4563833E+01
 2.1315250E+01  2.4479517E+01
 2.1326752E+01  2.4345837E+01
 2.1338251E+01  2.4249714E+01
 2.1349751E+01  2.4259314E+01
 2.1361252E+01  2.4352320E+01
 2.1372751E+01  2.4438389E+01
 2.1384251E+01  2.4452057E+01
 2.1395752E+01  2.4360811E+01
 2.1407251E+01  2.4295446E+01
 2.1418751E+01  2.4230465E+01
 2.1430250E+01  2.4192633E+01
 2.1441751E+01  2.4176584E+01
 2.1453251E+01  2.4163656E+01
 2.1464750E+01  2.4152576E+01
 2.1476252E+01  2.4129339E+01
 2.1487751E+01  2.4184269E+01
 2.1499250E+01  2.4198835E+01
 2.1510752E+01  2.4220900E+01
 2.1522251E+01  2.4226023E+01
 2.1533751E+01  2.4221422E+01
 2.1545252E+01  2.4243771E+01
 2.1556751E+01  2.4253124E+01
 2.1568251E+01  2.4289679E+01
 2.1579752E+01  2.4334846E+01
 2.1591251E+01  2.4349663E+01
 2.1602751E+01  2.4363201E+01
 2.1614250E+01  2.4390390E+01
 2.1625751E+01  2.4444633E+01
 2.1637251E+01  2.4449850E+01
 2.1648750E+01  2.4466375E+01
 2.1660252E+01  2.4478319E+01
 2.1671751E+01  2.4468100E+01
 2.1683250E+01  2.4424637E+01
 2.1694752E+01  2.4400129E+01
 2.1706251E+01  2.4429413E+01
 2.1717751E+01  2.4481579E+01
 2.1729252E+01  2.4481871E+01
 2.1740751E+01  2.4423813E+01
 2.1752251E+01  2.4371643E+01
 2.1763752E+01  2.4322704E+01
 2.1775251E+01  2.4341743E+01
 2.1786751E+01  2.4369482E+01
 2.1798250E+01  2.4421215E+01
 2.1809752E+01  2.4481873E+01
 2.1821251E+01  2.4463762E+01
 2.1832750E+01  2.4403435E+01
 2.1844252E+01  2.4378460E+01
 2.1855751E+01  2.4436363E+01
 2.1867250E+01  2.4451691E+01
 2.1878752E+01  2.4424509E+01
 2.1890251E+01  2.4359533E+01
 2.1901751E+01  2.4382135E+01
 2.1913252E+01  2.4392246E+01
 2.1924751E+01  2.4460485E+01
 2.1936251E+01  2.4465803E+01
 2.1947752E+01  2.4479959E+01
 2.1959251E+01  2.4455238E+01
 2.1970751E+01  2.4484629E+01
 2.1982250E+01  2.4508322E+01
 2.1993752E+01  2.4547812E+01
 2.2005251E+01  2.4549654E+01
 2.2016750E+01  2.4591709E+01
 2.2028252E+01  2.4614347E+01
 2.2039751E+01  2.4622587E+01
 2.2051250E+01  2.4643553E+01
 2.2062752E+01  2.4623569E+01
 2.2074251E+01  2.4610975E+01
 2.2085751E+01  2.4572199E+01
 2.2097252E+01  2.4567228E+01
 2.2108751E+01  2.4571819E+01
 2.2120251E+01  2.4657330E+01
 2.2131752E+01  2.4650282E+01
 2.2143251E+01  2.4633532E+01
 2.2154751E+01  2.4658312E+01
 2.2166250E+01  2.4706381E+01
 2.2177752E+01  2.4708065E+01
 2.2189251E+01  2.4659973E+01
 2.2200750E+01  2.4655983E+01
 2.2212252E+01  2.4649103E+01
 2.2223751E+01  2.4663542E+01
 2.2235250E+01  2.4661669E+01
 2.2246752E+01  2.4656452E+01
 2.2258251E+01  2.4664267E+01
 2.2269751E+01  2.4694254E+01
 2.2281252E+01  2.4773743E+01
 2.2292751E+01  2.4803255E+01
 2.2304251E+01  2.4854647E+01
 2.2315752E+01  2.4820820E+01
 2.2327251E+01  2.4797905E+01
 2.2338751E+01  2.4776199E+01
 2.2350250E+01  2.4805182E+01
 2.2361752E+01  2.4786516E+01
 2.2373251E+01  2.4821951E+01
 2.2384750E+01  2.4821589E+01
 2.2396252E+01  2.4799034E+01
 2.2407751E+01  2.4714857E+01
 2.2419250E+01  2.4705532E+01
 2.2430752E+01  2.4740662E+01
 2.2442251E+01  2.4766647E+01
 2.2453751E+01  2.4786957E+01
 2.2465252E+01  2.4788191E+01
 2.2476751E+01  2.4769413E+01
 2.2488251E+01  2.4794935E+01
 2.2499752E+01  2.4864063E+01
 2.2511251E+01  2.4963448E+01
 2.2522751E+01  2.4993996E+01
 2.2534250E+01  2.5001808E+01
 2.2545752E+01  2.5005474E+01
 2.2557251E+01  2.5037609E+01
 2.2568750E+01  2.5083406E+01
 2.2580252E+01  2.5137514E+01
 2.2591751E+01  2.5199053E+01
 2.2603251E+01  2.5215723E+01
 2.2614752E+01  2.5221209E+01
 2.2626251E+01  2.5204666E+01
 2.2637751E+01  2.5218739E+01
 2.2649252E+01  2.5241135E+01
 2.2660751E+01  2.5252409E+01
 2.2672251E+01  2.5262424E+01
 2.2683752E+01  2.5291739E+01
 2.2695251E+01  2.5353180E+01
 2.2706751E+01  2.5413523E+01
 2.2718250E+01  2.5449389E+01
 2.2729752E+01  2.5453152E+01
 2.2741251E+01  2.5501614E+01
 2.2752750E+01  2.5535757E+01
 2.2764252E+01  2.5523094E+01
 2.2775751E+01  2.5519161E+01
 2.2787251E+01  2.5527918E+01
 2.2798752E+01  2.5607611E+01
 2.2810251E+01  2.5648605E+01
 2.2821751E+01  2.5691509E+01
 2.2833252E+01  2.5717897E+01
 2.2844751E+01  2.5751364E+01
 2.2856251E+01  2.5704876E+01
 2.2867750E+01  2.5719847E+01
 2.2879251E+01  2.5738991E+01
 2.2890751E+01  2.5809311E+01
 2.2902250E+01  2.5845337E+01
 2.2913752E+01  2.6003202E+01
 2.2925251E+01  2.6121546E+01
 2.2936750E+01  2.6178373E+01
 2.2948252E+01  2.6176027E+01
 2.2959751E+01  2.6215204E+01
 2.2971251E+01  2.6323774E+01
 2.2982752E+01  2.6409105E+01
 2.2994251E+01  2.6506811E+01
