F:\20151113_APS_34IDE\\Brian\Particle1\OCV\Data_0005.tif
2-Theta Angle (Degrees)
Intensity
       2000
 5.7500005E-03  0.0000000E+00
 1.7250001E-02  0.0000000E+00
 2.8750001E-02  0.0000000E+00
 4.0250003E-02  0.0000000E+00
 5.1750004E-02  0.0000000E+00
 6.3250005E-02  0.0000000E+00
 7.4750006E-02  0.0000000E+00
 8.6250007E-02  0.0000000E+00
 9.7750008E-02  0.0000000E+00
 1.0925001E-01  0.0000000E+00
 1.2075000E-01  0.0000000E+00
 1.3225001E-01  0.0000000E+00
 1.4375001E-01  0.0000000E+00
 1.5525001E-01  0.0000000E+00
 1.6675001E-01  0.0000000E+00
 1.7825001E-01  0.0000000E+00
 1.8975002E-01  0.0000000E+00
 2.0125002E-01  0.0000000E+00
 2.1275002E-01  0.0000000E+00
 2.2425000E-01  0.0000000E+00
 2.3575000E-01  0.0000000E+00
 2.4725001E-01  0.0000000E+00
 2.5875002E-01  0.0000000E+00
 2.7025002E-01  0.0000000E+00
 2.8175002E-01  0.0000000E+00
 2.9325002E-01  0.0000000E+00
 3.0475003E-01  0.0000000E+00
 3.1625003E-01  0.0000000E+00
 3.2775003E-01  0.0000000E+00
 3.3925003E-01  0.0000000E+00
 3.5075003E-01  0.0000000E+00
 3.6225003E-01  0.0000000E+00
 3.7375003E-01  0.0000000E+00
 3.8525003E-01  0.0000000E+00
 3.9675003E-01  0.0000000E+00
 4.0825003E-01  0.0000000E+00
 4.1975003E-01  0.0000000E+00
 4.3125004E-01  0.0000000E+00
 4.4275001E-01  0.0000000E+00
 4.5425001E-01  0.0000000E+00
 4.6575001E-01  0.0000000E+00
 4.7725001E-01  0.0000000E+00
 4.8875001E-01  0.0000000E+00
 5.0025004E-01  0.0000000E+00
 5.1175004E-01  0.0000000E+00
 5.2325004E-01  0.0000000E+00
 5.3475004E-01  0.0000000E+00
 5.4625005E-01  0.0000000E+00
 5.5775005E-01  0.0000000E+00
 5.6925005E-01  0.0000000E+00
 5.8075005E-01  0.0000000E+00
 5.9225005E-01  0.0000000E+00
 6.0375005E-01  0.0000000E+00
 6.1525005E-01  0.0000000E+00
 6.2675005E-01  0.0000000E+00
 6.3825005E-01  0.0000000E+00
 6.4975005E-01  0.0000000E+00
 6.6125005E-01  0.0000000E+00
 6.7275006E-01  0.0000000E+00
 6.8425006E-01  0.0000000E+00
 6.9575006E-01  0.0000000E+00
 7.0725006E-01  0.0000000E+00
 7.1875006E-01  0.0000000E+00
 7.3025006E-01  0.0000000E+00
 7.4175006E-01  0.0000000E+00
 7.5325006E-01  0.0000000E+00
 7.6475006E-01  0.0000000E+00
 7.7625006E-01  0.0000000E+00
 7.8775007E-01  0.0000000E+00
 7.9925007E-01  0.0000000E+00
 8.1075007E-01  0.0000000E+00
 8.2225007E-01  0.0000000E+00
 8.3375007E-01  0.0000000E+00
 8.4525007E-01  0.0000000E+00
 8.5675007E-01  0.0000000E+00
 8.6825007E-01  0.0000000E+00
 8.7975001E-01  0.0000000E+00
 8.9125001E-01  0.0000000E+00
 9.0275002E-01  0.0000000E+00
 9.1425002E-01  0.0000000E+00
 9.2575002E-01  0.0000000E+00
 9.3725002E-01  0.0000000E+00
 9.4875002E-01  0.0000000E+00
 9.6025002E-01  0.0000000E+00
 9.7175002E-01  0.0000000E+00
 9.8325002E-01  0.0000000E+00
 9.9475002E-01  0.0000000E+00
 1.0062500E+00  0.0000000E+00
 1.0177500E+00  0.0000000E+00
 1.0292500E+00  0.0000000E+00
 1.0407500E+00  0.0000000E+00
 1.0522500E+00  0.0000000E+00
 1.0637500E+00  0.0000000E+00
 1.0752500E+00  0.0000000E+00
 1.0867500E+00  0.0000000E+00
 1.0982500E+00  0.0000000E+00
 1.1097500E+00  0.0000000E+00
 1.1212500E+00  0.0000000E+00
 1.1327500E+00  0.0000000E+00
 1.1442500E+00  0.0000000E+00
 1.1557500E+00  0.0000000E+00
 1.1672500E+00  0.0000000E+00
 1.1787500E+00  0.0000000E+00
 1.1902500E+00  0.0000000E+00
 1.2017500E+00  0.0000000E+00
 1.2132500E+00  0.0000000E+00
 1.2247500E+00  0.0000000E+00
 1.2362500E+00  0.0000000E+00
 1.2477500E+00  0.0000000E+00
 1.2592500E+00  0.0000000E+00
 1.2707500E+00  0.0000000E+00
 1.2822500E+00  0.0000000E+00
 1.2937500E+00  0.0000000E+00
 1.3052500E+00  0.0000000E+00
 1.3167500E+00  0.0000000E+00
 1.3282501E+00  0.0000000E+00
 1.3397501E+00  0.0000000E+00
 1.3512501E+00  0.0000000E+00
 1.3627501E+00  0.0000000E+00
 1.3742501E+00  0.0000000E+00
 1.3857501E+00  0.0000000E+00
 1.3972501E+00  0.0000000E+00
 1.4087501E+00  0.0000000E+00
 1.4202501E+00  0.0000000E+00
 1.4317501E+00  0.0000000E+00
 1.4432501E+00  0.0000000E+00
 1.4547501E+00  0.0000000E+00
 1.4662501E+00  0.0000000E+00
 1.4777501E+00  0.0000000E+00
 1.4892501E+00  0.0000000E+00
 1.5007501E+00  0.0000000E+00
 1.5122501E+00  0.0000000E+00
 1.5237501E+00  0.0000000E+00
 1.5352501E+00  0.0000000E+00
 1.5467501E+00  0.0000000E+00
 1.5582501E+00  0.0000000E+00
 1.5697501E+00  0.0000000E+00
 1.5812501E+00  0.0000000E+00
 1.5927501E+00  0.0000000E+00
 1.6042501E+00  0.0000000E+00
 1.6157501E+00  0.0000000E+00
 1.6272501E+00  0.0000000E+00
 1.6387501E+00  0.0000000E+00
 1.6502501E+00  0.0000000E+00
 1.6617501E+00  0.0000000E+00
 1.6732501E+00  0.0000000E+00
 1.6847501E+00  0.0000000E+00
 1.6962501E+00  0.0000000E+00
 1.7077501E+00  0.0000000E+00
 1.7192501E+00  0.0000000E+00
 1.7307501E+00  0.0000000E+00
 1.7422501E+00  0.0000000E+00
 1.7537501E+00  0.0000000E+00
 1.7652501E+00  0.0000000E+00
 1.7767501E+00  0.0000000E+00
 1.7882501E+00  0.0000000E+00
 1.7997501E+00  0.0000000E+00
 1.8112501E+00  0.0000000E+00
 1.8227501E+00  0.0000000E+00
 1.8342501E+00  0.0000000E+00
 1.8457501E+00  0.0000000E+00
 1.8572501E+00  0.0000000E+00
 1.8687501E+00  0.0000000E+00
 1.8802501E+00  0.0000000E+00
 1.8917501E+00  0.0000000E+00
 1.9032501E+00  0.0000000E+00
 1.9147501E+00  0.0000000E+00
 1.9262501E+00  0.0000000E+00
 1.9377501E+00  0.0000000E+00
 1.9492501E+00  0.0000000E+00
 1.9607501E+00  0.0000000E+00
 1.9722501E+00  0.0000000E+00
 1.9837501E+00  0.0000000E+00
 1.9952501E+00  0.0000000E+00
 2.0067501E+00  0.0000000E+00
 2.0182500E+00  0.0000000E+00
 2.0297501E+00  0.0000000E+00
 2.0412500E+00  0.0000000E+00
 2.0527501E+00  0.0000000E+00
 2.0642500E+00  0.0000000E+00
 2.0757501E+00  0.0000000E+00
 2.0872500E+00  0.0000000E+00
 2.0987501E+00  0.0000000E+00
 2.1102500E+00  0.0000000E+00
 2.1217501E+00  0.0000000E+00
 2.1332500E+00  0.0000000E+00
 2.1447501E+00  0.0000000E+00
 2.1562500E+00  0.0000000E+00
 2.1677501E+00  0.0000000E+00
 2.1792500E+00  0.0000000E+00
 2.1907501E+00  0.0000000E+00
 2.2022500E+00  0.0000000E+00
 2.2137501E+00  0.0000000E+00
 2.2252500E+00  0.0000000E+00
 2.2367501E+00  0.0000000E+00
 2.2482500E+00  0.0000000E+00
 2.2597501E+00  0.0000000E+00
 2.2712500E+00  0.0000000E+00
 2.2827501E+00  0.0000000E+00
 2.2942500E+00  0.0000000E+00
 2.3057501E+00  0.0000000E+00
 2.3172500E+00  0.0000000E+00
 2.3287501E+00  0.0000000E+00
 2.3402500E+00  0.0000000E+00
 2.3517501E+00  0.0000000E+00
 2.3632500E+00  0.0000000E+00
 2.3747501E+00  0.0000000E+00
 2.3862500E+00  0.0000000E+00
 2.3977501E+00  0.0000000E+00
 2.4092500E+00  0.0000000E+00
 2.4207501E+00  0.0000000E+00
 2.4322500E+00  0.0000000E+00
 2.4437501E+00  0.0000000E+00
 2.4552500E+00  0.0000000E+00
 2.4667501E+00  0.0000000E+00
 2.4782500E+00  0.0000000E+00
 2.4897501E+00  0.0000000E+00
 2.5012500E+00  0.0000000E+00
 2.5127501E+00  0.0000000E+00
 2.5242500E+00  0.0000000E+00
 2.5357502E+00  0.0000000E+00
 2.5472500E+00  0.0000000E+00
 2.5587502E+00  0.0000000E+00
 2.5702500E+00  0.0000000E+00
 2.5817502E+00  0.0000000E+00
 2.5932500E+00  0.0000000E+00
 2.6047502E+00  0.0000000E+00
 2.6162500E+00  0.0000000E+00
 2.6277502E+00  0.0000000E+00
 2.6392500E+00  0.0000000E+00
 2.6507502E+00  0.0000000E+00
 2.6622500E+00  0.0000000E+00
 2.6737502E+00  0.0000000E+00
 2.6852500E+00  0.0000000E+00
 2.6967502E+00  0.0000000E+00
 2.7082500E+00  0.0000000E+00
 2.7197502E+00  0.0000000E+00
 2.7312500E+00  0.0000000E+00
 2.7427502E+00  0.0000000E+00
 2.7542500E+00  0.0000000E+00
 2.7657502E+00  0.0000000E+00
 2.7772501E+00  0.0000000E+00
 2.7887502E+00  0.0000000E+00
 2.8002501E+00  0.0000000E+00
 2.8117502E+00  0.0000000E+00
 2.8232501E+00  2.7174419E+01
 2.8347502E+00  3.1433023E+01
 2.8462501E+00  3.2242947E+01
 2.8577502E+00  3.3280811E+01
 2.8692501E+00  3.3933128E+01
 2.8807502E+00  3.4125580E+01
 2.8922501E+00  3.4240936E+01
 2.9037502E+00  3.4542904E+01
 2.9152501E+00  3.4730221E+01
 2.9267502E+00  3.5154388E+01
 2.9382501E+00  3.5917648E+01
 2.9497502E+00  3.6169353E+01
 2.9612501E+00  3.6072498E+01
 2.9727502E+00  3.5524178E+01
 2.9842501E+00  3.5307438E+01
 2.9957502E+00  3.5652683E+01
 3.0072501E+00  3.6270485E+01
 3.0187502E+00  3.6457352E+01
 3.0302501E+00  3.6312428E+01
 3.0417502E+00  3.5698277E+01
 3.0532501E+00  3.5519485E+01
 3.0647502E+00  3.5191750E+01
 3.0762501E+00  3.4772964E+01
 3.0877502E+00  3.4396969E+01
 3.0992501E+00  3.4593079E+01
 3.1107502E+00  3.4585728E+01
 3.1222501E+00  3.4980980E+01
 3.1337502E+00  3.5377934E+01
 3.1452501E+00  3.6091961E+01
 3.1567502E+00  3.6352043E+01
 3.1682501E+00  3.6266094E+01
 3.1797502E+00  3.5896091E+01
 3.1912501E+00  3.5571438E+01
 3.2027502E+00  3.5299469E+01
 3.2142501E+00  3.5156956E+01
 3.2257502E+00  3.5389595E+01
 3.2372501E+00  3.5338383E+01
 3.2487502E+00  3.5519211E+01
 3.2602501E+00  3.5547340E+01
 3.2717502E+00  3.5693733E+01
 3.2832501E+00  3.5490608E+01
 3.2947502E+00  3.5096188E+01
 3.3062501E+00  3.4914177E+01
 3.3177502E+00  3.4625214E+01
 3.3292501E+00  3.4695236E+01
 3.3407502E+00  3.4588890E+01
 3.3522501E+00  3.4510891E+01
 3.3637502E+00  3.4554413E+01
 3.3752501E+00  3.4435654E+01
 3.3867502E+00  3.4450378E+01
 3.3982501E+00  3.4387085E+01
 3.4097502E+00  3.4462349E+01
 3.4212501E+00  3.4677097E+01
 3.4327502E+00  3.4743778E+01
 3.4442501E+00  3.4683243E+01
 3.4557502E+00  3.4631359E+01
 3.4672501E+00  3.4444935E+01
 3.4787502E+00  3.4249672E+01
 3.4902501E+00  3.4178780E+01
 3.5017502E+00  3.3955906E+01
 3.5132501E+00  3.3831947E+01
 3.5247502E+00  3.3741764E+01
 3.5362501E+00  3.3645470E+01
 3.5477502E+00  3.3630051E+01
 3.5592501E+00  3.3509399E+01
 3.5707502E+00  3.3436729E+01
 3.5822501E+00  3.3403828E+01
 3.5937502E+00  3.3182117E+01
 3.6052501E+00  3.3185261E+01
 3.6167502E+00  3.3174732E+01
 3.6282501E+00  3.3452442E+01
 3.6397502E+00  3.3607567E+01
 3.6512501E+00  3.3552921E+01
 3.6627502E+00  3.3657963E+01
 3.6742501E+00  3.3554554E+01
 3.6857502E+00  3.3517525E+01
 3.6972501E+00  3.3359787E+01
 3.7087502E+00  3.2960758E+01
 3.7202501E+00  3.2826458E+01
 3.7317502E+00  3.2688465E+01
 3.7432501E+00  3.2966690E+01
 3.7547503E+00  3.3140049E+01
 3.7662501E+00  3.3232281E+01
 3.7777503E+00  3.3242241E+01
 3.7892501E+00  3.3361851E+01
 3.8007503E+00  3.3438480E+01
 3.8122501E+00  3.3500942E+01
 3.8237503E+00  3.3333149E+01
 3.8352501E+00  3.3194473E+01
 3.8467503E+00  3.3118565E+01
 3.8582501E+00  3.3107906E+01
 3.8697503E+00  3.3223171E+01
 3.8812501E+00  3.3123287E+01
 3.8927503E+00  3.3006569E+01
 3.9042501E+00  3.2920845E+01
 3.9157503E+00  3.2811531E+01
 3.9272501E+00  3.2965668E+01
 3.9387503E+00  3.2948387E+01
 3.9502501E+00  3.3066032E+01
 3.9617503E+00  3.3110077E+01
 3.9732502E+00  3.3163525E+01
 3.9847503E+00  3.3233524E+01
 3.9962502E+00  3.3196838E+01
 4.0077500E+00  3.3056519E+01
 4.0192504E+00  3.2696156E+01
 4.0307503E+00  3.2461842E+01
 4.0422502E+00  3.2368073E+01
 4.0537500E+00  3.2357819E+01
 4.0652504E+00  3.2327023E+01
 4.0767503E+00  3.2290684E+01
 4.0882502E+00  3.2359989E+01
 4.0997500E+00  3.2481220E+01
 4.1112504E+00  3.2610195E+01
 4.1227503E+00  3.2671787E+01
 4.1342502E+00  3.2677338E+01
 4.1457500E+00  3.2791340E+01
 4.1572504E+00  3.2740147E+01
 4.1687503E+00  3.2867714E+01
 4.1802502E+00  3.2742283E+01
 4.1917500E+00  3.2806351E+01
 4.2032504E+00  3.2706738E+01
 4.2147503E+00  3.2552601E+01
 4.2262502E+00  3.2542580E+01
 4.2377501E+00  3.2533192E+01
 4.2492504E+00  3.2434292E+01
 4.2607503E+00  3.2406319E+01
 4.2722502E+00  3.2229984E+01
 4.2837501E+00  3.2362984E+01
 4.2952504E+00  3.2386780E+01
 4.3067503E+00  3.2452911E+01
 4.3182502E+00  3.2641136E+01
 4.3297501E+00  3.2641407E+01
 4.3412504E+00  3.2929333E+01
 4.3527503E+00  3.2859993E+01
 4.3642502E+00  3.2861973E+01
 4.3757501E+00  3.2638649E+01
 4.3872504E+00  3.2539291E+01
 4.3987503E+00  3.2646900E+01
 4.4102502E+00  3.2677528E+01
 4.4217501E+00  3.2763981E+01
 4.4332504E+00  3.2637794E+01
 4.4447503E+00  3.2381794E+01
 4.4562502E+00  3.2315758E+01
 4.4677501E+00  3.2281780E+01
 4.4792504E+00  3.2366676E+01
 4.4907503E+00  3.2487263E+01
 4.5022502E+00  3.2564602E+01
 4.5137501E+00  3.2672279E+01
 4.5252504E+00  3.2681824E+01
 4.5367503E+00  3.2633045E+01
 4.5482502E+00  3.2608635E+01
 4.5597501E+00  3.2501785E+01
 4.5712504E+00  3.2494293E+01
 4.5827503E+00  3.2410419E+01
 4.5942502E+00  3.2531212E+01
 4.6057501E+00  3.2540470E+01
 4.6172504E+00  3.2576378E+01
 4.6287503E+00  3.2656456E+01
 4.6402502E+00  3.2844109E+01
 4.6517501E+00  3.2973633E+01
 4.6632504E+00  3.3076618E+01
 4.6747503E+00  3.3067219E+01
 4.6862502E+00  3.3123936E+01
 4.6977501E+00  3.3155060E+01
 4.7092505E+00  3.3092255E+01
 4.7207503E+00  3.2967033E+01
 4.7322502E+00  3.2793999E+01
 4.7437501E+00  3.2647030E+01
 4.7552505E+00  3.2702110E+01
 4.7667503E+00  3.2759315E+01
 4.7782502E+00  3.2759537E+01
 4.7897501E+00  3.2728561E+01
 4.8012505E+00  3.2636402E+01
 4.8127503E+00  3.2623608E+01
 4.8242502E+00  3.2720181E+01
 4.8357501E+00  3.2778416E+01
 4.8472505E+00  3.2905975E+01
 4.8587503E+00  3.2983013E+01
 4.8702502E+00  3.3073769E+01
 4.8817501E+00  3.3159077E+01
 4.8932505E+00  3.3101055E+01
 4.9047503E+00  3.3082085E+01
 4.9162502E+00  3.3023869E+01
 4.9277501E+00  3.2989372E+01
 4.9392505E+00  3.2899216E+01
 4.9507504E+00  3.2756256E+01
 4.9622502E+00  3.2632874E+01
 4.9737501E+00  3.2753979E+01
 4.9852505E+00  3.2885162E+01
 4.9967504E+00  3.3017635E+01
 5.0082502E+00  3.3119083E+01
 5.0197501E+00  3.3094570E+01
 5.0312505E+00  3.3193623E+01
 5.0427504E+00  3.3146149E+01
 5.0542502E+00  3.3103161E+01
 5.0657501E+00  3.3077557E+01
 5.0772505E+00  3.3146446E+01
 5.0887504E+00  3.3219101E+01
 5.1002502E+00  3.3419083E+01
 5.1117501E+00  3.3561447E+01
 5.1232505E+00  3.3789322E+01
 5.1347504E+00  3.3993103E+01
 5.1462502E+00  3.3966164E+01
 5.1577501E+00  3.3977348E+01
 5.1692505E+00  3.3883762E+01
 5.1807504E+00  3.3910717E+01
 5.1922503E+00  3.3932011E+01
 5.2037501E+00  3.3859379E+01
 5.2152505E+00  3.3967308E+01
 5.2267504E+00  3.4007954E+01
 5.2382503E+00  3.4205261E+01
 5.2497501E+00  3.4191082E+01
 5.2612505E+00  3.4252224E+01
 5.2727504E+00  3.4185738E+01
 5.2842503E+00  3.4174179E+01
 5.2957501E+00  3.4138294E+01
 5.3072500E+00  3.4140556E+01
 5.3187504E+00  3.4127953E+01
 5.3302503E+00  3.4069954E+01
 5.3417501E+00  3.4117462E+01
 5.3532500E+00  3.4130047E+01
 5.3647504E+00  3.4254330E+01
 5.3762503E+00  3.4335640E+01
 5.3877501E+00  3.4449932E+01
 5.3992500E+00  3.4494316E+01
 5.4107504E+00  3.4442215E+01
 5.4222503E+00  3.4334373E+01
 5.4337502E+00  3.4287025E+01
 5.4452500E+00  3.4315155E+01
 5.4567504E+00  3.4384724E+01
 5.4682503E+00  3.4625961E+01
 5.4797502E+00  3.4734592E+01
 5.4912500E+00  3.4918949E+01
 5.5027504E+00  3.4945438E+01
 5.5142503E+00  3.5061108E+01
 5.5257502E+00  3.5238392E+01
 5.5372500E+00  3.5247253E+01
 5.5487504E+00  3.5281761E+01
 5.5602503E+00  3.5169971E+01
 5.5717502E+00  3.5197243E+01
 5.5832500E+00  3.5163185E+01
 5.5947504E+00  3.5226456E+01
 5.6062503E+00  3.5272331E+01
 5.6177502E+00  3.5273571E+01
 5.6292500E+00  3.5283489E+01
 5.6407504E+00  3.5187584E+01
 5.6522503E+00  3.5318336E+01
 5.6637502E+00  3.5297127E+01
 5.6752501E+00  3.5425087E+01
 5.6867504E+00  3.5504520E+01
 5.6982503E+00  3.5591709E+01
 5.7097502E+00  3.5670021E+01
 5.7212501E+00  3.5674877E+01
 5.7327504E+00  3.5794292E+01
 5.7442503E+00  3.5831280E+01
 5.7557502E+00  3.5861790E+01
 5.7672501E+00  3.5882099E+01
 5.7787504E+00  3.5890636E+01
 5.7902503E+00  3.5924992E+01
 5.8017502E+00  3.5858646E+01
 5.8132501E+00  3.5848351E+01
 5.8247504E+00  3.5887459E+01
 5.8362503E+00  3.5904343E+01
 5.8477502E+00  3.6098274E+01
 5.8592501E+00  3.6147785E+01
 5.8707504E+00  3.6417213E+01
 5.8822503E+00  3.6462563E+01
 5.8937502E+00  3.6749588E+01
 5.9052501E+00  3.7011486E+01
 5.9167504E+00  3.7442520E+01
 5.9282503E+00  3.8037952E+01
 5.9397502E+00  3.8956478E+01
 5.9512501E+00  4.0105865E+01
 5.9627504E+00  4.1500374E+01
 5.9742503E+00  4.2519230E+01
 5.9857502E+00  4.3298313E+01
 5.9972501E+00  4.2920364E+01
 6.0087504E+00  4.2313869E+01
 6.0202503E+00  4.0808964E+01
 6.0317502E+00  3.9614708E+01
 6.0432501E+00  3.8454552E+01
 6.0547504E+00  3.7839809E+01
 6.0662503E+00  3.7523468E+01
 6.0777502E+00  3.7199684E+01
 6.0892501E+00  3.7079491E+01
 6.1007504E+00  3.6913960E+01
 6.1122503E+00  3.6828548E+01
 6.1237502E+00  3.6766743E+01
 6.1352501E+00  3.6715237E+01
 6.1467505E+00  3.6706280E+01
 6.1582503E+00  3.6932480E+01
 6.1697502E+00  3.7030468E+01
 6.1812501E+00  3.7273643E+01
 6.1927505E+00  3.7244995E+01
 6.2042503E+00  3.7327755E+01
 6.2157502E+00  3.7355194E+01
 6.2272501E+00  3.7472771E+01
 6.2387505E+00  3.7512539E+01
 6.2502503E+00  3.7610527E+01
 6.2617502E+00  3.7671261E+01
 6.2732501E+00  3.7803082E+01
 6.2847505E+00  3.7957760E+01
 6.2962503E+00  3.7906895E+01
 6.3077502E+00  3.7932964E+01
 6.3192501E+00  3.7949215E+01
 6.3307505E+00  3.8131641E+01
 6.3422503E+00  3.8216503E+01
 6.3537502E+00  3.8233112E+01
 6.3652501E+00  3.8199856E+01
 6.3767505E+00  3.8237576E+01
 6.3882504E+00  3.8312000E+01
 6.3997502E+00  3.8424641E+01
 6.4112501E+00  3.8545277E+01
 6.4227505E+00  3.8641834E+01
 6.4342504E+00  3.8724556E+01
 6.4457502E+00  3.8881046E+01
 6.4572501E+00  3.8938278E+01
 6.4687505E+00  3.9104996E+01
 6.4802504E+00  3.9044724E+01
 6.4917502E+00  3.9124504E+01
 6.5032501E+00  3.9173725E+01
 6.5147505E+00  3.9326626E+01
 6.5262504E+00  3.9396305E+01
 6.5377502E+00  3.9473854E+01
 6.5492501E+00  3.9487179E+01
 6.5607505E+00  3.9543316E+01
 6.5722504E+00  3.9522461E+01
 6.5837502E+00  3.9540268E+01
 6.5952501E+00  3.9591820E+01
 6.6067505E+00  3.9766125E+01
 6.6182504E+00  3.9883842E+01
 6.6297503E+00  4.0036480E+01
 6.6412501E+00  4.0098438E+01
 6.6527505E+00  4.0254074E+01
 6.6642504E+00  4.0355350E+01
 6.6757503E+00  4.0398182E+01
 6.6872501E+00  4.0414131E+01
 6.6987505E+00  4.0443813E+01
 6.7102504E+00  4.0513485E+01
 6.7217503E+00  4.0784580E+01
 6.7332501E+00  4.0989536E+01
 6.7447505E+00  4.1173550E+01
 6.7562504E+00  4.1274101E+01
 6.7677503E+00  4.1303478E+01
 6.7792501E+00  4.1464905E+01
 6.7907505E+00  4.1498791E+01
 6.8022504E+00  4.1582657E+01
 6.8137503E+00  4.1639675E+01
 6.8252501E+00  4.1699772E+01
 6.8367505E+00  4.1742035E+01
 6.8482504E+00  4.1824764E+01
 6.8597503E+00  4.1860313E+01
 6.8712502E+00  4.1963215E+01
 6.8827505E+00  4.1969452E+01
 6.8942504E+00  4.1973614E+01
 6.9057503E+00  4.1973270E+01
 6.9172502E+00  4.1987030E+01
 6.9287505E+00  4.2059917E+01
 6.9402504E+00  4.2149593E+01
 6.9517503E+00  4.2233627E+01
 6.9632502E+00  4.2310131E+01
 6.9747505E+00  4.2342159E+01
 6.9862504E+00  4.2435905E+01
 6.9977503E+00  4.2502762E+01
 7.0092502E+00  4.2674885E+01
 7.0207505E+00  4.2748734E+01
 7.0322504E+00  4.2855404E+01
 7.0437503E+00  4.2892826E+01
 7.0552502E+00  4.3030022E+01
 7.0667505E+00  4.3104053E+01
 7.0782504E+00  4.3224731E+01
 7.0897503E+00  4.3250042E+01
 7.1012502E+00  4.3344826E+01
 7.1127505E+00  4.3359997E+01
 7.1242504E+00  4.3330357E+01
 7.1357503E+00  4.3320396E+01
 7.1472502E+00  4.3226994E+01
 7.1587505E+00  4.3254837E+01
 7.1702504E+00  4.3252625E+01
 7.1817503E+00  4.3320480E+01
 7.1932502E+00  4.3400440E+01
 7.2047505E+00  4.3588741E+01
 7.2162504E+00  4.3738434E+01
 7.2277503E+00  4.3942627E+01
 7.2392502E+00  4.4026283E+01
 7.2507505E+00  4.4148445E+01
 7.2622504E+00  4.4169590E+01
 7.2737503E+00  4.4106014E+01
 7.2852502E+00  4.4066105E+01
 7.2967505E+00  4.3946064E+01
 7.3082504E+00  4.4009266E+01
 7.3197503E+00  4.4026707E+01
 7.3312502E+00  4.4114792E+01
 7.3427505E+00  4.4106548E+01
 7.3542504E+00  4.4083195E+01
 7.3657503E+00  4.4155544E+01
 7.3772502E+00  4.4126572E+01
 7.3887506E+00  4.4254574E+01
 7.4002504E+00  4.4389477E+01
 7.4117503E+00  4.4505184E+01
 7.4232502E+00  4.4596298E+01
 7.4347506E+00  4.4587101E+01
 7.4462504E+00  4.4636822E+01
 7.4577503E+00  4.4538116E+01
 7.4692502E+00  4.4424904E+01
 7.4807506E+00  4.4456173E+01
 7.4922504E+00  4.4453407E+01
 7.5037503E+00  4.4565220E+01
 7.5152502E+00  4.4558872E+01
 7.5267506E+00  4.4656719E+01
 7.5382504E+00  4.4685574E+01
 7.5497503E+00  4.4727009E+01
 7.5612502E+00  4.4848095E+01
 7.5727506E+00  4.4934502E+01
 7.5842505E+00  4.4945637E+01
 7.5957503E+00  4.5019073E+01
 7.6072502E+00  4.4998745E+01
 7.6187506E+00  4.5006756E+01
 7.6302505E+00  4.4962841E+01
 7.6417503E+00  4.4963871E+01
 7.6532502E+00  4.5001789E+01
 7.6647506E+00  4.5013203E+01
 7.6762505E+00  4.5064690E+01
 7.6877503E+00  4.5079006E+01
 7.6992502E+00  4.5090630E+01
 7.7107506E+00  4.4998707E+01
 7.7222505E+00  4.4913086E+01
 7.7337503E+00  4.4804131E+01
 7.7452502E+00  4.4762070E+01
 7.7567506E+00  4.4792835E+01
 7.7682505E+00  4.4782188E+01
 7.7797503E+00  4.4773163E+01
 7.7912502E+00  4.4711109E+01
 7.8027506E+00  4.4706596E+01
 7.8142505E+00  4.4710751E+01
 7.8257504E+00  4.4754082E+01
 7.8372502E+00  4.4783047E+01
 7.8487506E+00  4.4837421E+01
 7.8602505E+00  4.4864201E+01
 7.8717504E+00  4.4746666E+01
 7.8832502E+00  4.4486332E+01
 7.8947506E+00  4.4353649E+01
 7.9062505E+00  4.4284096E+01
 7.9177504E+00  4.4355938E+01
 7.9292502E+00  4.4276211E+01
 7.9407506E+00  4.4213131E+01
 7.9522505E+00  4.4021759E+01
 7.9637504E+00  4.3915642E+01
 7.9752502E+00  4.3813957E+01
 7.9867506E+00  4.3800640E+01
 7.9982505E+00  4.3723682E+01
 8.0097504E+00  4.3662399E+01
 8.0212507E+00  4.3689075E+01
 8.0327501E+00  4.3666870E+01
 8.0442505E+00  4.3701859E+01
 8.0557508E+00  4.3721001E+01
 8.0672503E+00  4.3724236E+01
 8.0787506E+00  4.3696384E+01
 8.0902500E+00  4.3588036E+01
 8.1017504E+00  4.3566601E+01
 8.1132507E+00  4.3361633E+01
 8.1247501E+00  4.3222496E+01
 8.1362505E+00  4.2977505E+01
 8.1477509E+00  4.2923035E+01
 8.1592503E+00  4.2840305E+01
 8.1707506E+00  4.2780781E+01
 8.1822500E+00  4.2624802E+01
 8.1937504E+00  4.2533558E+01
 8.2052507E+00  4.2284718E+01
 8.2167501E+00  4.2154221E+01
 8.2282505E+00  4.1948887E+01
 8.2397509E+00  4.1880020E+01
 8.2512503E+00  4.1822090E+01
 8.2627506E+00  4.1763863E+01
 8.2742500E+00  4.1682884E+01
 8.2857504E+00  4.1549526E+01
 8.2972507E+00  4.1424561E+01
 8.3087502E+00  4.1305420E+01
 8.3202505E+00  4.1175797E+01
 8.3317509E+00  4.1051071E+01
 8.3432503E+00  4.0922092E+01
 8.3547506E+00  4.0831738E+01
 8.3662500E+00  4.0704697E+01
 8.3777504E+00  4.0554119E+01
 8.3892508E+00  4.0317665E+01
 8.4007502E+00  4.0086018E+01
 8.4122505E+00  3.9820854E+01
 8.4237509E+00  3.9615398E+01
 8.4352503E+00  3.9413246E+01
 8.4467506E+00  3.9221565E+01
 8.4582500E+00  3.9064144E+01
 8.4697504E+00  3.8967278E+01
 8.4812508E+00  3.8847782E+01
 8.4927502E+00  3.8686111E+01
 8.5042505E+00  3.8501434E+01
 8.5157509E+00  3.8372623E+01
 8.5272503E+00  3.8180874E+01
 8.5387506E+00  3.7986404E+01
 8.5502501E+00  3.7733814E+01
 8.5617504E+00  3.7567719E+01
 8.5732508E+00  3.7416069E+01
 8.5847502E+00  3.7275852E+01
 8.5962505E+00  3.7097809E+01
 8.6077509E+00  3.6908798E+01
 8.6192503E+00  3.6728294E+01
 8.6307507E+00  3.6600201E+01
 8.6422501E+00  3.6439110E+01
 8.6537504E+00  3.6203754E+01
 8.6652508E+00  3.6072247E+01
 8.6767502E+00  3.5941650E+01
 8.6882505E+00  3.5890984E+01
 8.6997509E+00  3.5772930E+01
 8.7112503E+00  3.5577065E+01
 8.7227507E+00  3.5469387E+01
 8.7342501E+00  3.5179825E+01
 8.7457504E+00  3.4984169E+01
 8.7572508E+00  3.4707542E+01
 8.7687502E+00  3.4527660E+01
 8.7802505E+00  3.4372753E+01
 8.7917500E+00  3.4192253E+01
 8.8032503E+00  3.4051300E+01
 8.8147507E+00  3.3857094E+01
 8.8262501E+00  3.3649220E+01
 8.8377504E+00  3.3417351E+01
 8.8492508E+00  3.3219402E+01
 8.8607502E+00  3.3024750E+01
 8.8722506E+00  3.2851749E+01
 8.8837500E+00  3.2690495E+01
 8.8952503E+00  3.2512985E+01
 8.9067507E+00  3.2459133E+01
 8.9182501E+00  3.2338696E+01
 8.9297504E+00  3.2283863E+01
 8.9412508E+00  3.2193943E+01
 8.9527502E+00  3.2129501E+01
 8.9642506E+00  3.1993000E+01
 8.9757500E+00  3.1756268E+01
 8.9872503E+00  3.1552505E+01
 8.9987507E+00  3.1358173E+01
 9.0102501E+00  3.1190872E+01
 9.0217505E+00  3.1053759E+01
 9.0332508E+00  3.0998844E+01
 9.0447502E+00  3.0988218E+01
 9.0562506E+00  3.0873730E+01
 9.0677500E+00  3.0867338E+01
 9.0792503E+00  3.0709263E+01
 9.0907507E+00  3.0535818E+01
 9.1022501E+00  3.0189552E+01
 9.1137505E+00  2.9955366E+01
 9.1252508E+00  2.9804081E+01
 9.1367502E+00  2.9679058E+01
 9.1482506E+00  2.9530733E+01
 9.1597500E+00  2.9440035E+01
 9.1712503E+00  2.9305895E+01
 9.1827507E+00  2.9215033E+01
 9.1942501E+00  2.9081598E+01
 9.2057505E+00  2.8935595E+01
 9.2172508E+00  2.8826252E+01
 9.2287502E+00  2.8694859E+01
 9.2402506E+00  2.8639925E+01
 9.2517500E+00  2.8588152E+01
 9.2632504E+00  2.8525591E+01
 9.2747507E+00  2.8437019E+01
 9.2862501E+00  2.8313662E+01
 9.2977505E+00  2.8220549E+01
 9.3092508E+00  2.8157276E+01
 9.3207502E+00  2.8059700E+01
 9.3322506E+00  2.8018326E+01
 9.3437500E+00  2.7909885E+01
 9.3552504E+00  2.7868008E+01
 9.3667507E+00  2.7773422E+01
 9.3782501E+00  2.7710514E+01
 9.3897505E+00  2.7625721E+01
 9.4012508E+00  2.7535870E+01
 9.4127502E+00  2.7473087E+01
 9.4242506E+00  2.7429235E+01
 9.4357500E+00  2.7386396E+01
 9.4472504E+00  2.7296326E+01
 9.4587507E+00  2.7210232E+01
 9.4702501E+00  2.7140455E+01
 9.4817505E+00  2.7110432E+01
 9.4932508E+00  2.7072952E+01
 9.5047503E+00  2.6993298E+01
 9.5162506E+00  2.6885513E+01
 9.5277500E+00  2.6739651E+01
 9.5392504E+00  2.6620895E+01
 9.5507507E+00  2.6512142E+01
 9.5622501E+00  2.6421398E+01
 9.5737505E+00  2.6308685E+01
 9.5852509E+00  2.6269423E+01
 9.5967503E+00  2.6211123E+01
 9.6082506E+00  2.6185427E+01
 9.6197500E+00  2.6129543E+01
 9.6312504E+00  2.6077324E+01
 9.6427507E+00  2.6086113E+01
 9.6542501E+00  2.5994186E+01
 9.6657505E+00  2.5917595E+01
 9.6772509E+00  2.5757421E+01
 9.6887503E+00  2.5693584E+01
 9.7002506E+00  2.5690779E+01
 9.7117500E+00  2.5713272E+01
 9.7232504E+00  2.5666965E+01
 9.7347507E+00  2.5565355E+01
 9.7462502E+00  2.5505598E+01
 9.7577505E+00  2.5480419E+01
 9.7692509E+00  2.5543150E+01
 9.7807503E+00  2.5523331E+01
 9.7922506E+00  2.5509092E+01
 9.8037500E+00  2.5435593E+01
 9.8152504E+00  2.5414843E+01
 9.8267508E+00  2.5293272E+01
 9.8382502E+00  2.5183132E+01
 9.8497505E+00  2.5021828E+01
 9.8612509E+00  2.4910671E+01
 9.8727503E+00  2.4901558E+01
 9.8842506E+00  2.4894156E+01
 9.8957500E+00  2.4953537E+01
 9.9072504E+00  2.4906309E+01
 9.9187508E+00  2.4899080E+01
 9.9302502E+00  2.4847658E+01
 9.9417505E+00  2.4801813E+01
 9.9532509E+00  2.4754154E+01
 9.9647503E+00  2.4739275E+01
 9.9762506E+00  2.4720345E+01
 9.9877501E+00  2.4680338E+01
 9.9992504E+00  2.4705008E+01
 1.0010751E+01  2.4676003E+01
 1.0022250E+01  2.4692810E+01
 1.0033751E+01  2.4596951E+01
 1.0045251E+01  2.4564920E+01
 1.0056750E+01  2.4470478E+01
 1.0068251E+01  2.4522114E+01
 1.0079750E+01  2.4503014E+01
 1.0091250E+01  2.4489124E+01
 1.0102751E+01  2.4446388E+01
 1.0114250E+01  2.4401772E+01
 1.0125751E+01  2.4420931E+01
 1.0137251E+01  2.4366846E+01
 1.0148750E+01  2.4362749E+01
 1.0160251E+01  2.4338900E+01
 1.0171750E+01  2.4229233E+01
 1.0183250E+01  2.4205751E+01
 1.0194751E+01  2.4156462E+01
 1.0206250E+01  2.4195082E+01
 1.0217751E+01  2.4178495E+01
 1.0229251E+01  2.4137480E+01
 1.0240750E+01  2.4036354E+01
 1.0252251E+01  2.4008358E+01
 1.0263750E+01  2.3996452E+01
 1.0275250E+01  2.4031076E+01
 1.0286751E+01  2.4001101E+01
 1.0298250E+01  2.3983397E+01
 1.0309751E+01  2.3940468E+01
 1.0321251E+01  2.3879547E+01
 1.0332750E+01  2.3834381E+01
 1.0344251E+01  2.3803839E+01
 1.0355750E+01  2.3760086E+01
 1.0367250E+01  2.3663286E+01
 1.0378751E+01  2.3607727E+01
 1.0390250E+01  2.3622503E+01
 1.0401751E+01  2.3623533E+01
 1.0413251E+01  2.3639957E+01
 1.0424750E+01  2.3579762E+01
 1.0436251E+01  2.3562304E+01
 1.0447750E+01  2.3556532E+01
 1.0459250E+01  2.3530966E+01
 1.0470751E+01  2.3550726E+01
 1.0482250E+01  2.3504833E+01
 1.0493751E+01  2.3469311E+01
 1.0505251E+01  2.3477123E+01
 1.0516750E+01  2.3488680E+01
 1.0528251E+01  2.3488127E+01
 1.0539750E+01  2.3440062E+01
 1.0551250E+01  2.3453377E+01
 1.0562751E+01  2.3458860E+01
 1.0574250E+01  2.3443916E+01
 1.0585751E+01  2.3313484E+01
 1.0597251E+01  2.3244013E+01
 1.0608750E+01  2.3205055E+01
 1.0620251E+01  2.3266123E+01
 1.0631750E+01  2.3311029E+01
 1.0643250E+01  2.3323856E+01
 1.0654751E+01  2.3330997E+01
 1.0666250E+01  2.3320244E+01
 1.0677751E+01  2.3266098E+01
 1.0689251E+01  2.3251850E+01
 1.0700750E+01  2.3199059E+01
 1.0712251E+01  2.3232847E+01
 1.0723750E+01  2.3209578E+01
 1.0735250E+01  2.3224791E+01
 1.0746751E+01  2.3154259E+01
 1.0758250E+01  2.3114828E+01
 1.0769751E+01  2.3057770E+01
 1.0781251E+01  2.3092834E+01
 1.0792750E+01  2.3086357E+01
 1.0804251E+01  2.3059351E+01
 1.0815750E+01  2.3043312E+01
 1.0827250E+01  2.3041651E+01
 1.0838751E+01  2.3078045E+01
 1.0850250E+01  2.3042259E+01
 1.0861751E+01  2.3032900E+01
 1.0873251E+01  2.3011803E+01
 1.0884750E+01  2.2992142E+01
 1.0896251E+01  2.2959164E+01
 1.0907750E+01  2.3005981E+01
 1.0919250E+01  2.3026907E+01
 1.0930751E+01  2.3000824E+01
 1.0942250E+01  2.2959290E+01
 1.0953751E+01  2.2956844E+01
 1.0965251E+01  2.3004282E+01
 1.0976750E+01  2.3015387E+01
 1.0988251E+01  2.3011421E+01
 1.0999750E+01  2.3008841E+01
 1.1011250E+01  2.2988892E+01
 1.1022751E+01  2.2941664E+01
 1.1034250E+01  2.2885662E+01
 1.1045751E+01  2.2804390E+01
 1.1057251E+01  2.2812210E+01
 1.1068750E+01  2.2806206E+01
 1.1080251E+01  2.2856125E+01
 1.1091750E+01  2.2909294E+01
 1.1103251E+01  2.2933466E+01
 1.1114751E+01  2.2959698E+01
 1.1126250E+01  2.2901178E+01
 1.1137751E+01  2.2828119E+01
 1.1149251E+01  2.2808268E+01
 1.1160750E+01  2.2763147E+01
 1.1172251E+01  2.2744606E+01
 1.1183750E+01  2.2735722E+01
 1.1195251E+01  2.2748978E+01
 1.1206751E+01  2.2750217E+01
 1.1218250E+01  2.2652073E+01
 1.1229751E+01  2.2536999E+01
 1.1241251E+01  2.2487732E+01
 1.1252750E+01  2.2474306E+01
 1.1264251E+01  2.2512205E+01
 1.1275750E+01  2.2523291E+01
 1.1287251E+01  2.2584793E+01
 1.1298751E+01  2.2631632E+01
 1.1310250E+01  2.2625040E+01
 1.1321751E+01  2.2588608E+01
 1.1333251E+01  2.2510235E+01
 1.1344750E+01  2.2469435E+01
 1.1356251E+01  2.2473616E+01
 1.1367750E+01  2.2539177E+01
 1.1379251E+01  2.2633760E+01
 1.1390751E+01  2.2732613E+01
 1.1402250E+01  2.2987190E+01
 1.1413751E+01  2.3053047E+01
 1.1425251E+01  2.3064320E+01
 1.1436750E+01  2.3037460E+01
 1.1448251E+01  2.3043346E+01
 1.1459750E+01  2.3112167E+01
 1.1471251E+01  2.3029907E+01
 1.1482751E+01  2.3069473E+01
 1.1494250E+01  2.3085983E+01
 1.1505751E+01  2.3168587E+01
 1.1517251E+01  2.3396481E+01
 1.1528750E+01  2.3914545E+01
 1.1540251E+01  2.4358711E+01
 1.1551750E+01  2.5546309E+01
 1.1563251E+01  2.6413586E+01
 1.1574751E+01  2.7180223E+01
 1.1586250E+01  2.7910038E+01
 1.1597751E+01  2.7730228E+01
 1.1609251E+01  2.7311361E+01
 1.1620750E+01  2.5979231E+01
 1.1632251E+01  2.5026556E+01
 1.1643750E+01  2.4298275E+01
 1.1655251E+01  2.3576571E+01
 1.1666751E+01  2.3309694E+01
 1.1678250E+01  2.3146215E+01
 1.1689751E+01  2.2997559E+01
 1.1701251E+01  2.2862347E+01
 1.1712750E+01  2.2800394E+01
 1.1724251E+01  2.2793362E+01
 1.1735750E+01  2.2818336E+01
 1.1747251E+01  2.2805185E+01
 1.1758751E+01  2.2795149E+01
 1.1770250E+01  2.2782043E+01
 1.1781751E+01  2.2779081E+01
 1.1793251E+01  2.2755091E+01
 1.1804750E+01  2.2764542E+01
 1.1816251E+01  2.2782461E+01
 1.1827750E+01  2.2770058E+01
 1.1839251E+01  2.2746616E+01
 1.1850751E+01  2.2709908E+01
 1.1862250E+01  2.2724897E+01
 1.1873751E+01  2.2740097E+01
 1.1885251E+01  2.2771849E+01
 1.1896750E+01  2.2835154E+01
 1.1908251E+01  2.2841204E+01
 1.1919750E+01  2.2871456E+01
 1.1931251E+01  2.2869871E+01
 1.1942751E+01  2.3032160E+01
 1.1954250E+01  2.3207037E+01
 1.1965751E+01  2.3370892E+01
 1.1977251E+01  2.3414227E+01
 1.1988750E+01  2.3446363E+01
 1.2000251E+01  2.3383448E+01
 1.2011750E+01  2.3360949E+01
 1.2023251E+01  2.3255732E+01
 1.2034751E+01  2.3326778E+01
 1.2046250E+01  2.3367407E+01
 1.2057751E+01  2.3571850E+01
 1.2069251E+01  2.3870888E+01
 1.2080750E+01  2.4205618E+01
 1.2092251E+01  2.4580830E+01
 1.2103750E+01  2.4641085E+01
 1.2115251E+01  2.4704611E+01
 1.2126751E+01  2.4302561E+01
 1.2138250E+01  2.4100306E+01
 1.2149751E+01  2.3633083E+01
 1.2161251E+01  2.3450289E+01
 1.2172750E+01  2.3148544E+01
 1.2184251E+01  2.3037209E+01
 1.2195750E+01  2.2923847E+01
 1.2207251E+01  2.2845913E+01
 1.2218751E+01  2.2768257E+01
 1.2230250E+01  2.2730898E+01
 1.2241751E+01  2.2696100E+01
 1.2253251E+01  2.2718790E+01
 1.2264750E+01  2.2738165E+01
 1.2276251E+01  2.2717966E+01
 1.2287750E+01  2.2680799E+01
 1.2299251E+01  2.2632748E+01
 1.2310751E+01  2.2710655E+01
 1.2322250E+01  2.2679972E+01
 1.2333751E+01  2.2753115E+01
 1.2345250E+01  2.2731277E+01
 1.2356750E+01  2.2795580E+01
 1.2368251E+01  2.2753443E+01
 1.2379750E+01  2.2742954E+01
 1.2391251E+01  2.2723934E+01
 1.2402751E+01  2.2736977E+01
 1.2414250E+01  2.2721176E+01
 1.2425751E+01  2.2743649E+01
 1.2437250E+01  2.2745028E+01
 1.2448750E+01  2.2735575E+01
 1.2460251E+01  2.2746368E+01
 1.2471750E+01  2.2790098E+01
 1.2483251E+01  2.2903267E+01
 1.2494751E+01  2.2926046E+01
 1.2506250E+01  2.2910965E+01
 1.2517751E+01  2.2903645E+01
 1.2529250E+01  2.2923632E+01
 1.2540751E+01  2.2993273E+01
 1.2552251E+01  2.2993809E+01
 1.2563750E+01  2.3001547E+01
 1.2575251E+01  2.2979677E+01
 1.2586751E+01  2.3002459E+01
 1.2598250E+01  2.2996223E+01
 1.2609751E+01  2.3020184E+01
 1.2621250E+01  2.3049486E+01
 1.2632751E+01  2.3106478E+01
 1.2644251E+01  2.3072628E+01
 1.2655750E+01  2.3060940E+01
 1.2667251E+01  2.2996128E+01
 1.2678751E+01  2.3006500E+01
 1.2690250E+01  2.2979210E+01
 1.2701751E+01  2.3070459E+01
 1.2713250E+01  2.3168760E+01
 1.2724751E+01  2.3357889E+01
 1.2736251E+01  2.3437243E+01
 1.2747750E+01  2.3761873E+01
 1.2759251E+01  2.3744572E+01
 1.2770751E+01  2.3806538E+01
 1.2782250E+01  2.3567852E+01
 1.2793751E+01  2.3523655E+01
 1.2805250E+01  2.3451647E+01
 1.2816751E+01  2.3447058E+01
 1.2828251E+01  2.3510353E+01
 1.2839750E+01  2.3510654E+01
 1.2851251E+01  2.3535982E+01
 1.2862751E+01  2.3512360E+01
 1.2874250E+01  2.3545113E+01
 1.2885751E+01  2.3526772E+01
 1.2897250E+01  2.3554504E+01
 1.2908751E+01  2.3656767E+01
 1.2920251E+01  2.3760366E+01
 1.2931750E+01  2.3881607E+01
 1.2943251E+01  2.3917034E+01
 1.2954751E+01  2.3945601E+01
 1.2966250E+01  2.3939053E+01
 1.2977751E+01  2.4045658E+01
 1.2989250E+01  2.4109327E+01
 1.3000751E+01  2.4259888E+01
 1.3012251E+01  2.4305840E+01
 1.3023750E+01  2.4387926E+01
 1.3035251E+01  2.4400911E+01
 1.3046751E+01  2.4448542E+01
 1.3058250E+01  2.4509300E+01
 1.3069751E+01  2.4602549E+01
 1.3081250E+01  2.4725206E+01
 1.3092751E+01  2.4876081E+01
 1.3104251E+01  2.5083982E+01
 1.3115750E+01  2.5248959E+01
 1.3127251E+01  2.5380566E+01
 1.3138751E+01  2.5439817E+01
 1.3150250E+01  2.5536861E+01
 1.3161751E+01  2.5600468E+01
 1.3173250E+01  2.5728989E+01
 1.3184751E+01  2.5847742E+01
 1.3196251E+01  2.5998549E+01
 1.3207750E+01  2.6075859E+01
 1.3219251E+01  2.6223558E+01
 1.3230751E+01  2.6407217E+01
 1.3242250E+01  2.6637148E+01
 1.3253751E+01  2.6728115E+01
 1.3265250E+01  2.6839155E+01
 1.3276751E+01  2.6913280E+01
 1.3288251E+01  2.6965048E+01
 1.3299750E+01  2.7068979E+01
 1.3311251E+01  2.7131653E+01
 1.3322751E+01  2.7325331E+01
 1.3334250E+01  2.7550671E+01
 1.3345751E+01  2.7760778E+01
 1.3357250E+01  2.7984039E+01
 1.3368751E+01  2.8097004E+01
 1.3380251E+01  2.8273394E+01
 1.3391750E+01  2.8407173E+01
 1.3403251E+01  2.8519506E+01
 1.3414751E+01  2.8582348E+01
 1.3426250E+01  2.8623377E+01
 1.3437751E+01  2.8757343E+01
 1.3449250E+01  2.8929165E+01
 1.3460751E+01  2.9110924E+01
 1.3472251E+01  2.9213570E+01
 1.3483750E+01  2.9337965E+01
 1.3495251E+01  2.9453550E+01
 1.3506751E+01  2.9559673E+01
 1.3518250E+01  2.9631708E+01
 1.3529751E+01  2.9632238E+01
 1.3541250E+01  2.9645493E+01
 1.3552751E+01  2.9703188E+01
 1.3564251E+01  2.9748552E+01
 1.3575750E+01  2.9855417E+01
 1.3587251E+01  2.9870939E+01
 1.3598751E+01  2.9913445E+01
 1.3610250E+01  2.9902096E+01
 1.3621751E+01  2.9890127E+01
 1.3633250E+01  2.9871292E+01
 1.3644751E+01  2.9867765E+01
 1.3656251E+01  2.9886065E+01
 1.3667750E+01  2.9934793E+01
 1.3679251E+01  2.9894899E+01
 1.3690751E+01  2.9815826E+01
 1.3702250E+01  2.9774235E+01
 1.3713751E+01  2.9705021E+01
 1.3725250E+01  2.9692081E+01
 1.3736751E+01  2.9647860E+01
 1.3748251E+01  2.9615606E+01
 1.3759750E+01  2.9614061E+01
 1.3771251E+01  2.9573599E+01
 1.3782751E+01  2.9587597E+01
 1.3794250E+01  2.9558027E+01
 1.3805751E+01  2.9536612E+01
 1.3817250E+01  2.9486912E+01
 1.3828751E+01  2.9440163E+01
 1.3840251E+01  2.9419514E+01
 1.3851750E+01  2.9452316E+01
 1.3863251E+01  2.9494833E+01
 1.3874751E+01  2.9575920E+01
 1.3886250E+01  2.9710379E+01
 1.3897751E+01  3.0046741E+01
 1.3909250E+01  3.0620790E+01
 1.3920751E+01  3.1317413E+01
 1.3932251E+01  3.1945322E+01
 1.3943750E+01  3.2662632E+01
 1.3955251E+01  3.2801212E+01
 1.3966751E+01  3.2746769E+01
 1.3978251E+01  3.2017914E+01
 1.3989751E+01  3.1229034E+01
 1.4001250E+01  3.0411020E+01
 1.4012751E+01  2.9554550E+01
 1.4024251E+01  2.9061237E+01
 1.4035750E+01  2.8557749E+01
 1.4047251E+01  2.8283239E+01
 1.4058751E+01  2.8123379E+01
 1.4070251E+01  2.8020872E+01
 1.4081751E+01  2.7912708E+01
 1.4093250E+01  2.7780493E+01
 1.4104751E+01  2.7678900E+01
 1.4116251E+01  2.7586557E+01
 1.4127750E+01  2.7489038E+01
 1.4139251E+01  2.7381681E+01
 1.4150751E+01  2.7264750E+01
 1.4162251E+01  2.7198353E+01
 1.4173751E+01  2.7130482E+01
 1.4185250E+01  2.7117271E+01
 1.4196751E+01  2.7032099E+01
 1.4208251E+01  2.6992805E+01
 1.4219750E+01  2.6909275E+01
 1.4231251E+01  2.6853151E+01
 1.4242751E+01  2.6773672E+01
 1.4254251E+01  2.6692326E+01
 1.4265751E+01  2.6620790E+01
 1.4277250E+01  2.6533669E+01
 1.4288751E+01  2.6464954E+01
 1.4300251E+01  2.6386936E+01
 1.4311750E+01  2.6298389E+01
 1.4323251E+01  2.6238716E+01
 1.4334751E+01  2.6220339E+01
 1.4346251E+01  2.6266800E+01
 1.4357751E+01  2.6287729E+01
 1.4369250E+01  2.6275560E+01
 1.4380751E+01  2.6243879E+01
 1.4392251E+01  2.6177099E+01
 1.4403750E+01  2.6093613E+01
 1.4415251E+01  2.6027126E+01
 1.4426751E+01  2.5990545E+01
 1.4438251E+01  2.6021549E+01
 1.4449751E+01  2.6019806E+01
 1.4461250E+01  2.6014412E+01
 1.4472751E+01  2.6053907E+01
 1.4484251E+01  2.6009026E+01
 1.4495750E+01  2.6031296E+01
 1.4507251E+01  2.5927788E+01
 1.4518751E+01  2.5906582E+01
 1.4530251E+01  2.5879810E+01
 1.4541751E+01  2.5840672E+01
 1.4553250E+01  2.5795025E+01
 1.4564751E+01  2.5717381E+01
 1.4576251E+01  2.5687777E+01
 1.4587750E+01  2.5634071E+01
 1.4599251E+01  2.5557129E+01
 1.4610751E+01  2.5530998E+01
 1.4622251E+01  2.5512266E+01
 1.4633751E+01  2.5520609E+01
 1.4645250E+01  2.5524992E+01
 1.4656751E+01  2.5500006E+01
 1.4668251E+01  2.5478546E+01
 1.4679750E+01  2.5458509E+01
 1.4691251E+01  2.5473873E+01
 1.4702751E+01  2.5483831E+01
 1.4714251E+01  2.5454910E+01
 1.4725751E+01  2.5413570E+01
 1.4737250E+01  2.5368391E+01
 1.4748751E+01  2.5335537E+01
 1.4760251E+01  2.5309612E+01
 1.4771750E+01  2.5297094E+01
 1.4783251E+01  2.5255182E+01
 1.4794751E+01  2.5214945E+01
 1.4806251E+01  2.5146824E+01
 1.4817751E+01  2.5078152E+01
 1.4829250E+01  2.5046936E+01
 1.4840751E+01  2.5082495E+01
 1.4852251E+01  2.5129494E+01
 1.4863750E+01  2.5134592E+01
 1.4875251E+01  2.5142582E+01
 1.4886751E+01  2.5168980E+01
 1.4898251E+01  2.5164217E+01
 1.4909751E+01  2.5161049E+01
 1.4921250E+01  2.5111794E+01
 1.4932751E+01  2.5090305E+01
 1.4944251E+01  2.5069113E+01
 1.4955750E+01  2.5099361E+01
 1.4967251E+01  2.5091827E+01
 1.4978751E+01  2.5043272E+01
 1.4990251E+01  2.4969542E+01
 1.5001751E+01  2.4960396E+01
 1.5013250E+01  2.4951202E+01
 1.5024751E+01  2.4981861E+01
 1.5036251E+01  2.4917881E+01
 1.5047750E+01  2.4881620E+01
 1.5059251E+01  2.4874931E+01
 1.5070751E+01  2.4891003E+01
 1.5082251E+01  2.4870522E+01
 1.5093751E+01  2.4891209E+01
 1.5105250E+01  2.4940599E+01
 1.5116751E+01  2.5015108E+01
 1.5128251E+01  2.5043396E+01
 1.5139750E+01  2.5118715E+01
 1.5151251E+01  2.5231802E+01
 1.5162751E+01  2.5351971E+01
 1.5174251E+01  2.5484734E+01
 1.5185751E+01  2.5582556E+01
 1.5197250E+01  2.5610416E+01
 1.5208751E+01  2.5650482E+01
 1.5220251E+01  2.5572399E+01
 1.5231750E+01  2.5460470E+01
 1.5243251E+01  2.5289139E+01
 1.5254751E+01  2.5134054E+01
 1.5266251E+01  2.4956360E+01
 1.5277751E+01  2.4825691E+01
 1.5289250E+01  2.4812963E+01
 1.5300751E+01  2.4800688E+01
 1.5312251E+01  2.4771555E+01
 1.5323750E+01  2.4696732E+01
 1.5335251E+01  2.4679770E+01
 1.5346751E+01  2.4671053E+01
 1.5358251E+01  2.4662376E+01
 1.5369751E+01  2.4648996E+01
 1.5381250E+01  2.4621113E+01
 1.5392751E+01  2.4642166E+01
 1.5404251E+01  2.4712402E+01
 1.5415751E+01  2.4762358E+01
 1.5427251E+01  2.4831028E+01
 1.5438751E+01  2.4841490E+01
 1.5450251E+01  2.4855959E+01
 1.5461751E+01  2.4824440E+01
 1.5473250E+01  2.4796337E+01
 1.5484751E+01  2.4807268E+01
 1.5496251E+01  2.4715132E+01
 1.5507751E+01  2.4639297E+01
 1.5519251E+01  2.4553513E+01
 1.5530751E+01  2.4587000E+01
 1.5542251E+01  2.4604950E+01
 1.5553751E+01  2.4656895E+01
 1.5565250E+01  2.4717669E+01
 1.5576751E+01  2.4748686E+01
 1.5588251E+01  2.4730545E+01
 1.5599751E+01  2.4713728E+01
 1.5611251E+01  2.4715393E+01
 1.5622751E+01  2.4776278E+01
 1.5634251E+01  2.4765688E+01
 1.5645751E+01  2.4788633E+01
 1.5657250E+01  2.4806622E+01
 1.5668751E+01  2.4877096E+01
 1.5680251E+01  2.4851765E+01
 1.5691751E+01  2.4855980E+01
 1.5703251E+01  2.4858345E+01
 1.5714751E+01  2.4859446E+01
 1.5726251E+01  2.4792318E+01
 1.5737751E+01  2.4687288E+01
 1.5749250E+01  2.4643564E+01
 1.5760751E+01  2.4626419E+01
 1.5772251E+01  2.4667509E+01
 1.5783751E+01  2.4690275E+01
 1.5795251E+01  2.4746153E+01
 1.5806751E+01  2.4789146E+01
 1.5818251E+01  2.4812702E+01
 1.5829751E+01  2.4814367E+01
 1.5841250E+01  2.4780764E+01
 1.5852751E+01  2.4817863E+01
 1.5864251E+01  2.4760174E+01
 1.5875751E+01  2.4810392E+01
 1.5887251E+01  2.4775803E+01
 1.5898750E+01  2.4816765E+01
 1.5910251E+01  2.4814571E+01
 1.5921751E+01  2.4807625E+01
 1.5933250E+01  2.4801086E+01
 1.5944751E+01  2.4763285E+01
 1.5956251E+01  2.4777323E+01
 1.5967751E+01  2.4783947E+01
 1.5979251E+01  2.4783804E+01
 1.5990750E+01  2.4849087E+01
 1.6002251E+01  2.4803562E+01
 1.6013750E+01  2.4819265E+01
 1.6025251E+01  2.4812950E+01
 1.6036751E+01  2.4864344E+01
 1.6048250E+01  2.4846556E+01
 1.6059752E+01  2.4809954E+01
 1.6071251E+01  2.4789679E+01
 1.6082750E+01  2.4823387E+01
 1.6094252E+01  2.4865391E+01
 1.6105751E+01  2.4937582E+01
 1.6117250E+01  2.4935019E+01
 1.6128750E+01  2.4931345E+01
 1.6140251E+01  2.4991259E+01
 1.6151751E+01  2.5024883E+01
 1.6163250E+01  2.5091999E+01
 1.6174751E+01  2.5028893E+01
 1.6186251E+01  2.5247824E+01
 1.6197750E+01  2.5204807E+01
 1.6209251E+01  2.5645895E+01
 1.6220751E+01  2.5606129E+01
 1.6232250E+01  2.6048716E+01
 1.6243752E+01  2.6098545E+01
 1.6255251E+01  2.6401901E+01
 1.6266750E+01  2.6578762E+01
 1.6278252E+01  2.6394121E+01
 1.6289751E+01  2.6385174E+01
 1.6301250E+01  2.5785721E+01
 1.6312750E+01  2.5818302E+01
 1.6324251E+01  2.5382183E+01
 1.6335751E+01  2.5408375E+01
 1.6347250E+01  2.5198225E+01
 1.6358751E+01  2.5140734E+01
 1.6370251E+01  2.5025665E+01
 1.6381750E+01  2.4944166E+01
 1.6393251E+01  2.4960999E+01
 1.6404751E+01  2.4976492E+01
 1.6416250E+01  2.5031807E+01
 1.6427752E+01  2.5026848E+01
 1.6439251E+01  2.5005518E+01
 1.6450750E+01  2.4929380E+01
 1.6462252E+01  2.4902388E+01
 1.6473751E+01  2.4868917E+01
 1.6485250E+01  2.4864355E+01
 1.6496750E+01  2.4853657E+01
 1.6508251E+01  2.4839819E+01
 1.6519751E+01  2.4842764E+01
 1.6531250E+01  2.4818441E+01
 1.6542751E+01  2.4865858E+01
 1.6554251E+01  2.4832579E+01
 1.6565750E+01  2.4814545E+01
 1.6577251E+01  2.4771473E+01
 1.6588751E+01  2.4782089E+01
 1.6600250E+01  2.4791063E+01
 1.6611752E+01  2.4806139E+01
 1.6623251E+01  2.4765518E+01
 1.6634750E+01  2.4771927E+01
 1.6646252E+01  2.4783245E+01
 1.6657751E+01  2.4809839E+01
 1.6669250E+01  2.4826021E+01
 1.6680750E+01  2.4829081E+01
 1.6692251E+01  2.4836512E+01
 1.6703751E+01  2.4762815E+01
 1.6715250E+01  2.4688486E+01
 1.6726751E+01  2.4657734E+01
 1.6738251E+01  2.4673573E+01
 1.6749750E+01  2.4673809E+01
 1.6761251E+01  2.4634296E+01
 1.6772751E+01  2.4534306E+01
 1.6784250E+01  2.4483286E+01
 1.6795752E+01  2.4479601E+01
 1.6807251E+01  2.4600798E+01
 1.6818750E+01  2.4639036E+01
 1.6830252E+01  2.4686813E+01
 1.6841751E+01  2.4677250E+01
 1.6853251E+01  2.4721601E+01
 1.6864750E+01  2.4728716E+01
 1.6876251E+01  2.4742964E+01
 1.6887751E+01  2.4713678E+01
 1.6899250E+01  2.4688414E+01
 1.6910751E+01  2.4633131E+01
 1.6922251E+01  2.4608824E+01
 1.6933750E+01  2.4534153E+01
 1.6945251E+01  2.4481802E+01
 1.6956751E+01  2.4433208E+01
 1.6968250E+01  2.4435501E+01
 1.6979752E+01  2.4445578E+01
 1.6991251E+01  2.4448576E+01
 1.7002750E+01  2.4455015E+01
 1.7014252E+01  2.4474731E+01
 1.7025751E+01  2.4496967E+01
 1.7037251E+01  2.4467987E+01
 1.7048750E+01  2.4416233E+01
 1.7060251E+01  2.4351587E+01
 1.7071751E+01  2.4316675E+01
 1.7083250E+01  2.4270973E+01
 1.7094751E+01  2.4254633E+01
 1.7106251E+01  2.4256113E+01
 1.7117750E+01  2.4269341E+01
 1.7129251E+01  2.4358145E+01
 1.7140751E+01  2.4425955E+01
 1.7152250E+01  2.4475769E+01
 1.7163752E+01  2.4488436E+01
 1.7175251E+01  2.4532322E+01
 1.7186750E+01  2.4557529E+01
 1.7198252E+01  2.4574696E+01
 1.7209751E+01  2.4549925E+01
 1.7221251E+01  2.4503263E+01
 1.7232750E+01  2.4449623E+01
 1.7244251E+01  2.4396202E+01
 1.7255751E+01  2.4335766E+01
 1.7267250E+01  2.4282360E+01
 1.7278751E+01  2.4272024E+01
 1.7290251E+01  2.4247704E+01
 1.7301750E+01  2.4267941E+01
 1.7313251E+01  2.4227501E+01
 1.7324751E+01  2.4246063E+01
 1.7336250E+01  2.4242474E+01
 1.7347752E+01  2.4249594E+01
 1.7359251E+01  2.4216021E+01
 1.7370750E+01  2.4214987E+01
 1.7382252E+01  2.4220385E+01
 1.7393751E+01  2.4186607E+01
 1.7405251E+01  2.4167160E+01
 1.7416750E+01  2.4154415E+01
 1.7428251E+01  2.4166721E+01
 1.7439751E+01  2.4197018E+01
 1.7451250E+01  2.4210291E+01
 1.7462751E+01  2.4213791E+01
 1.7474251E+01  2.4187849E+01
 1.7485750E+01  2.4170628E+01
 1.7497252E+01  2.4149139E+01
 1.7508751E+01  2.4108835E+01
 1.7520250E+01  2.4118155E+01
 1.7531752E+01  2.4111666E+01
 1.7543251E+01  2.4148838E+01
 1.7554750E+01  2.4103302E+01
 1.7566252E+01  2.4064760E+01
 1.7577751E+01  2.4036373E+01
 1.7589251E+01  2.3999693E+01
 1.7600750E+01  2.4005482E+01
 1.7612251E+01  2.3993299E+01
 1.7623751E+01  2.4041328E+01
 1.7635250E+01  2.4030869E+01
 1.7646751E+01  2.4023378E+01
 1.7658251E+01  2.3983707E+01
 1.7669750E+01  2.4013371E+01
 1.7681252E+01  2.4030685E+01
 1.7692751E+01  2.4121143E+01
 1.7704250E+01  2.4133902E+01
 1.7715752E+01  2.4138163E+01
 1.7727251E+01  2.4070015E+01
 1.7738750E+01  2.4012823E+01
 1.7750252E+01  2.3979809E+01
 1.7761751E+01  2.3949568E+01
 1.7773251E+01  2.3956167E+01
 1.7784750E+01  2.3952106E+01
 1.7796251E+01  2.4003252E+01
 1.7807751E+01  2.4000225E+01
 1.7819250E+01  2.4015049E+01
 1.7830751E+01  2.3975866E+01
 1.7842251E+01  2.4012518E+01
 1.7853750E+01  2.4011728E+01
 1.7865252E+01  2.4027597E+01
 1.7876751E+01  2.3962650E+01
 1.7888250E+01  2.3958481E+01
 1.7899752E+01  2.3915159E+01
 1.7911251E+01  2.3945469E+01
 1.7922750E+01  2.3952139E+01
 1.7934252E+01  2.3960752E+01
 1.7945751E+01  2.4014898E+01
 1.7957251E+01  2.4024910E+01
 1.7968750E+01  2.4038099E+01
 1.7980251E+01  2.4044954E+01
 1.7991751E+01  2.4123678E+01
 1.8003250E+01  2.4266920E+01
 1.8014751E+01  2.4354244E+01
 1.8026251E+01  2.4480127E+01
 1.8037750E+01  2.4587803E+01
 1.8049252E+01  2.4715000E+01
 1.8060751E+01  2.4856030E+01
 1.8072250E+01  2.4948629E+01
 1.8083752E+01  2.5099354E+01
 1.8095251E+01  2.5229916E+01
 1.8106750E+01  2.5244570E+01
 1.8118252E+01  2.5228050E+01
 1.8129751E+01  2.5046139E+01
 1.8141251E+01  2.4828390E+01
 1.8152750E+01  2.4492123E+01
 1.8164251E+01  2.4262455E+01
 1.8175751E+01  2.4088261E+01
 1.8187250E+01  2.3938423E+01
 1.8198751E+01  2.3883614E+01
 1.8210251E+01  2.3861931E+01
 1.8221750E+01  2.3825857E+01
 1.8233252E+01  2.3803663E+01
 1.8244751E+01  2.3769146E+01
 1.8256250E+01  2.3770365E+01
 1.8267752E+01  2.3738066E+01
 1.8279251E+01  2.3735800E+01
 1.8290751E+01  2.3710964E+01
 1.8302252E+01  2.3711754E+01
 1.8313751E+01  2.3718168E+01
 1.8325251E+01  2.3698460E+01
 1.8336750E+01  2.3712502E+01
 1.8348251E+01  2.3714197E+01
 1.8359751E+01  2.3736437E+01
 1.8371250E+01  2.3719955E+01
 1.8382751E+01  2.3698442E+01
 1.8394251E+01  2.3739145E+01
 1.8405750E+01  2.3769970E+01
 1.8417252E+01  2.3816240E+01
 1.8428751E+01  2.3786425E+01
 1.8440250E+01  2.3760666E+01
 1.8451752E+01  2.3706844E+01
 1.8463251E+01  2.3665871E+01
 1.8474751E+01  2.3661991E+01
 1.8486252E+01  2.3636175E+01
 1.8497751E+01  2.3656666E+01
 1.8509251E+01  2.3698982E+01
 1.8520750E+01  2.3708994E+01
 1.8532251E+01  2.3687645E+01
 1.8543751E+01  2.3655945E+01
 1.8555250E+01  2.3658964E+01
 1.8566751E+01  2.3638691E+01
 1.8578251E+01  2.3643126E+01
 1.8589750E+01  2.3712730E+01
 1.8601252E+01  2.3785404E+01
 1.8612751E+01  2.3812593E+01
 1.8624250E+01  2.3788799E+01
 1.8635752E+01  2.3803757E+01
 1.8647251E+01  2.3718042E+01
 1.8658751E+01  2.3647627E+01
 1.8670252E+01  2.3604359E+01
 1.8681751E+01  2.3652496E+01
 1.8693251E+01  2.3670055E+01
 1.8704750E+01  2.3652531E+01
 1.8716251E+01  2.3629450E+01
 1.8727751E+01  2.3637808E+01
 1.8739250E+01  2.3605696E+01
 1.8750751E+01  2.3605305E+01
 1.8762251E+01  2.3579844E+01
 1.8773750E+01  2.3546530E+01
 1.8785252E+01  2.3520601E+01
 1.8796751E+01  2.3561186E+01
 1.8808250E+01  2.3577679E+01
 1.8819752E+01  2.3619385E+01
 1.8831251E+01  2.3599709E+01
 1.8842751E+01  2.3637150E+01
 1.8854252E+01  2.3622599E+01
 1.8865751E+01  2.3687845E+01
 1.8877251E+01  2.3691599E+01
 1.8888750E+01  2.3701172E+01
 1.8900251E+01  2.3677431E+01
 1.8911751E+01  2.3671879E+01
 1.8923250E+01  2.3692801E+01
 1.8934752E+01  2.3704210E+01
 1.8946251E+01  2.3742882E+01
 1.8957750E+01  2.3716967E+01
 1.8969252E+01  2.3646254E+01
 1.8980751E+01  2.3559921E+01
 1.8992250E+01  2.3538597E+01
 1.9003752E+01  2.3569099E+01
 1.9015251E+01  2.3628469E+01
 1.9026751E+01  2.3681734E+01
 1.9038252E+01  2.3694920E+01
 1.9049751E+01  2.3629948E+01
 1.9061251E+01  2.3616934E+01
 1.9072750E+01  2.3626211E+01
 1.9084251E+01  2.3669571E+01
 1.9095751E+01  2.3685978E+01
 1.9107250E+01  2.3702311E+01
 1.9118752E+01  2.3637188E+01
 1.9130251E+01  2.3625149E+01
 1.9141750E+01  2.3606251E+01
 1.9153252E+01  2.3728710E+01
 1.9164751E+01  2.3730577E+01
 1.9176250E+01  2.3739443E+01
 1.9187752E+01  2.3676123E+01
 1.9199251E+01  2.3698053E+01
 1.9210751E+01  2.3742458E+01
 1.9222252E+01  2.3749807E+01
 1.9233751E+01  2.3750284E+01
 1.9245251E+01  2.3751036E+01
 1.9256750E+01  2.3779837E+01
 1.9268251E+01  2.3821880E+01
 1.9279751E+01  2.3790749E+01
 1.9291250E+01  2.3757528E+01
 1.9302752E+01  2.3728699E+01
 1.9314251E+01  2.3696522E+01
 1.9325750E+01  2.3697737E+01
 1.9337252E+01  2.3685938E+01
 1.9348751E+01  2.3723396E+01
 1.9360250E+01  2.3741098E+01
 1.9371752E+01  2.3756191E+01
 1.9383251E+01  2.3752419E+01
 1.9394751E+01  2.3754076E+01
 1.9406250E+01  2.3768307E+01
 1.9417751E+01  2.3783205E+01
 1.9429251E+01  2.3771322E+01
 1.9440750E+01  2.3777864E+01
 1.9452251E+01  2.3777470E+01
 1.9463751E+01  2.3810019E+01
 1.9475250E+01  2.3835501E+01
 1.9486752E+01  2.3873947E+01
 1.9498251E+01  2.3867561E+01
 1.9509750E+01  2.3836260E+01
 1.9521252E+01  2.3815777E+01
 1.9532751E+01  2.3805950E+01
 1.9544250E+01  2.3838100E+01
 1.9555752E+01  2.3821976E+01
 1.9567251E+01  2.3837160E+01
 1.9578751E+01  2.3824364E+01
 1.9590250E+01  2.3821392E+01
 1.9601751E+01  2.3786551E+01
 1.9613251E+01  2.3785828E+01
 1.9624750E+01  2.3814108E+01
 1.9636251E+01  2.3910490E+01
 1.9647751E+01  2.3988905E+01
 1.9659250E+01  2.4135746E+01
 1.9670752E+01  2.4317524E+01
 1.9682251E+01  2.4610569E+01
 1.9693750E+01  2.4856863E+01
 1.9705252E+01  2.5229719E+01
 1.9716751E+01  2.5309376E+01
 1.9728251E+01  2.5513828E+01
 1.9739752E+01  2.5488932E+01
 1.9751251E+01  2.5456818E+01
 1.9762751E+01  2.5230064E+01
 1.9774250E+01  2.5080013E+01
 1.9785751E+01  2.4969395E+01
 1.9797251E+01  2.4815811E+01
 1.9808750E+01  2.4887001E+01
 1.9820251E+01  2.4974308E+01
 1.9831751E+01  2.5303936E+01
 1.9843250E+01  2.5381294E+01
 1.9854752E+01  2.5807241E+01
 1.9866251E+01  2.5721279E+01
 1.9877750E+01  2.5683512E+01
 1.9889252E+01  2.5257393E+01
 1.9900751E+01  2.5052671E+01
 1.9912251E+01  2.4727007E+01
 1.9923752E+01  2.4493305E+01
 1.9935251E+01  2.4330441E+01
 1.9946751E+01  2.4184513E+01
 1.9958250E+01  2.4085491E+01
 1.9969751E+01  2.4040670E+01
 1.9981251E+01  2.3995821E+01
 1.9992750E+01  2.4005724E+01
 2.0004251E+01  2.3996782E+01
 2.0015751E+01  2.3987997E+01
 2.0027250E+01  2.3964113E+01
 2.0038752E+01  2.3913914E+01
 2.0050251E+01  2.3947897E+01
 2.0061750E+01  2.3956074E+01
 2.0073252E+01  2.3953558E+01
 2.0084751E+01  2.3881454E+01
 2.0096251E+01  2.3858782E+01
 2.0107752E+01  2.3845558E+01
 2.0119251E+01  2.3884113E+01
 2.0130751E+01  2.3856440E+01
 2.0142250E+01  2.3832775E+01
 2.0153751E+01  2.3833092E+01
 2.0165251E+01  2.3890480E+01
 2.0176750E+01  2.3896341E+01
 2.0188251E+01  2.3879906E+01
 2.0199751E+01  2.3814764E+01
 2.0211250E+01  2.3830164E+01
 2.0222752E+01  2.3835083E+01
 2.0234251E+01  2.3873890E+01
 2.0245750E+01  2.3857735E+01
 2.0257252E+01  2.3810570E+01
 2.0268751E+01  2.3778387E+01
 2.0280251E+01  2.3764217E+01
 2.0291752E+01  2.3761597E+01
 2.0303251E+01  2.3741262E+01
 2.0314751E+01  2.3776163E+01
 2.0326250E+01  2.3827101E+01
 2.0337751E+01  2.3868771E+01
 2.0349251E+01  2.3934181E+01
 2.0360750E+01  2.3925468E+01
 2.0372252E+01  2.3964676E+01
 2.0383751E+01  2.3913797E+01
 2.0395250E+01  2.3943403E+01
 2.0406752E+01  2.3923502E+01
 2.0418251E+01  2.3947435E+01
 2.0429750E+01  2.3965584E+01
 2.0441252E+01  2.3978798E+01
 2.0452751E+01  2.3958973E+01
 2.0464251E+01  2.3919838E+01
 2.0475752E+01  2.3864353E+01
 2.0487251E+01  2.3846443E+01
 2.0498751E+01  2.3825392E+01
 2.0510250E+01  2.3779722E+01
 2.0521751E+01  2.3765032E+01
 2.0533251E+01  2.3783514E+01
 2.0544750E+01  2.3849667E+01
 2.0556252E+01  2.3945906E+01
 2.0567751E+01  2.3994825E+01
 2.0579250E+01  2.4034061E+01
 2.0590752E+01  2.4044106E+01
 2.0602251E+01  2.4041908E+01
 2.0613750E+01  2.4030657E+01
 2.0625252E+01  2.4054628E+01
 2.0636751E+01  2.4094685E+01
 2.0648251E+01  2.4102146E+01
 2.0659752E+01  2.4147316E+01
 2.0671251E+01  2.4232100E+01
 2.0682751E+01  2.4370573E+01
 2.0694250E+01  2.4544230E+01
 2.0705751E+01  2.4872105E+01
 2.0717251E+01  2.5297632E+01
 2.0728750E+01  2.5645723E+01
 2.0740252E+01  2.6002090E+01
 2.0751751E+01  2.6194153E+01
 2.0763250E+01  2.6315226E+01
 2.0774752E+01  2.6122927E+01
 2.0786251E+01  2.5862886E+01
 2.0797750E+01  2.5467844E+01
 2.0809252E+01  2.5051331E+01
 2.0820751E+01  2.4767488E+01
 2.0832251E+01  2.4495455E+01
 2.0843752E+01  2.4332333E+01
 2.0855251E+01  2.4255075E+01
 2.0866751E+01  2.4263870E+01
 2.0878250E+01  2.4258787E+01
 2.0889751E+01  2.4234144E+01
 2.0901251E+01  2.4243473E+01
 2.0912750E+01  2.4248577E+01
 2.0924252E+01  2.4255358E+01
 2.0935751E+01  2.4233988E+01
 2.0947250E+01  2.4175753E+01
 2.0958752E+01  2.4111837E+01
 2.0970251E+01  2.4096603E+01
 2.0981750E+01  2.4071482E+01
 2.0993252E+01  2.4075630E+01
 2.1004751E+01  2.4033970E+01
 2.1016251E+01  2.3972921E+01
 2.1027752E+01  2.3957306E+01
 2.1039251E+01  2.3975914E+01
 2.1050751E+01  2.3977478E+01
 2.1062250E+01  2.3973568E+01
 2.1073751E+01  2.4007576E+01
 2.1085251E+01  2.4008390E+01
 2.1096750E+01  2.3989635E+01
 2.1108252E+01  2.4008955E+01
 2.1119751E+01  2.4059826E+01
 2.1131250E+01  2.4062160E+01
 2.1142752E+01  2.4056120E+01
 2.1154251E+01  2.4038300E+01
 2.1165751E+01  2.4057606E+01
 2.1177252E+01  2.4087784E+01
 2.1188751E+01  2.4133455E+01
 2.1200251E+01  2.4107761E+01
 2.1211752E+01  2.4086449E+01
 2.1223251E+01  2.4046883E+01
 2.1234751E+01  2.4019878E+01
 2.1246250E+01  2.4008768E+01
 2.1257751E+01  2.3976219E+01
 2.1269251E+01  2.3966135E+01
 2.1280750E+01  2.3978836E+01
 2.1292252E+01  2.4026377E+01
 2.1303751E+01  2.4069155E+01
 2.1315250E+01  2.4032656E+01
 2.1326752E+01  2.4004686E+01
 2.1338251E+01  2.4018375E+01
 2.1349751E+01  2.4030777E+01
 2.1361252E+01  2.4024279E+01
 2.1372751E+01  2.4028343E+01
 2.1384251E+01  2.4039240E+01
 2.1395752E+01  2.4057367E+01
 2.1407251E+01  2.4058193E+01
 2.1418751E+01  2.4064606E+01
 2.1430250E+01  2.4026320E+01
 2.1441751E+01  2.4007740E+01
 2.1453251E+01  2.4035009E+01
 2.1464750E+01  2.4064405E+01
 2.1476252E+01  2.4077127E+01
 2.1487751E+01  2.4057585E+01
 2.1499250E+01  2.4120428E+01
 2.1510752E+01  2.4121994E+01
 2.1522251E+01  2.4131035E+01
 2.1533751E+01  2.4133205E+01
 2.1545252E+01  2.4160761E+01
 2.1556751E+01  2.4156191E+01
 2.1568251E+01  2.4143497E+01
 2.1579752E+01  2.4116343E+01
 2.1591251E+01  2.4122618E+01
 2.1602751E+01  2.4154009E+01
 2.1614250E+01  2.4193474E+01
 2.1625751E+01  2.4232243E+01
 2.1637251E+01  2.4260050E+01
 2.1648750E+01  2.4274624E+01
 2.1660252E+01  2.4276695E+01
 2.1671751E+01  2.4288219E+01
 2.1683250E+01  2.4257141E+01
 2.1694752E+01  2.4265390E+01
 2.1706251E+01  2.4300585E+01
 2.1717751E+01  2.4335844E+01
 2.1729252E+01  2.4347393E+01
 2.1740751E+01  2.4327358E+01
 2.1752251E+01  2.4289610E+01
 2.1763752E+01  2.4228025E+01
 2.1775251E+01  2.4172365E+01
 2.1786751E+01  2.4200666E+01
 2.1798250E+01  2.4269840E+01
 2.1809752E+01  2.4350721E+01
 2.1821251E+01  2.4361660E+01
 2.1832750E+01  2.4285366E+01
 2.1844252E+01  2.4252354E+01
 2.1855751E+01  2.4265978E+01
 2.1867250E+01  2.4346531E+01
 2.1878752E+01  2.4388542E+01
 2.1890251E+01  2.4423912E+01
 2.1901751E+01  2.4453472E+01
 2.1913252E+01  2.4449295E+01
 2.1924751E+01  2.4438692E+01
 2.1936251E+01  2.4423258E+01
 2.1947752E+01  2.4454607E+01
 2.1959251E+01  2.4446613E+01
 2.1970751E+01  2.4459623E+01
 2.1982250E+01  2.4416487E+01
 2.1993752E+01  2.4397125E+01
 2.2005251E+01  2.4381994E+01
 2.2016750E+01  2.4420681E+01
 2.2028252E+01  2.4450178E+01
 2.2039751E+01  2.4482145E+01
 2.2051250E+01  2.4513706E+01
 2.2062752E+01  2.4506437E+01
 2.2074251E+01  2.4490702E+01
 2.2085751E+01  2.4461483E+01
 2.2097252E+01  2.4471302E+01
 2.2108751E+01  2.4477539E+01
 2.2120251E+01  2.4538830E+01
 2.2131752E+01  2.4477245E+01
 2.2143251E+01  2.4467268E+01
 2.2154751E+01  2.4467278E+01
 2.2166250E+01  2.4511938E+01
 2.2177752E+01  2.4503668E+01
 2.2189251E+01  2.4471266E+01
 2.2200750E+01  2.4433119E+01
 2.2212252E+01  2.4436918E+01
 2.2223751E+01  2.4441050E+01
 2.2235250E+01  2.4435186E+01
 2.2246752E+01  2.4456007E+01
 2.2258251E+01  2.4433716E+01
 2.2269751E+01  2.4424114E+01
 2.2281252E+01  2.4454376E+01
 2.2292751E+01  2.4485373E+01
 2.2304251E+01  2.4562241E+01
 2.2315752E+01  2.4580038E+01
 2.2327251E+01  2.4615288E+01
 2.2338751E+01  2.4633749E+01
 2.2350250E+01  2.4652496E+01
 2.2361752E+01  2.4650648E+01
 2.2373251E+01  2.4650377E+01
 2.2384750E+01  2.4635443E+01
 2.2396252E+01  2.4635712E+01
 2.2407751E+01  2.4642530E+01
 2.2419250E+01  2.4676662E+01
 2.2430752E+01  2.4726034E+01
 2.2442251E+01  2.4780146E+01
 2.2453751E+01  2.4759642E+01
 2.2465252E+01  2.4777145E+01
 2.2476751E+01  2.4765810E+01
 2.2488251E+01  2.4842279E+01
 2.2499752E+01  2.4853195E+01
 2.2511251E+01  2.4906769E+01
 2.2522751E+01  2.4980795E+01
 2.2534250E+01  2.5022764E+01
 2.2545752E+01  2.5046001E+01
 2.2557251E+01  2.4981606E+01
 2.2568750E+01  2.4970613E+01
 2.2580252E+01  2.4888557E+01
 2.2591751E+01  2.4957523E+01
 2.2603251E+01  2.4964748E+01
 2.2614752E+01  2.5013754E+01
 2.2626251E+01  2.5082195E+01
 2.2637751E+01  2.5101744E+01
 2.2649252E+01  2.5099342E+01
 2.2660751E+01  2.5093489E+01
 2.2672251E+01  2.5166880E+01
 2.2683752E+01  2.5209026E+01
 2.2695251E+01  2.5277489E+01
 2.2706751E+01  2.5277266E+01
 2.2718250E+01  2.5278406E+01
 2.2729752E+01  2.5256285E+01
 2.2741251E+01  2.5324930E+01
 2.2752750E+01  2.5375666E+01
 2.2764252E+01  2.5397577E+01
 2.2775751E+01  2.5417963E+01
 2.2787251E+01  2.5448700E+01
 2.2798752E+01  2.5489229E+01
 2.2810251E+01  2.5518263E+01
 2.2821751E+01  2.5529095E+01
 2.2833252E+01  2.5550850E+01
 2.2844751E+01  2.5559162E+01
 2.2856251E+01  2.5558599E+01
 2.2867750E+01  2.5628820E+01
 2.2879251E+01  2.5715832E+01
 2.2890751E+01  2.5840414E+01
 2.2902250E+01  2.5894325E+01
 2.2913752E+01  2.5945637E+01
 2.2925251E+01  2.5958422E+01
 2.2936750E+01  2.6027086E+01
 2.2948252E+01  2.6096043E+01
 2.2959751E+01  2.6149649E+01
 2.2971251E+01  2.6222063E+01
 2.2982752E+01  2.6331697E+01
 2.2994251E+01  2.6430717E+01
