F:\20151113_APS_34IDE\\Brian\Particle1\OCV\Data_0102.tif
2-Theta Angle (Degrees)
Intensity
       2000
 5.7500005E-03  0.0000000E+00
 1.7250001E-02  0.0000000E+00
 2.8750001E-02  0.0000000E+00
 4.0250003E-02  0.0000000E+00
 5.1750004E-02  0.0000000E+00
 6.3250005E-02  0.0000000E+00
 7.4750006E-02  0.0000000E+00
 8.6250007E-02  0.0000000E+00
 9.7750008E-02  0.0000000E+00
 1.0925001E-01  0.0000000E+00
 1.2075000E-01  0.0000000E+00
 1.3225001E-01  0.0000000E+00
 1.4375001E-01  0.0000000E+00
 1.5525001E-01  0.0000000E+00
 1.6675001E-01  0.0000000E+00
 1.7825001E-01  0.0000000E+00
 1.8975002E-01  0.0000000E+00
 2.0125002E-01  0.0000000E+00
 2.1275002E-01  0.0000000E+00
 2.2425000E-01  0.0000000E+00
 2.3575000E-01  0.0000000E+00
 2.4725001E-01  0.0000000E+00
 2.5875002E-01  0.0000000E+00
 2.7025002E-01  0.0000000E+00
 2.8175002E-01  0.0000000E+00
 2.9325002E-01  0.0000000E+00
 3.0475003E-01  0.0000000E+00
 3.1625003E-01  0.0000000E+00
 3.2775003E-01  0.0000000E+00
 3.3925003E-01  0.0000000E+00
 3.5075003E-01  0.0000000E+00
 3.6225003E-01  0.0000000E+00
 3.7375003E-01  0.0000000E+00
 3.8525003E-01  0.0000000E+00
 3.9675003E-01  0.0000000E+00
 4.0825003E-01  0.0000000E+00
 4.1975003E-01  0.0000000E+00
 4.3125004E-01  0.0000000E+00
 4.4275001E-01  0.0000000E+00
 4.5425001E-01  0.0000000E+00
 4.6575001E-01  0.0000000E+00
 4.7725001E-01  0.0000000E+00
 4.8875001E-01  0.0000000E+00
 5.0025004E-01  0.0000000E+00
 5.1175004E-01  0.0000000E+00
 5.2325004E-01  0.0000000E+00
 5.3475004E-01  0.0000000E+00
 5.4625005E-01  0.0000000E+00
 5.5775005E-01  0.0000000E+00
 5.6925005E-01  0.0000000E+00
 5.8075005E-01  0.0000000E+00
 5.9225005E-01  0.0000000E+00
 6.0375005E-01  0.0000000E+00
 6.1525005E-01  0.0000000E+00
 6.2675005E-01  0.0000000E+00
 6.3825005E-01  0.0000000E+00
 6.4975005E-01  0.0000000E+00
 6.6125005E-01  0.0000000E+00
 6.7275006E-01  0.0000000E+00
 6.8425006E-01  0.0000000E+00
 6.9575006E-01  0.0000000E+00
 7.0725006E-01  0.0000000E+00
 7.1875006E-01  0.0000000E+00
 7.3025006E-01  0.0000000E+00
 7.4175006E-01  0.0000000E+00
 7.5325006E-01  0.0000000E+00
 7.6475006E-01  0.0000000E+00
 7.7625006E-01  0.0000000E+00
 7.8775007E-01  0.0000000E+00
 7.9925007E-01  0.0000000E+00
 8.1075007E-01  0.0000000E+00
 8.2225007E-01  0.0000000E+00
 8.3375007E-01  0.0000000E+00
 8.4525007E-01  0.0000000E+00
 8.5675007E-01  0.0000000E+00
 8.6825007E-01  0.0000000E+00
 8.7975001E-01  0.0000000E+00
 8.9125001E-01  0.0000000E+00
 9.0275002E-01  0.0000000E+00
 9.1425002E-01  0.0000000E+00
 9.2575002E-01  0.0000000E+00
 9.3725002E-01  0.0000000E+00
 9.4875002E-01  0.0000000E+00
 9.6025002E-01  0.0000000E+00
 9.7175002E-01  0.0000000E+00
 9.8325002E-01  0.0000000E+00
 9.9475002E-01  0.0000000E+00
 1.0062500E+00  0.0000000E+00
 1.0177500E+00  0.0000000E+00
 1.0292500E+00  0.0000000E+00
 1.0407500E+00  0.0000000E+00
 1.0522500E+00  0.0000000E+00
 1.0637500E+00  0.0000000E+00
 1.0752500E+00  0.0000000E+00
 1.0867500E+00  0.0000000E+00
 1.0982500E+00  0.0000000E+00
 1.1097500E+00  0.0000000E+00
 1.1212500E+00  0.0000000E+00
 1.1327500E+00  0.0000000E+00
 1.1442500E+00  0.0000000E+00
 1.1557500E+00  0.0000000E+00
 1.1672500E+00  0.0000000E+00
 1.1787500E+00  0.0000000E+00
 1.1902500E+00  0.0000000E+00
 1.2017500E+00  0.0000000E+00
 1.2132500E+00  0.0000000E+00
 1.2247500E+00  0.0000000E+00
 1.2362500E+00  0.0000000E+00
 1.2477500E+00  0.0000000E+00
 1.2592500E+00  0.0000000E+00
 1.2707500E+00  0.0000000E+00
 1.2822500E+00  0.0000000E+00
 1.2937500E+00  0.0000000E+00
 1.3052500E+00  0.0000000E+00
 1.3167500E+00  0.0000000E+00
 1.3282501E+00  0.0000000E+00
 1.3397501E+00  0.0000000E+00
 1.3512501E+00  0.0000000E+00
 1.3627501E+00  0.0000000E+00
 1.3742501E+00  0.0000000E+00
 1.3857501E+00  0.0000000E+00
 1.3972501E+00  0.0000000E+00
 1.4087501E+00  0.0000000E+00
 1.4202501E+00  0.0000000E+00
 1.4317501E+00  0.0000000E+00
 1.4432501E+00  0.0000000E+00
 1.4547501E+00  0.0000000E+00
 1.4662501E+00  0.0000000E+00
 1.4777501E+00  0.0000000E+00
 1.4892501E+00  0.0000000E+00
 1.5007501E+00  0.0000000E+00
 1.5122501E+00  0.0000000E+00
 1.5237501E+00  0.0000000E+00
 1.5352501E+00  0.0000000E+00
 1.5467501E+00  0.0000000E+00
 1.5582501E+00  0.0000000E+00
 1.5697501E+00  0.0000000E+00
 1.5812501E+00  0.0000000E+00
 1.5927501E+00  0.0000000E+00
 1.6042501E+00  0.0000000E+00
 1.6157501E+00  0.0000000E+00
 1.6272501E+00  0.0000000E+00
 1.6387501E+00  0.0000000E+00
 1.6502501E+00  0.0000000E+00
 1.6617501E+00  0.0000000E+00
 1.6732501E+00  0.0000000E+00
 1.6847501E+00  0.0000000E+00
 1.6962501E+00  0.0000000E+00
 1.7077501E+00  0.0000000E+00
 1.7192501E+00  0.0000000E+00
 1.7307501E+00  0.0000000E+00
 1.7422501E+00  0.0000000E+00
 1.7537501E+00  0.0000000E+00
 1.7652501E+00  0.0000000E+00
 1.7767501E+00  0.0000000E+00
 1.7882501E+00  0.0000000E+00
 1.7997501E+00  0.0000000E+00
 1.8112501E+00  0.0000000E+00
 1.8227501E+00  0.0000000E+00
 1.8342501E+00  0.0000000E+00
 1.8457501E+00  0.0000000E+00
 1.8572501E+00  0.0000000E+00
 1.8687501E+00  0.0000000E+00
 1.8802501E+00  0.0000000E+00
 1.8917501E+00  0.0000000E+00
 1.9032501E+00  0.0000000E+00
 1.9147501E+00  0.0000000E+00
 1.9262501E+00  0.0000000E+00
 1.9377501E+00  0.0000000E+00
 1.9492501E+00  0.0000000E+00
 1.9607501E+00  0.0000000E+00
 1.9722501E+00  0.0000000E+00
 1.9837501E+00  0.0000000E+00
 1.9952501E+00  0.0000000E+00
 2.0067501E+00  0.0000000E+00
 2.0182500E+00  0.0000000E+00
 2.0297501E+00  0.0000000E+00
 2.0412500E+00  0.0000000E+00
 2.0527501E+00  0.0000000E+00
 2.0642500E+00  0.0000000E+00
 2.0757501E+00  0.0000000E+00
 2.0872500E+00  0.0000000E+00
 2.0987501E+00  0.0000000E+00
 2.1102500E+00  0.0000000E+00
 2.1217501E+00  0.0000000E+00
 2.1332500E+00  0.0000000E+00
 2.1447501E+00  0.0000000E+00
 2.1562500E+00  0.0000000E+00
 2.1677501E+00  0.0000000E+00
 2.1792500E+00  0.0000000E+00
 2.1907501E+00  0.0000000E+00
 2.2022500E+00  0.0000000E+00
 2.2137501E+00  0.0000000E+00
 2.2252500E+00  0.0000000E+00
 2.2367501E+00  0.0000000E+00
 2.2482500E+00  0.0000000E+00
 2.2597501E+00  0.0000000E+00
 2.2712500E+00  0.0000000E+00
 2.2827501E+00  0.0000000E+00
 2.2942500E+00  0.0000000E+00
 2.3057501E+00  0.0000000E+00
 2.3172500E+00  0.0000000E+00
 2.3287501E+00  0.0000000E+00
 2.3402500E+00  0.0000000E+00
 2.3517501E+00  0.0000000E+00
 2.3632500E+00  0.0000000E+00
 2.3747501E+00  0.0000000E+00
 2.3862500E+00  0.0000000E+00
 2.3977501E+00  0.0000000E+00
 2.4092500E+00  0.0000000E+00
 2.4207501E+00  0.0000000E+00
 2.4322500E+00  0.0000000E+00
 2.4437501E+00  0.0000000E+00
 2.4552500E+00  0.0000000E+00
 2.4667501E+00  0.0000000E+00
 2.4782500E+00  0.0000000E+00
 2.4897501E+00  0.0000000E+00
 2.5012500E+00  0.0000000E+00
 2.5127501E+00  0.0000000E+00
 2.5242500E+00  0.0000000E+00
 2.5357502E+00  0.0000000E+00
 2.5472500E+00  0.0000000E+00
 2.5587502E+00  0.0000000E+00
 2.5702500E+00  0.0000000E+00
 2.5817502E+00  0.0000000E+00
 2.5932500E+00  0.0000000E+00
 2.6047502E+00  0.0000000E+00
 2.6162500E+00  0.0000000E+00
 2.6277502E+00  0.0000000E+00
 2.6392500E+00  0.0000000E+00
 2.6507502E+00  0.0000000E+00
 2.6622500E+00  0.0000000E+00
 2.6737502E+00  0.0000000E+00
 2.6852500E+00  0.0000000E+00
 2.6967502E+00  0.0000000E+00
 2.7082500E+00  0.0000000E+00
 2.7197502E+00  0.0000000E+00
 2.7312500E+00  0.0000000E+00
 2.7427502E+00  0.0000000E+00
 2.7542500E+00  0.0000000E+00
 2.7657502E+00  0.0000000E+00
 2.7772501E+00  0.0000000E+00
 2.7887502E+00  0.0000000E+00
 2.8002501E+00  0.0000000E+00
 2.8117502E+00  0.0000000E+00
 2.8232501E+00  3.5239502E+01
 2.8347502E+00  3.4830708E+01
 2.8462501E+00  3.4550621E+01
 2.8577502E+00  3.4652203E+01
 2.8692501E+00  3.4485149E+01
 2.8807502E+00  3.4763020E+01
 2.8922501E+00  3.5092812E+01
 2.9037502E+00  3.5570957E+01
 2.9152501E+00  3.6355530E+01
 2.9267502E+00  3.6836132E+01
 2.9382501E+00  3.6984890E+01
 2.9497502E+00  3.6692062E+01
 2.9612501E+00  3.6330357E+01
 2.9727502E+00  3.6240410E+01
 2.9842501E+00  3.6339233E+01
 2.9957502E+00  3.6515972E+01
 3.0072501E+00  3.6840832E+01
 3.0187502E+00  3.7032307E+01
 3.0302501E+00  3.6920887E+01
 3.0417502E+00  3.6834412E+01
 3.0532501E+00  3.6359249E+01
 3.0647502E+00  3.6367657E+01
 3.0762501E+00  3.5896488E+01
 3.0877502E+00  3.5949757E+01
 3.0992501E+00  3.5711006E+01
 3.1107502E+00  3.5740990E+01
 3.1222501E+00  3.5358158E+01
 3.1337502E+00  3.5242031E+01
 3.1452501E+00  3.5236507E+01
 3.1567502E+00  3.5617828E+01
 3.1682501E+00  3.5660103E+01
 3.1797502E+00  3.5814789E+01
 3.1912501E+00  3.5576096E+01
 3.2027502E+00  3.5669857E+01
 3.2142501E+00  3.5646328E+01
 3.2257502E+00  3.5943195E+01
 3.2372501E+00  3.5827286E+01
 3.2487502E+00  3.5813560E+01
 3.2602501E+00  3.5784882E+01
 3.2717502E+00  3.6178871E+01
 3.2832501E+00  3.6225163E+01
 3.2947502E+00  3.6232365E+01
 3.3062501E+00  3.5663414E+01
 3.3177502E+00  3.5672127E+01
 3.3292501E+00  3.5416378E+01
 3.3407502E+00  3.5360519E+01
 3.3522501E+00  3.5036839E+01
 3.3637502E+00  3.4802109E+01
 3.3752501E+00  3.4571335E+01
 3.3867502E+00  3.4804001E+01
 3.3982501E+00  3.4969048E+01
 3.4097502E+00  3.5261322E+01
 3.4212501E+00  3.5333775E+01
 3.4327502E+00  3.5306347E+01
 3.4442501E+00  3.5595631E+01
 3.4557502E+00  3.5742901E+01
 3.4672501E+00  3.5848671E+01
 3.4787502E+00  3.5689369E+01
 3.4902501E+00  3.5515369E+01
 3.5017502E+00  3.5253078E+01
 3.5132501E+00  3.4789875E+01
 3.5247502E+00  3.4603161E+01
 3.5362501E+00  3.4584492E+01
 3.5477502E+00  3.4683102E+01
 3.5592501E+00  3.4686245E+01
 3.5707502E+00  3.4413105E+01
 3.5822501E+00  3.4148746E+01
 3.5937502E+00  3.3877029E+01
 3.6052501E+00  3.3513485E+01
 3.6167502E+00  3.3501698E+01
 3.6282501E+00  3.3230495E+01
 3.6397502E+00  3.3291897E+01
 3.6512501E+00  3.3425285E+01
 3.6627502E+00  3.3416275E+01
 3.6742501E+00  3.3297329E+01
 3.6857502E+00  3.3245335E+01
 3.6972501E+00  3.3296089E+01
 3.7087502E+00  3.3420792E+01
 3.7202501E+00  3.3232563E+01
 3.7317502E+00  3.3222317E+01
 3.7432501E+00  3.3313084E+01
 3.7547503E+00  3.3399315E+01
 3.7662501E+00  3.3409252E+01
 3.7777503E+00  3.3380180E+01
 3.7892501E+00  3.3285263E+01
 3.8007503E+00  3.3052567E+01
 3.8122501E+00  3.3027832E+01
 3.8237503E+00  3.3045471E+01
 3.8352501E+00  3.3296566E+01
 3.8467503E+00  3.3347252E+01
 3.8582501E+00  3.3511627E+01
 3.8697503E+00  3.3581055E+01
 3.8812501E+00  3.3352806E+01
 3.8927503E+00  3.3051117E+01
 3.9042501E+00  3.2738499E+01
 3.9157503E+00  3.2619656E+01
 3.9272501E+00  3.2630833E+01
 3.9387503E+00  3.2618481E+01
 3.9502501E+00  3.2709320E+01
 3.9617503E+00  3.2734135E+01
 3.9732502E+00  3.2678398E+01
 3.9847503E+00  3.2693554E+01
 3.9962502E+00  3.2760693E+01
 4.0077500E+00  3.2931728E+01
 4.0192504E+00  3.2894146E+01
 4.0307503E+00  3.2915146E+01
 4.0422502E+00  3.2797920E+01
 4.0537500E+00  3.2943787E+01
 4.0652504E+00  3.2892902E+01
 4.0767503E+00  3.2852627E+01
 4.0882502E+00  3.2735600E+01
 4.0997500E+00  3.2582764E+01
 4.1112504E+00  3.2453018E+01
 4.1227503E+00  3.2447987E+01
 4.1342502E+00  3.2403088E+01
 4.1457500E+00  3.2563046E+01
 4.1572504E+00  3.2431877E+01
 4.1687503E+00  3.2480999E+01
 4.1802502E+00  3.2501923E+01
 4.1917500E+00  3.2632374E+01
 4.2032504E+00  3.2660141E+01
 4.2147503E+00  3.2601894E+01
 4.2262502E+00  3.2516689E+01
 4.2377501E+00  3.2510262E+01
 4.2492504E+00  3.2469578E+01
 4.2607503E+00  3.2491352E+01
 4.2722502E+00  3.2469910E+01
 4.2837501E+00  3.2545158E+01
 4.2952504E+00  3.2522755E+01
 4.3067503E+00  3.2643856E+01
 4.3182502E+00  3.2676266E+01
 4.3297501E+00  3.2792942E+01
 4.3412504E+00  3.2878975E+01
 4.3527503E+00  3.2831051E+01
 4.3642502E+00  3.2736546E+01
 4.3757501E+00  3.2710636E+01
 4.3872504E+00  3.2685287E+01
 4.3987503E+00  3.2755875E+01
 4.4102502E+00  3.2698872E+01
 4.4217501E+00  3.2651897E+01
 4.4332504E+00  3.2549202E+01
 4.4447503E+00  3.2411606E+01
 4.4562502E+00  3.2307590E+01
 4.4677501E+00  3.2339035E+01
 4.4792504E+00  3.2374027E+01
 4.4907503E+00  3.2427994E+01
 4.5022502E+00  3.2378120E+01
 4.5137501E+00  3.2364479E+01
 4.5252504E+00  3.2480419E+01
 4.5367503E+00  3.2623066E+01
 4.5482502E+00  3.2780460E+01
 4.5597501E+00  3.2842915E+01
 4.5712504E+00  3.2820232E+01
 4.5827503E+00  3.2876484E+01
 4.5942502E+00  3.2930279E+01
 4.6057501E+00  3.2896530E+01
 4.6172504E+00  3.2979279E+01
 4.6287503E+00  3.2694496E+01
 4.6402502E+00  3.2723091E+01
 4.6517501E+00  3.2583290E+01
 4.6632504E+00  3.2645832E+01
 4.6747503E+00  3.2736748E+01
 4.6862502E+00  3.2807423E+01
 4.6977501E+00  3.2978863E+01
 4.7092505E+00  3.3029270E+01
 4.7207503E+00  3.3067123E+01
 4.7322502E+00  3.3044044E+01
 4.7437501E+00  3.2943592E+01
 4.7552505E+00  3.2884975E+01
 4.7667503E+00  3.2934147E+01
 4.7782502E+00  3.2928604E+01
 4.7897501E+00  3.2893471E+01
 4.8012505E+00  3.2788876E+01
 4.8127503E+00  3.2733765E+01
 4.8242502E+00  3.2738762E+01
 4.8357501E+00  3.2739273E+01
 4.8472505E+00  3.2776886E+01
 4.8587503E+00  3.2959564E+01
 4.8702502E+00  3.3010643E+01
 4.8817501E+00  3.3114796E+01
 4.8932505E+00  3.3026634E+01
 4.9047503E+00  3.3107807E+01
 4.9162502E+00  3.3113625E+01
 4.9277501E+00  3.3105507E+01
 4.9392505E+00  3.3036205E+01
 4.9507504E+00  3.2968517E+01
 4.9622502E+00  3.3019779E+01
 4.9737501E+00  3.3029179E+01
 4.9852505E+00  3.3169765E+01
 4.9967504E+00  3.3168644E+01
 5.0082502E+00  3.3396358E+01
 5.0197501E+00  3.3426117E+01
 5.0312505E+00  3.3585003E+01
 5.0427504E+00  3.3700031E+01
 5.0542502E+00  3.3824944E+01
 5.0657501E+00  3.3881729E+01
 5.0772505E+00  3.3888954E+01
 5.0887504E+00  3.3823730E+01
 5.1002502E+00  3.3805168E+01
 5.1117501E+00  3.3687160E+01
 5.1232505E+00  3.3489006E+01
 5.1347504E+00  3.3593464E+01
 5.1462502E+00  3.3653378E+01
 5.1577501E+00  3.3814133E+01
 5.1692505E+00  3.3981834E+01
 5.1807504E+00  3.4064224E+01
 5.1922503E+00  3.4270699E+01
 5.2037501E+00  3.4256088E+01
 5.2152505E+00  3.4230984E+01
 5.2267504E+00  3.4225918E+01
 5.2382503E+00  3.4155334E+01
 5.2497501E+00  3.4143356E+01
 5.2612505E+00  3.4231319E+01
 5.2727504E+00  3.4216995E+01
 5.2842503E+00  3.4334538E+01
 5.2957501E+00  3.4390331E+01
 5.3072500E+00  3.4472679E+01
 5.3187504E+00  3.4512478E+01
 5.3302503E+00  3.4483440E+01
 5.3417501E+00  3.4423019E+01
 5.3532500E+00  3.4444275E+01
 5.3647504E+00  3.4368664E+01
 5.3762503E+00  3.4412521E+01
 5.3877501E+00  3.4418961E+01
 5.3992500E+00  3.4549797E+01
 5.4107504E+00  3.4602589E+01
 5.4222503E+00  3.4617168E+01
 5.4337502E+00  3.4667400E+01
 5.4452500E+00  3.4760044E+01
 5.4567504E+00  3.4979816E+01
 5.4682503E+00  3.5119675E+01
 5.4797502E+00  3.5287876E+01
 5.4912500E+00  3.5369125E+01
 5.5027504E+00  3.5366829E+01
 5.5142503E+00  3.5346878E+01
 5.5257502E+00  3.5307529E+01
 5.5372500E+00  3.5219418E+01
 5.5487504E+00  3.5240276E+01
 5.5602503E+00  3.5150631E+01
 5.5717502E+00  3.5124813E+01
 5.5832500E+00  3.5128853E+01
 5.5947504E+00  3.5177670E+01
 5.6062503E+00  3.5340195E+01
 5.6177502E+00  3.5222195E+01
 5.6292500E+00  3.5239838E+01
 5.6407504E+00  3.5257660E+01
 5.6522503E+00  3.5437561E+01
 5.6637502E+00  3.5563213E+01
 5.6752501E+00  3.5681469E+01
 5.6867504E+00  3.5777908E+01
 5.6982503E+00  3.5828308E+01
 5.7097502E+00  3.5876232E+01
 5.7212501E+00  3.5941536E+01
 5.7327504E+00  3.5990532E+01
 5.7442503E+00  3.6046978E+01
 5.7557502E+00  3.6000050E+01
 5.7672501E+00  3.6003212E+01
 5.7787504E+00  3.6103031E+01
 5.7902503E+00  3.6198231E+01
 5.8017502E+00  3.6176552E+01
 5.8132501E+00  3.6150429E+01
 5.8247504E+00  3.6103241E+01
 5.8362503E+00  3.6134933E+01
 5.8477502E+00  3.6250816E+01
 5.8592501E+00  3.6292915E+01
 5.8707504E+00  3.6626110E+01
 5.8822503E+00  3.6891365E+01
 5.8937502E+00  3.7392963E+01
 5.9052501E+00  3.7841305E+01
 5.9167504E+00  3.8801823E+01
 5.9282503E+00  3.9814198E+01
 5.9397502E+00  4.2148388E+01
 5.9512501E+00  4.4326706E+01
 5.9627504E+00  4.6682266E+01
 5.9742503E+00  4.7766903E+01
 5.9857502E+00  4.7845490E+01
 5.9972501E+00  4.6615112E+01
 6.0087504E+00  4.5161499E+01
 6.0202503E+00  4.2747623E+01
 6.0317502E+00  4.1139252E+01
 6.0432501E+00  3.9406334E+01
 6.0547504E+00  3.8410778E+01
 6.0662503E+00  3.7638763E+01
 6.0777502E+00  3.7254807E+01
 6.0892501E+00  3.7066860E+01
 6.1007504E+00  3.7009396E+01
 6.1122503E+00  3.7081810E+01
 6.1237502E+00  3.7165428E+01
 6.1352501E+00  3.7180508E+01
 6.1467505E+00  3.7129105E+01
 6.1582503E+00  3.7205959E+01
 6.1697502E+00  3.7296658E+01
 6.1812501E+00  3.7426224E+01
 6.1927505E+00  3.7446991E+01
 6.2042503E+00  3.7439465E+01
 6.2157502E+00  3.7448956E+01
 6.2272501E+00  3.7495060E+01
 6.2387505E+00  3.7425659E+01
 6.2502503E+00  3.7493240E+01
 6.2617502E+00  3.7525280E+01
 6.2732501E+00  3.7741062E+01
 6.2847505E+00  3.7866848E+01
 6.2962503E+00  3.7971344E+01
 6.3077502E+00  3.8004536E+01
 6.3192501E+00  3.8056660E+01
 6.3307505E+00  3.8020348E+01
 6.3422503E+00  3.8107925E+01
 6.3537502E+00  3.8232197E+01
 6.3652501E+00  3.8335503E+01
 6.3767505E+00  3.8522327E+01
 6.3882504E+00  3.8631485E+01
 6.3997502E+00  3.8759865E+01
 6.4112501E+00  3.8817909E+01
 6.4227505E+00  3.8829071E+01
 6.4342504E+00  3.8860867E+01
 6.4457502E+00  3.8889637E+01
 6.4572501E+00  3.9007214E+01
 6.4687505E+00  3.9163185E+01
 6.4802504E+00  3.9296207E+01
 6.4917502E+00  3.9336514E+01
 6.5032501E+00  3.9510895E+01
 6.5147505E+00  3.9669930E+01
 6.5262504E+00  3.9729759E+01
 6.5377502E+00  3.9754475E+01
 6.5492501E+00  3.9695126E+01
 6.5607505E+00  3.9728970E+01
 6.5722504E+00  3.9760326E+01
 6.5837502E+00  3.9873669E+01
 6.5952501E+00  3.9979118E+01
 6.6067505E+00  4.0028938E+01
 6.6182504E+00  4.0095245E+01
 6.6297503E+00  4.0256676E+01
 6.6412501E+00  4.0396347E+01
 6.6527505E+00  4.0595364E+01
 6.6642504E+00  4.0771217E+01
 6.6757503E+00  4.0841732E+01
 6.6872501E+00  4.0886429E+01
 6.6987505E+00  4.0872246E+01
 6.7102504E+00  4.0935268E+01
 6.7217503E+00  4.1015053E+01
 6.7332501E+00  4.1158772E+01
 6.7447505E+00  4.1231087E+01
 6.7562504E+00  4.1346779E+01
 6.7677503E+00  4.1282169E+01
 6.7792501E+00  4.1341206E+01
 6.7907505E+00  4.1290695E+01
 6.8022504E+00  4.1343651E+01
 6.8137503E+00  4.1364475E+01
 6.8252501E+00  4.1384289E+01
 6.8367505E+00  4.1399086E+01
 6.8482504E+00  4.1505672E+01
 6.8597503E+00  4.1649197E+01
 6.8712502E+00  4.1821125E+01
 6.8827505E+00  4.2017235E+01
 6.8942504E+00  4.2132481E+01
 6.9057503E+00  4.2263744E+01
 6.9172502E+00  4.2259052E+01
 6.9287505E+00  4.2330658E+01
 6.9402504E+00  4.2343349E+01
 6.9517503E+00  4.2514458E+01
 6.9632502E+00  4.2701668E+01
 6.9747505E+00  4.2931442E+01
 6.9862504E+00  4.2991539E+01
 6.9977503E+00  4.2961143E+01
 7.0092502E+00  4.2895100E+01
 7.0207505E+00  4.2890816E+01
 7.0322504E+00  4.2856499E+01
 7.0437503E+00  4.2911243E+01
 7.0552502E+00  4.3048767E+01
 7.0667505E+00  4.3324150E+01
 7.0782504E+00  4.3507915E+01
 7.0897503E+00  4.3711739E+01
 7.1012502E+00  4.3633652E+01
 7.1127505E+00  4.3668537E+01
 7.1242504E+00  4.3513725E+01
 7.1357503E+00  4.3633293E+01
 7.1472502E+00  4.3562748E+01
 7.1587505E+00  4.3647675E+01
 7.1702504E+00  4.3595085E+01
 7.1817503E+00  4.3656048E+01
 7.1932502E+00  4.3723248E+01
 7.2047505E+00  4.3781384E+01
 7.2162504E+00  4.3826523E+01
 7.2277503E+00  4.3826954E+01
 7.2392502E+00  4.3828804E+01
 7.2507505E+00  4.3834419E+01
 7.2622504E+00  4.3799679E+01
 7.2737503E+00  4.3826668E+01
 7.2852502E+00  4.3880192E+01
 7.2967505E+00  4.4041267E+01
 7.3082504E+00  4.4132057E+01
 7.3197503E+00  4.4236347E+01
 7.3312502E+00  4.4224995E+01
 7.3427505E+00  4.4284256E+01
 7.3542504E+00  4.4301205E+01
 7.3657503E+00  4.4317421E+01
 7.3772502E+00  4.4324234E+01
 7.3887506E+00  4.4328278E+01
 7.4002504E+00  4.4350697E+01
 7.4117503E+00  4.4371441E+01
 7.4232502E+00  4.4365013E+01
 7.4347506E+00  4.4317451E+01
 7.4462504E+00  4.4284000E+01
 7.4577503E+00  4.4255001E+01
 7.4692502E+00  4.4257732E+01
 7.4807506E+00  4.4309044E+01
 7.4922504E+00  4.4359554E+01
 7.5037503E+00  4.4484936E+01
 7.5152502E+00  4.4500641E+01
 7.5267506E+00  4.4532330E+01
 7.5382504E+00  4.4549099E+01
 7.5497503E+00  4.4523117E+01
 7.5612502E+00  4.4627419E+01
 7.5727506E+00  4.4636471E+01
 7.5842505E+00  4.4801582E+01
 7.5957503E+00  4.4793972E+01
 7.6072502E+00  4.4768871E+01
 7.6187506E+00  4.4587566E+01
 7.6302505E+00  4.4457073E+01
 7.6417503E+00  4.4376743E+01
 7.6532502E+00  4.4294037E+01
 7.6647506E+00  4.4276840E+01
 7.6762505E+00  4.4413910E+01
 7.6877503E+00  4.4544197E+01
 7.6992502E+00  4.4663982E+01
 7.7107506E+00  4.4729202E+01
 7.7222505E+00  4.4771713E+01
 7.7337503E+00  4.4768524E+01
 7.7452502E+00  4.4632473E+01
 7.7567506E+00  4.4560802E+01
 7.7682505E+00  4.4551247E+01
 7.7797503E+00  4.4521473E+01
 7.7912502E+00  4.4430923E+01
 7.8027506E+00  4.4325401E+01
 7.8142505E+00  4.4359306E+01
 7.8257504E+00  4.4317406E+01
 7.8372502E+00  4.4323830E+01
 7.8487506E+00  4.4346973E+01
 7.8602505E+00  4.4395435E+01
 7.8717504E+00  4.4284370E+01
 7.8832502E+00  4.4030380E+01
 7.8947506E+00  4.3916698E+01
 7.9062505E+00  4.4017605E+01
 7.9177504E+00  4.4112938E+01
 7.9292502E+00  4.4118969E+01
 7.9407506E+00  4.4060856E+01
 7.9522505E+00  4.4050232E+01
 7.9637504E+00  4.4065289E+01
 7.9752502E+00  4.4098179E+01
 7.9867506E+00  4.4069176E+01
 7.9982505E+00  4.4062893E+01
 8.0097504E+00  4.3985806E+01
 8.0212507E+00  4.3908779E+01
 8.0327501E+00  4.3657623E+01
 8.0442505E+00  4.3528778E+01
 8.0557508E+00  4.3357170E+01
 8.0672503E+00  4.3265583E+01
 8.0787506E+00  4.3154530E+01
 8.0902500E+00  4.3015274E+01
 8.1017504E+00  4.2978973E+01
 8.1132507E+00  4.2891853E+01
 8.1247501E+00  4.2739285E+01
 8.1362505E+00  4.2689182E+01
 8.1477509E+00  4.2577667E+01
 8.1592503E+00  4.2550175E+01
 8.1707506E+00  4.2386089E+01
 8.1822500E+00  4.2165359E+01
 8.1937504E+00  4.1984097E+01
 8.2052507E+00  4.1776405E+01
 8.2167501E+00  4.1602509E+01
 8.2282505E+00  4.1461834E+01
 8.2397509E+00  4.1383854E+01
 8.2512503E+00  4.1386604E+01
 8.2627506E+00  4.1303757E+01
 8.2742500E+00  4.1157295E+01
 8.2857504E+00  4.1018867E+01
 8.2972507E+00  4.0925926E+01
 8.3087502E+00  4.0792351E+01
 8.3202505E+00  4.0758877E+01
 8.3317509E+00  4.0604652E+01
 8.3432503E+00  4.0560051E+01
 8.3547506E+00  4.0359833E+01
 8.3662500E+00  4.0290039E+01
 8.3777504E+00  4.0088661E+01
 8.3892508E+00  3.9860714E+01
 8.4007502E+00  3.9607845E+01
 8.4122505E+00  3.9444080E+01
 8.4237509E+00  3.9277157E+01
 8.4352503E+00  3.9040482E+01
 8.4467506E+00  3.8925373E+01
 8.4582500E+00  3.8715153E+01
 8.4697504E+00  3.8613346E+01
 8.4812508E+00  3.8370831E+01
 8.4927502E+00  3.8234543E+01
 8.5042505E+00  3.8081802E+01
 8.5157509E+00  3.7985714E+01
 8.5272503E+00  3.7886490E+01
 8.5387506E+00  3.7773979E+01
 8.5502501E+00  3.7536713E+01
 8.5617504E+00  3.7311676E+01
 8.5732508E+00  3.7153091E+01
 8.5847502E+00  3.6935013E+01
 8.5962505E+00  3.6737354E+01
 8.6077509E+00  3.6454762E+01
 8.6192503E+00  3.6278664E+01
 8.6307507E+00  3.6053482E+01
 8.6422501E+00  3.5887272E+01
 8.6537504E+00  3.5693932E+01
 8.6652508E+00  3.5495308E+01
 8.6767502E+00  3.5324322E+01
 8.6882505E+00  3.5111736E+01
 8.6997509E+00  3.4962605E+01
 8.7112503E+00  3.4701336E+01
 8.7227507E+00  3.4530651E+01
 8.7342501E+00  3.4343945E+01
 8.7457504E+00  3.4183468E+01
 8.7572508E+00  3.3974636E+01
 8.7687502E+00  3.3822304E+01
 8.7802505E+00  3.3716690E+01
 8.7917500E+00  3.3602760E+01
 8.8032503E+00  3.3423027E+01
 8.8147507E+00  3.3198948E+01
 8.8262501E+00  3.3111748E+01
 8.8377504E+00  3.3073391E+01
 8.8492508E+00  3.3034550E+01
 8.8607502E+00  3.2883575E+01
 8.8722506E+00  3.2755135E+01
 8.8837500E+00  3.2593330E+01
 8.8952503E+00  3.2276691E+01
 8.9067507E+00  3.2076672E+01
 8.9182501E+00  3.1864004E+01
 8.9297504E+00  3.1783541E+01
 8.9412508E+00  3.1655296E+01
 8.9527502E+00  3.1513136E+01
 8.9642506E+00  3.1344841E+01
 8.9757500E+00  3.1143505E+01
 8.9872503E+00  3.0966722E+01
 8.9987507E+00  3.0812300E+01
 9.0102501E+00  3.0669392E+01
 9.0217505E+00  3.0513927E+01
 9.0332508E+00  3.0434084E+01
 9.0447502E+00  3.0251066E+01
 9.0562506E+00  3.0065100E+01
 9.0677500E+00  2.9850073E+01
 9.0792503E+00  2.9709408E+01
 9.0907507E+00  2.9593174E+01
 9.1022501E+00  2.9461472E+01
 9.1137505E+00  2.9385277E+01
 9.1252508E+00  2.9233936E+01
 9.1367502E+00  2.9120327E+01
 9.1482506E+00  2.8977854E+01
 9.1597500E+00  2.8902000E+01
 9.1712503E+00  2.8836910E+01
 9.1827507E+00  2.8740009E+01
 9.1942501E+00  2.8589554E+01
 9.2057505E+00  2.8491447E+01
 9.2172508E+00  2.8381592E+01
 9.2287502E+00  2.8326807E+01
 9.2402506E+00  2.8285418E+01
 9.2517500E+00  2.8224358E+01
 9.2632504E+00  2.8176638E+01
 9.2747507E+00  2.8023003E+01
 9.2862501E+00  2.7884914E+01
 9.2977505E+00  2.7785278E+01
 9.3092508E+00  2.7645266E+01
 9.3207502E+00  2.7522211E+01
 9.3322506E+00  2.7421329E+01
 9.3437500E+00  2.7365641E+01
 9.3552504E+00  2.7305470E+01
 9.3667507E+00  2.7227476E+01
 9.3782501E+00  2.7163923E+01
 9.3897505E+00  2.7127707E+01
 9.4012508E+00  2.7077934E+01
 9.4127502E+00  2.6995350E+01
 9.4242506E+00  2.6928514E+01
 9.4357500E+00  2.6787401E+01
 9.4472504E+00  2.6691166E+01
 9.4587507E+00  2.6597099E+01
 9.4702501E+00  2.6499866E+01
 9.4817505E+00  2.6405005E+01
 9.4932508E+00  2.6269598E+01
 9.5047503E+00  2.6133335E+01
 9.5162506E+00  2.6094860E+01
 9.5277500E+00  2.6082333E+01
 9.5392504E+00  2.6147034E+01
 9.5507507E+00  2.6153481E+01
 9.5622501E+00  2.6177011E+01
 9.5737505E+00  2.6159004E+01
 9.5852509E+00  2.6052921E+01
 9.5967503E+00  2.5980452E+01
 9.6082506E+00  2.5884735E+01
 9.6197500E+00  2.5820852E+01
 9.6312504E+00  2.5717182E+01
 9.6427507E+00  2.5582333E+01
 9.6542501E+00  2.5495728E+01
 9.6657505E+00  2.5387220E+01
 9.6772509E+00  2.5279306E+01
 9.6887503E+00  2.5173290E+01
 9.7002506E+00  2.5170994E+01
 9.7117500E+00  2.5194080E+01
 9.7232504E+00  2.5195463E+01
 9.7347507E+00  2.5161158E+01
 9.7462502E+00  2.5109041E+01
 9.7577505E+00  2.5092949E+01
 9.7692509E+00  2.5020102E+01
 9.7807503E+00  2.4995281E+01
 9.7922506E+00  2.4972292E+01
 9.8037500E+00  2.4956936E+01
 9.8152504E+00  2.4934330E+01
 9.8267508E+00  2.4877052E+01
 9.8382502E+00  2.4824383E+01
 9.8497505E+00  2.4744314E+01
 9.8612509E+00  2.4697834E+01
 9.8727503E+00  2.4655733E+01
 9.8842506E+00  2.4556620E+01
 9.8957500E+00  2.4518877E+01
 9.9072504E+00  2.4434505E+01
 9.9187508E+00  2.4470995E+01
 9.9302502E+00  2.4458979E+01
 9.9417505E+00  2.4447363E+01
 9.9532509E+00  2.4430935E+01
 9.9647503E+00  2.4374647E+01
 9.9762506E+00  2.4390526E+01
 9.9877501E+00  2.4406212E+01
 9.9992504E+00  2.4385303E+01
 1.0010751E+01  2.4328491E+01
 1.0022250E+01  2.4234314E+01
 1.0033751E+01  2.4265886E+01
 1.0045251E+01  2.4215422E+01
 1.0056750E+01  2.4245003E+01
 1.0068251E+01  2.4175556E+01
 1.0079750E+01  2.4180817E+01
 1.0091250E+01  2.4137188E+01
 1.0102751E+01  2.4095833E+01
 1.0114250E+01  2.4070564E+01
 1.0125751E+01  2.4024866E+01
 1.0137251E+01  2.3984163E+01
 1.0148750E+01  2.3921877E+01
 1.0160251E+01  2.3916872E+01
 1.0171750E+01  2.3823650E+01
 1.0183250E+01  2.3790007E+01
 1.0194751E+01  2.3664007E+01
 1.0206250E+01  2.3682533E+01
 1.0217751E+01  2.3700829E+01
 1.0229251E+01  2.3745899E+01
 1.0240750E+01  2.3755051E+01
 1.0252251E+01  2.3692711E+01
 1.0263750E+01  2.3641451E+01
 1.0275250E+01  2.3643087E+01
 1.0286751E+01  2.3626516E+01
 1.0298250E+01  2.3682890E+01
 1.0309751E+01  2.3667185E+01
 1.0321251E+01  2.3653505E+01
 1.0332750E+01  2.3578497E+01
 1.0344251E+01  2.3534555E+01
 1.0355750E+01  2.3492020E+01
 1.0367250E+01  2.3430845E+01
 1.0378751E+01  2.3411049E+01
 1.0390250E+01  2.3411489E+01
 1.0401751E+01  2.3468750E+01
 1.0413251E+01  2.3405432E+01
 1.0424750E+01  2.3363794E+01
 1.0436251E+01  2.3304688E+01
 1.0447750E+01  2.3294733E+01
 1.0459250E+01  2.3312904E+01
 1.0470751E+01  2.3363983E+01
 1.0482250E+01  2.3414368E+01
 1.0493751E+01  2.3463558E+01
 1.0505251E+01  2.3406059E+01
 1.0516750E+01  2.3403725E+01
 1.0528251E+01  2.3305061E+01
 1.0539750E+01  2.3266464E+01
 1.0551250E+01  2.3188118E+01
 1.0562751E+01  2.3170095E+01
 1.0574250E+01  2.3113285E+01
 1.0585751E+01  2.3042137E+01
 1.0597251E+01  2.3058989E+01
 1.0608750E+01  2.3087322E+01
 1.0620251E+01  2.3114697E+01
 1.0631750E+01  2.3112617E+01
 1.0643250E+01  2.3075640E+01
 1.0654751E+01  2.3083941E+01
 1.0666250E+01  2.3047144E+01
 1.0677751E+01  2.3051651E+01
 1.0689251E+01  2.3110226E+01
 1.0700750E+01  2.3070578E+01
 1.0712251E+01  2.3060467E+01
 1.0723750E+01  2.2998461E+01
 1.0735250E+01  2.2961445E+01
 1.0746751E+01  2.2933161E+01
 1.0758250E+01  2.2872576E+01
 1.0769751E+01  2.2839294E+01
 1.0781251E+01  2.2819645E+01
 1.0792750E+01  2.2827473E+01
 1.0804251E+01  2.2826220E+01
 1.0815750E+01  2.2811525E+01
 1.0827250E+01  2.2777704E+01
 1.0838751E+01  2.2826178E+01
 1.0850250E+01  2.2824564E+01
 1.0861751E+01  2.2833185E+01
 1.0873251E+01  2.2796278E+01
 1.0884750E+01  2.2768661E+01
 1.0896251E+01  2.2726299E+01
 1.0907750E+01  2.2737753E+01
 1.0919250E+01  2.2729017E+01
 1.0930751E+01  2.2781792E+01
 1.0942250E+01  2.2798540E+01
 1.0953751E+01  2.2829687E+01
 1.0965251E+01  2.2807409E+01
 1.0976750E+01  2.2802950E+01
 1.0988251E+01  2.2792927E+01
 1.0999750E+01  2.2840572E+01
 1.1011250E+01  2.2791994E+01
 1.1022751E+01  2.2734406E+01
 1.1034250E+01  2.2659252E+01
 1.1045751E+01  2.2591034E+01
 1.1057251E+01  2.2561642E+01
 1.1068750E+01  2.2539915E+01
 1.1080251E+01  2.2586704E+01
 1.1091750E+01  2.2647018E+01
 1.1103251E+01  2.2654579E+01
 1.1114751E+01  2.2669342E+01
 1.1126250E+01  2.2667351E+01
 1.1137751E+01  2.2690542E+01
 1.1149251E+01  2.2666061E+01
 1.1160750E+01  2.2646065E+01
 1.1172251E+01  2.2558943E+01
 1.1183750E+01  2.2493294E+01
 1.1195251E+01  2.2431290E+01
 1.1206751E+01  2.2440647E+01
 1.1218250E+01  2.2474195E+01
 1.1229751E+01  2.2446907E+01
 1.1241251E+01  2.2410563E+01
 1.1252750E+01  2.2396503E+01
 1.1264251E+01  2.2427458E+01
 1.1275750E+01  2.2417418E+01
 1.1287251E+01  2.2417582E+01
 1.1298751E+01  2.2411253E+01
 1.1310250E+01  2.2500610E+01
 1.1321751E+01  2.2531700E+01
 1.1333251E+01  2.2604294E+01
 1.1344750E+01  2.2586430E+01
 1.1356251E+01  2.2630157E+01
 1.1367750E+01  2.2623346E+01
 1.1379251E+01  2.2628649E+01
 1.1390751E+01  2.2609791E+01
 1.1402250E+01  2.2710266E+01
 1.1413751E+01  2.2776970E+01
 1.1425251E+01  2.2862629E+01
 1.1436750E+01  2.2935987E+01
 1.1448251E+01  2.2992146E+01
 1.1459750E+01  2.3047764E+01
 1.1471251E+01  2.3075697E+01
 1.1482751E+01  2.3134609E+01
 1.1494250E+01  2.3212879E+01
 1.1505751E+01  2.3321970E+01
 1.1517251E+01  2.3606705E+01
 1.1528750E+01  2.4121628E+01
 1.1540251E+01  2.4990952E+01
 1.1551750E+01  2.6340439E+01
 1.1563251E+01  2.8043076E+01
 1.1574751E+01  3.0936863E+01
 1.1586250E+01  3.3151814E+01
 1.1597751E+01  3.5395645E+01
 1.1609251E+01  3.5167591E+01
 1.1620750E+01  3.4402546E+01
 1.1632251E+01  3.1851908E+01
 1.1643750E+01  2.9264078E+01
 1.1655251E+01  2.6914240E+01
 1.1666751E+01  2.5212748E+01
 1.1678250E+01  2.4220095E+01
 1.1689751E+01  2.3492769E+01
 1.1701251E+01  2.3140617E+01
 1.1712750E+01  2.2924219E+01
 1.1724251E+01  2.2864172E+01
 1.1735750E+01  2.2842089E+01
 1.1747251E+01  2.2851500E+01
 1.1758751E+01  2.2756874E+01
 1.1770250E+01  2.2658262E+01
 1.1781751E+01  2.2607504E+01
 1.1793251E+01  2.2551111E+01
 1.1804750E+01  2.2523914E+01
 1.1816251E+01  2.2512678E+01
 1.1827750E+01  2.2536991E+01
 1.1839251E+01  2.2548820E+01
 1.1850751E+01  2.2482121E+01
 1.1862250E+01  2.2479429E+01
 1.1873751E+01  2.2478006E+01
 1.1885251E+01  2.2492479E+01
 1.1896750E+01  2.2507627E+01
 1.1908251E+01  2.2453987E+01
 1.1919750E+01  2.2510242E+01
 1.1931251E+01  2.2545488E+01
 1.1942751E+01  2.2674097E+01
 1.1954250E+01  2.2743347E+01
 1.1965751E+01  2.2824320E+01
 1.1977251E+01  2.2930950E+01
 1.1988750E+01  2.2994686E+01
 1.2000251E+01  2.2999224E+01
 1.2011750E+01  2.2961470E+01
 1.2023251E+01  2.2898369E+01
 1.2034751E+01  2.2950420E+01
 1.2046250E+01  2.3022409E+01
 1.2057751E+01  2.3214029E+01
 1.2069251E+01  2.3484673E+01
 1.2080750E+01  2.3773664E+01
 1.2092251E+01  2.4047331E+01
 1.2103750E+01  2.4178026E+01
 1.2115251E+01  2.4177973E+01
 1.2126751E+01  2.3948044E+01
 1.2138250E+01  2.3679693E+01
 1.2149751E+01  2.3337481E+01
 1.2161251E+01  2.3096487E+01
 1.2172750E+01  2.2852974E+01
 1.2184251E+01  2.2764179E+01
 1.2195750E+01  2.2700247E+01
 1.2207251E+01  2.2661612E+01
 1.2218751E+01  2.2595192E+01
 1.2230250E+01  2.2557404E+01
 1.2241751E+01  2.2531088E+01
 1.2253251E+01  2.2463291E+01
 1.2264750E+01  2.2452814E+01
 1.2276251E+01  2.2407488E+01
 1.2287750E+01  2.2472660E+01
 1.2299251E+01  2.2466646E+01
 1.2310751E+01  2.2517647E+01
 1.2322250E+01  2.2523813E+01
 1.2333751E+01  2.2569593E+01
 1.2345250E+01  2.2555817E+01
 1.2356750E+01  2.2586493E+01
 1.2368251E+01  2.2593204E+01
 1.2379750E+01  2.2622236E+01
 1.2391251E+01  2.2630211E+01
 1.2402751E+01  2.2609327E+01
 1.2414250E+01  2.2613117E+01
 1.2425751E+01  2.2622929E+01
 1.2437250E+01  2.2607773E+01
 1.2448750E+01  2.2595892E+01
 1.2460251E+01  2.2550549E+01
 1.2471750E+01  2.2571629E+01
 1.2483251E+01  2.2622343E+01
 1.2494751E+01  2.2656183E+01
 1.2506250E+01  2.2648314E+01
 1.2517751E+01  2.2643831E+01
 1.2529250E+01  2.2681160E+01
 1.2540751E+01  2.2713144E+01
 1.2552251E+01  2.2729746E+01
 1.2563750E+01  2.2726839E+01
 1.2575251E+01  2.2737345E+01
 1.2586751E+01  2.2724220E+01
 1.2598250E+01  2.2697102E+01
 1.2609751E+01  2.2708887E+01
 1.2621250E+01  2.2734053E+01
 1.2632751E+01  2.2781174E+01
 1.2644251E+01  2.2801037E+01
 1.2655750E+01  2.2853930E+01
 1.2667251E+01  2.2845495E+01
 1.2678751E+01  2.2879755E+01
 1.2690250E+01  2.2803400E+01
 1.2701751E+01  2.2852777E+01
 1.2713250E+01  2.2868176E+01
 1.2724751E+01  2.2929579E+01
 1.2736251E+01  2.2995295E+01
 1.2747750E+01  2.3059454E+01
 1.2759251E+01  2.3151764E+01
 1.2770751E+01  2.3130260E+01
 1.2782250E+01  2.3194754E+01
 1.2793751E+01  2.3145452E+01
 1.2805250E+01  2.3212370E+01
 1.2816751E+01  2.3237259E+01
 1.2828251E+01  2.3355095E+01
 1.2839750E+01  2.3398048E+01
 1.2851251E+01  2.3387604E+01
 1.2862751E+01  2.3386312E+01
 1.2874250E+01  2.3378540E+01
 1.2885751E+01  2.3394554E+01
 1.2897250E+01  2.3420656E+01
 1.2908751E+01  2.3506338E+01
 1.2920251E+01  2.3571344E+01
 1.2931750E+01  2.3652790E+01
 1.2943251E+01  2.3733778E+01
 1.2954751E+01  2.3818356E+01
 1.2966250E+01  2.3898272E+01
 1.2977751E+01  2.3894308E+01
 1.2989250E+01  2.3933704E+01
 1.3000751E+01  2.3983818E+01
 1.3012251E+01  2.4051163E+01
 1.3023750E+01  2.4125458E+01
 1.3035251E+01  2.4162529E+01
 1.3046751E+01  2.4210865E+01
 1.3058250E+01  2.4249897E+01
 1.3069751E+01  2.4329151E+01
 1.3081250E+01  2.4438723E+01
 1.3092751E+01  2.4555433E+01
 1.3104251E+01  2.4762342E+01
 1.3115750E+01  2.4903959E+01
 1.3127251E+01  2.5041872E+01
 1.3138751E+01  2.5098736E+01
 1.3150250E+01  2.5262428E+01
 1.3161751E+01  2.5402435E+01
 1.3173250E+01  2.5587614E+01
 1.3184751E+01  2.5703632E+01
 1.3196251E+01  2.5799618E+01
 1.3207750E+01  2.5848944E+01
 1.3219251E+01  2.5915020E+01
 1.3230751E+01  2.6070759E+01
 1.3242250E+01  2.6221586E+01
 1.3253751E+01  2.6370432E+01
 1.3265250E+01  2.6525192E+01
 1.3276751E+01  2.6673475E+01
 1.3288251E+01  2.6839035E+01
 1.3299750E+01  2.6970280E+01
 1.3311251E+01  2.7057880E+01
 1.3322751E+01  2.7191940E+01
 1.3334250E+01  2.7311712E+01
 1.3345751E+01  2.7472094E+01
 1.3357250E+01  2.7629452E+01
 1.3368751E+01  2.7745838E+01
 1.3380251E+01  2.7897175E+01
 1.3391750E+01  2.8004303E+01
 1.3403251E+01  2.8194418E+01
 1.3414751E+01  2.8368837E+01
 1.3426250E+01  2.8563984E+01
 1.3437751E+01  2.8680593E+01
 1.3449250E+01  2.8807514E+01
 1.3460751E+01  2.8921654E+01
 1.3472251E+01  2.9068628E+01
 1.3483750E+01  2.9198256E+01
 1.3495251E+01  2.9332661E+01
 1.3506751E+01  2.9446911E+01
 1.3518250E+01  2.9545937E+01
 1.3529751E+01  2.9565062E+01
 1.3541250E+01  2.9600843E+01
 1.3552751E+01  2.9643829E+01
 1.3564251E+01  2.9704735E+01
 1.3575750E+01  2.9802917E+01
 1.3587251E+01  2.9823112E+01
 1.3598751E+01  2.9882431E+01
 1.3610250E+01  2.9870054E+01
 1.3621751E+01  2.9905741E+01
 1.3633250E+01  2.9889088E+01
 1.3644751E+01  2.9788683E+01
 1.3656251E+01  2.9766424E+01
 1.3667750E+01  2.9727478E+01
 1.3679251E+01  2.9752474E+01
 1.3690751E+01  2.9702442E+01
 1.3702250E+01  2.9673473E+01
 1.3713751E+01  2.9646132E+01
 1.3725250E+01  2.9657936E+01
 1.3736751E+01  2.9668810E+01
 1.3748251E+01  2.9689276E+01
 1.3759750E+01  2.9666080E+01
 1.3771251E+01  2.9661983E+01
 1.3782751E+01  2.9612345E+01
 1.3794250E+01  2.9576265E+01
 1.3805751E+01  2.9546232E+01
 1.3817250E+01  2.9539616E+01
 1.3828751E+01  2.9560003E+01
 1.3840251E+01  2.9573872E+01
 1.3851750E+01  2.9661814E+01
 1.3863251E+01  2.9752455E+01
 1.3874751E+01  3.0051222E+01
 1.3886250E+01  3.0339020E+01
 1.3897751E+01  3.1231573E+01
 1.3909250E+01  3.2332569E+01
 1.3920751E+01  3.3898361E+01
 1.3932251E+01  3.5738754E+01
 1.3943750E+01  3.6912872E+01
 1.3955251E+01  3.8422997E+01
 1.3966751E+01  3.7754120E+01
 1.3978251E+01  3.7430744E+01
 1.3989751E+01  3.4985023E+01
 1.4001250E+01  3.3814484E+01
 1.4012751E+01  3.1673878E+01
 1.4024251E+01  3.0575977E+01
 1.4035750E+01  2.9442724E+01
 1.4047251E+01  2.8914331E+01
 1.4058751E+01  2.8500822E+01
 1.4070251E+01  2.8313139E+01
 1.4081751E+01  2.8100666E+01
 1.4093250E+01  2.7944748E+01
 1.4104751E+01  2.7754297E+01
 1.4116251E+01  2.7627008E+01
 1.4127750E+01  2.7509418E+01
 1.4139251E+01  2.7438253E+01
 1.4150751E+01  2.7315063E+01
 1.4162251E+01  2.7221357E+01
 1.4173751E+01  2.7103649E+01
 1.4185250E+01  2.7005594E+01
 1.4196751E+01  2.6899275E+01
 1.4208251E+01  2.6830715E+01
 1.4219750E+01  2.6816511E+01
 1.4231251E+01  2.6762314E+01
 1.4242751E+01  2.6695086E+01
 1.4254251E+01  2.6543509E+01
 1.4265751E+01  2.6479288E+01
 1.4277250E+01  2.6445173E+01
 1.4288751E+01  2.6431803E+01
 1.4300251E+01  2.6430754E+01
 1.4311750E+01  2.6401556E+01
 1.4323251E+01  2.6376205E+01
 1.4334751E+01  2.6346643E+01
 1.4346251E+01  2.6314632E+01
 1.4357751E+01  2.6334942E+01
 1.4369250E+01  2.6257862E+01
 1.4380751E+01  2.6171268E+01
 1.4392251E+01  2.6063391E+01
 1.4403750E+01  2.5997280E+01
 1.4415251E+01  2.5993719E+01
 1.4426751E+01  2.5974007E+01
 1.4438251E+01  2.5939743E+01
 1.4449751E+01  2.5871998E+01
 1.4461250E+01  2.5830210E+01
 1.4472751E+01  2.5790325E+01
 1.4484251E+01  2.5736763E+01
 1.4495750E+01  2.5712439E+01
 1.4507251E+01  2.5699522E+01
 1.4518751E+01  2.5668394E+01
 1.4530251E+01  2.5619278E+01
 1.4541751E+01  2.5652678E+01
 1.4553250E+01  2.5629423E+01
 1.4564751E+01  2.5634514E+01
 1.4576251E+01  2.5556854E+01
 1.4587750E+01  2.5541492E+01
 1.4599251E+01  2.5518976E+01
 1.4610751E+01  2.5487566E+01
 1.4622251E+01  2.5423292E+01
 1.4633751E+01  2.5310503E+01
 1.4645250E+01  2.5218878E+01
 1.4656751E+01  2.5201174E+01
 1.4668251E+01  2.5186495E+01
 1.4679750E+01  2.5252443E+01
 1.4691251E+01  2.5298153E+01
 1.4702751E+01  2.5317795E+01
 1.4714251E+01  2.5291632E+01
 1.4725751E+01  2.5239363E+01
 1.4737250E+01  2.5209753E+01
 1.4748751E+01  2.5135979E+01
 1.4760251E+01  2.5043791E+01
 1.4771750E+01  2.5030392E+01
 1.4783251E+01  2.5062983E+01
 1.4794751E+01  2.5123285E+01
 1.4806251E+01  2.5149456E+01
 1.4817751E+01  2.5182817E+01
 1.4829250E+01  2.5232277E+01
 1.4840751E+01  2.5217495E+01
 1.4852251E+01  2.5223953E+01
 1.4863750E+01  2.5163961E+01
 1.4875251E+01  2.5137852E+01
 1.4886751E+01  2.5080366E+01
 1.4898251E+01  2.5108290E+01
 1.4909751E+01  2.5089233E+01
 1.4921250E+01  2.5085947E+01
 1.4932751E+01  2.5060312E+01
 1.4944251E+01  2.5061689E+01
 1.4955750E+01  2.4991409E+01
 1.4967251E+01  2.4960297E+01
 1.4978751E+01  2.4939451E+01
 1.4990251E+01  2.4948111E+01
 1.5001751E+01  2.4937044E+01
 1.5013250E+01  2.4922554E+01
 1.5024751E+01  2.4972927E+01
 1.5036251E+01  2.4909595E+01
 1.5047750E+01  2.4872938E+01
 1.5059251E+01  2.4828087E+01
 1.5070751E+01  2.4817167E+01
 1.5082251E+01  2.4848413E+01
 1.5093751E+01  2.4867878E+01
 1.5105250E+01  2.4929893E+01
 1.5116751E+01  2.5075472E+01
 1.5128251E+01  2.5149611E+01
 1.5139750E+01  2.5421165E+01
 1.5151251E+01  2.5739620E+01
 1.5162751E+01  2.6058508E+01
 1.5174251E+01  2.6484440E+01
 1.5185751E+01  2.6617424E+01
 1.5197250E+01  2.6760815E+01
 1.5208751E+01  2.6572649E+01
 1.5220251E+01  2.6424320E+01
 1.5231750E+01  2.6100529E+01
 1.5243251E+01  2.5687834E+01
 1.5254751E+01  2.5372324E+01
 1.5266251E+01  2.5105366E+01
 1.5277751E+01  2.4904638E+01
 1.5289250E+01  2.4803175E+01
 1.5300751E+01  2.4730499E+01
 1.5312251E+01  2.4740974E+01
 1.5323750E+01  2.4722052E+01
 1.5335251E+01  2.4758162E+01
 1.5346751E+01  2.4732155E+01
 1.5358251E+01  2.4753769E+01
 1.5369751E+01  2.4720293E+01
 1.5381250E+01  2.4697559E+01
 1.5392751E+01  2.4658257E+01
 1.5404251E+01  2.4653624E+01
 1.5415751E+01  2.4563158E+01
 1.5427251E+01  2.4539700E+01
 1.5438751E+01  2.4547981E+01
 1.5450251E+01  2.4581188E+01
 1.5461751E+01  2.4587744E+01
 1.5473250E+01  2.4585699E+01
 1.5484751E+01  2.4604359E+01
 1.5496251E+01  2.4581390E+01
 1.5507751E+01  2.4603968E+01
 1.5519251E+01  2.4656057E+01
 1.5530751E+01  2.4671139E+01
 1.5542251E+01  2.4674683E+01
 1.5553751E+01  2.4632278E+01
 1.5565250E+01  2.4633961E+01
 1.5576751E+01  2.4549568E+01
 1.5588251E+01  2.4510792E+01
 1.5599751E+01  2.4462343E+01
 1.5611251E+01  2.4423521E+01
 1.5622751E+01  2.4420845E+01
 1.5634251E+01  2.4439417E+01
 1.5645751E+01  2.4497232E+01
 1.5657250E+01  2.4521669E+01
 1.5668751E+01  2.4571903E+01
 1.5680251E+01  2.4626026E+01
 1.5691751E+01  2.4680826E+01
 1.5703251E+01  2.4711130E+01
 1.5714751E+01  2.4678125E+01
 1.5726251E+01  2.4620584E+01
 1.5737751E+01  2.4515251E+01
 1.5749250E+01  2.4514603E+01
 1.5760751E+01  2.4549784E+01
 1.5772251E+01  2.4674984E+01
 1.5783751E+01  2.4743698E+01
 1.5795251E+01  2.4798122E+01
 1.5806751E+01  2.4822483E+01
 1.5818251E+01  2.4785944E+01
 1.5829751E+01  2.4750717E+01
 1.5841250E+01  2.4676706E+01
 1.5852751E+01  2.4709873E+01
 1.5864251E+01  2.4667212E+01
 1.5875751E+01  2.4711863E+01
 1.5887251E+01  2.4664743E+01
 1.5898750E+01  2.4688751E+01
 1.5910251E+01  2.4641659E+01
 1.5921751E+01  2.4588278E+01
 1.5933250E+01  2.4539116E+01
 1.5944751E+01  2.4496262E+01
 1.5956251E+01  2.4492069E+01
 1.5967751E+01  2.4499756E+01
 1.5979251E+01  2.4538565E+01
 1.5990750E+01  2.4617645E+01
 1.6002251E+01  2.4654823E+01
 1.6013750E+01  2.4683603E+01
 1.6025251E+01  2.4687534E+01
 1.6036751E+01  2.4698116E+01
 1.6048250E+01  2.4699583E+01
 1.6059752E+01  2.4716427E+01
 1.6071251E+01  2.4683340E+01
 1.6082750E+01  2.4729071E+01
 1.6094252E+01  2.4736807E+01
 1.6105751E+01  2.4885565E+01
 1.6117250E+01  2.4941307E+01
 1.6128750E+01  2.4997992E+01
 1.6140251E+01  2.5037313E+01
 1.6151751E+01  2.5049698E+01
 1.6163250E+01  2.5140968E+01
 1.6174751E+01  2.5088650E+01
 1.6186251E+01  2.5309187E+01
 1.6197750E+01  2.5229534E+01
 1.6209251E+01  2.5757280E+01
 1.6220751E+01  2.5816700E+01
 1.6232250E+01  2.6563046E+01
 1.6243752E+01  2.6781672E+01
 1.6255251E+01  2.7194725E+01
 1.6266750E+01  2.7338266E+01
 1.6278252E+01  2.6846025E+01
 1.6289751E+01  2.6726364E+01
 1.6301250E+01  2.5759140E+01
 1.6312750E+01  2.5721354E+01
 1.6324251E+01  2.5114685E+01
 1.6335751E+01  2.5144062E+01
 1.6347250E+01  2.4897200E+01
 1.6358751E+01  2.4817804E+01
 1.6370251E+01  2.4755800E+01
 1.6381750E+01  2.4769938E+01
 1.6393251E+01  2.4859356E+01
 1.6404751E+01  2.4882019E+01
 1.6416250E+01  2.4935539E+01
 1.6427752E+01  2.4879005E+01
 1.6439251E+01  2.4842646E+01
 1.6450750E+01  2.4769117E+01
 1.6462252E+01  2.4703598E+01
 1.6473751E+01  2.4643999E+01
 1.6485250E+01  2.4627085E+01
 1.6496750E+01  2.4647348E+01
 1.6508251E+01  2.4660383E+01
 1.6519751E+01  2.4625431E+01
 1.6531250E+01  2.4608450E+01
 1.6542751E+01  2.4615303E+01
 1.6554251E+01  2.4638086E+01
 1.6565750E+01  2.4651045E+01
 1.6577251E+01  2.4650049E+01
 1.6588751E+01  2.4586733E+01
 1.6600250E+01  2.4616804E+01
 1.6611752E+01  2.4597897E+01
 1.6623251E+01  2.4578171E+01
 1.6634750E+01  2.4569965E+01
 1.6646252E+01  2.4581282E+01
 1.6657751E+01  2.4636845E+01
 1.6669250E+01  2.4641483E+01
 1.6680750E+01  2.4639687E+01
 1.6692251E+01  2.4643312E+01
 1.6703751E+01  2.4590410E+01
 1.6715250E+01  2.4591679E+01
 1.6726751E+01  2.4537395E+01
 1.6738251E+01  2.4509731E+01
 1.6749750E+01  2.4532389E+01
 1.6761251E+01  2.4526489E+01
 1.6772751E+01  2.4544100E+01
 1.6784250E+01  2.4466406E+01
 1.6795752E+01  2.4425667E+01
 1.6807251E+01  2.4417126E+01
 1.6818750E+01  2.4425207E+01
 1.6830252E+01  2.4448221E+01
 1.6841751E+01  2.4466393E+01
 1.6853251E+01  2.4467505E+01
 1.6864750E+01  2.4460239E+01
 1.6876251E+01  2.4406818E+01
 1.6887751E+01  2.4355562E+01
 1.6899250E+01  2.4279516E+01
 1.6910751E+01  2.4252794E+01
 1.6922251E+01  2.4270565E+01
 1.6933750E+01  2.4289358E+01
 1.6945251E+01  2.4330120E+01
 1.6956751E+01  2.4344488E+01
 1.6968250E+01  2.4344788E+01
 1.6979752E+01  2.4343046E+01
 1.6991251E+01  2.4327311E+01
 1.7002750E+01  2.4353239E+01
 1.7014252E+01  2.4371317E+01
 1.7025751E+01  2.4390070E+01
 1.7037251E+01  2.4350443E+01
 1.7048750E+01  2.4328600E+01
 1.7060251E+01  2.4332668E+01
 1.7071751E+01  2.4341719E+01
 1.7083250E+01  2.4351036E+01
 1.7094751E+01  2.4308289E+01
 1.7106251E+01  2.4309444E+01
 1.7117750E+01  2.4257971E+01
 1.7129251E+01  2.4277571E+01
 1.7140751E+01  2.4269915E+01
 1.7152250E+01  2.4246937E+01
 1.7163752E+01  2.4188259E+01
 1.7175251E+01  2.4193716E+01
 1.7186750E+01  2.4209209E+01
 1.7198252E+01  2.4240828E+01
 1.7209751E+01  2.4238270E+01
 1.7221251E+01  2.4242218E+01
 1.7232750E+01  2.4253273E+01
 1.7244251E+01  2.4251646E+01
 1.7255751E+01  2.4264605E+01
 1.7267250E+01  2.4158470E+01
 1.7278751E+01  2.4163055E+01
 1.7290251E+01  2.4130417E+01
 1.7301750E+01  2.4207991E+01
 1.7313251E+01  2.4157772E+01
 1.7324751E+01  2.4179012E+01
 1.7336250E+01  2.4160070E+01
 1.7347752E+01  2.4148869E+01
 1.7359251E+01  2.4109371E+01
 1.7370750E+01  2.4113201E+01
 1.7382252E+01  2.4061573E+01
 1.7393751E+01  2.4054298E+01
 1.7405251E+01  2.4020624E+01
 1.7416750E+01  2.4128210E+01
 1.7428251E+01  2.4164469E+01
 1.7439751E+01  2.4205879E+01
 1.7451250E+01  2.4131144E+01
 1.7462751E+01  2.4075922E+01
 1.7474251E+01  2.4034241E+01
 1.7485750E+01  2.4002016E+01
 1.7497252E+01  2.3953661E+01
 1.7508751E+01  2.3938307E+01
 1.7520250E+01  2.3928255E+01
 1.7531752E+01  2.3917027E+01
 1.7543251E+01  2.3981800E+01
 1.7554750E+01  2.4010439E+01
 1.7566252E+01  2.4054302E+01
 1.7577751E+01  2.4036375E+01
 1.7589251E+01  2.4068354E+01
 1.7600750E+01  2.4066513E+01
 1.7612251E+01  2.4078999E+01
 1.7623751E+01  2.4102942E+01
 1.7635250E+01  2.4037447E+01
 1.7646751E+01  2.3966362E+01
 1.7658251E+01  2.3875763E+01
 1.7669750E+01  2.3916538E+01
 1.7681252E+01  2.3894697E+01
 1.7692751E+01  2.3944180E+01
 1.7704250E+01  2.3917898E+01
 1.7715752E+01  2.3914846E+01
 1.7727251E+01  2.3894131E+01
 1.7738750E+01  2.3835253E+01
 1.7750252E+01  2.3798292E+01
 1.7761751E+01  2.3810110E+01
 1.7773251E+01  2.3895617E+01
 1.7784750E+01  2.3927912E+01
 1.7796251E+01  2.3937168E+01
 1.7807751E+01  2.3904137E+01
 1.7819250E+01  2.3894154E+01
 1.7830751E+01  2.3894056E+01
 1.7842251E+01  2.3912432E+01
 1.7853750E+01  2.3920059E+01
 1.7865252E+01  2.3961246E+01
 1.7876751E+01  2.4029890E+01
 1.7888250E+01  2.4014439E+01
 1.7899752E+01  2.4040594E+01
 1.7911251E+01  2.4035913E+01
 1.7922750E+01  2.4075462E+01
 1.7934252E+01  2.4073612E+01
 1.7945751E+01  2.4156265E+01
 1.7957251E+01  2.4278215E+01
 1.7968750E+01  2.4343636E+01
 1.7980251E+01  2.4618898E+01
 1.7991751E+01  2.5068501E+01
 1.8003250E+01  2.5224844E+01
 1.8014751E+01  2.5670048E+01
 1.8026251E+01  2.5744781E+01
 1.8037750E+01  2.6322210E+01
 1.8049252E+01  2.6499483E+01
 1.8060751E+01  2.7784187E+01
 1.8072250E+01  2.9802319E+01
 1.8083752E+01  3.1179306E+01
 1.8095251E+01  3.3239140E+01
 1.8106750E+01  3.4297916E+01
 1.8118252E+01  3.4199203E+01
 1.8129751E+01  3.3087360E+01
 1.8141251E+01  3.1148577E+01
 1.8152750E+01  2.9374935E+01
 1.8164251E+01  2.7117025E+01
 1.8175751E+01  2.6277109E+01
 1.8187250E+01  2.5510340E+01
 1.8198751E+01  2.5044912E+01
 1.8210251E+01  2.4835415E+01
 1.8221750E+01  2.4400623E+01
 1.8233252E+01  2.4207092E+01
 1.8244751E+01  2.4088041E+01
 1.8256250E+01  2.3998283E+01
 1.8267752E+01  2.3903881E+01
 1.8279251E+01  2.3902550E+01
 1.8290751E+01  2.3915457E+01
 1.8302252E+01  2.3955236E+01
 1.8313751E+01  2.3941620E+01
 1.8325251E+01  2.3891581E+01
 1.8336750E+01  2.3859167E+01
 1.8348251E+01  2.3827120E+01
 1.8359751E+01  2.3866791E+01
 1.8371250E+01  2.3819656E+01
 1.8382751E+01  2.3721680E+01
 1.8394251E+01  2.3640776E+01
 1.8405750E+01  2.3634687E+01
 1.8417252E+01  2.3618481E+01
 1.8428751E+01  2.3648174E+01
 1.8440250E+01  2.3655048E+01
 1.8451752E+01  2.3691401E+01
 1.8463251E+01  2.3719007E+01
 1.8474751E+01  2.3730259E+01
 1.8486252E+01  2.3712053E+01
 1.8497751E+01  2.3678095E+01
 1.8509251E+01  2.3662521E+01
 1.8520750E+01  2.3606035E+01
 1.8532251E+01  2.3595291E+01
 1.8543751E+01  2.3553272E+01
 1.8555250E+01  2.3574699E+01
 1.8566751E+01  2.3555052E+01
 1.8578251E+01  2.3555271E+01
 1.8589750E+01  2.3539833E+01
 1.8601252E+01  2.3540012E+01
 1.8612751E+01  2.3547327E+01
 1.8624250E+01  2.3533503E+01
 1.8635752E+01  2.3561960E+01
 1.8647251E+01  2.3536154E+01
 1.8658751E+01  2.3465450E+01
 1.8670252E+01  2.3427361E+01
 1.8681751E+01  2.3426367E+01
 1.8693251E+01  2.3512444E+01
 1.8704750E+01  2.3566942E+01
 1.8716251E+01  2.3602825E+01
 1.8727751E+01  2.3593378E+01
 1.8739250E+01  2.3570086E+01
 1.8750751E+01  2.3591242E+01
 1.8762251E+01  2.3572405E+01
 1.8773750E+01  2.3590576E+01
 1.8785252E+01  2.3548153E+01
 1.8796751E+01  2.3559980E+01
 1.8808250E+01  2.3552551E+01
 1.8819752E+01  2.3598803E+01
 1.8831251E+01  2.3602140E+01
 1.8842751E+01  2.3604324E+01
 1.8854252E+01  2.3552004E+01
 1.8865751E+01  2.3506584E+01
 1.8877251E+01  2.3493231E+01
 1.8888750E+01  2.3503258E+01
 1.8900251E+01  2.3525948E+01
 1.8911751E+01  2.3521563E+01
 1.8923250E+01  2.3584427E+01
 1.8934752E+01  2.3640865E+01
 1.8946251E+01  2.3678089E+01
 1.8957750E+01  2.3626604E+01
 1.8969252E+01  2.3571091E+01
 1.8980751E+01  2.3538626E+01
 1.8992250E+01  2.3531677E+01
 1.9003752E+01  2.3555042E+01
 1.9015251E+01  2.3592611E+01
 1.9026751E+01  2.3630497E+01
 1.9038252E+01  2.3665325E+01
 1.9049751E+01  2.3686451E+01
 1.9061251E+01  2.3702438E+01
 1.9072750E+01  2.3694372E+01
 1.9084251E+01  2.3652802E+01
 1.9095751E+01  2.3613825E+01
 1.9107250E+01  2.3596081E+01
 1.9118752E+01  2.3609573E+01
 1.9130251E+01  2.3632538E+01
 1.9141750E+01  2.3647829E+01
 1.9153252E+01  2.3615330E+01
 1.9164751E+01  2.3561373E+01
 1.9176250E+01  2.3523188E+01
 1.9187752E+01  2.3514603E+01
 1.9199251E+01  2.3559376E+01
 1.9210751E+01  2.3556070E+01
 1.9222252E+01  2.3537180E+01
 1.9233751E+01  2.3481136E+01
 1.9245251E+01  2.3507864E+01
 1.9256750E+01  2.3551027E+01
 1.9268251E+01  2.3570459E+01
 1.9279751E+01  2.3535398E+01
 1.9291250E+01  2.3514549E+01
 1.9302752E+01  2.3534723E+01
 1.9314251E+01  2.3585089E+01
 1.9325750E+01  2.3652000E+01
 1.9337252E+01  2.3682775E+01
 1.9348751E+01  2.3707054E+01
 1.9360250E+01  2.3674635E+01
 1.9371752E+01  2.3653965E+01
 1.9383251E+01  2.3589712E+01
 1.9394751E+01  2.3613514E+01
 1.9406250E+01  2.3613234E+01
 1.9417751E+01  2.3641760E+01
 1.9429251E+01  2.3630890E+01
 1.9440750E+01  2.3649347E+01
 1.9452251E+01  2.3701719E+01
 1.9463751E+01  2.3720720E+01
 1.9475250E+01  2.3744040E+01
 1.9486752E+01  2.3726208E+01
 1.9498251E+01  2.3702143E+01
 1.9509750E+01  2.3699100E+01
 1.9521252E+01  2.3715891E+01
 1.9532751E+01  2.3756622E+01
 1.9544250E+01  2.3777922E+01
 1.9555752E+01  2.3742401E+01
 1.9567251E+01  2.3744902E+01
 1.9578751E+01  2.3753284E+01
 1.9590250E+01  2.3794870E+01
 1.9601751E+01  2.3841400E+01
 1.9613251E+01  2.3891153E+01
 1.9624750E+01  2.3966700E+01
 1.9636251E+01  2.4140953E+01
 1.9647751E+01  2.4394094E+01
 1.9659250E+01  2.4811417E+01
 1.9670752E+01  2.5490818E+01
 1.9682251E+01  2.6183643E+01
 1.9693750E+01  2.6988482E+01
 1.9705252E+01  2.7632624E+01
 1.9716751E+01  2.7988733E+01
 1.9728251E+01  2.7878347E+01
 1.9739752E+01  2.7418978E+01
 1.9751251E+01  2.7004522E+01
 1.9762751E+01  2.6404768E+01
 1.9774250E+01  2.6026478E+01
 1.9785751E+01  2.5833204E+01
 1.9797251E+01  2.5977352E+01
 1.9808750E+01  2.6301794E+01
 1.9820251E+01  2.6797050E+01
 1.9831751E+01  2.7405519E+01
 1.9843250E+01  2.7977467E+01
 1.9854752E+01  2.8349127E+01
 1.9866251E+01  2.8591715E+01
 1.9877750E+01  2.8598783E+01
 1.9889252E+01  2.8185539E+01
 1.9900751E+01  2.7491671E+01
 1.9912251E+01  2.6557846E+01
 1.9923752E+01  2.5783707E+01
 1.9935251E+01  2.5066410E+01
 1.9946751E+01  2.4662809E+01
 1.9958250E+01  2.4366632E+01
 1.9969751E+01  2.4198629E+01
 1.9981251E+01  2.4074703E+01
 1.9992750E+01  2.3973246E+01
 2.0004251E+01  2.3910618E+01
 2.0015751E+01  2.3837749E+01
 2.0027250E+01  2.3755049E+01
 2.0038752E+01  2.3735247E+01
 2.0050251E+01  2.3729349E+01
 2.0061750E+01  2.3735321E+01
 2.0073252E+01  2.3705816E+01
 2.0084751E+01  2.3739241E+01
 2.0096251E+01  2.3792456E+01
 2.0107752E+01  2.3835552E+01
 2.0119251E+01  2.3883787E+01
 2.0130751E+01  2.3877350E+01
 2.0142250E+01  2.3863190E+01
 2.0153751E+01  2.3848696E+01
 2.0165251E+01  2.3814785E+01
 2.0176750E+01  2.3783489E+01
 2.0188251E+01  2.3748051E+01
 2.0199751E+01  2.3727585E+01
 2.0211250E+01  2.3692112E+01
 2.0222752E+01  2.3711079E+01
 2.0234251E+01  2.3728615E+01
 2.0245750E+01  2.3766382E+01
 2.0257252E+01  2.3792002E+01
 2.0268751E+01  2.3820131E+01
 2.0280251E+01  2.3814528E+01
 2.0291752E+01  2.3804060E+01
 2.0303251E+01  2.3755386E+01
 2.0314751E+01  2.3714909E+01
 2.0326250E+01  2.3745535E+01
 2.0337751E+01  2.3787767E+01
 2.0349251E+01  2.3813747E+01
 2.0360750E+01  2.3785946E+01
 2.0372252E+01  2.3775064E+01
 2.0383751E+01  2.3795000E+01
 2.0395250E+01  2.3834347E+01
 2.0406752E+01  2.3876343E+01
 2.0418251E+01  2.3899021E+01
 2.0429750E+01  2.3939161E+01
 2.0441252E+01  2.3913391E+01
 2.0452751E+01  2.3906755E+01
 2.0464251E+01  2.3855560E+01
 2.0475752E+01  2.3838934E+01
 2.0487251E+01  2.3766565E+01
 2.0498751E+01  2.3763424E+01
 2.0510250E+01  2.3755932E+01
 2.0521751E+01  2.3744390E+01
 2.0533251E+01  2.3762529E+01
 2.0544750E+01  2.3806776E+01
 2.0556252E+01  2.3864025E+01
 2.0567751E+01  2.3913326E+01
 2.0579250E+01  2.3960337E+01
 2.0590752E+01  2.4059042E+01
 2.0602251E+01  2.4125290E+01
 2.0613750E+01  2.4197493E+01
 2.0625252E+01  2.4203398E+01
 2.0636751E+01  2.4251524E+01
 2.0648251E+01  2.4254993E+01
 2.0659752E+01  2.4321346E+01
 2.0671251E+01  2.4471830E+01
 2.0682751E+01  2.4787302E+01
 2.0694250E+01  2.5273611E+01
 2.0705751E+01  2.6037006E+01
 2.0717251E+01  2.7071068E+01
 2.0728750E+01  2.8347887E+01
 2.0740252E+01  2.9820541E+01
 2.0751751E+01  3.1163782E+01
 2.0763250E+01  3.1758247E+01
 2.0774752E+01  3.1444149E+01
 2.0786251E+01  3.0491444E+01
 2.0797750E+01  2.8948000E+01
 2.0809252E+01  2.7409582E+01
 2.0820751E+01  2.6199486E+01
 2.0832251E+01  2.5384005E+01
 2.0843752E+01  2.4806902E+01
 2.0855251E+01  2.4593407E+01
 2.0866751E+01  2.4464649E+01
 2.0878250E+01  2.4462942E+01
 2.0889751E+01  2.4466455E+01
 2.0901251E+01  2.4401205E+01
 2.0912750E+01  2.4308939E+01
 2.0924252E+01  2.4207766E+01
 2.0935751E+01  2.4134434E+01
 2.0947250E+01  2.4070847E+01
 2.0958752E+01  2.4035017E+01
 2.0970251E+01  2.3978151E+01
 2.0981750E+01  2.3993778E+01
 2.0993252E+01  2.4027624E+01
 2.1004751E+01  2.4072102E+01
 2.1016251E+01  2.4035891E+01
 2.1027752E+01  2.4030758E+01
 2.1039251E+01  2.4018478E+01
 2.1050751E+01  2.3983019E+01
 2.1062250E+01  2.3963467E+01
 2.1073751E+01  2.3990713E+01
 2.1085251E+01  2.3976498E+01
 2.1096750E+01  2.3918585E+01
 2.1108252E+01  2.3938383E+01
 2.1119751E+01  2.3966978E+01
 2.1131250E+01  2.3973021E+01
 2.1142752E+01  2.3904543E+01
 2.1154251E+01  2.3854145E+01
 2.1165751E+01  2.3864054E+01
 2.1177252E+01  2.3934341E+01
 2.1188751E+01  2.3981287E+01
 2.1200251E+01  2.3964674E+01
 2.1211752E+01  2.3988464E+01
 2.1223251E+01  2.3958628E+01
 2.1234751E+01  2.3933510E+01
 2.1246250E+01  2.3890224E+01
 2.1257751E+01  2.3860050E+01
 2.1269251E+01  2.3822104E+01
 2.1280750E+01  2.3831278E+01
 2.1292252E+01  2.3842081E+01
 2.1303751E+01  2.3859400E+01
 2.1315250E+01  2.3848175E+01
 2.1326752E+01  2.3888554E+01
 2.1338251E+01  2.3893589E+01
 2.1349751E+01  2.3977570E+01
 2.1361252E+01  2.4009548E+01
 2.1372751E+01  2.4029692E+01
 2.1384251E+01  2.3963718E+01
 2.1395752E+01  2.3935379E+01
 2.1407251E+01  2.3949118E+01
 2.1418751E+01  2.4017139E+01
 2.1430250E+01  2.4052896E+01
 2.1441751E+01  2.3996853E+01
 2.1453251E+01  2.3982687E+01
 2.1464750E+01  2.3918140E+01
 2.1476252E+01  2.3917042E+01
 2.1487751E+01  2.3918003E+01
 2.1499250E+01  2.3918684E+01
 2.1510752E+01  2.3938406E+01
 2.1522251E+01  2.3968565E+01
 2.1533751E+01  2.4008127E+01
 2.1545252E+01  2.4001060E+01
 2.1556751E+01  2.3991796E+01
 2.1568251E+01  2.3966654E+01
 2.1579752E+01  2.3985012E+01
 2.1591251E+01  2.4031584E+01
 2.1602751E+01  2.4038353E+01
 2.1614250E+01  2.4050306E+01
 2.1625751E+01  2.4047352E+01
 2.1637251E+01  2.4036663E+01
 2.1648750E+01  2.4036709E+01
 2.1660252E+01  2.4063095E+01
 2.1671751E+01  2.4142962E+01
 2.1683250E+01  2.4137508E+01
 2.1694752E+01  2.4098232E+01
 2.1706251E+01  2.4103462E+01
 2.1717751E+01  2.4144747E+01
 2.1729252E+01  2.4166800E+01
 2.1740751E+01  2.4173820E+01
 2.1752251E+01  2.4147860E+01
 2.1763752E+01  2.4132851E+01
 2.1775251E+01  2.4073147E+01
 2.1786751E+01  2.4062763E+01
 2.1798250E+01  2.4023438E+01
 2.1809752E+01  2.4051313E+01
 2.1821251E+01  2.4046850E+01
 2.1832750E+01  2.4033955E+01
 2.1844252E+01  2.4013067E+01
 2.1855751E+01  2.4022440E+01
 2.1867250E+01  2.4060455E+01
 2.1878752E+01  2.4132956E+01
 2.1890251E+01  2.4182379E+01
 2.1901751E+01  2.4201241E+01
 2.1913252E+01  2.4221123E+01
 2.1924751E+01  2.4237411E+01
 2.1936251E+01  2.4245893E+01
 2.1947752E+01  2.4275026E+01
 2.1959251E+01  2.4271029E+01
 2.1970751E+01  2.4269268E+01
 2.1982250E+01  2.4271690E+01
 2.1993752E+01  2.4285078E+01
 2.2005251E+01  2.4310410E+01
 2.2016750E+01  2.4320114E+01
 2.2028252E+01  2.4332130E+01
 2.2039751E+01  2.4344791E+01
 2.2051250E+01  2.4310534E+01
 2.2062752E+01  2.4253683E+01
 2.2074251E+01  2.4196960E+01
 2.2085751E+01  2.4204556E+01
 2.2097252E+01  2.4233612E+01
 2.2108751E+01  2.4251787E+01
 2.2120251E+01  2.4354383E+01
 2.2131752E+01  2.4398293E+01
 2.2143251E+01  2.4408049E+01
 2.2154751E+01  2.4387527E+01
 2.2166250E+01  2.4352144E+01
 2.2177752E+01  2.4327471E+01
 2.2189251E+01  2.4281485E+01
 2.2200750E+01  2.4283812E+01
 2.2212252E+01  2.4272470E+01
 2.2223751E+01  2.4323009E+01
 2.2235250E+01  2.4357470E+01
 2.2246752E+01  2.4405481E+01
 2.2258251E+01  2.4415625E+01
 2.2269751E+01  2.4403673E+01
 2.2281252E+01  2.4461128E+01
 2.2292751E+01  2.4517433E+01
 2.2304251E+01  2.4628859E+01
 2.2315752E+01  2.4627558E+01
 2.2327251E+01  2.4627535E+01
 2.2338751E+01  2.4551706E+01
 2.2350250E+01  2.4517551E+01
 2.2361752E+01  2.4489246E+01
 2.2373251E+01  2.4470572E+01
 2.2384750E+01  2.4461590E+01
 2.2396252E+01  2.4461580E+01
 2.2407751E+01  2.4479700E+01
 2.2419250E+01  2.4438400E+01
 2.2430752E+01  2.4503784E+01
 2.2442251E+01  2.4546392E+01
 2.2453751E+01  2.4658392E+01
 2.2465252E+01  2.4659174E+01
 2.2476751E+01  2.4692642E+01
 2.2488251E+01  2.4726734E+01
 2.2499752E+01  2.4738819E+01
 2.2511251E+01  2.4785395E+01
 2.2522751E+01  2.4841505E+01
 2.2534250E+01  2.4836082E+01
 2.2545752E+01  2.4833027E+01
 2.2557251E+01  2.4816864E+01
 2.2568750E+01  2.4808962E+01
 2.2580252E+01  2.4766176E+01
 2.2591751E+01  2.4784180E+01
 2.2603251E+01  2.4833477E+01
 2.2614752E+01  2.4904039E+01
 2.2626251E+01  2.4970028E+01
 2.2637751E+01  2.5000212E+01
 2.2649252E+01  2.4973408E+01
 2.2660751E+01  2.4953255E+01
 2.2672251E+01  2.4970459E+01
 2.2683752E+01  2.5088621E+01
 2.2695251E+01  2.5177004E+01
 2.2706751E+01  2.5213882E+01
 2.2718250E+01  2.5168177E+01
 2.2729752E+01  2.5121792E+01
 2.2741251E+01  2.5149300E+01
 2.2752750E+01  2.5188715E+01
 2.2764252E+01  2.5241276E+01
 2.2775751E+01  2.5272106E+01
 2.2787251E+01  2.5268118E+01
 2.2798752E+01  2.5292004E+01
 2.2810251E+01  2.5356144E+01
 2.2821751E+01  2.5400913E+01
 2.2833252E+01  2.5462006E+01
 2.2844751E+01  2.5483736E+01
 2.2856251E+01  2.5574038E+01
 2.2867750E+01  2.5694777E+01
 2.2879251E+01  2.5763924E+01
 2.2890751E+01  2.5831450E+01
 2.2902250E+01  2.5849382E+01
 2.2913752E+01  2.5939302E+01
 2.2925251E+01  2.5964985E+01
 2.2936750E+01  2.6022360E+01
 2.2948252E+01  2.6079832E+01
 2.2959751E+01  2.6135431E+01
 2.2971251E+01  2.6291275E+01
 2.2982752E+01  2.6393299E+01
 2.2994251E+01  2.6480846E+01
