F:\20151113_APS_34IDE\\Brian\Particle1\OCV\Data_0067.tif
2-Theta Angle (Degrees)
Intensity
       2000
 5.7500005E-03  0.0000000E+00
 1.7250001E-02  0.0000000E+00
 2.8750001E-02  0.0000000E+00
 4.0250003E-02  0.0000000E+00
 5.1750004E-02  0.0000000E+00
 6.3250005E-02  0.0000000E+00
 7.4750006E-02  0.0000000E+00
 8.6250007E-02  0.0000000E+00
 9.7750008E-02  0.0000000E+00
 1.0925001E-01  0.0000000E+00
 1.2075000E-01  0.0000000E+00
 1.3225001E-01  0.0000000E+00
 1.4375001E-01  0.0000000E+00
 1.5525001E-01  0.0000000E+00
 1.6675001E-01  0.0000000E+00
 1.7825001E-01  0.0000000E+00
 1.8975002E-01  0.0000000E+00
 2.0125002E-01  0.0000000E+00
 2.1275002E-01  0.0000000E+00
 2.2425000E-01  0.0000000E+00
 2.3575000E-01  0.0000000E+00
 2.4725001E-01  0.0000000E+00
 2.5875002E-01  0.0000000E+00
 2.7025002E-01  0.0000000E+00
 2.8175002E-01  0.0000000E+00
 2.9325002E-01  0.0000000E+00
 3.0475003E-01  0.0000000E+00
 3.1625003E-01  0.0000000E+00
 3.2775003E-01  0.0000000E+00
 3.3925003E-01  0.0000000E+00
 3.5075003E-01  0.0000000E+00
 3.6225003E-01  0.0000000E+00
 3.7375003E-01  0.0000000E+00
 3.8525003E-01  0.0000000E+00
 3.9675003E-01  0.0000000E+00
 4.0825003E-01  0.0000000E+00
 4.1975003E-01  0.0000000E+00
 4.3125004E-01  0.0000000E+00
 4.4275001E-01  0.0000000E+00
 4.5425001E-01  0.0000000E+00
 4.6575001E-01  0.0000000E+00
 4.7725001E-01  0.0000000E+00
 4.8875001E-01  0.0000000E+00
 5.0025004E-01  0.0000000E+00
 5.1175004E-01  0.0000000E+00
 5.2325004E-01  0.0000000E+00
 5.3475004E-01  0.0000000E+00
 5.4625005E-01  0.0000000E+00
 5.5775005E-01  0.0000000E+00
 5.6925005E-01  0.0000000E+00
 5.8075005E-01  0.0000000E+00
 5.9225005E-01  0.0000000E+00
 6.0375005E-01  0.0000000E+00
 6.1525005E-01  0.0000000E+00
 6.2675005E-01  0.0000000E+00
 6.3825005E-01  0.0000000E+00
 6.4975005E-01  0.0000000E+00
 6.6125005E-01  0.0000000E+00
 6.7275006E-01  0.0000000E+00
 6.8425006E-01  0.0000000E+00
 6.9575006E-01  0.0000000E+00
 7.0725006E-01  0.0000000E+00
 7.1875006E-01  0.0000000E+00
 7.3025006E-01  0.0000000E+00
 7.4175006E-01  0.0000000E+00
 7.5325006E-01  0.0000000E+00
 7.6475006E-01  0.0000000E+00
 7.7625006E-01  0.0000000E+00
 7.8775007E-01  0.0000000E+00
 7.9925007E-01  0.0000000E+00
 8.1075007E-01  0.0000000E+00
 8.2225007E-01  0.0000000E+00
 8.3375007E-01  0.0000000E+00
 8.4525007E-01  0.0000000E+00
 8.5675007E-01  0.0000000E+00
 8.6825007E-01  0.0000000E+00
 8.7975001E-01  0.0000000E+00
 8.9125001E-01  0.0000000E+00
 9.0275002E-01  0.0000000E+00
 9.1425002E-01  0.0000000E+00
 9.2575002E-01  0.0000000E+00
 9.3725002E-01  0.0000000E+00
 9.4875002E-01  0.0000000E+00
 9.6025002E-01  0.0000000E+00
 9.7175002E-01  0.0000000E+00
 9.8325002E-01  0.0000000E+00
 9.9475002E-01  0.0000000E+00
 1.0062500E+00  0.0000000E+00
 1.0177500E+00  0.0000000E+00
 1.0292500E+00  0.0000000E+00
 1.0407500E+00  0.0000000E+00
 1.0522500E+00  0.0000000E+00
 1.0637500E+00  0.0000000E+00
 1.0752500E+00  0.0000000E+00
 1.0867500E+00  0.0000000E+00
 1.0982500E+00  0.0000000E+00
 1.1097500E+00  0.0000000E+00
 1.1212500E+00  0.0000000E+00
 1.1327500E+00  0.0000000E+00
 1.1442500E+00  0.0000000E+00
 1.1557500E+00  0.0000000E+00
 1.1672500E+00  0.0000000E+00
 1.1787500E+00  0.0000000E+00
 1.1902500E+00  0.0000000E+00
 1.2017500E+00  0.0000000E+00
 1.2132500E+00  0.0000000E+00
 1.2247500E+00  0.0000000E+00
 1.2362500E+00  0.0000000E+00
 1.2477500E+00  0.0000000E+00
 1.2592500E+00  0.0000000E+00
 1.2707500E+00  0.0000000E+00
 1.2822500E+00  0.0000000E+00
 1.2937500E+00  0.0000000E+00
 1.3052500E+00  0.0000000E+00
 1.3167500E+00  0.0000000E+00
 1.3282501E+00  0.0000000E+00
 1.3397501E+00  0.0000000E+00
 1.3512501E+00  0.0000000E+00
 1.3627501E+00  0.0000000E+00
 1.3742501E+00  0.0000000E+00
 1.3857501E+00  0.0000000E+00
 1.3972501E+00  0.0000000E+00
 1.4087501E+00  0.0000000E+00
 1.4202501E+00  0.0000000E+00
 1.4317501E+00  0.0000000E+00
 1.4432501E+00  0.0000000E+00
 1.4547501E+00  0.0000000E+00
 1.4662501E+00  0.0000000E+00
 1.4777501E+00  0.0000000E+00
 1.4892501E+00  0.0000000E+00
 1.5007501E+00  0.0000000E+00
 1.5122501E+00  0.0000000E+00
 1.5237501E+00  0.0000000E+00
 1.5352501E+00  0.0000000E+00
 1.5467501E+00  0.0000000E+00
 1.5582501E+00  0.0000000E+00
 1.5697501E+00  0.0000000E+00
 1.5812501E+00  0.0000000E+00
 1.5927501E+00  0.0000000E+00
 1.6042501E+00  0.0000000E+00
 1.6157501E+00  0.0000000E+00
 1.6272501E+00  0.0000000E+00
 1.6387501E+00  0.0000000E+00
 1.6502501E+00  0.0000000E+00
 1.6617501E+00  0.0000000E+00
 1.6732501E+00  0.0000000E+00
 1.6847501E+00  0.0000000E+00
 1.6962501E+00  0.0000000E+00
 1.7077501E+00  0.0000000E+00
 1.7192501E+00  0.0000000E+00
 1.7307501E+00  0.0000000E+00
 1.7422501E+00  0.0000000E+00
 1.7537501E+00  0.0000000E+00
 1.7652501E+00  0.0000000E+00
 1.7767501E+00  0.0000000E+00
 1.7882501E+00  0.0000000E+00
 1.7997501E+00  0.0000000E+00
 1.8112501E+00  0.0000000E+00
 1.8227501E+00  0.0000000E+00
 1.8342501E+00  0.0000000E+00
 1.8457501E+00  0.0000000E+00
 1.8572501E+00  0.0000000E+00
 1.8687501E+00  0.0000000E+00
 1.8802501E+00  0.0000000E+00
 1.8917501E+00  0.0000000E+00
 1.9032501E+00  0.0000000E+00
 1.9147501E+00  0.0000000E+00
 1.9262501E+00  0.0000000E+00
 1.9377501E+00  0.0000000E+00
 1.9492501E+00  0.0000000E+00
 1.9607501E+00  0.0000000E+00
 1.9722501E+00  0.0000000E+00
 1.9837501E+00  0.0000000E+00
 1.9952501E+00  0.0000000E+00
 2.0067501E+00  0.0000000E+00
 2.0182500E+00  0.0000000E+00
 2.0297501E+00  0.0000000E+00
 2.0412500E+00  0.0000000E+00
 2.0527501E+00  0.0000000E+00
 2.0642500E+00  0.0000000E+00
 2.0757501E+00  0.0000000E+00
 2.0872500E+00  0.0000000E+00
 2.0987501E+00  0.0000000E+00
 2.1102500E+00  0.0000000E+00
 2.1217501E+00  0.0000000E+00
 2.1332500E+00  0.0000000E+00
 2.1447501E+00  0.0000000E+00
 2.1562500E+00  0.0000000E+00
 2.1677501E+00  0.0000000E+00
 2.1792500E+00  0.0000000E+00
 2.1907501E+00  0.0000000E+00
 2.2022500E+00  0.0000000E+00
 2.2137501E+00  0.0000000E+00
 2.2252500E+00  0.0000000E+00
 2.2367501E+00  0.0000000E+00
 2.2482500E+00  0.0000000E+00
 2.2597501E+00  0.0000000E+00
 2.2712500E+00  0.0000000E+00
 2.2827501E+00  0.0000000E+00
 2.2942500E+00  0.0000000E+00
 2.3057501E+00  0.0000000E+00
 2.3172500E+00  0.0000000E+00
 2.3287501E+00  0.0000000E+00
 2.3402500E+00  0.0000000E+00
 2.3517501E+00  0.0000000E+00
 2.3632500E+00  0.0000000E+00
 2.3747501E+00  0.0000000E+00
 2.3862500E+00  0.0000000E+00
 2.3977501E+00  0.0000000E+00
 2.4092500E+00  0.0000000E+00
 2.4207501E+00  0.0000000E+00
 2.4322500E+00  0.0000000E+00
 2.4437501E+00  0.0000000E+00
 2.4552500E+00  0.0000000E+00
 2.4667501E+00  0.0000000E+00
 2.4782500E+00  0.0000000E+00
 2.4897501E+00  0.0000000E+00
 2.5012500E+00  0.0000000E+00
 2.5127501E+00  0.0000000E+00
 2.5242500E+00  0.0000000E+00
 2.5357502E+00  0.0000000E+00
 2.5472500E+00  0.0000000E+00
 2.5587502E+00  0.0000000E+00
 2.5702500E+00  0.0000000E+00
 2.5817502E+00  0.0000000E+00
 2.5932500E+00  0.0000000E+00
 2.6047502E+00  0.0000000E+00
 2.6162500E+00  0.0000000E+00
 2.6277502E+00  0.0000000E+00
 2.6392500E+00  0.0000000E+00
 2.6507502E+00  0.0000000E+00
 2.6622500E+00  0.0000000E+00
 2.6737502E+00  0.0000000E+00
 2.6852500E+00  0.0000000E+00
 2.6967502E+00  0.0000000E+00
 2.7082500E+00  0.0000000E+00
 2.7197502E+00  0.0000000E+00
 2.7312500E+00  0.0000000E+00
 2.7427502E+00  0.0000000E+00
 2.7542500E+00  0.0000000E+00
 2.7657502E+00  0.0000000E+00
 2.7772501E+00  0.0000000E+00
 2.7887502E+00  0.0000000E+00
 2.8002501E+00  0.0000000E+00
 2.8117502E+00  0.0000000E+00
 2.8232501E+00  3.4549839E+01
 2.8347502E+00  3.3818813E+01
 2.8462501E+00  3.3269222E+01
 2.8577502E+00  3.3657497E+01
 2.8692501E+00  3.4113850E+01
 2.8807502E+00  3.4226368E+01
 2.8922501E+00  3.4274940E+01
 2.9037502E+00  3.4148834E+01
 2.9152501E+00  3.4530724E+01
 2.9267502E+00  3.4607819E+01
 2.9382501E+00  3.4470680E+01
 2.9497502E+00  3.4638836E+01
 2.9612501E+00  3.4588596E+01
 2.9727502E+00  3.4648190E+01
 2.9842501E+00  3.4349503E+01
 2.9957502E+00  3.4643120E+01
 3.0072501E+00  3.5326057E+01
 3.0187502E+00  3.5740856E+01
 3.0302501E+00  3.5696476E+01
 3.0417502E+00  3.5686680E+01
 3.0532501E+00  3.5441811E+01
 3.0647502E+00  3.5575516E+01
 3.0762501E+00  3.5165806E+01
 3.0877502E+00  3.5018620E+01
 3.0992501E+00  3.4772774E+01
 3.1107502E+00  3.4201908E+01
 3.1222501E+00  3.4072842E+01
 3.1337502E+00  3.4198742E+01
 3.1452501E+00  3.4652058E+01
 3.1567502E+00  3.5038330E+01
 3.1682501E+00  3.5283871E+01
 3.1797502E+00  3.5118050E+01
 3.1912501E+00  3.5034328E+01
 3.2027502E+00  3.5001186E+01
 3.2142501E+00  3.5175861E+01
 3.2257502E+00  3.5259621E+01
 3.2372501E+00  3.4966187E+01
 3.2487502E+00  3.4880241E+01
 3.2602501E+00  3.4744640E+01
 3.2717502E+00  3.4991489E+01
 3.2832501E+00  3.5194386E+01
 3.2947502E+00  3.5289917E+01
 3.3062501E+00  3.5249809E+01
 3.3177502E+00  3.4987251E+01
 3.3292501E+00  3.4761066E+01
 3.3407502E+00  3.4456745E+01
 3.3522501E+00  3.4387791E+01
 3.3637502E+00  3.4079395E+01
 3.3752501E+00  3.4032227E+01
 3.3867502E+00  3.3705437E+01
 3.3982501E+00  3.3741966E+01
 3.4097502E+00  3.3840725E+01
 3.4212501E+00  3.3917622E+01
 3.4327502E+00  3.4221577E+01
 3.4442501E+00  3.4179760E+01
 3.4557502E+00  3.4264915E+01
 3.4672501E+00  3.3977875E+01
 3.4787502E+00  3.3929802E+01
 3.4902501E+00  3.3839779E+01
 3.5017502E+00  3.3806355E+01
 3.5132501E+00  3.3562885E+01
 3.5247502E+00  3.3481640E+01
 3.5362501E+00  3.3403866E+01
 3.5477502E+00  3.3207268E+01
 3.5592501E+00  3.3127361E+01
 3.5707502E+00  3.2993710E+01
 3.5822501E+00  3.3072090E+01
 3.5937502E+00  3.3080105E+01
 3.6052501E+00  3.3023201E+01
 3.6167502E+00  3.2921856E+01
 3.6282501E+00  3.2938435E+01
 3.6397502E+00  3.2917324E+01
 3.6512501E+00  3.3045288E+01
 3.6627502E+00  3.2892597E+01
 3.6742501E+00  3.2819221E+01
 3.6857502E+00  3.2735554E+01
 3.6972501E+00  3.2696228E+01
 3.7087502E+00  3.2467445E+01
 3.7202501E+00  3.2529339E+01
 3.7317502E+00  3.2449219E+01
 3.7432501E+00  3.2607605E+01
 3.7547503E+00  3.2510849E+01
 3.7662501E+00  3.2877445E+01
 3.7777503E+00  3.2909794E+01
 3.7892501E+00  3.3012806E+01
 3.8007503E+00  3.2579433E+01
 3.8122501E+00  3.2789070E+01
 3.8237503E+00  3.2703949E+01
 3.8352501E+00  3.2742371E+01
 3.8467503E+00  3.2454380E+01
 3.8582501E+00  3.2420361E+01
 3.8697503E+00  3.2270416E+01
 3.8812501E+00  3.2133163E+01
 3.8927503E+00  3.1875153E+01
 3.9042501E+00  3.1862465E+01
 3.9157503E+00  3.1904697E+01
 3.9272501E+00  3.1879612E+01
 3.9387503E+00  3.1914820E+01
 3.9502501E+00  3.2012375E+01
 3.9617503E+00  3.2147568E+01
 3.9732502E+00  3.2452518E+01
 3.9847503E+00  3.2619259E+01
 3.9962502E+00  3.2832127E+01
 4.0077500E+00  3.2920311E+01
 4.0192504E+00  3.2888008E+01
 4.0307503E+00  3.2832382E+01
 4.0422502E+00  3.2754002E+01
 4.0537500E+00  3.2497238E+01
 4.0652504E+00  3.2331017E+01
 4.0767503E+00  3.2086830E+01
 4.0882502E+00  3.2191807E+01
 4.0997500E+00  3.2263313E+01
 4.1112504E+00  3.2512142E+01
 4.1227503E+00  3.2391335E+01
 4.1342502E+00  3.2542625E+01
 4.1457500E+00  3.2485565E+01
 4.1572504E+00  3.2518082E+01
 4.1687503E+00  3.2322483E+01
 4.1802502E+00  3.2001095E+01
 4.1917500E+00  3.1803724E+01
 4.2032504E+00  3.1596138E+01
 4.2147503E+00  3.1415455E+01
 4.2262502E+00  3.1345589E+01
 4.2377501E+00  3.1511332E+01
 4.2492504E+00  3.1609903E+01
 4.2607503E+00  3.1899679E+01
 4.2722502E+00  3.1833544E+01
 4.2837501E+00  3.2120567E+01
 4.2952504E+00  3.2052883E+01
 4.3067503E+00  3.2132671E+01
 4.3182502E+00  3.2009636E+01
 4.3297501E+00  3.2011913E+01
 4.3412504E+00  3.1922947E+01
 4.3527503E+00  3.1856544E+01
 4.3642502E+00  3.1810108E+01
 4.3757501E+00  3.2019653E+01
 4.3872504E+00  3.2132088E+01
 4.3987503E+00  3.2287273E+01
 4.4102502E+00  3.2244637E+01
 4.4217501E+00  3.2179050E+01
 4.4332504E+00  3.2173813E+01
 4.4447503E+00  3.2042400E+01
 4.4562502E+00  3.2086731E+01
 4.4677501E+00  3.2094673E+01
 4.4792504E+00  3.2237743E+01
 4.4907503E+00  3.2248413E+01
 4.5022502E+00  3.2230457E+01
 4.5137501E+00  3.2028408E+01
 4.5252504E+00  3.2014885E+01
 4.5367503E+00  3.2014603E+01
 4.5482502E+00  3.2157673E+01
 4.5597501E+00  3.2303699E+01
 4.5712504E+00  3.2418842E+01
 4.5827503E+00  3.2609562E+01
 4.5942502E+00  3.2652855E+01
 4.6057501E+00  3.2644344E+01
 4.6172504E+00  3.2684441E+01
 4.6287503E+00  3.2579967E+01
 4.6402502E+00  3.2661465E+01
 4.6517501E+00  3.2648819E+01
 4.6632504E+00  3.2757309E+01
 4.6747503E+00  3.2812916E+01
 4.6862502E+00  3.2844246E+01
 4.6977501E+00  3.2910683E+01
 4.7092505E+00  3.2887825E+01
 4.7207503E+00  3.2763851E+01
 4.7322502E+00  3.2497471E+01
 4.7437501E+00  3.2338451E+01
 4.7552505E+00  3.2231510E+01
 4.7667503E+00  3.2249931E+01
 4.7782502E+00  3.2251778E+01
 4.7897501E+00  3.2336082E+01
 4.8012505E+00  3.2457165E+01
 4.8127503E+00  3.2569828E+01
 4.8242502E+00  3.2547386E+01
 4.8357501E+00  3.2560608E+01
 4.8472505E+00  3.2547318E+01
 4.8587503E+00  3.2685196E+01
 4.8702502E+00  3.2712067E+01
 4.8817501E+00  3.2813114E+01
 4.8932505E+00  3.2849884E+01
 4.9047503E+00  3.2894337E+01
 4.9162502E+00  3.3095432E+01
 4.9277501E+00  3.3156696E+01
 4.9392505E+00  3.3248878E+01
 4.9507504E+00  3.3092621E+01
 4.9622502E+00  3.2953903E+01
 4.9737501E+00  3.2854481E+01
 4.9852505E+00  3.2887917E+01
 4.9967504E+00  3.2907364E+01
 5.0082502E+00  3.2934223E+01
 5.0197501E+00  3.2885513E+01
 5.0312505E+00  3.2877911E+01
 5.0427504E+00  3.2993900E+01
 5.0542502E+00  3.2991127E+01
 5.0657501E+00  3.3024666E+01
 5.0772505E+00  3.2973537E+01
 5.0887504E+00  3.2931202E+01
 5.1002502E+00  3.2978966E+01
 5.1117501E+00  3.3048721E+01
 5.1232505E+00  3.3235943E+01
 5.1347504E+00  3.3425922E+01
 5.1462502E+00  3.3551945E+01
 5.1577501E+00  3.3668369E+01
 5.1692505E+00  3.3708485E+01
 5.1807504E+00  3.3852863E+01
 5.1922503E+00  3.3960739E+01
 5.2037501E+00  3.4114525E+01
 5.2152505E+00  3.4046432E+01
 5.2267504E+00  3.4045624E+01
 5.2382503E+00  3.4034782E+01
 5.2497501E+00  3.3914734E+01
 5.2612505E+00  3.3774590E+01
 5.2727504E+00  3.3529346E+01
 5.2842503E+00  3.3590256E+01
 5.2957501E+00  3.3680500E+01
 5.3072500E+00  3.3808193E+01
 5.3187504E+00  3.3995380E+01
 5.3302503E+00  3.4033237E+01
 5.3417501E+00  3.4199272E+01
 5.3532500E+00  3.4178814E+01
 5.3647504E+00  3.4195473E+01
 5.3762503E+00  3.4157158E+01
 5.3877501E+00  3.4202011E+01
 5.3992500E+00  3.4287766E+01
 5.4107504E+00  3.4326851E+01
 5.4222503E+00  3.4390728E+01
 5.4337502E+00  3.4318752E+01
 5.4452500E+00  3.4416290E+01
 5.4567504E+00  3.4465515E+01
 5.4682503E+00  3.4721893E+01
 5.4797502E+00  3.4841946E+01
 5.4912500E+00  3.4934475E+01
 5.5027504E+00  3.4999466E+01
 5.5142503E+00  3.5003754E+01
 5.5257502E+00  3.4994255E+01
 5.5372500E+00  3.4897076E+01
 5.5487504E+00  3.4854042E+01
 5.5602503E+00  3.4868893E+01
 5.5717502E+00  3.4893291E+01
 5.5832500E+00  3.4924271E+01
 5.5947504E+00  3.4998024E+01
 5.6062503E+00  3.4983128E+01
 5.6177502E+00  3.5015282E+01
 5.6292500E+00  3.4910496E+01
 5.6407504E+00  3.4806057E+01
 5.6522503E+00  3.4761723E+01
 5.6637502E+00  3.4833981E+01
 5.6752501E+00  3.5028000E+01
 5.6867504E+00  3.5172390E+01
 5.6982503E+00  3.5182667E+01
 5.7097502E+00  3.5286758E+01
 5.7212501E+00  3.5366493E+01
 5.7327504E+00  3.5485012E+01
 5.7442503E+00  3.5587212E+01
 5.7557502E+00  3.5701786E+01
 5.7672501E+00  3.5651741E+01
 5.7787504E+00  3.5753689E+01
 5.7902503E+00  3.5675194E+01
 5.8017502E+00  3.5754585E+01
 5.8132501E+00  3.5619209E+01
 5.8247504E+00  3.5812763E+01
 5.8362503E+00  3.5901928E+01
 5.8477502E+00  3.6095318E+01
 5.8592501E+00  3.6080494E+01
 5.8707504E+00  3.6232960E+01
 5.8822503E+00  3.6471077E+01
 5.8937502E+00  3.6858566E+01
 5.9052501E+00  3.7485123E+01
 5.9167504E+00  3.8552704E+01
 5.9282503E+00  3.9620773E+01
 5.9397502E+00  4.2994099E+01
 5.9512501E+00  4.6982422E+01
 5.9627504E+00  4.9912258E+01
 5.9742503E+00  5.6493572E+01
 5.9857502E+00  5.8848015E+01
 5.9972501E+00  5.9598236E+01
 6.0087504E+00  5.6884109E+01
 6.0202503E+00  5.1193947E+01
 6.0317502E+00  4.8107178E+01
 6.0432501E+00  4.2492432E+01
 6.0547504E+00  4.0105587E+01
 6.0662503E+00  3.8896481E+01
 6.0777502E+00  3.7670834E+01
 6.0892501E+00  3.7275192E+01
 6.1007504E+00  3.7179226E+01
 6.1122503E+00  3.6992336E+01
 6.1237502E+00  3.7004169E+01
 6.1352501E+00  3.6884556E+01
 6.1467505E+00  3.6842648E+01
 6.1582503E+00  3.6801102E+01
 6.1697502E+00  3.6823048E+01
 6.1812501E+00  3.6941483E+01
 6.1927505E+00  3.7023220E+01
 6.2042503E+00  3.6945484E+01
 6.2157502E+00  3.6886745E+01
 6.2272501E+00  3.6866867E+01
 6.2387505E+00  3.6903557E+01
 6.2502503E+00  3.6912556E+01
 6.2617502E+00  3.6991047E+01
 6.2732501E+00  3.7034885E+01
 6.2847505E+00  3.7234840E+01
 6.2962503E+00  3.7236549E+01
 6.3077502E+00  3.7303658E+01
 6.3192501E+00  3.7281643E+01
 6.3307505E+00  3.7488453E+01
 6.3422503E+00  3.7602821E+01
 6.3537502E+00  3.7745644E+01
 6.3652501E+00  3.7775013E+01
 6.3767505E+00  3.7778957E+01
 6.3882504E+00  3.7822128E+01
 6.3997502E+00  3.7781933E+01
 6.4112501E+00  3.7841824E+01
 6.4227505E+00  3.7785557E+01
 6.4342504E+00  3.7817142E+01
 6.4457502E+00  3.7930687E+01
 6.4572501E+00  3.8005493E+01
 6.4687505E+00  3.8091042E+01
 6.4802504E+00  3.8118214E+01
 6.4917502E+00  3.8246365E+01
 6.5032501E+00  3.8373486E+01
 6.5147505E+00  3.8546864E+01
 6.5262504E+00  3.8674458E+01
 6.5377502E+00  3.8843754E+01
 6.5492501E+00  3.8941456E+01
 6.5607505E+00  3.8986919E+01
 6.5722504E+00  3.9004539E+01
 6.5837502E+00  3.8987988E+01
 6.5952501E+00  3.8931995E+01
 6.6067505E+00  3.9048767E+01
 6.6182504E+00  3.9164581E+01
 6.6297503E+00  3.9415791E+01
 6.6412501E+00  3.9543678E+01
 6.6527505E+00  3.9735321E+01
 6.6642504E+00  3.9901028E+01
 6.6757503E+00  4.0062954E+01
 6.6872501E+00  4.0175213E+01
 6.6987505E+00  4.0216721E+01
 6.7102504E+00  4.0249256E+01
 6.7217503E+00  4.0204601E+01
 6.7332501E+00  4.0123302E+01
 6.7447505E+00  4.0106907E+01
 6.7562504E+00  4.0209366E+01
 6.7677503E+00  4.0368961E+01
 6.7792501E+00  4.0470387E+01
 6.7907505E+00  4.0429588E+01
 6.8022504E+00  4.0445732E+01
 6.8137503E+00  4.0479313E+01
 6.8252501E+00  4.0652584E+01
 6.8367505E+00  4.0832245E+01
 6.8482504E+00  4.0910858E+01
 6.8597503E+00  4.1017643E+01
 6.8712502E+00  4.0980846E+01
 6.8827505E+00  4.1082695E+01
 6.8942504E+00  4.1134922E+01
 6.9057503E+00  4.1238247E+01
 6.9172502E+00  4.1318169E+01
 6.9287505E+00  4.1245674E+01
 6.9402504E+00  4.1351780E+01
 6.9517503E+00  4.1443264E+01
 6.9632502E+00  4.1530811E+01
 6.9747505E+00  4.1574997E+01
 6.9862504E+00  4.1661083E+01
 6.9977503E+00  4.1694695E+01
 7.0092502E+00  4.1787674E+01
 7.0207505E+00  4.1905849E+01
 7.0322504E+00  4.2035000E+01
 7.0437503E+00  4.2089996E+01
 7.0552502E+00  4.2097713E+01
 7.0667505E+00  4.2138557E+01
 7.0782504E+00  4.2159687E+01
 7.0897503E+00  4.2187847E+01
 7.1012502E+00  4.2319050E+01
 7.1127505E+00  4.2411076E+01
 7.1242504E+00  4.2545906E+01
 7.1357503E+00  4.2682297E+01
 7.1472502E+00  4.2883041E+01
 7.1587505E+00  4.2952305E+01
 7.1702504E+00  4.2850609E+01
 7.1817503E+00  4.2846634E+01
 7.1932502E+00  4.2843689E+01
 7.2047505E+00  4.2900482E+01
 7.2162504E+00  4.2879215E+01
 7.2277503E+00  4.3051346E+01
 7.2392502E+00  4.3192421E+01
 7.2507505E+00  4.3418175E+01
 7.2622504E+00  4.3353657E+01
 7.2737503E+00  4.3338131E+01
 7.2852502E+00  4.3206673E+01
 7.2967505E+00  4.3076401E+01
 7.3082504E+00  4.3032551E+01
 7.3197503E+00  4.3021114E+01
 7.3312502E+00  4.3185760E+01
 7.3427505E+00  4.3268349E+01
 7.3542504E+00  4.3321686E+01
 7.3657503E+00  4.3443207E+01
 7.3772502E+00  4.3522369E+01
 7.3887506E+00  4.3570908E+01
 7.4002504E+00  4.3461704E+01
 7.4117503E+00  4.3608772E+01
 7.4232502E+00  4.3636452E+01
 7.4347506E+00  4.3729343E+01
 7.4462504E+00  4.3697697E+01
 7.4577503E+00  4.3729927E+01
 7.4692502E+00  4.3754494E+01
 7.4807506E+00  4.3670525E+01
 7.4922504E+00  4.3709419E+01
 7.5037503E+00  4.3826298E+01
 7.5152502E+00  4.3862213E+01
 7.5267506E+00  4.3929909E+01
 7.5382504E+00  4.3843487E+01
 7.5497503E+00  4.3857380E+01
 7.5612502E+00  4.3858822E+01
 7.5727506E+00  4.3852596E+01
 7.5842505E+00  4.3870235E+01
 7.5957503E+00  4.3821991E+01
 7.6072502E+00  4.3890507E+01
 7.6187506E+00  4.3980293E+01
 7.6302505E+00  4.3973019E+01
 7.6417503E+00  4.3942539E+01
 7.6532502E+00  4.3808865E+01
 7.6647506E+00  4.3788986E+01
 7.6762505E+00  4.3768124E+01
 7.6877503E+00  4.3742668E+01
 7.6992502E+00  4.3684608E+01
 7.7107506E+00  4.3612503E+01
 7.7222505E+00  4.3585766E+01
 7.7337503E+00  4.3590214E+01
 7.7452502E+00  4.3573193E+01
 7.7567506E+00  4.3666817E+01
 7.7682505E+00  4.3717636E+01
 7.7797503E+00  4.3780273E+01
 7.7912502E+00  4.3699966E+01
 7.8027506E+00  4.3626148E+01
 7.8142505E+00  4.3619637E+01
 7.8257504E+00  4.3590988E+01
 7.8372502E+00  4.3709641E+01
 7.8487506E+00  4.3715881E+01
 7.8602505E+00  4.3805347E+01
 7.8717504E+00  4.3748100E+01
 7.8832502E+00  4.3632813E+01
 7.8947506E+00  4.3501106E+01
 7.9062505E+00  4.3430809E+01
 7.9177504E+00  4.3364697E+01
 7.9292502E+00  4.3345840E+01
 7.9407506E+00  4.3265202E+01
 7.9522505E+00  4.3291538E+01
 7.9637504E+00  4.3173763E+01
 7.9752502E+00  4.3129910E+01
 7.9867506E+00  4.3125664E+01
 7.9982505E+00  4.3146156E+01
 8.0097504E+00  4.3126122E+01
 8.0212507E+00  4.3024036E+01
 8.0327501E+00  4.2988098E+01
 8.0442505E+00  4.2957687E+01
 8.0557508E+00  4.2903385E+01
 8.0672503E+00  4.2731636E+01
 8.0787506E+00  4.2572720E+01
 8.0902500E+00  4.2469540E+01
 8.1017504E+00  4.2418987E+01
 8.1132507E+00  4.2412857E+01
 8.1247501E+00  4.2215824E+01
 8.1362505E+00  4.2051712E+01
 8.1477509E+00  4.1909443E+01
 8.1592503E+00  4.1798595E+01
 8.1707506E+00  4.1846600E+01
 8.1822500E+00  4.1760994E+01
 8.1937504E+00  4.1820980E+01
 8.2052507E+00  4.1651131E+01
 8.2167501E+00  4.1444298E+01
 8.2282505E+00  4.1244053E+01
 8.2397509E+00  4.1110535E+01
 8.2512503E+00  4.1013290E+01
 8.2627506E+00  4.0879635E+01
 8.2742500E+00  4.0827370E+01
 8.2857504E+00  4.0705158E+01
 8.2972507E+00  4.0587429E+01
 8.3087502E+00  4.0372036E+01
 8.3202505E+00  4.0297291E+01
 8.3317509E+00  4.0039986E+01
 8.3432503E+00  3.9868320E+01
 8.3547506E+00  3.9607128E+01
 8.3662500E+00  3.9501099E+01
 8.3777504E+00  3.9323414E+01
 8.3892508E+00  3.9270138E+01
 8.4007502E+00  3.9189308E+01
 8.4122505E+00  3.9096409E+01
 8.4237509E+00  3.8899193E+01
 8.4352503E+00  3.8623951E+01
 8.4467506E+00  3.8367661E+01
 8.4582500E+00  3.8105297E+01
 8.4697504E+00  3.7935997E+01
 8.4812508E+00  3.7743347E+01
 8.4927502E+00  3.7665657E+01
 8.5042505E+00  3.7574501E+01
 8.5157509E+00  3.7480259E+01
 8.5272503E+00  3.7258995E+01
 8.5387506E+00  3.7092739E+01
 8.5502501E+00  3.6852043E+01
 8.5617504E+00  3.6651123E+01
 8.5732508E+00  3.6427731E+01
 8.5847502E+00  3.6329926E+01
 8.5962505E+00  3.6133438E+01
 8.6077509E+00  3.6021416E+01
 8.6192503E+00  3.5902245E+01
 8.6307507E+00  3.5847725E+01
 8.6422501E+00  3.5590485E+01
 8.6537504E+00  3.5349419E+01
 8.6652508E+00  3.5166729E+01
 8.6767502E+00  3.5042202E+01
 8.6882505E+00  3.4988323E+01
 8.6997509E+00  3.4995033E+01
 8.7112503E+00  3.4861057E+01
 8.7227507E+00  3.4761440E+01
 8.7342501E+00  3.4352924E+01
 8.7457504E+00  3.4165432E+01
 8.7572508E+00  3.3852665E+01
 8.7687502E+00  3.3676735E+01
 8.7802505E+00  3.3512386E+01
 8.7917500E+00  3.3318542E+01
 8.8032503E+00  3.3200233E+01
 8.8147507E+00  3.3021240E+01
 8.8262501E+00  3.2838665E+01
 8.8377504E+00  3.2637299E+01
 8.8492508E+00  3.2445133E+01
 8.8607502E+00  3.2246170E+01
 8.8722506E+00  3.2066372E+01
 8.8837500E+00  3.1900661E+01
 8.8952503E+00  3.1733242E+01
 8.9067507E+00  3.1611788E+01
 8.9182501E+00  3.1516499E+01
 8.9297504E+00  3.1426432E+01
 8.9412508E+00  3.1255537E+01
 8.9527502E+00  3.1123394E+01
 8.9642506E+00  3.0954584E+01
 8.9757500E+00  3.0764776E+01
 8.9872503E+00  3.0620279E+01
 8.9987507E+00  3.0446398E+01
 9.0102501E+00  3.0427021E+01
 9.0217505E+00  3.0315784E+01
 9.0332508E+00  3.0281626E+01
 9.0447502E+00  3.0203283E+01
 9.0562506E+00  3.0166054E+01
 9.0677500E+00  3.0071320E+01
 9.0792503E+00  2.9966686E+01
 9.0907507E+00  2.9808386E+01
 9.1022501E+00  2.9707331E+01
 9.1137505E+00  2.9730387E+01
 9.1252508E+00  2.9652264E+01
 9.1367502E+00  2.9857641E+01
 9.1482506E+00  2.9600439E+01
 9.1597500E+00  2.9333143E+01
 9.1712503E+00  2.8868956E+01
 9.1827507E+00  2.8724804E+01
 9.1942501E+00  2.8587572E+01
 9.2057505E+00  2.8423992E+01
 9.2172508E+00  2.8330732E+01
 9.2287502E+00  2.8233541E+01
 9.2402506E+00  2.8183695E+01
 9.2517500E+00  2.8033319E+01
 9.2632504E+00  2.8003410E+01
 9.2747507E+00  2.7914974E+01
 9.2862501E+00  2.7772163E+01
 9.2977505E+00  2.7633856E+01
 9.3092508E+00  2.7468821E+01
 9.3207502E+00  2.7300493E+01
 9.3322506E+00  2.7162460E+01
 9.3437500E+00  2.7016117E+01
 9.3552504E+00  2.6924124E+01
 9.3667507E+00  2.6869402E+01
 9.3782501E+00  2.6852152E+01
 9.3897505E+00  2.6848896E+01
 9.4012508E+00  2.6789200E+01
 9.4127502E+00  2.6728727E+01
 9.4242506E+00  2.6676306E+01
 9.4357500E+00  2.6632177E+01
 9.4472504E+00  2.6580559E+01
 9.4587507E+00  2.6521107E+01
 9.4702501E+00  2.6483128E+01
 9.4817505E+00  2.6467346E+01
 9.4932508E+00  2.6406300E+01
 9.5047503E+00  2.6304321E+01
 9.5162506E+00  2.6217632E+01
 9.5277500E+00  2.6172314E+01
 9.5392504E+00  2.6146608E+01
 9.5507507E+00  2.6052099E+01
 9.5622501E+00  2.5976824E+01
 9.5737505E+00  2.5822142E+01
 9.5852509E+00  2.5738369E+01
 9.5967503E+00  2.5634590E+01
 9.6082506E+00  2.5742289E+01
 9.6197500E+00  2.5773016E+01
 9.6312504E+00  2.5745335E+01
 9.6427507E+00  2.5715067E+01
 9.6542501E+00  2.5559593E+01
 9.6657505E+00  2.5499966E+01
 9.6772509E+00  2.5286444E+01
 9.6887503E+00  2.5227983E+01
 9.7002506E+00  2.5201572E+01
 9.7117500E+00  2.5221214E+01
 9.7232504E+00  2.5309057E+01
 9.7347507E+00  2.5306526E+01
 9.7462502E+00  2.5283718E+01
 9.7577505E+00  2.5174665E+01
 9.7692509E+00  2.5116318E+01
 9.7807503E+00  2.5013330E+01
 9.7922506E+00  2.4983189E+01
 9.8037500E+00  2.4934641E+01
 9.8152504E+00  2.4930958E+01
 9.8267508E+00  2.4879059E+01
 9.8382502E+00  2.4844009E+01
 9.8497505E+00  2.4771059E+01
 9.8612509E+00  2.4669481E+01
 9.8727503E+00  2.4597897E+01
 9.8842506E+00  2.4543207E+01
 9.8957500E+00  2.4553581E+01
 9.9072504E+00  2.4526453E+01
 9.9187508E+00  2.4537172E+01
 9.9302502E+00  2.4546318E+01
 9.9417505E+00  2.4543226E+01
 9.9532509E+00  2.4477856E+01
 9.9647503E+00  2.4473228E+01
 9.9762506E+00  2.4412342E+01
 9.9877501E+00  2.4330299E+01
 9.9992504E+00  2.4181480E+01
 1.0010751E+01  2.4087694E+01
 1.0022250E+01  2.4035753E+01
 1.0033751E+01  2.4022867E+01
 1.0045251E+01  2.3995611E+01
 1.0056750E+01  2.4044348E+01
 1.0068251E+01  2.4062176E+01
 1.0079750E+01  2.4032078E+01
 1.0091250E+01  2.3952860E+01
 1.0102751E+01  2.3867844E+01
 1.0114250E+01  2.3868710E+01
 1.0125751E+01  2.3879827E+01
 1.0137251E+01  2.3834810E+01
 1.0148750E+01  2.3836630E+01
 1.0160251E+01  2.3827032E+01
 1.0171750E+01  2.3802401E+01
 1.0183250E+01  2.3794453E+01
 1.0194751E+01  2.3750696E+01
 1.0206250E+01  2.3753857E+01
 1.0217751E+01  2.3689745E+01
 1.0229251E+01  2.3641132E+01
 1.0240750E+01  2.3599335E+01
 1.0252251E+01  2.3546614E+01
 1.0263750E+01  2.3518400E+01
 1.0275250E+01  2.3495085E+01
 1.0286751E+01  2.3475649E+01
 1.0298250E+01  2.3485271E+01
 1.0309751E+01  2.3493181E+01
 1.0321251E+01  2.3459181E+01
 1.0332750E+01  2.3386467E+01
 1.0344251E+01  2.3272526E+01
 1.0355750E+01  2.3219103E+01
 1.0367250E+01  2.3125463E+01
 1.0378751E+01  2.3121086E+01
 1.0390250E+01  2.3179926E+01
 1.0401751E+01  2.3234121E+01
 1.0413251E+01  2.3251032E+01
 1.0424750E+01  2.3202772E+01
 1.0436251E+01  2.3192209E+01
 1.0447750E+01  2.3142595E+01
 1.0459250E+01  2.3154993E+01
 1.0470751E+01  2.3150557E+01
 1.0482250E+01  2.3178213E+01
 1.0493751E+01  2.3161993E+01
 1.0505251E+01  2.3155094E+01
 1.0516750E+01  2.3205040E+01
 1.0528251E+01  2.3202538E+01
 1.0539750E+01  2.3203608E+01
 1.0551250E+01  2.3182394E+01
 1.0562751E+01  2.3177027E+01
 1.0574250E+01  2.3137138E+01
 1.0585751E+01  2.3055916E+01
 1.0597251E+01  2.2988535E+01
 1.0608750E+01  2.2962801E+01
 1.0620251E+01  2.2963366E+01
 1.0631750E+01  2.2949596E+01
 1.0643250E+01  2.2905157E+01
 1.0654751E+01  2.2891130E+01
 1.0666250E+01  2.2847166E+01
 1.0677751E+01  2.2793201E+01
 1.0689251E+01  2.2765966E+01
 1.0700750E+01  2.2795135E+01
 1.0712251E+01  2.2841997E+01
 1.0723750E+01  2.2867735E+01
 1.0735250E+01  2.2840523E+01
 1.0746751E+01  2.2826323E+01
 1.0758250E+01  2.2789450E+01
 1.0769751E+01  2.2772097E+01
 1.0781251E+01  2.2792810E+01
 1.0792750E+01  2.2877489E+01
 1.0804251E+01  2.2898468E+01
 1.0815750E+01  2.2923424E+01
 1.0827250E+01  2.2833197E+01
 1.0838751E+01  2.2793762E+01
 1.0850250E+01  2.2755941E+01
 1.0861751E+01  2.2734997E+01
 1.0873251E+01  2.2728928E+01
 1.0884750E+01  2.2633423E+01
 1.0896251E+01  2.2551582E+01
 1.0907750E+01  2.2508156E+01
 1.0919250E+01  2.2538361E+01
 1.0930751E+01  2.2567789E+01
 1.0942250E+01  2.2587620E+01
 1.0953751E+01  2.2603750E+01
 1.0965251E+01  2.2572113E+01
 1.0976750E+01  2.2601332E+01
 1.0988251E+01  2.2582899E+01
 1.0999750E+01  2.2581570E+01
 1.1011250E+01  2.2549423E+01
 1.1022751E+01  2.2550518E+01
 1.1034250E+01  2.2567478E+01
 1.1045751E+01  2.2525112E+01
 1.1057251E+01  2.2473293E+01
 1.1068750E+01  2.2480625E+01
 1.1080251E+01  2.2499603E+01
 1.1091750E+01  2.2500412E+01
 1.1103251E+01  2.2491135E+01
 1.1114751E+01  2.2517166E+01
 1.1126250E+01  2.2532864E+01
 1.1137751E+01  2.2575895E+01
 1.1149251E+01  2.2623079E+01
 1.1160750E+01  2.2659771E+01
 1.1172251E+01  2.2688408E+01
 1.1183750E+01  2.2656988E+01
 1.1195251E+01  2.2756241E+01
 1.1206751E+01  2.2757896E+01
 1.1218250E+01  2.2729496E+01
 1.1229751E+01  2.2591944E+01
 1.1241251E+01  2.2518250E+01
 1.1252750E+01  2.2420263E+01
 1.1264251E+01  2.2392000E+01
 1.1275750E+01  2.2343266E+01
 1.1287251E+01  2.2364447E+01
 1.1298751E+01  2.2375854E+01
 1.1310250E+01  2.2410273E+01
 1.1321751E+01  2.2485727E+01
 1.1333251E+01  2.2501623E+01
 1.1344750E+01  2.2497335E+01
 1.1356251E+01  2.2503338E+01
 1.1367750E+01  2.2515726E+01
 1.1379251E+01  2.2549410E+01
 1.1390751E+01  2.2518530E+01
 1.1402250E+01  2.2569502E+01
 1.1413751E+01  2.2504990E+01
 1.1425251E+01  2.2498175E+01
 1.1436750E+01  2.2478088E+01
 1.1448251E+01  2.2573826E+01
 1.1459750E+01  2.2687477E+01
 1.1471251E+01  2.2732561E+01
 1.1482751E+01  2.2769209E+01
 1.1494250E+01  2.2836042E+01
 1.1505751E+01  2.2942867E+01
 1.1517251E+01  2.3230085E+01
 1.1528750E+01  2.3800949E+01
 1.1540251E+01  2.4371515E+01
 1.1551750E+01  2.6242493E+01
 1.1563251E+01  2.7643328E+01
 1.1574751E+01  2.8801786E+01
 1.1586250E+01  3.0884762E+01
 1.1597751E+01  3.0579323E+01
 1.1609251E+01  3.0809504E+01
 1.1620750E+01  2.8642441E+01
 1.1632251E+01  2.7457447E+01
 1.1643750E+01  2.6061483E+01
 1.1655251E+01  2.4273951E+01
 1.1666751E+01  2.3784895E+01
 1.1678250E+01  2.3157381E+01
 1.1689751E+01  2.2899244E+01
 1.1701251E+01  2.2795626E+01
 1.1712750E+01  2.2660311E+01
 1.1724251E+01  2.2579786E+01
 1.1735750E+01  2.2522917E+01
 1.1747251E+01  2.2507675E+01
 1.1758751E+01  2.2475288E+01
 1.1770250E+01  2.2428963E+01
 1.1781751E+01  2.2434422E+01
 1.1793251E+01  2.2407902E+01
 1.1804750E+01  2.2462732E+01
 1.1816251E+01  2.2478107E+01
 1.1827750E+01  2.2491673E+01
 1.1839251E+01  2.2463579E+01
 1.1850751E+01  2.2387295E+01
 1.1862250E+01  2.2399742E+01
 1.1873751E+01  2.2385942E+01
 1.1885251E+01  2.2414640E+01
 1.1896750E+01  2.2459326E+01
 1.1908251E+01  2.2531906E+01
 1.1919750E+01  2.2679871E+01
 1.1931251E+01  2.2877375E+01
 1.1942751E+01  2.3223295E+01
 1.1954250E+01  2.3640415E+01
 1.1965751E+01  2.3911398E+01
 1.1977251E+01  2.4187613E+01
 1.1988750E+01  2.4288046E+01
 1.2000251E+01  2.4277161E+01
 1.2011750E+01  2.3994377E+01
 1.2023251E+01  2.3677475E+01
 1.2034751E+01  2.3501108E+01
 1.2046250E+01  2.3518528E+01
 1.2057751E+01  2.3626997E+01
 1.2069251E+01  2.3807472E+01
 1.2080750E+01  2.4335558E+01
 1.2092251E+01  2.4655817E+01
 1.2103750E+01  2.4880066E+01
 1.2115251E+01  2.4966969E+01
 1.2126751E+01  2.4776020E+01
 1.2138250E+01  2.4542433E+01
 1.2149751E+01  2.3927971E+01
 1.2161251E+01  2.3532467E+01
 1.2172750E+01  2.3164730E+01
 1.2184251E+01  2.2857521E+01
 1.2195750E+01  2.2743376E+01
 1.2207251E+01  2.2679441E+01
 1.2218751E+01  2.2581444E+01
 1.2230250E+01  2.2560263E+01
 1.2241751E+01  2.2493706E+01
 1.2253251E+01  2.2492426E+01
 1.2264750E+01  2.2470100E+01
 1.2276251E+01  2.2439011E+01
 1.2287750E+01  2.2444378E+01
 1.2299251E+01  2.2454855E+01
 1.2310751E+01  2.2495499E+01
 1.2322250E+01  2.2426712E+01
 1.2333751E+01  2.2422417E+01
 1.2345250E+01  2.2364386E+01
 1.2356750E+01  2.2422405E+01
 1.2368251E+01  2.2410479E+01
 1.2379750E+01  2.2419607E+01
 1.2391251E+01  2.2445518E+01
 1.2402751E+01  2.2438091E+01
 1.2414250E+01  2.2456707E+01
 1.2425751E+01  2.2441000E+01
 1.2437250E+01  2.2427431E+01
 1.2448750E+01  2.2401234E+01
 1.2460251E+01  2.2391899E+01
 1.2471750E+01  2.2442883E+01
 1.2483251E+01  2.2482538E+01
 1.2494751E+01  2.2489647E+01
 1.2506250E+01  2.2519430E+01
 1.2517751E+01  2.2607510E+01
 1.2529250E+01  2.2663216E+01
 1.2540751E+01  2.2693613E+01
 1.2552251E+01  2.2674913E+01
 1.2563750E+01  2.2674765E+01
 1.2575251E+01  2.2652504E+01
 1.2586751E+01  2.2642452E+01
 1.2598250E+01  2.2679720E+01
 1.2609751E+01  2.2725334E+01
 1.2621250E+01  2.2787216E+01
 1.2632751E+01  2.2772236E+01
 1.2644251E+01  2.2736921E+01
 1.2655750E+01  2.2673004E+01
 1.2667251E+01  2.2663721E+01
 1.2678751E+01  2.2663366E+01
 1.2690250E+01  2.2720379E+01
 1.2701751E+01  2.2763491E+01
 1.2713250E+01  2.2853077E+01
 1.2724751E+01  2.2881626E+01
 1.2736251E+01  2.2909340E+01
 1.2747750E+01  2.2941359E+01
 1.2759251E+01  2.2982092E+01
 1.2770751E+01  2.3047035E+01
 1.2782250E+01  2.3100477E+01
 1.2793751E+01  2.3121920E+01
 1.2805250E+01  2.3161144E+01
 1.2816751E+01  2.3142736E+01
 1.2828251E+01  2.3240337E+01
 1.2839750E+01  2.3333193E+01
 1.2851251E+01  2.3468758E+01
 1.2862751E+01  2.3467909E+01
 1.2874250E+01  2.3516399E+01
 1.2885751E+01  2.3499540E+01
 1.2897250E+01  2.3524858E+01
 1.2908751E+01  2.3548807E+01
 1.2920251E+01  2.3590065E+01
 1.2931750E+01  2.3623316E+01
 1.2943251E+01  2.3603338E+01
 1.2954751E+01  2.3689461E+01
 1.2966250E+01  2.3773880E+01
 1.2977751E+01  2.3889471E+01
 1.2989250E+01  2.3909082E+01
 1.3000751E+01  2.3956650E+01
 1.3012251E+01  2.3962524E+01
 1.3023750E+01  2.4060785E+01
 1.3035251E+01  2.4105869E+01
 1.3046751E+01  2.4166571E+01
 1.3058250E+01  2.4222759E+01
 1.3069751E+01  2.4301037E+01
 1.3081250E+01  2.4403585E+01
 1.3092751E+01  2.4505791E+01
 1.3104251E+01  2.4643705E+01
 1.3115750E+01  2.4729502E+01
 1.3127251E+01  2.4806288E+01
 1.3138751E+01  2.4948082E+01
 1.3150250E+01  2.5116888E+01
 1.3161751E+01  2.5221769E+01
 1.3173250E+01  2.5350077E+01
 1.3184751E+01  2.5494226E+01
 1.3196251E+01  2.5638262E+01
 1.3207750E+01  2.5746077E+01
 1.3219251E+01  2.5837576E+01
 1.3230751E+01  2.5947935E+01
 1.3242250E+01  2.6079012E+01
 1.3253751E+01  2.6143978E+01
 1.3265250E+01  2.6270452E+01
 1.3276751E+01  2.6360083E+01
 1.3288251E+01  2.6481409E+01
 1.3299750E+01  2.6596478E+01
 1.3311251E+01  2.6678728E+01
 1.3322751E+01  2.6841375E+01
 1.3334250E+01  2.7129337E+01
 1.3345751E+01  2.7365776E+01
 1.3357250E+01  2.7663292E+01
 1.3368751E+01  2.7818722E+01
 1.3380251E+01  2.7958466E+01
 1.3391750E+01  2.8069216E+01
 1.3403251E+01  2.8115244E+01
 1.3414751E+01  2.8253124E+01
 1.3426250E+01  2.8305708E+01
 1.3437751E+01  2.8395679E+01
 1.3449250E+01  2.8481928E+01
 1.3460751E+01  2.8608063E+01
 1.3472251E+01  2.8728125E+01
 1.3483750E+01  2.8861233E+01
 1.3495251E+01  2.8869322E+01
 1.3506751E+01  2.8991076E+01
 1.3518250E+01  2.9122295E+01
 1.3529751E+01  2.9315737E+01
 1.3541250E+01  2.9454624E+01
 1.3552751E+01  2.9530766E+01
 1.3564251E+01  2.9622580E+01
 1.3575750E+01  2.9687002E+01
 1.3587251E+01  2.9704670E+01
 1.3598751E+01  2.9717670E+01
 1.3610250E+01  2.9651724E+01
 1.3621751E+01  2.9620014E+01
 1.3633250E+01  2.9630465E+01
 1.3644751E+01  2.9682625E+01
 1.3656251E+01  2.9676945E+01
 1.3667750E+01  2.9654762E+01
 1.3679251E+01  2.9655756E+01
 1.3690751E+01  2.9697992E+01
 1.3702250E+01  2.9692619E+01
 1.3713751E+01  2.9631346E+01
 1.3725250E+01  2.9578690E+01
 1.3736751E+01  2.9488087E+01
 1.3748251E+01  2.9447296E+01
 1.3759750E+01  2.9409508E+01
 1.3771251E+01  2.9419083E+01
 1.3782751E+01  2.9365026E+01
 1.3794250E+01  2.9325624E+01
 1.3805751E+01  2.9263319E+01
 1.3817250E+01  2.9186049E+01
 1.3828751E+01  2.9163219E+01
 1.3840251E+01  2.9189142E+01
 1.3851750E+01  2.9310480E+01
 1.3863251E+01  2.9537987E+01
 1.3874751E+01  2.9981285E+01
 1.3886250E+01  3.0624609E+01
 1.3897751E+01  3.1419939E+01
 1.3909250E+01  3.2885197E+01
 1.3920751E+01  3.4072460E+01
 1.3932251E+01  3.6270058E+01
 1.3943750E+01  3.7333290E+01
 1.3955251E+01  3.8608486E+01
 1.3966751E+01  3.8258907E+01
 1.3978251E+01  3.7045639E+01
 1.3989751E+01  3.5245148E+01
 1.4001250E+01  3.2951321E+01
 1.4012751E+01  3.1364029E+01
 1.4024251E+01  2.9860069E+01
 1.4035750E+01  2.9040478E+01
 1.4047251E+01  2.8358486E+01
 1.4058751E+01  2.8041159E+01
 1.4070251E+01  2.7858480E+01
 1.4081751E+01  2.7707787E+01
 1.4093250E+01  2.7569950E+01
 1.4104751E+01  2.7458130E+01
 1.4116251E+01  2.7373413E+01
 1.4127750E+01  2.7305143E+01
 1.4139251E+01  2.7188534E+01
 1.4150751E+01  2.7117868E+01
 1.4162251E+01  2.7021505E+01
 1.4173751E+01  2.6888147E+01
 1.4185250E+01  2.6763224E+01
 1.4196751E+01  2.6692223E+01
 1.4208251E+01  2.6677198E+01
 1.4219750E+01  2.6657734E+01
 1.4231251E+01  2.6558908E+01
 1.4242751E+01  2.6466732E+01
 1.4254251E+01  2.6376875E+01
 1.4265751E+01  2.6296644E+01
 1.4277250E+01  2.6243208E+01
 1.4288751E+01  2.6157883E+01
 1.4300251E+01  2.6121969E+01
 1.4311750E+01  2.6091343E+01
 1.4323251E+01  2.6097185E+01
 1.4334751E+01  2.6052691E+01
 1.4346251E+01  2.6007767E+01
 1.4357751E+01  2.5937408E+01
 1.4369250E+01  2.5950146E+01
 1.4380751E+01  2.5987360E+01
 1.4392251E+01  2.6013393E+01
 1.4403750E+01  2.5967710E+01
 1.4415251E+01  2.5894005E+01
 1.4426751E+01  2.5829687E+01
 1.4438251E+01  2.5825397E+01
 1.4449751E+01  2.5801054E+01
 1.4461250E+01  2.5820419E+01
 1.4472751E+01  2.5756981E+01
 1.4484251E+01  2.5775007E+01
 1.4495750E+01  2.5684351E+01
 1.4507251E+01  2.5665289E+01
 1.4518751E+01  2.5518108E+01
 1.4530251E+01  2.5456888E+01
 1.4541751E+01  2.5428221E+01
 1.4553250E+01  2.5435425E+01
 1.4564751E+01  2.5436136E+01
 1.4576251E+01  2.5404011E+01
 1.4587750E+01  2.5408400E+01
 1.4599251E+01  2.5355421E+01
 1.4610751E+01  2.5329840E+01
 1.4622251E+01  2.5273621E+01
 1.4633751E+01  2.5251064E+01
 1.4645250E+01  2.5173422E+01
 1.4656751E+01  2.5138996E+01
 1.4668251E+01  2.5102901E+01
 1.4679750E+01  2.5125675E+01
 1.4691251E+01  2.5124796E+01
 1.4702751E+01  2.5169588E+01
 1.4714251E+01  2.5147734E+01
 1.4725751E+01  2.5122612E+01
 1.4737250E+01  2.5018145E+01
 1.4748751E+01  2.4969566E+01
 1.4760251E+01  2.4964434E+01
 1.4771750E+01  2.4990950E+01
 1.4783251E+01  2.4980257E+01
 1.4794751E+01  2.5002222E+01
 1.4806251E+01  2.4946802E+01
 1.4817751E+01  2.4932541E+01
 1.4829250E+01  2.4859697E+01
 1.4840751E+01  2.4898001E+01
 1.4852251E+01  2.4868876E+01
 1.4863750E+01  2.4830046E+01
 1.4875251E+01  2.4776243E+01
 1.4886751E+01  2.4823009E+01
 1.4898251E+01  2.4910271E+01
 1.4909751E+01  2.5000381E+01
 1.4921250E+01  2.4969379E+01
 1.4932751E+01  2.4902182E+01
 1.4944251E+01  2.4783154E+01
 1.4955750E+01  2.4693295E+01
 1.4967251E+01  2.4666130E+01
 1.4978751E+01  2.4707808E+01
 1.4990251E+01  2.4777613E+01
 1.5001751E+01  2.4778023E+01
 1.5013250E+01  2.4790073E+01
 1.5024751E+01  2.4775156E+01
 1.5036251E+01  2.4752413E+01
 1.5047750E+01  2.4716587E+01
 1.5059251E+01  2.4755058E+01
 1.5070751E+01  2.4798611E+01
 1.5082251E+01  2.4784679E+01
 1.5093751E+01  2.4813532E+01
 1.5105250E+01  2.4866163E+01
 1.5116751E+01  2.5036308E+01
 1.5128251E+01  2.5227659E+01
 1.5139750E+01  2.5461151E+01
 1.5151251E+01  2.6010859E+01
 1.5162751E+01  2.6504587E+01
 1.5174251E+01  2.6978775E+01
 1.5185751E+01  2.7201296E+01
 1.5197250E+01  2.7128370E+01
 1.5208751E+01  2.6998024E+01
 1.5220251E+01  2.6506598E+01
 1.5231750E+01  2.6132120E+01
 1.5243251E+01  2.5625978E+01
 1.5254751E+01  2.5295160E+01
 1.5266251E+01  2.5002159E+01
 1.5277751E+01  2.4817385E+01
 1.5289250E+01  2.4695616E+01
 1.5300751E+01  2.4644007E+01
 1.5312251E+01  2.4657091E+01
 1.5323750E+01  2.4660006E+01
 1.5335251E+01  2.4670546E+01
 1.5346751E+01  2.4630476E+01
 1.5358251E+01  2.4642294E+01
 1.5369751E+01  2.4627953E+01
 1.5381250E+01  2.4572548E+01
 1.5392751E+01  2.4510586E+01
 1.5404251E+01  2.4524246E+01
 1.5415751E+01  2.4547762E+01
 1.5427251E+01  2.4536047E+01
 1.5438751E+01  2.4529978E+01
 1.5450251E+01  2.4507662E+01
 1.5461751E+01  2.4493837E+01
 1.5473250E+01  2.4444242E+01
 1.5484751E+01  2.4507277E+01
 1.5496251E+01  2.4525137E+01
 1.5507751E+01  2.4592596E+01
 1.5519251E+01  2.4560219E+01
 1.5530751E+01  2.4565683E+01
 1.5542251E+01  2.4512323E+01
 1.5553751E+01  2.4483374E+01
 1.5565250E+01  2.4491901E+01
 1.5576751E+01  2.4503569E+01
 1.5588251E+01  2.4553209E+01
 1.5599751E+01  2.4532068E+01
 1.5611251E+01  2.4507437E+01
 1.5622751E+01  2.4466978E+01
 1.5634251E+01  2.4503195E+01
 1.5645751E+01  2.4550547E+01
 1.5657250E+01  2.4591936E+01
 1.5668751E+01  2.4574430E+01
 1.5680251E+01  2.4577118E+01
 1.5691751E+01  2.4546204E+01
 1.5703251E+01  2.4570145E+01
 1.5714751E+01  2.4557793E+01
 1.5726251E+01  2.4576105E+01
 1.5737751E+01  2.4493591E+01
 1.5749250E+01  2.4484423E+01
 1.5760751E+01  2.4527241E+01
 1.5772251E+01  2.4583569E+01
 1.5783751E+01  2.4566603E+01
 1.5795251E+01  2.4483341E+01
 1.5806751E+01  2.4431841E+01
 1.5818251E+01  2.4387512E+01
 1.5829751E+01  2.4329319E+01
 1.5841250E+01  2.4325403E+01
 1.5852751E+01  2.4413898E+01
 1.5864251E+01  2.4475159E+01
 1.5875751E+01  2.4519241E+01
 1.5887251E+01  2.4454863E+01
 1.5898750E+01  2.4457603E+01
 1.5910251E+01  2.4468992E+01
 1.5921751E+01  2.4509523E+01
 1.5933250E+01  2.4527910E+01
 1.5944751E+01  2.4437693E+01
 1.5956251E+01  2.4431946E+01
 1.5967751E+01  2.4393438E+01
 1.5979251E+01  2.4457447E+01
 1.5990750E+01  2.4475332E+01
 1.6002251E+01  2.4494783E+01
 1.6013750E+01  2.4532145E+01
 1.6025251E+01  2.4565784E+01
 1.6036751E+01  2.4631313E+01
 1.6048250E+01  2.4649586E+01
 1.6059752E+01  2.4728773E+01
 1.6071251E+01  2.4715897E+01
 1.6082750E+01  2.4779078E+01
 1.6094252E+01  2.4741510E+01
 1.6105751E+01  2.4829176E+01
 1.6117250E+01  2.4830385E+01
 1.6128750E+01  2.4838690E+01
 1.6140251E+01  2.4861572E+01
 1.6151751E+01  2.4848436E+01
 1.6163250E+01  2.5094807E+01
 1.6174751E+01  2.5137035E+01
 1.6186251E+01  2.5828379E+01
 1.6197750E+01  2.5771748E+01
 1.6209251E+01  2.7270424E+01
 1.6220751E+01  2.7382500E+01
 1.6232250E+01  2.9091122E+01
 1.6243752E+01  2.9132366E+01
 1.6255251E+01  2.9564962E+01
 1.6266750E+01  2.9162777E+01
 1.6278252E+01  2.8036171E+01
 1.6289751E+01  2.7540468E+01
 1.6301250E+01  2.6035297E+01
 1.6312750E+01  2.5956215E+01
 1.6324251E+01  2.5075697E+01
 1.6335751E+01  2.5088182E+01
 1.6347250E+01  2.4684772E+01
 1.6358751E+01  2.4670340E+01
 1.6370251E+01  2.4582468E+01
 1.6381750E+01  2.4624178E+01
 1.6393251E+01  2.4670704E+01
 1.6404751E+01  2.4642790E+01
 1.6416250E+01  2.4691496E+01
 1.6427752E+01  2.4671076E+01
 1.6439251E+01  2.4711670E+01
 1.6450750E+01  2.4685020E+01
 1.6462252E+01  2.4728277E+01
 1.6473751E+01  2.4722828E+01
 1.6485250E+01  2.4720106E+01
 1.6496750E+01  2.4694954E+01
 1.6508251E+01  2.4700983E+01
 1.6519751E+01  2.4665430E+01
 1.6531250E+01  2.4671694E+01
 1.6542751E+01  2.4677891E+01
 1.6554251E+01  2.4638573E+01
 1.6565750E+01  2.4598269E+01
 1.6577251E+01  2.4545862E+01
 1.6588751E+01  2.4525150E+01
 1.6600250E+01  2.4458721E+01
 1.6611752E+01  2.4487379E+01
 1.6623251E+01  2.4493805E+01
 1.6634750E+01  2.4545492E+01
 1.6646252E+01  2.4549099E+01
 1.6657751E+01  2.4551800E+01
 1.6669250E+01  2.4490335E+01
 1.6680750E+01  2.4423069E+01
 1.6692251E+01  2.4400583E+01
 1.6703751E+01  2.4375187E+01
 1.6715250E+01  2.4427977E+01
 1.6726751E+01  2.4468489E+01
 1.6738251E+01  2.4490408E+01
 1.6749750E+01  2.4507828E+01
 1.6761251E+01  2.4478132E+01
 1.6772751E+01  2.4469776E+01
 1.6784250E+01  2.4449995E+01
 1.6795752E+01  2.4414209E+01
 1.6807251E+01  2.4373068E+01
 1.6818750E+01  2.4284441E+01
 1.6830252E+01  2.4285797E+01
 1.6841751E+01  2.4285694E+01
 1.6853251E+01  2.4360168E+01
 1.6864750E+01  2.4400824E+01
 1.6876251E+01  2.4434706E+01
 1.6887751E+01  2.4431387E+01
 1.6899250E+01  2.4371902E+01
 1.6910751E+01  2.4342102E+01
 1.6922251E+01  2.4303921E+01
 1.6933750E+01  2.4308550E+01
 1.6945251E+01  2.4317541E+01
 1.6956751E+01  2.4301207E+01
 1.6968250E+01  2.4307087E+01
 1.6979752E+01  2.4287943E+01
 1.6991251E+01  2.4277208E+01
 1.7002750E+01  2.4222471E+01
 1.7014252E+01  2.4231047E+01
 1.7025751E+01  2.4235971E+01
 1.7037251E+01  2.4232834E+01
 1.7048750E+01  2.4161991E+01
 1.7060251E+01  2.4143593E+01
 1.7071751E+01  2.4108202E+01
 1.7083250E+01  2.4099886E+01
 1.7094751E+01  2.4073812E+01
 1.7106251E+01  2.4090775E+01
 1.7117750E+01  2.4124157E+01
 1.7129251E+01  2.4202974E+01
 1.7140751E+01  2.4197525E+01
 1.7152250E+01  2.4196226E+01
 1.7163752E+01  2.4183788E+01
 1.7175251E+01  2.4205299E+01
 1.7186750E+01  2.4161623E+01
 1.7198252E+01  2.4151428E+01
 1.7209751E+01  2.4151091E+01
 1.7221251E+01  2.4129616E+01
 1.7232750E+01  2.4062899E+01
 1.7244251E+01  2.4025604E+01
 1.7255751E+01  2.3982359E+01
 1.7267250E+01  2.4013004E+01
 1.7278751E+01  2.4037096E+01
 1.7290251E+01  2.4056246E+01
 1.7301750E+01  2.4053812E+01
 1.7313251E+01  2.3984158E+01
 1.7324751E+01  2.4014933E+01
 1.7336250E+01  2.4005451E+01
 1.7347752E+01  2.4049431E+01
 1.7359251E+01  2.4002014E+01
 1.7370750E+01  2.3974962E+01
 1.7382252E+01  2.3950754E+01
 1.7393751E+01  2.3968019E+01
 1.7405251E+01  2.3968859E+01
 1.7416750E+01  2.3972286E+01
 1.7428251E+01  2.3949749E+01
 1.7439751E+01  2.3937437E+01
 1.7451250E+01  2.3950867E+01
 1.7462751E+01  2.3926367E+01
 1.7474251E+01  2.3907946E+01
 1.7485750E+01  2.3821981E+01
 1.7497252E+01  2.3739599E+01
 1.7508751E+01  2.3685261E+01
 1.7520250E+01  2.3722694E+01
 1.7531752E+01  2.3785025E+01
 1.7543251E+01  2.3843176E+01
 1.7554750E+01  2.3842813E+01
 1.7566252E+01  2.3797302E+01
 1.7577751E+01  2.3766207E+01
 1.7589251E+01  2.3742546E+01
 1.7600750E+01  2.3808422E+01
 1.7612251E+01  2.3861483E+01
 1.7623751E+01  2.3950705E+01
 1.7635250E+01  2.3903189E+01
 1.7646751E+01  2.3841871E+01
 1.7658251E+01  2.3771597E+01
 1.7669750E+01  2.3751352E+01
 1.7681252E+01  2.3736086E+01
 1.7692751E+01  2.3717545E+01
 1.7704250E+01  2.3705095E+01
 1.7715752E+01  2.3651943E+01
 1.7727251E+01  2.3662508E+01
 1.7738750E+01  2.3657946E+01
 1.7750252E+01  2.3680492E+01
 1.7761751E+01  2.3714512E+01
 1.7773251E+01  2.3767651E+01
 1.7784750E+01  2.3829485E+01
 1.7796251E+01  2.3808748E+01
 1.7807751E+01  2.3723894E+01
 1.7819250E+01  2.3650379E+01
 1.7830751E+01  2.3655697E+01
 1.7842251E+01  2.3748306E+01
 1.7853750E+01  2.3783888E+01
 1.7865252E+01  2.3825521E+01
 1.7876751E+01  2.3876709E+01
 1.7888250E+01  2.3873528E+01
 1.7899752E+01  2.3860661E+01
 1.7911251E+01  2.3841070E+01
 1.7922750E+01  2.3838161E+01
 1.7934252E+01  2.3782150E+01
 1.7945751E+01  2.3744709E+01
 1.7957251E+01  2.3752274E+01
 1.7968750E+01  2.3796553E+01
 1.7980251E+01  2.3896887E+01
 1.7991751E+01  2.4039089E+01
 1.8003250E+01  2.4146391E+01
 1.8014751E+01  2.4236883E+01
 1.8026251E+01  2.4379719E+01
 1.8037750E+01  2.4563965E+01
 1.8049252E+01  2.4931177E+01
 1.8060751E+01  2.5300646E+01
 1.8072250E+01  2.5855988E+01
 1.8083752E+01  2.6357157E+01
 1.8095251E+01  2.6728193E+01
 1.8106750E+01  2.6829973E+01
 1.8118252E+01  2.6676899E+01
 1.8129751E+01  2.6357841E+01
 1.8141251E+01  2.5816906E+01
 1.8152750E+01  2.5355047E+01
 1.8164251E+01  2.4937855E+01
 1.8175751E+01  2.4518726E+01
 1.8187250E+01  2.4229910E+01
 1.8198751E+01  2.4035122E+01
 1.8210251E+01  2.3900423E+01
 1.8221750E+01  2.3822964E+01
 1.8233252E+01  2.3760632E+01
 1.8244751E+01  2.3689528E+01
 1.8256250E+01  2.3684105E+01
 1.8267752E+01  2.3680403E+01
 1.8279251E+01  2.3653688E+01
 1.8290751E+01  2.3596962E+01
 1.8302252E+01  2.3488958E+01
 1.8313751E+01  2.3455688E+01
 1.8325251E+01  2.3410742E+01
 1.8336750E+01  2.3457792E+01
 1.8348251E+01  2.3484337E+01
 1.8359751E+01  2.3527781E+01
 1.8371250E+01  2.3498375E+01
 1.8382751E+01  2.3454931E+01
 1.8394251E+01  2.3483734E+01
 1.8405750E+01  2.3580315E+01
 1.8417252E+01  2.3634012E+01
 1.8428751E+01  2.3653673E+01
 1.8440250E+01  2.3596638E+01
 1.8451752E+01  2.3555233E+01
 1.8463251E+01  2.3493631E+01
 1.8474751E+01  2.3486786E+01
 1.8486252E+01  2.3485584E+01
 1.8497751E+01  2.3511545E+01
 1.8509251E+01  2.3492960E+01
 1.8520750E+01  2.3432602E+01
 1.8532251E+01  2.3407337E+01
 1.8543751E+01  2.3373806E+01
 1.8555250E+01  2.3363108E+01
 1.8566751E+01  2.3364471E+01
 1.8578251E+01  2.3380606E+01
 1.8589750E+01  2.3457872E+01
 1.8601252E+01  2.3455881E+01
 1.8612751E+01  2.3514883E+01
 1.8624250E+01  2.3529629E+01
 1.8635752E+01  2.3546360E+01
 1.8647251E+01  2.3569284E+01
 1.8658751E+01  2.3540972E+01
 1.8670252E+01  2.3565445E+01
 1.8681751E+01  2.3544107E+01
 1.8693251E+01  2.3583313E+01
 1.8704750E+01  2.3532330E+01
 1.8716251E+01  2.3512344E+01
 1.8727751E+01  2.3475353E+01
 1.8739250E+01  2.3455763E+01
 1.8750751E+01  2.3439106E+01
 1.8762251E+01  2.3422415E+01
 1.8773750E+01  2.3438808E+01
 1.8785252E+01  2.3398975E+01
 1.8796751E+01  2.3388689E+01
 1.8808250E+01  2.3340725E+01
 1.8819752E+01  2.3392756E+01
 1.8831251E+01  2.3415308E+01
 1.8842751E+01  2.3471897E+01
 1.8854252E+01  2.3444563E+01
 1.8865751E+01  2.3437492E+01
 1.8877251E+01  2.3439150E+01
 1.8888750E+01  2.3474022E+01
 1.8900251E+01  2.3515009E+01
 1.8911751E+01  2.3542046E+01
 1.8923250E+01  2.3590439E+01
 1.8934752E+01  2.3580515E+01
 1.8946251E+01  2.3606390E+01
 1.8957750E+01  2.3591080E+01
 1.8969252E+01  2.3543425E+01
 1.8980751E+01  2.3445059E+01
 1.8992250E+01  2.3403522E+01
 1.9003752E+01  2.3491741E+01
 1.9015251E+01  2.3545134E+01
 1.9026751E+01  2.3574425E+01
 1.9038252E+01  2.3562773E+01
 1.9049751E+01  2.3557444E+01
 1.9061251E+01  2.3553312E+01
 1.9072750E+01  2.3550152E+01
 1.9084251E+01  2.3559338E+01
 1.9095751E+01  2.3522270E+01
 1.9107250E+01  2.3444830E+01
 1.9118752E+01  2.3394295E+01
 1.9130251E+01  2.3433376E+01
 1.9141750E+01  2.3476690E+01
 1.9153252E+01  2.3572676E+01
 1.9164751E+01  2.3589588E+01
 1.9176250E+01  2.3547312E+01
 1.9187752E+01  2.3518103E+01
 1.9199251E+01  2.3500082E+01
 1.9210751E+01  2.3521591E+01
 1.9222252E+01  2.3481979E+01
 1.9233751E+01  2.3476347E+01
 1.9245251E+01  2.3489677E+01
 1.9256750E+01  2.3480719E+01
 1.9268251E+01  2.3515106E+01
 1.9279751E+01  2.3512392E+01
 1.9291250E+01  2.3516077E+01
 1.9302752E+01  2.3490196E+01
 1.9314251E+01  2.3465658E+01
 1.9325750E+01  2.3519392E+01
 1.9337252E+01  2.3552052E+01
 1.9348751E+01  2.3566635E+01
 1.9360250E+01  2.3495646E+01
 1.9371752E+01  2.3486036E+01
 1.9383251E+01  2.3460215E+01
 1.9394751E+01  2.3463800E+01
 1.9406250E+01  2.3470678E+01
 1.9417751E+01  2.3484138E+01
 1.9429251E+01  2.3458374E+01
 1.9440750E+01  2.3414824E+01
 1.9452251E+01  2.3461718E+01
 1.9463751E+01  2.3520868E+01
 1.9475250E+01  2.3559120E+01
 1.9486752E+01  2.3582243E+01
 1.9498251E+01  2.3592218E+01
 1.9509750E+01  2.3600462E+01
 1.9521252E+01  2.3629704E+01
 1.9532751E+01  2.3717682E+01
 1.9544250E+01  2.3789875E+01
 1.9555752E+01  2.3831190E+01
 1.9567251E+01  2.3844091E+01
 1.9578751E+01  2.3862133E+01
 1.9590250E+01  2.3881744E+01
 1.9601751E+01  2.3899574E+01
 1.9613251E+01  2.3998566E+01
 1.9624750E+01  2.4194593E+01
 1.9636251E+01  2.4555628E+01
 1.9647751E+01  2.4947319E+01
 1.9659250E+01  2.5438364E+01
 1.9670752E+01  2.5937952E+01
 1.9682251E+01  2.6346519E+01
 1.9693750E+01  2.6746479E+01
 1.9705252E+01  2.6879450E+01
 1.9716751E+01  2.6889156E+01
 1.9728251E+01  2.6718718E+01
 1.9739752E+01  2.6532091E+01
 1.9751251E+01  2.6252876E+01
 1.9762751E+01  2.6093634E+01
 1.9774250E+01  2.5946936E+01
 1.9785751E+01  2.6038099E+01
 1.9797251E+01  2.6307198E+01
 1.9808750E+01  2.6610893E+01
 1.9820251E+01  2.6919622E+01
 1.9831751E+01  2.7514658E+01
 1.9843250E+01  2.7853941E+01
 1.9854752E+01  2.8072676E+01
 1.9866251E+01  2.7714104E+01
 1.9877750E+01  2.7385563E+01
 1.9889252E+01  2.6798397E+01
 1.9900751E+01  2.6237350E+01
 1.9912251E+01  2.5668793E+01
 1.9923752E+01  2.5075596E+01
 1.9935251E+01  2.4698244E+01
 1.9946751E+01  2.4313318E+01
 1.9958250E+01  2.4139334E+01
 1.9969751E+01  2.4037153E+01
 1.9981251E+01  2.3943314E+01
 1.9992750E+01  2.3967447E+01
 2.0004251E+01  2.3937172E+01
 2.0015751E+01  2.3990923E+01
 2.0027250E+01  2.3969868E+01
 2.0038752E+01  2.3962545E+01
 2.0050251E+01  2.3917562E+01
 2.0061750E+01  2.3864239E+01
 2.0073252E+01  2.3855717E+01
 2.0084751E+01  2.3840675E+01
 2.0096251E+01  2.3832426E+01
 2.0107752E+01  2.3791849E+01
 2.0119251E+01  2.3768600E+01
 2.0130751E+01  2.3739338E+01
 2.0142250E+01  2.3688105E+01
 2.0153751E+01  2.3641134E+01
 2.0165251E+01  2.3649488E+01
 2.0176750E+01  2.3678926E+01
 2.0188251E+01  2.3696220E+01
 2.0199751E+01  2.3703506E+01
 2.0211250E+01  2.3694645E+01
 2.0222752E+01  2.3728624E+01
 2.0234251E+01  2.3729296E+01
 2.0245750E+01  2.3677893E+01
 2.0257252E+01  2.3625776E+01
 2.0268751E+01  2.3623205E+01
 2.0280251E+01  2.3660206E+01
 2.0291752E+01  2.3688879E+01
 2.0303251E+01  2.3686989E+01
 2.0314751E+01  2.3670280E+01
 2.0326250E+01  2.3685392E+01
 2.0337751E+01  2.3717325E+01
 2.0349251E+01  2.3729822E+01
 2.0360750E+01  2.3738260E+01
 2.0372252E+01  2.3775747E+01
 2.0383751E+01  2.3771767E+01
 2.0395250E+01  2.3803303E+01
 2.0406752E+01  2.3803782E+01
 2.0418251E+01  2.3833000E+01
 2.0429750E+01  2.3810291E+01
 2.0441252E+01  2.3834875E+01
 2.0452751E+01  2.3814289E+01
 2.0464251E+01  2.3813541E+01
 2.0475752E+01  2.3767244E+01
 2.0487251E+01  2.3734533E+01
 2.0498751E+01  2.3760572E+01
 2.0510250E+01  2.3745464E+01
 2.0521751E+01  2.3738848E+01
 2.0533251E+01  2.3721916E+01
 2.0544750E+01  2.3764759E+01
 2.0556252E+01  2.3859791E+01
 2.0567751E+01  2.3933369E+01
 2.0579250E+01  2.4005205E+01
 2.0590752E+01  2.4055267E+01
 2.0602251E+01  2.4077801E+01
 2.0613750E+01  2.4050686E+01
 2.0625252E+01  2.4014791E+01
 2.0636751E+01  2.4029493E+01
 2.0648251E+01  2.4044319E+01
 2.0659752E+01  2.4149061E+01
 2.0671251E+01  2.4410807E+01
 2.0682751E+01  2.4674906E+01
 2.0694250E+01  2.5155966E+01
 2.0705751E+01  2.5650280E+01
 2.0717251E+01  2.6432348E+01
 2.0728750E+01  2.7518551E+01
 2.0740252E+01  2.8387602E+01
 2.0751751E+01  2.9578129E+01
 2.0763250E+01  3.0050091E+01
 2.0774752E+01  3.0165222E+01
 2.0786251E+01  2.9373129E+01
 2.0797750E+01  2.8100468E+01
 2.0809252E+01  2.6891346E+01
 2.0820751E+01  2.5637358E+01
 2.0832251E+01  2.5017731E+01
 2.0843752E+01  2.4560326E+01
 2.0855251E+01  2.4431807E+01
 2.0866751E+01  2.4364220E+01
 2.0878250E+01  2.4273340E+01
 2.0889751E+01  2.4126745E+01
 2.0901251E+01  2.4061539E+01
 2.0912750E+01  2.4062178E+01
 2.0924252E+01  2.4049763E+01
 2.0935751E+01  2.4028606E+01
 2.0947250E+01  2.4022346E+01
 2.0958752E+01  2.3938644E+01
 2.0970251E+01  2.3804508E+01
 2.0981750E+01  2.3720266E+01
 2.0993252E+01  2.3689182E+01
 2.1004751E+01  2.3763887E+01
 2.1016251E+01  2.3773897E+01
 2.1027752E+01  2.3852005E+01
 2.1039251E+01  2.3877365E+01
 2.1050751E+01  2.3890121E+01
 2.1062250E+01  2.3922779E+01
 2.1073751E+01  2.3965076E+01
 2.1085251E+01  2.3944679E+01
 2.1096750E+01  2.3844278E+01
 2.1108252E+01  2.3819288E+01
 2.1119751E+01  2.3788963E+01
 2.1131250E+01  2.3801857E+01
 2.1142752E+01  2.3835497E+01
 2.1154251E+01  2.3879045E+01
 2.1165751E+01  2.3908329E+01
 2.1177252E+01  2.3952267E+01
 2.1188751E+01  2.3973848E+01
 2.1200251E+01  2.3925709E+01
 2.1211752E+01  2.3862410E+01
 2.1223251E+01  2.3813736E+01
 2.1234751E+01  2.3826996E+01
 2.1246250E+01  2.3853060E+01
 2.1257751E+01  2.3869478E+01
 2.1269251E+01  2.3848755E+01
 2.1280750E+01  2.3875305E+01
 2.1292252E+01  2.3877567E+01
 2.1303751E+01  2.3907122E+01
 2.1315250E+01  2.3868399E+01
 2.1326752E+01  2.3866127E+01
 2.1338251E+01  2.3811855E+01
 2.1349751E+01  2.3835272E+01
 2.1361252E+01  2.3879412E+01
 2.1372751E+01  2.3939295E+01
 2.1384251E+01  2.3915974E+01
 2.1395752E+01  2.3907829E+01
 2.1407251E+01  2.3927631E+01
 2.1418751E+01  2.3965809E+01
 2.1430250E+01  2.3991692E+01
 2.1441751E+01  2.3971437E+01
 2.1453251E+01  2.3976007E+01
 2.1464750E+01  2.3986967E+01
 2.1476252E+01  2.3954514E+01
 2.1487751E+01  2.4000708E+01
 2.1499250E+01  2.4016451E+01
 2.1510752E+01  2.4047165E+01
 2.1522251E+01  2.4053106E+01
 2.1533751E+01  2.4082891E+01
 2.1545252E+01  2.4063665E+01
 2.1556751E+01  2.3987251E+01
 2.1568251E+01  2.3975723E+01
 2.1579752E+01  2.3982513E+01
 2.1591251E+01  2.3992134E+01
 2.1602751E+01  2.3991219E+01
 2.1614250E+01  2.3950485E+01
 2.1625751E+01  2.3938993E+01
 2.1637251E+01  2.3941418E+01
 2.1648750E+01  2.3949642E+01
 2.1660252E+01  2.3964539E+01
 2.1671751E+01  2.3997974E+01
 2.1683250E+01  2.4046768E+01
 2.1694752E+01  2.4059591E+01
 2.1706251E+01  2.4069315E+01
 2.1717751E+01  2.4037706E+01
 2.1729252E+01  2.4064560E+01
 2.1740751E+01  2.4107670E+01
 2.1752251E+01  2.4131771E+01
 2.1763752E+01  2.4126112E+01
 2.1775251E+01  2.4194693E+01
 2.1786751E+01  2.4217133E+01
 2.1798250E+01  2.4365696E+01
 2.1809752E+01  2.4460543E+01
 2.1821251E+01  2.4500948E+01
 2.1832750E+01  2.4253906E+01
 2.1844252E+01  2.4254072E+01
 2.1855751E+01  2.4275316E+01
 2.1867250E+01  2.4331335E+01
 2.1878752E+01  2.4355618E+01
 2.1890251E+01  2.4365786E+01
 2.1901751E+01  2.4361752E+01
 2.1913252E+01  2.4246752E+01
 2.1924751E+01  2.4217285E+01
 2.1936251E+01  2.4237480E+01
 2.1947752E+01  2.4270639E+01
 2.1959251E+01  2.4230923E+01
 2.1970751E+01  2.4233627E+01
 2.1982250E+01  2.4272448E+01
 2.1993752E+01  2.4310400E+01
 2.2005251E+01  2.4290865E+01
 2.2016750E+01  2.4329815E+01
 2.2028252E+01  2.4319115E+01
 2.2039751E+01  2.4257195E+01
 2.2051250E+01  2.4189178E+01
 2.2062752E+01  2.4150591E+01
 2.2074251E+01  2.4235603E+01
 2.2085751E+01  2.4281530E+01
 2.2097252E+01  2.4332172E+01
 2.2108751E+01  2.4729980E+01
 2.2120251E+01  2.5260096E+01
 2.2131752E+01  2.5501776E+01
 2.2143251E+01  2.5254749E+01
 2.2154751E+01  2.5091667E+01
 2.2166250E+01  2.4833332E+01
 2.2177752E+01  2.4569641E+01
 2.2189251E+01  2.4495726E+01
 2.2200750E+01  2.4419033E+01
 2.2212252E+01  2.4419495E+01
 2.2223751E+01  2.4413456E+01
 2.2235250E+01  2.4461803E+01
 2.2246752E+01  2.4553356E+01
 2.2258251E+01  2.4595051E+01
 2.2269751E+01  2.4597595E+01
 2.2281252E+01  2.4565140E+01
 2.2292751E+01  2.4571350E+01
 2.2304251E+01  2.4560352E+01
 2.2315752E+01  2.4573195E+01
 2.2327251E+01  2.4577784E+01
 2.2338751E+01  2.4607574E+01
 2.2350250E+01  2.4595243E+01
 2.2361752E+01  2.4563086E+01
 2.2373251E+01  2.4534466E+01
 2.2384750E+01  2.4536430E+01
 2.2396252E+01  2.4535589E+01
 2.2407751E+01  2.4538509E+01
 2.2419250E+01  2.4559746E+01
 2.2430752E+01  2.4613644E+01
 2.2442251E+01  2.4655531E+01
 2.2453751E+01  2.4654654E+01
 2.2465252E+01  2.4619675E+01
 2.2476751E+01  2.4527693E+01
 2.2488251E+01  2.4499193E+01
 2.2499752E+01  2.4516600E+01
 2.2511251E+01  2.4624733E+01
 2.2522751E+01  2.4668337E+01
 2.2534250E+01  2.4647520E+01
 2.2545752E+01  2.4603294E+01
 2.2557251E+01  2.4640383E+01
 2.2568750E+01  2.4683748E+01
 2.2580252E+01  2.4724640E+01
 2.2591751E+01  2.4737627E+01
 2.2603251E+01  2.4755386E+01
 2.2614752E+01  2.4843102E+01
 2.2626251E+01  2.4877213E+01
 2.2637751E+01  2.4989449E+01
 2.2649252E+01  2.5010956E+01
 2.2660751E+01  2.5062408E+01
 2.2672251E+01  2.5076281E+01
 2.2683752E+01  2.5166193E+01
 2.2695251E+01  2.5203255E+01
 2.2706751E+01  2.5205759E+01
 2.2718250E+01  2.5230526E+01
 2.2729752E+01  2.5222277E+01
 2.2741251E+01  2.5247988E+01
 2.2752750E+01  2.5290651E+01
 2.2764252E+01  2.5293509E+01
 2.2775751E+01  2.5341230E+01
 2.2787251E+01  2.5300789E+01
 2.2798752E+01  2.5328449E+01
 2.2810251E+01  2.5352949E+01
 2.2821751E+01  2.5395424E+01
 2.2833252E+01  2.5407122E+01
 2.2844751E+01  2.5418539E+01
 2.2856251E+01  2.5403654E+01
 2.2867750E+01  2.5453985E+01
 2.2879251E+01  2.5486294E+01
 2.2890751E+01  2.5555477E+01
 2.2902250E+01  2.5608662E+01
 2.2913752E+01  2.5787848E+01
 2.2925251E+01  2.5930141E+01
 2.2936750E+01  2.6008883E+01
 2.2948252E+01  2.5959457E+01
 2.2959751E+01  2.5945572E+01
 2.2971251E+01  2.6037806E+01
 2.2982752E+01  2.6175779E+01
 2.2994251E+01  2.6284298E+01
