F:\20151113_APS_34IDE\\Brian\Particle1\OCV\Data_0117.tif
2-Theta Angle (Degrees)
Intensity
       2000
 5.7500005E-03  0.0000000E+00
 1.7250001E-02  0.0000000E+00
 2.8750001E-02  0.0000000E+00
 4.0250003E-02  0.0000000E+00
 5.1750004E-02  0.0000000E+00
 6.3250005E-02  0.0000000E+00
 7.4750006E-02  0.0000000E+00
 8.6250007E-02  0.0000000E+00
 9.7750008E-02  0.0000000E+00
 1.0925001E-01  0.0000000E+00
 1.2075000E-01  0.0000000E+00
 1.3225001E-01  0.0000000E+00
 1.4375001E-01  0.0000000E+00
 1.5525001E-01  0.0000000E+00
 1.6675001E-01  0.0000000E+00
 1.7825001E-01  0.0000000E+00
 1.8975002E-01  0.0000000E+00
 2.0125002E-01  0.0000000E+00
 2.1275002E-01  0.0000000E+00
 2.2425000E-01  0.0000000E+00
 2.3575000E-01  0.0000000E+00
 2.4725001E-01  0.0000000E+00
 2.5875002E-01  0.0000000E+00
 2.7025002E-01  0.0000000E+00
 2.8175002E-01  0.0000000E+00
 2.9325002E-01  0.0000000E+00
 3.0475003E-01  0.0000000E+00
 3.1625003E-01  0.0000000E+00
 3.2775003E-01  0.0000000E+00
 3.3925003E-01  0.0000000E+00
 3.5075003E-01  0.0000000E+00
 3.6225003E-01  0.0000000E+00
 3.7375003E-01  0.0000000E+00
 3.8525003E-01  0.0000000E+00
 3.9675003E-01  0.0000000E+00
 4.0825003E-01  0.0000000E+00
 4.1975003E-01  0.0000000E+00
 4.3125004E-01  0.0000000E+00
 4.4275001E-01  0.0000000E+00
 4.5425001E-01  0.0000000E+00
 4.6575001E-01  0.0000000E+00
 4.7725001E-01  0.0000000E+00
 4.8875001E-01  0.0000000E+00
 5.0025004E-01  0.0000000E+00
 5.1175004E-01  0.0000000E+00
 5.2325004E-01  0.0000000E+00
 5.3475004E-01  0.0000000E+00
 5.4625005E-01  0.0000000E+00
 5.5775005E-01  0.0000000E+00
 5.6925005E-01  0.0000000E+00
 5.8075005E-01  0.0000000E+00
 5.9225005E-01  0.0000000E+00
 6.0375005E-01  0.0000000E+00
 6.1525005E-01  0.0000000E+00
 6.2675005E-01  0.0000000E+00
 6.3825005E-01  0.0000000E+00
 6.4975005E-01  0.0000000E+00
 6.6125005E-01  0.0000000E+00
 6.7275006E-01  0.0000000E+00
 6.8425006E-01  0.0000000E+00
 6.9575006E-01  0.0000000E+00
 7.0725006E-01  0.0000000E+00
 7.1875006E-01  0.0000000E+00
 7.3025006E-01  0.0000000E+00
 7.4175006E-01  0.0000000E+00
 7.5325006E-01  0.0000000E+00
 7.6475006E-01  0.0000000E+00
 7.7625006E-01  0.0000000E+00
 7.8775007E-01  0.0000000E+00
 7.9925007E-01  0.0000000E+00
 8.1075007E-01  0.0000000E+00
 8.2225007E-01  0.0000000E+00
 8.3375007E-01  0.0000000E+00
 8.4525007E-01  0.0000000E+00
 8.5675007E-01  0.0000000E+00
 8.6825007E-01  0.0000000E+00
 8.7975001E-01  0.0000000E+00
 8.9125001E-01  0.0000000E+00
 9.0275002E-01  0.0000000E+00
 9.1425002E-01  0.0000000E+00
 9.2575002E-01  0.0000000E+00
 9.3725002E-01  0.0000000E+00
 9.4875002E-01  0.0000000E+00
 9.6025002E-01  0.0000000E+00
 9.7175002E-01  0.0000000E+00
 9.8325002E-01  0.0000000E+00
 9.9475002E-01  0.0000000E+00
 1.0062500E+00  0.0000000E+00
 1.0177500E+00  0.0000000E+00
 1.0292500E+00  0.0000000E+00
 1.0407500E+00  0.0000000E+00
 1.0522500E+00  0.0000000E+00
 1.0637500E+00  0.0000000E+00
 1.0752500E+00  0.0000000E+00
 1.0867500E+00  0.0000000E+00
 1.0982500E+00  0.0000000E+00
 1.1097500E+00  0.0000000E+00
 1.1212500E+00  0.0000000E+00
 1.1327500E+00  0.0000000E+00
 1.1442500E+00  0.0000000E+00
 1.1557500E+00  0.0000000E+00
 1.1672500E+00  0.0000000E+00
 1.1787500E+00  0.0000000E+00
 1.1902500E+00  0.0000000E+00
 1.2017500E+00  0.0000000E+00
 1.2132500E+00  0.0000000E+00
 1.2247500E+00  0.0000000E+00
 1.2362500E+00  0.0000000E+00
 1.2477500E+00  0.0000000E+00
 1.2592500E+00  0.0000000E+00
 1.2707500E+00  0.0000000E+00
 1.2822500E+00  0.0000000E+00
 1.2937500E+00  0.0000000E+00
 1.3052500E+00  0.0000000E+00
 1.3167500E+00  0.0000000E+00
 1.3282501E+00  0.0000000E+00
 1.3397501E+00  0.0000000E+00
 1.3512501E+00  0.0000000E+00
 1.3627501E+00  0.0000000E+00
 1.3742501E+00  0.0000000E+00
 1.3857501E+00  0.0000000E+00
 1.3972501E+00  0.0000000E+00
 1.4087501E+00  0.0000000E+00
 1.4202501E+00  0.0000000E+00
 1.4317501E+00  0.0000000E+00
 1.4432501E+00  0.0000000E+00
 1.4547501E+00  0.0000000E+00
 1.4662501E+00  0.0000000E+00
 1.4777501E+00  0.0000000E+00
 1.4892501E+00  0.0000000E+00
 1.5007501E+00  0.0000000E+00
 1.5122501E+00  0.0000000E+00
 1.5237501E+00  0.0000000E+00
 1.5352501E+00  0.0000000E+00
 1.5467501E+00  0.0000000E+00
 1.5582501E+00  0.0000000E+00
 1.5697501E+00  0.0000000E+00
 1.5812501E+00  0.0000000E+00
 1.5927501E+00  0.0000000E+00
 1.6042501E+00  0.0000000E+00
 1.6157501E+00  0.0000000E+00
 1.6272501E+00  0.0000000E+00
 1.6387501E+00  0.0000000E+00
 1.6502501E+00  0.0000000E+00
 1.6617501E+00  0.0000000E+00
 1.6732501E+00  0.0000000E+00
 1.6847501E+00  0.0000000E+00
 1.6962501E+00  0.0000000E+00
 1.7077501E+00  0.0000000E+00
 1.7192501E+00  0.0000000E+00
 1.7307501E+00  0.0000000E+00
 1.7422501E+00  0.0000000E+00
 1.7537501E+00  0.0000000E+00
 1.7652501E+00  0.0000000E+00
 1.7767501E+00  0.0000000E+00
 1.7882501E+00  0.0000000E+00
 1.7997501E+00  0.0000000E+00
 1.8112501E+00  0.0000000E+00
 1.8227501E+00  0.0000000E+00
 1.8342501E+00  0.0000000E+00
 1.8457501E+00  0.0000000E+00
 1.8572501E+00  0.0000000E+00
 1.8687501E+00  0.0000000E+00
 1.8802501E+00  0.0000000E+00
 1.8917501E+00  0.0000000E+00
 1.9032501E+00  0.0000000E+00
 1.9147501E+00  0.0000000E+00
 1.9262501E+00  0.0000000E+00
 1.9377501E+00  0.0000000E+00
 1.9492501E+00  0.0000000E+00
 1.9607501E+00  0.0000000E+00
 1.9722501E+00  0.0000000E+00
 1.9837501E+00  0.0000000E+00
 1.9952501E+00  0.0000000E+00
 2.0067501E+00  0.0000000E+00
 2.0182500E+00  0.0000000E+00
 2.0297501E+00  0.0000000E+00
 2.0412500E+00  0.0000000E+00
 2.0527501E+00  0.0000000E+00
 2.0642500E+00  0.0000000E+00
 2.0757501E+00  0.0000000E+00
 2.0872500E+00  0.0000000E+00
 2.0987501E+00  0.0000000E+00
 2.1102500E+00  0.0000000E+00
 2.1217501E+00  0.0000000E+00
 2.1332500E+00  0.0000000E+00
 2.1447501E+00  0.0000000E+00
 2.1562500E+00  0.0000000E+00
 2.1677501E+00  0.0000000E+00
 2.1792500E+00  0.0000000E+00
 2.1907501E+00  0.0000000E+00
 2.2022500E+00  0.0000000E+00
 2.2137501E+00  0.0000000E+00
 2.2252500E+00  0.0000000E+00
 2.2367501E+00  0.0000000E+00
 2.2482500E+00  0.0000000E+00
 2.2597501E+00  0.0000000E+00
 2.2712500E+00  0.0000000E+00
 2.2827501E+00  0.0000000E+00
 2.2942500E+00  0.0000000E+00
 2.3057501E+00  0.0000000E+00
 2.3172500E+00  0.0000000E+00
 2.3287501E+00  0.0000000E+00
 2.3402500E+00  0.0000000E+00
 2.3517501E+00  0.0000000E+00
 2.3632500E+00  0.0000000E+00
 2.3747501E+00  0.0000000E+00
 2.3862500E+00  0.0000000E+00
 2.3977501E+00  0.0000000E+00
 2.4092500E+00  0.0000000E+00
 2.4207501E+00  0.0000000E+00
 2.4322500E+00  0.0000000E+00
 2.4437501E+00  0.0000000E+00
 2.4552500E+00  0.0000000E+00
 2.4667501E+00  0.0000000E+00
 2.4782500E+00  0.0000000E+00
 2.4897501E+00  0.0000000E+00
 2.5012500E+00  0.0000000E+00
 2.5127501E+00  0.0000000E+00
 2.5242500E+00  0.0000000E+00
 2.5357502E+00  0.0000000E+00
 2.5472500E+00  0.0000000E+00
 2.5587502E+00  0.0000000E+00
 2.5702500E+00  0.0000000E+00
 2.5817502E+00  0.0000000E+00
 2.5932500E+00  0.0000000E+00
 2.6047502E+00  0.0000000E+00
 2.6162500E+00  0.0000000E+00
 2.6277502E+00  0.0000000E+00
 2.6392500E+00  0.0000000E+00
 2.6507502E+00  0.0000000E+00
 2.6622500E+00  0.0000000E+00
 2.6737502E+00  0.0000000E+00
 2.6852500E+00  0.0000000E+00
 2.6967502E+00  0.0000000E+00
 2.7082500E+00  0.0000000E+00
 2.7197502E+00  0.0000000E+00
 2.7312500E+00  0.0000000E+00
 2.7427502E+00  0.0000000E+00
 2.7542500E+00  0.0000000E+00
 2.7657502E+00  0.0000000E+00
 2.7772501E+00  0.0000000E+00
 2.7887502E+00  0.0000000E+00
 2.8002501E+00  0.0000000E+00
 2.8117502E+00  0.0000000E+00
 2.8232501E+00  3.2332035E+01
 2.8347502E+00  3.3634953E+01
 2.8462501E+00  3.4192146E+01
 2.8577502E+00  3.4265831E+01
 2.8692501E+00  3.4130516E+01
 2.8807502E+00  3.4029270E+01
 2.8922501E+00  3.4282021E+01
 2.9037502E+00  3.4585621E+01
 2.9152501E+00  3.4945282E+01
 2.9267502E+00  3.5154903E+01
 2.9382501E+00  3.5367859E+01
 2.9497502E+00  3.5493237E+01
 2.9612501E+00  3.5388123E+01
 2.9727502E+00  3.5308243E+01
 2.9842501E+00  3.5463978E+01
 2.9957502E+00  3.5960232E+01
 3.0072501E+00  3.6166557E+01
 3.0187502E+00  3.6154964E+01
 3.0302501E+00  3.5733913E+01
 3.0417502E+00  3.5653515E+01
 3.0532501E+00  3.5354984E+01
 3.0647502E+00  3.5332993E+01
 3.0762501E+00  3.5053337E+01
 3.0877502E+00  3.4869122E+01
 3.0992501E+00  3.4728283E+01
 3.1107502E+00  3.4488403E+01
 3.1222501E+00  3.4684872E+01
 3.1337502E+00  3.5077049E+01
 3.1452501E+00  3.5424377E+01
 3.1567502E+00  3.5747398E+01
 3.1682501E+00  3.5819450E+01
 3.1797502E+00  3.5885639E+01
 3.1912501E+00  3.5810764E+01
 3.2027502E+00  3.5479355E+01
 3.2142501E+00  3.5216022E+01
 3.2257502E+00  3.5149361E+01
 3.2372501E+00  3.5045872E+01
 3.2487502E+00  3.5180832E+01
 3.2602501E+00  3.5552608E+01
 3.2717502E+00  3.5492672E+01
 3.2832501E+00  3.5586346E+01
 3.2947502E+00  3.5482166E+01
 3.3062501E+00  3.5497128E+01
 3.3177502E+00  3.5566986E+01
 3.3292501E+00  3.5065369E+01
 3.3407502E+00  3.4796181E+01
 3.3522501E+00  3.4209324E+01
 3.3637502E+00  3.3947552E+01
 3.3752501E+00  3.3714035E+01
 3.3867502E+00  3.3640305E+01
 3.3982501E+00  3.3675793E+01
 3.4097502E+00  3.3539227E+01
 3.4212501E+00  3.3291248E+01
 3.4327502E+00  3.3289425E+01
 3.4442501E+00  3.3538330E+01
 3.4557502E+00  3.3762863E+01
 3.4672501E+00  3.3989414E+01
 3.4787502E+00  3.4225288E+01
 3.4902501E+00  3.4584385E+01
 3.5017502E+00  3.4460339E+01
 3.5132501E+00  3.4091553E+01
 3.5247502E+00  3.3536900E+01
 3.5362501E+00  3.3502724E+01
 3.5477502E+00  3.3373810E+01
 3.5592501E+00  3.3484203E+01
 3.5707502E+00  3.3458763E+01
 3.5822501E+00  3.3619118E+01
 3.5937502E+00  3.3763737E+01
 3.6052501E+00  3.3619553E+01
 3.6167502E+00  3.3565609E+01
 3.6282501E+00  3.3440525E+01
 3.6397502E+00  3.3259022E+01
 3.6512501E+00  3.3256897E+01
 3.6627502E+00  3.3149658E+01
 3.6742501E+00  3.3192547E+01
 3.6857502E+00  3.3001072E+01
 3.6972501E+00  3.3015652E+01
 3.7087502E+00  3.2717331E+01
 3.7202501E+00  3.2537727E+01
 3.7317502E+00  3.2306744E+01
 3.7432501E+00  3.2261101E+01
 3.7547503E+00  3.2321156E+01
 3.7662501E+00  3.2325729E+01
 3.7777503E+00  3.2292057E+01
 3.7892501E+00  3.2233318E+01
 3.8007503E+00  3.2009247E+01
 3.8122501E+00  3.2051163E+01
 3.8237503E+00  3.2005653E+01
 3.8352501E+00  3.1918633E+01
 3.8467503E+00  3.1931271E+01
 3.8582501E+00  3.2048302E+01
 3.8697503E+00  3.2354309E+01
 3.8812501E+00  3.2513187E+01
 3.8927503E+00  3.2733257E+01
 3.9042501E+00  3.2649391E+01
 3.9157503E+00  3.2663689E+01
 3.9272501E+00  3.2703636E+01
 3.9387503E+00  3.2716667E+01
 3.9502501E+00  3.2798515E+01
 3.9617503E+00  3.2832417E+01
 3.9732502E+00  3.2750385E+01
 3.9847503E+00  3.2539207E+01
 3.9962502E+00  3.2184204E+01
 4.0077500E+00  3.1953609E+01
 4.0192504E+00  3.1831873E+01
 4.0307503E+00  3.1794691E+01
 4.0422502E+00  3.1812477E+01
 4.0537500E+00  3.1897301E+01
 4.0652504E+00  3.1834055E+01
 4.0767503E+00  3.1855581E+01
 4.0882502E+00  3.1998587E+01
 4.0997500E+00  3.2016376E+01
 4.1112504E+00  3.2064438E+01
 4.1227503E+00  3.1942589E+01
 4.1342502E+00  3.1997271E+01
 4.1457500E+00  3.2076851E+01
 4.1572504E+00  3.1788830E+01
 4.1687503E+00  3.1627047E+01
 4.1802502E+00  3.1262808E+01
 4.1917500E+00  3.1226185E+01
 4.2032504E+00  3.1228203E+01
 4.2147503E+00  3.1394836E+01
 4.2262502E+00  3.1563026E+01
 4.2377501E+00  3.1459808E+01
 4.2492504E+00  3.1387815E+01
 4.2607503E+00  3.1351036E+01
 4.2722502E+00  3.1415417E+01
 4.2837501E+00  3.1433352E+01
 4.2952504E+00  3.1513580E+01
 4.3067503E+00  3.1585985E+01
 4.3182502E+00  3.1699579E+01
 4.3297501E+00  3.1707001E+01
 4.3412504E+00  3.1676655E+01
 4.3527503E+00  3.1660173E+01
 4.3642502E+00  3.1718674E+01
 4.3757501E+00  3.1835518E+01
 4.3872504E+00  3.1918400E+01
 4.3987503E+00  3.1719868E+01
 4.4102502E+00  3.1810637E+01
 4.4217501E+00  3.1750454E+01
 4.4332504E+00  3.1938761E+01
 4.4447503E+00  3.1752817E+01
 4.4562502E+00  3.1810244E+01
 4.4677501E+00  3.1723455E+01
 4.4792504E+00  3.1847393E+01
 4.4907503E+00  3.1783953E+01
 4.5022502E+00  3.1833519E+01
 4.5137501E+00  3.1891447E+01
 4.5252504E+00  3.1993185E+01
 4.5367503E+00  3.2145824E+01
 4.5482502E+00  3.2190205E+01
 4.5597501E+00  3.2293732E+01
 4.5712504E+00  3.2399307E+01
 4.5827503E+00  3.2332378E+01
 4.5942502E+00  3.2417469E+01
 4.6057501E+00  3.2377213E+01
 4.6172504E+00  3.2394722E+01
 4.6287503E+00  3.2494793E+01
 4.6402502E+00  3.2498955E+01
 4.6517501E+00  3.2479668E+01
 4.6632504E+00  3.2487785E+01
 4.6747503E+00  3.2352543E+01
 4.6862502E+00  3.2370388E+01
 4.6977501E+00  3.2292927E+01
 4.7092505E+00  3.2325115E+01
 4.7207503E+00  3.2474201E+01
 4.7322502E+00  3.2507431E+01
 4.7437501E+00  3.2601768E+01
 4.7552505E+00  3.2499050E+01
 4.7667503E+00  3.2417812E+01
 4.7782502E+00  3.2247036E+01
 4.7897501E+00  3.2145973E+01
 4.8012505E+00  3.2108650E+01
 4.8127503E+00  3.2144032E+01
 4.8242502E+00  3.2150970E+01
 4.8357501E+00  3.2153831E+01
 4.8472505E+00  3.2145622E+01
 4.8587503E+00  3.2218113E+01
 4.8702502E+00  3.2212463E+01
 4.8817501E+00  3.2173149E+01
 4.8932505E+00  3.2214611E+01
 4.9047503E+00  3.2303337E+01
 4.9162502E+00  3.2356667E+01
 4.9277501E+00  3.2366333E+01
 4.9392505E+00  3.2297596E+01
 4.9507504E+00  3.2340946E+01
 4.9622502E+00  3.2334446E+01
 4.9737501E+00  3.2386082E+01
 4.9852505E+00  3.2462402E+01
 4.9967504E+00  3.2505054E+01
 5.0082502E+00  3.2692257E+01
 5.0197501E+00  3.2747738E+01
 5.0312505E+00  3.2853188E+01
 5.0427504E+00  3.2890503E+01
 5.0542502E+00  3.2907288E+01
 5.0657501E+00  3.2953308E+01
 5.0772505E+00  3.2864716E+01
 5.0887504E+00  3.2899326E+01
 5.1002502E+00  3.2861633E+01
 5.1117501E+00  3.2928684E+01
 5.1232505E+00  3.2938198E+01
 5.1347504E+00  3.3019436E+01
 5.1462502E+00  3.3120071E+01
 5.1577501E+00  3.3210281E+01
 5.1692505E+00  3.3326797E+01
 5.1807504E+00  3.3412827E+01
 5.1922503E+00  3.3443588E+01
 5.2037501E+00  3.3461693E+01
 5.2152505E+00  3.3421806E+01
 5.2267504E+00  3.3430698E+01
 5.2382503E+00  3.3445614E+01
 5.2497501E+00  3.3520721E+01
 5.2612505E+00  3.3529202E+01
 5.2727504E+00  3.3563000E+01
 5.2842503E+00  3.3544907E+01
 5.2957501E+00  3.3644436E+01
 5.3072500E+00  3.3709496E+01
 5.3187504E+00  3.3851566E+01
 5.3302503E+00  3.3953381E+01
 5.3417501E+00  3.3953522E+01
 5.3532500E+00  3.3882931E+01
 5.3647504E+00  3.3764446E+01
 5.3762503E+00  3.3720772E+01
 5.3877501E+00  3.3777405E+01
 5.3992500E+00  3.3780262E+01
 5.4107504E+00  3.3771313E+01
 5.4222503E+00  3.3780083E+01
 5.4337502E+00  3.3730949E+01
 5.4452500E+00  3.3818951E+01
 5.4567504E+00  3.3885609E+01
 5.4682503E+00  3.4055340E+01
 5.4797502E+00  3.4168514E+01
 5.4912500E+00  3.4217472E+01
 5.5027504E+00  3.4224182E+01
 5.5142503E+00  3.4271049E+01
 5.5257502E+00  3.4376160E+01
 5.5372500E+00  3.4425304E+01
 5.5487504E+00  3.4562813E+01
 5.5602503E+00  3.4589848E+01
 5.5717502E+00  3.4625778E+01
 5.5832500E+00  3.4597675E+01
 5.5947504E+00  3.4665737E+01
 5.6062503E+00  3.4770683E+01
 5.6177502E+00  3.4934757E+01
 5.6292500E+00  3.4862476E+01
 5.6407504E+00  3.4912422E+01
 5.6522503E+00  3.4820839E+01
 5.6637502E+00  3.4900116E+01
 5.6752501E+00  3.4969254E+01
 5.6867504E+00  3.5182194E+01
 5.6982503E+00  3.5201447E+01
 5.7097502E+00  3.5317253E+01
 5.7212501E+00  3.5314293E+01
 5.7327504E+00  3.5493111E+01
 5.7442503E+00  3.5525608E+01
 5.7557502E+00  3.5474674E+01
 5.7672501E+00  3.5459064E+01
 5.7787504E+00  3.5438503E+01
 5.7902503E+00  3.5620651E+01
 5.8017502E+00  3.5723976E+01
 5.8132501E+00  3.5884140E+01
 5.8247504E+00  3.5922749E+01
 5.8362503E+00  3.5997673E+01
 5.8477502E+00  3.6200924E+01
 5.8592501E+00  3.6253742E+01
 5.8707504E+00  3.6546833E+01
 5.8822503E+00  3.6883499E+01
 5.8937502E+00  3.7402748E+01
 5.9052501E+00  3.8461006E+01
 5.9167504E+00  3.9170689E+01
 5.9282503E+00  4.2812599E+01
 5.9397502E+00  4.4752895E+01
 5.9512501E+00  5.5190041E+01
 5.9627504E+00  5.8282497E+01
 5.9742503E+00  7.4267113E+01
 5.9857502E+00  7.2630219E+01
 5.9972501E+00  8.2080048E+01
 6.0087504E+00  7.0435974E+01
 6.0202503E+00  6.8422318E+01
 6.0317502E+00  5.4534210E+01
 6.0432501E+00  5.0261337E+01
 6.0547504E+00  4.2646816E+01
 6.0662503E+00  4.1116638E+01
 6.0777502E+00  3.8623199E+01
 6.0892501E+00  3.8303036E+01
 6.1007504E+00  3.7471851E+01
 6.1122503E+00  3.7399677E+01
 6.1237502E+00  3.7118538E+01
 6.1352501E+00  3.7004776E+01
 6.1467505E+00  3.6760063E+01
 6.1582503E+00  3.6684826E+01
 6.1697502E+00  3.6653217E+01
 6.1812501E+00  3.6733166E+01
 6.1927505E+00  3.6839310E+01
 6.2042503E+00  3.6789677E+01
 6.2157502E+00  3.6870010E+01
 6.2272501E+00  3.6776375E+01
 6.2387505E+00  3.6624329E+01
 6.2502503E+00  3.6616867E+01
 6.2617502E+00  3.6700531E+01
 6.2732501E+00  3.6998058E+01
 6.2847505E+00  3.7166779E+01
 6.2962503E+00  3.7237755E+01
 6.3077502E+00  3.7256554E+01
 6.3192501E+00  3.7249859E+01
 6.3307505E+00  3.7350399E+01
 6.3422503E+00  3.7426517E+01
 6.3537502E+00  3.7523754E+01
 6.3652501E+00  3.7530556E+01
 6.3767505E+00  3.7673176E+01
 6.3882504E+00  3.7742512E+01
 6.3997502E+00  3.7826904E+01
 6.4112501E+00  3.7930969E+01
 6.4227505E+00  3.7987446E+01
 6.4342504E+00  3.8103142E+01
 6.4457502E+00  3.8130474E+01
 6.4572501E+00  3.8119102E+01
 6.4687505E+00  3.8143436E+01
 6.4802504E+00  3.8126549E+01
 6.4917502E+00  3.8166874E+01
 6.5032501E+00  3.8295528E+01
 6.5147505E+00  3.8366379E+01
 6.5262504E+00  3.8461460E+01
 6.5377502E+00  3.8552635E+01
 6.5492501E+00  3.8629444E+01
 6.5607505E+00  3.8710938E+01
 6.5722504E+00  3.8768856E+01
 6.5837502E+00  3.8897560E+01
 6.5952501E+00  3.9102333E+01
 6.6067505E+00  3.9264351E+01
 6.6182504E+00  3.9422642E+01
 6.6297503E+00  3.9577827E+01
 6.6412501E+00  3.9753067E+01
 6.6527505E+00  3.9856499E+01
 6.6642504E+00  3.9985516E+01
 6.6757503E+00  3.9944530E+01
 6.6872501E+00  3.9867195E+01
 6.6987505E+00  3.9784908E+01
 6.7102504E+00  3.9796867E+01
 6.7217503E+00  3.9871429E+01
 6.7332501E+00  4.0002663E+01
 6.7447505E+00  4.0064629E+01
 6.7562504E+00  4.0193012E+01
 6.7677503E+00  4.0168327E+01
 6.7792501E+00  4.0350021E+01
 6.7907505E+00  4.0377666E+01
 6.8022504E+00  4.0526035E+01
 6.8137503E+00  4.0579273E+01
 6.8252501E+00  4.0726048E+01
 6.8367505E+00  4.0855236E+01
 6.8482504E+00  4.0964283E+01
 6.8597503E+00  4.1133762E+01
 6.8712502E+00  4.1220623E+01
 6.8827505E+00  4.1398621E+01
 6.8942504E+00  4.1430756E+01
 6.9057503E+00  4.1463257E+01
 6.9172502E+00  4.1383236E+01
 6.9287505E+00  4.1204746E+01
 6.9402504E+00  4.1136162E+01
 6.9517503E+00  4.1091774E+01
 6.9632502E+00  4.1112068E+01
 6.9747505E+00  4.1220631E+01
 6.9862504E+00  4.1320614E+01
 6.9977503E+00  4.1438015E+01
 7.0092502E+00  4.1573509E+01
 7.0207505E+00  4.1617420E+01
 7.0322504E+00  4.1838512E+01
 7.0437503E+00  4.1945862E+01
 7.0552502E+00  4.2125610E+01
 7.0667505E+00  4.2217590E+01
 7.0782504E+00  4.2228691E+01
 7.0897503E+00  4.2316437E+01
 7.1012502E+00  4.2331402E+01
 7.1127505E+00  4.2478760E+01
 7.1242504E+00  4.2540596E+01
 7.1357503E+00  4.2660751E+01
 7.1472502E+00  4.2688622E+01
 7.1587505E+00  4.2731709E+01
 7.1702504E+00  4.2637749E+01
 7.1817503E+00  4.2634678E+01
 7.1932502E+00  4.2693195E+01
 7.2047505E+00  4.2894352E+01
 7.2162504E+00  4.3017635E+01
 7.2277503E+00  4.3079048E+01
 7.2392502E+00  4.3025814E+01
 7.2507505E+00  4.2977974E+01
 7.2622504E+00  4.2882927E+01
 7.2737503E+00  4.2856171E+01
 7.2852502E+00  4.2889267E+01
 7.2967505E+00  4.2954140E+01
 7.3082504E+00  4.3010113E+01
 7.3197503E+00  4.3094265E+01
 7.3312502E+00  4.3232533E+01
 7.3427505E+00  4.3327602E+01
 7.3542504E+00  4.3332752E+01
 7.3657503E+00  4.3287716E+01
 7.3772502E+00  4.3232071E+01
 7.3887506E+00  4.3289326E+01
 7.4002504E+00  4.3330269E+01
 7.4117503E+00  4.3412956E+01
 7.4232502E+00  4.3486652E+01
 7.4347506E+00  4.3541931E+01
 7.4462504E+00  4.3603825E+01
 7.4577503E+00  4.3704891E+01
 7.4692502E+00  4.3649445E+01
 7.4807506E+00  4.3703197E+01
 7.4922504E+00  4.3640656E+01
 7.5037503E+00  4.3809494E+01
 7.5152502E+00  4.3770123E+01
 7.5267506E+00  4.3762852E+01
 7.5382504E+00  4.3701965E+01
 7.5497503E+00  4.3666733E+01
 7.5612502E+00  4.3688274E+01
 7.5727506E+00  4.3638371E+01
 7.5842505E+00  4.3672020E+01
 7.5957503E+00  4.3651245E+01
 7.6072502E+00  4.3609238E+01
 7.6187506E+00  4.3523663E+01
 7.6302505E+00  4.3466141E+01
 7.6417503E+00  4.3475090E+01
 7.6532502E+00  4.3510422E+01
 7.6647506E+00  4.3530014E+01
 7.6762505E+00  4.3582470E+01
 7.6877503E+00  4.3603065E+01
 7.6992502E+00  4.3618183E+01
 7.7107506E+00  4.3540413E+01
 7.7222505E+00  4.3567730E+01
 7.7337503E+00  4.3565990E+01
 7.7452502E+00  4.3645115E+01
 7.7567506E+00  4.3648960E+01
 7.7682505E+00  4.3560253E+01
 7.7797503E+00  4.3559891E+01
 7.7912502E+00  4.3467789E+01
 7.8027506E+00  4.3422195E+01
 7.8142505E+00  4.3313995E+01
 7.8257504E+00  4.3252834E+01
 7.8372502E+00  4.3337894E+01
 7.8487506E+00  4.3355392E+01
 7.8602505E+00  4.3439953E+01
 7.8717504E+00  4.3409935E+01
 7.8832502E+00  4.3352318E+01
 7.8947506E+00  4.3265404E+01
 7.9062505E+00  4.3220493E+01
 7.9177504E+00  4.3165726E+01
 7.9292502E+00  4.3064415E+01
 7.9407506E+00  4.2973427E+01
 7.9522505E+00  4.2928658E+01
 7.9637504E+00  4.2908169E+01
 7.9752502E+00  4.2844055E+01
 7.9867506E+00  4.2846115E+01
 7.9982505E+00  4.2879761E+01
 8.0097504E+00  4.2937389E+01
 8.0212507E+00  4.2871372E+01
 8.0327501E+00  4.2767212E+01
 8.0442505E+00  4.2591026E+01
 8.0557508E+00  4.2459442E+01
 8.0672503E+00  4.2281124E+01
 8.0787506E+00  4.2219631E+01
 8.0902500E+00  4.2187038E+01
 8.1017504E+00  4.2159763E+01
 8.1132507E+00  4.2162754E+01
 8.1247501E+00  4.2137234E+01
 8.1362505E+00  4.2081200E+01
 8.1477509E+00  4.2007191E+01
 8.1592503E+00  4.1832325E+01
 8.1707506E+00  4.1782463E+01
 8.1822500E+00  4.1550179E+01
 8.1937504E+00  4.1430016E+01
 8.2052507E+00  4.1147236E+01
 8.2167501E+00  4.0967972E+01
 8.2282505E+00  4.0885384E+01
 8.2397509E+00  4.0774696E+01
 8.2512503E+00  4.0760983E+01
 8.2627506E+00  4.0601433E+01
 8.2742500E+00  4.0522263E+01
 8.2857504E+00  4.0484055E+01
 8.2972507E+00  4.0455433E+01
 8.3087502E+00  4.0411659E+01
 8.3202505E+00  4.0354305E+01
 8.3317509E+00  4.0130196E+01
 8.3432503E+00  3.9976032E+01
 8.3547506E+00  3.9738918E+01
 8.3662500E+00  3.9604053E+01
 8.3777504E+00  3.9437466E+01
 8.3892508E+00  3.9232208E+01
 8.4007502E+00  3.9095459E+01
 8.4122505E+00  3.8931221E+01
 8.4237509E+00  3.8809402E+01
 8.4352503E+00  3.8510120E+01
 8.4467506E+00  3.8337341E+01
 8.4582500E+00  3.7997547E+01
 8.4697504E+00  3.7781052E+01
 8.4812508E+00  3.7519234E+01
 8.4927502E+00  3.7391979E+01
 8.5042505E+00  3.7399471E+01
 8.5157509E+00  3.7346428E+01
 8.5272503E+00  3.7252510E+01
 8.5387506E+00  3.7024151E+01
 8.5502501E+00  3.6743839E+01
 8.5617504E+00  3.6437763E+01
 8.5732508E+00  3.6238136E+01
 8.5847502E+00  3.6041367E+01
 8.5962505E+00  3.5905350E+01
 8.6077509E+00  3.5755344E+01
 8.6192503E+00  3.5638046E+01
 8.6307507E+00  3.5534187E+01
 8.6422501E+00  3.5405922E+01
 8.6537504E+00  3.5307590E+01
 8.6652508E+00  3.5226570E+01
 8.6767502E+00  3.5069035E+01
 8.6882505E+00  3.4903740E+01
 8.6997509E+00  3.4628113E+01
 8.7112503E+00  3.4410698E+01
 8.7227507E+00  3.4200279E+01
 8.7342501E+00  3.3978542E+01
 8.7457504E+00  3.3749580E+01
 8.7572508E+00  3.3538517E+01
 8.7687502E+00  3.3505688E+01
 8.7802505E+00  3.3410507E+01
 8.7917500E+00  3.3246086E+01
 8.8032503E+00  3.2982868E+01
 8.8147507E+00  3.2777634E+01
 8.8262501E+00  3.2590057E+01
 8.8377504E+00  3.2473969E+01
 8.8492508E+00  3.2380310E+01
 8.8607502E+00  3.2307217E+01
 8.8722506E+00  3.2138702E+01
 8.8837500E+00  3.1891212E+01
 8.8952503E+00  3.1636692E+01
 8.9067507E+00  3.1399124E+01
 8.9182501E+00  3.1226160E+01
 8.9297504E+00  3.1078991E+01
 8.9412508E+00  3.0966698E+01
 8.9527502E+00  3.0876520E+01
 8.9642506E+00  3.0713522E+01
 8.9757500E+00  3.0551371E+01
 8.9872503E+00  3.0345701E+01
 8.9987507E+00  3.0167879E+01
 9.0102501E+00  3.0002275E+01
 9.0217505E+00  2.9799429E+01
 9.0332508E+00  2.9743496E+01
 9.0447502E+00  2.9649445E+01
 9.0562506E+00  2.9676298E+01
 9.0677500E+00  2.9595968E+01
 9.0792503E+00  2.9471550E+01
 9.0907507E+00  2.9336517E+01
 9.1022501E+00  2.9213690E+01
 9.1137505E+00  2.9091175E+01
 9.1252508E+00  2.8975126E+01
 9.1367502E+00  2.8821123E+01
 9.1482506E+00  2.8779118E+01
 9.1597500E+00  2.8677011E+01
 9.1712503E+00  2.8559597E+01
 9.1827507E+00  2.8430431E+01
 9.1942501E+00  2.8370079E+01
 9.2057505E+00  2.8291473E+01
 9.2172508E+00  2.8235643E+01
 9.2287502E+00  2.8087566E+01
 9.2402506E+00  2.7989229E+01
 9.2517500E+00  2.7804060E+01
 9.2632504E+00  2.7675009E+01
 9.2747507E+00  2.7569645E+01
 9.2862501E+00  2.7476557E+01
 9.2977505E+00  2.7460108E+01
 9.3092508E+00  2.7399294E+01
 9.3207502E+00  2.7371063E+01
 9.3322506E+00  2.7270697E+01
 9.3437500E+00  2.7125515E+01
 9.3552504E+00  2.6978827E+01
 9.3667507E+00  2.6799318E+01
 9.3782501E+00  2.6705963E+01
 9.3897505E+00  2.6626245E+01
 9.4012508E+00  2.6593910E+01
 9.4127502E+00  2.6532787E+01
 9.4242506E+00  2.6480780E+01
 9.4357500E+00  2.6482685E+01
 9.4472504E+00  2.6424725E+01
 9.4587507E+00  2.6347748E+01
 9.4702501E+00  2.6300192E+01
 9.4817505E+00  2.6297243E+01
 9.4932508E+00  2.6342899E+01
 9.5047503E+00  2.6255943E+01
 9.5162506E+00  2.6182995E+01
 9.5277500E+00  2.6045139E+01
 9.5392504E+00  2.5909739E+01
 9.5507507E+00  2.5766169E+01
 9.5622501E+00  2.5659637E+01
 9.5737505E+00  2.5534233E+01
 9.5852509E+00  2.5484451E+01
 9.5967503E+00  2.5460804E+01
 9.6082506E+00  2.5505684E+01
 9.6197500E+00  2.5481886E+01
 9.6312504E+00  2.5425779E+01
 9.6427507E+00  2.5323698E+01
 9.6542501E+00  2.5244255E+01
 9.6657505E+00  2.5163517E+01
 9.6772509E+00  2.5060799E+01
 9.6887503E+00  2.4946493E+01
 9.7002506E+00  2.4918549E+01
 9.7117500E+00  2.4934866E+01
 9.7232504E+00  2.4983889E+01
 9.7347507E+00  2.4967533E+01
 9.7462502E+00  2.4915968E+01
 9.7577505E+00  2.4873814E+01
 9.7692509E+00  2.4828373E+01
 9.7807503E+00  2.4802734E+01
 9.7922506E+00  2.4769493E+01
 9.8037500E+00  2.4723919E+01
 9.8152504E+00  2.4682222E+01
 9.8267508E+00  2.4625132E+01
 9.8382502E+00  2.4615353E+01
 9.8497505E+00  2.4605146E+01
 9.8612509E+00  2.4600216E+01
 9.8727503E+00  2.4571705E+01
 9.8842506E+00  2.4531290E+01
 9.8957500E+00  2.4487581E+01
 9.9072504E+00  2.4382977E+01
 9.9187508E+00  2.4346415E+01
 9.9302502E+00  2.4294790E+01
 9.9417505E+00  2.4337566E+01
 9.9532509E+00  2.4319748E+01
 9.9647503E+00  2.4300556E+01
 9.9762506E+00  2.4211637E+01
 9.9877501E+00  2.4135805E+01
 9.9992504E+00  2.4050825E+01
 1.0010751E+01  2.4018351E+01
 1.0022250E+01  2.3961836E+01
 1.0033751E+01  2.3976988E+01
 1.0045251E+01  2.3949749E+01
 1.0056750E+01  2.3932142E+01
 1.0068251E+01  2.3878284E+01
 1.0079750E+01  2.3824501E+01
 1.0091250E+01  2.3770788E+01
 1.0102751E+01  2.3735561E+01
 1.0114250E+01  2.3735786E+01
 1.0125751E+01  2.3727907E+01
 1.0137251E+01  2.3689829E+01
 1.0148750E+01  2.3636250E+01
 1.0160251E+01  2.3618690E+01
 1.0171750E+01  2.3600744E+01
 1.0183250E+01  2.3594027E+01
 1.0194751E+01  2.3564081E+01
 1.0206250E+01  2.3550821E+01
 1.0217751E+01  2.3538389E+01
 1.0229251E+01  2.3487137E+01
 1.0240750E+01  2.3389578E+01
 1.0252251E+01  2.3272942E+01
 1.0263750E+01  2.3189760E+01
 1.0275250E+01  2.3177052E+01
 1.0286751E+01  2.3200405E+01
 1.0298250E+01  2.3255083E+01
 1.0309751E+01  2.3216381E+01
 1.0321251E+01  2.3198845E+01
 1.0332750E+01  2.3125898E+01
 1.0344251E+01  2.3130220E+01
 1.0355750E+01  2.3079380E+01
 1.0367250E+01  2.3081381E+01
 1.0378751E+01  2.3079149E+01
 1.0390250E+01  2.3128407E+01
 1.0401751E+01  2.3164106E+01
 1.0413251E+01  2.3239145E+01
 1.0424750E+01  2.3268068E+01
 1.0436251E+01  2.3369949E+01
 1.0447750E+01  2.3480465E+01
 1.0459250E+01  2.3543783E+01
 1.0470751E+01  2.3520803E+01
 1.0482250E+01  2.3432867E+01
 1.0493751E+01  2.3313112E+01
 1.0505251E+01  2.3172710E+01
 1.0516750E+01  2.3088919E+01
 1.0528251E+01  2.2985682E+01
 1.0539750E+01  2.2967896E+01
 1.0551250E+01  2.2930290E+01
 1.0562751E+01  2.2966261E+01
 1.0574250E+01  2.2941113E+01
 1.0585751E+01  2.2909729E+01
 1.0597251E+01  2.2915810E+01
 1.0608750E+01  2.2873281E+01
 1.0620251E+01  2.2836470E+01
 1.0631750E+01  2.2763464E+01
 1.0643250E+01  2.2695139E+01
 1.0654751E+01  2.2672285E+01
 1.0666250E+01  2.2626766E+01
 1.0677751E+01  2.2603477E+01
 1.0689251E+01  2.2538347E+01
 1.0700750E+01  2.2511278E+01
 1.0712251E+01  2.2560349E+01
 1.0723750E+01  2.2583776E+01
 1.0735250E+01  2.2641935E+01
 1.0746751E+01  2.2635651E+01
 1.0758250E+01  2.2613367E+01
 1.0769751E+01  2.2559544E+01
 1.0781251E+01  2.2568712E+01
 1.0792750E+01  2.2581461E+01
 1.0804251E+01  2.2579716E+01
 1.0815750E+01  2.2547785E+01
 1.0827250E+01  2.2508627E+01
 1.0838751E+01  2.2467236E+01
 1.0850250E+01  2.2457783E+01
 1.0861751E+01  2.2448612E+01
 1.0873251E+01  2.2504618E+01
 1.0884750E+01  2.2401550E+01
 1.0896251E+01  2.2388449E+01
 1.0907750E+01  2.2316019E+01
 1.0919250E+01  2.2365938E+01
 1.0930751E+01  2.2404497E+01
 1.0942250E+01  2.2427900E+01
 1.0953751E+01  2.2418810E+01
 1.0965251E+01  2.2392263E+01
 1.0976750E+01  2.2393034E+01
 1.0988251E+01  2.2384111E+01
 1.0999750E+01  2.2371119E+01
 1.1011250E+01  2.2370714E+01
 1.1022751E+01  2.2412546E+01
 1.1034250E+01  2.2403034E+01
 1.1045751E+01  2.2376387E+01
 1.1057251E+01  2.2315832E+01
 1.1068750E+01  2.2249590E+01
 1.1080251E+01  2.2247974E+01
 1.1091750E+01  2.2282837E+01
 1.1103251E+01  2.2385798E+01
 1.1114751E+01  2.2364981E+01
 1.1126250E+01  2.2337446E+01
 1.1137751E+01  2.2221972E+01
 1.1149251E+01  2.2207447E+01
 1.1160750E+01  2.2155167E+01
 1.1172251E+01  2.2152401E+01
 1.1183750E+01  2.2074862E+01
 1.1195251E+01  2.2032110E+01
 1.1206751E+01  2.1992306E+01
 1.1218250E+01  2.1999430E+01
 1.1229751E+01  2.2026920E+01
 1.1241251E+01  2.2057426E+01
 1.1252750E+01  2.2131973E+01
 1.1264251E+01  2.2154188E+01
 1.1275750E+01  2.2323969E+01
 1.1287251E+01  2.2311888E+01
 1.1298751E+01  2.2323452E+01
 1.1310250E+01  2.2172682E+01
 1.1321751E+01  2.2126953E+01
 1.1333251E+01  2.2074966E+01
 1.1344750E+01  2.2114624E+01
 1.1356251E+01  2.2159433E+01
 1.1367750E+01  2.2286880E+01
 1.1379251E+01  2.2336790E+01
 1.1390751E+01  2.2369434E+01
 1.1402250E+01  2.2451851E+01
 1.1413751E+01  2.2462263E+01
 1.1425251E+01  2.2512657E+01
 1.1436750E+01  2.2421549E+01
 1.1448251E+01  2.2435961E+01
 1.1459750E+01  2.2473051E+01
 1.1471251E+01  2.2502562E+01
 1.1482751E+01  2.2482315E+01
 1.1494250E+01  2.2441814E+01
 1.1505751E+01  2.2436888E+01
 1.1517251E+01  2.2540329E+01
 1.1528750E+01  2.2732914E+01
 1.1540251E+01  2.2961445E+01
 1.1551750E+01  2.3196789E+01
 1.1563251E+01  2.3507082E+01
 1.1574751E+01  2.3748726E+01
 1.1586250E+01  2.3937582E+01
 1.1597751E+01  2.3981358E+01
 1.1609251E+01  2.3876820E+01
 1.1620750E+01  2.3690186E+01
 1.1632251E+01  2.3435781E+01
 1.1643750E+01  2.3147947E+01
 1.1655251E+01  2.2893211E+01
 1.1666751E+01  2.2630049E+01
 1.1678250E+01  2.2533012E+01
 1.1689751E+01  2.2401045E+01
 1.1701251E+01  2.2301180E+01
 1.1712750E+01  2.2224010E+01
 1.1724251E+01  2.2153414E+01
 1.1735750E+01  2.2092695E+01
 1.1747251E+01  2.2052177E+01
 1.1758751E+01  2.2085350E+01
 1.1770250E+01  2.2065489E+01
 1.1781751E+01  2.2067347E+01
 1.1793251E+01  2.2086357E+01
 1.1804750E+01  2.2183941E+01
 1.1816251E+01  2.2264721E+01
 1.1827750E+01  2.2270212E+01
 1.1839251E+01  2.2273371E+01
 1.1850751E+01  2.2183853E+01
 1.1862250E+01  2.2161890E+01
 1.1873751E+01  2.2117285E+01
 1.1885251E+01  2.2128016E+01
 1.1896750E+01  2.2163860E+01
 1.1908251E+01  2.2188887E+01
 1.1919750E+01  2.2241354E+01
 1.1931251E+01  2.2296963E+01
 1.1942751E+01  2.2362770E+01
 1.1954250E+01  2.2489365E+01
 1.1965751E+01  2.2550100E+01
 1.1977251E+01  2.2687822E+01
 1.1988750E+01  2.2750103E+01
 1.2000251E+01  2.2809587E+01
 1.2011750E+01  2.2818277E+01
 1.2023251E+01  2.2852352E+01
 1.2034751E+01  2.2867962E+01
 1.2046250E+01  2.2810287E+01
 1.2057751E+01  2.2814955E+01
 1.2069251E+01  2.2858364E+01
 1.2080750E+01  2.3038563E+01
 1.2092251E+01  2.3135963E+01
 1.2103750E+01  2.3204380E+01
 1.2115251E+01  2.3132805E+01
 1.2126751E+01  2.3004780E+01
 1.2138250E+01  2.2837357E+01
 1.2149751E+01  2.2647438E+01
 1.2161251E+01  2.2496086E+01
 1.2172750E+01  2.2344259E+01
 1.2184251E+01  2.2297419E+01
 1.2195750E+01  2.2235138E+01
 1.2207251E+01  2.2239021E+01
 1.2218751E+01  2.2197678E+01
 1.2230250E+01  2.2227083E+01
 1.2241751E+01  2.2233896E+01
 1.2253251E+01  2.2302877E+01
 1.2264750E+01  2.2322445E+01
 1.2276251E+01  2.2346664E+01
 1.2287750E+01  2.2341160E+01
 1.2299251E+01  2.2292166E+01
 1.2310751E+01  2.2261063E+01
 1.2322250E+01  2.2185308E+01
 1.2333751E+01  2.2210756E+01
 1.2345250E+01  2.2152975E+01
 1.2356750E+01  2.2147953E+01
 1.2368251E+01  2.2132298E+01
 1.2379750E+01  2.2233751E+01
 1.2391251E+01  2.2286819E+01
 1.2402751E+01  2.2333389E+01
 1.2414250E+01  2.2333546E+01
 1.2425751E+01  2.2306564E+01
 1.2437250E+01  2.2362518E+01
 1.2448750E+01  2.2322443E+01
 1.2460251E+01  2.2348091E+01
 1.2471750E+01  2.2307245E+01
 1.2483251E+01  2.2321703E+01
 1.2494751E+01  2.2338295E+01
 1.2506250E+01  2.2334291E+01
 1.2517751E+01  2.2376783E+01
 1.2529250E+01  2.2447187E+01
 1.2540751E+01  2.2515928E+01
 1.2552251E+01  2.2556953E+01
 1.2563750E+01  2.2559820E+01
 1.2575251E+01  2.2622126E+01
 1.2586751E+01  2.2601553E+01
 1.2598250E+01  2.2659229E+01
 1.2609751E+01  2.2616680E+01
 1.2621250E+01  2.2628859E+01
 1.2632751E+01  2.2522995E+01
 1.2644251E+01  2.2440977E+01
 1.2655750E+01  2.2467449E+01
 1.2667251E+01  2.2490492E+01
 1.2678751E+01  2.2558290E+01
 1.2690250E+01  2.2567133E+01
 1.2701751E+01  2.2632072E+01
 1.2713250E+01  2.2698816E+01
 1.2724751E+01  2.2718031E+01
 1.2736251E+01  2.2730322E+01
 1.2747750E+01  2.2765963E+01
 1.2759251E+01  2.2788425E+01
 1.2770751E+01  2.2789993E+01
 1.2782250E+01  2.2773911E+01
 1.2793751E+01  2.2700029E+01
 1.2805250E+01  2.2740938E+01
 1.2816751E+01  2.2768604E+01
 1.2828251E+01  2.2845882E+01
 1.2839750E+01  2.2883801E+01
 1.2851251E+01  2.2915564E+01
 1.2862751E+01  2.3028214E+01
 1.2874250E+01  2.3126406E+01
 1.2885751E+01  2.3162729E+01
 1.2897250E+01  2.3197992E+01
 1.2908751E+01  2.3214228E+01
 1.2920251E+01  2.3284872E+01
 1.2931750E+01  2.3398399E+01
 1.2943251E+01  2.3483149E+01
 1.2954751E+01  2.3531519E+01
 1.2966250E+01  2.3549831E+01
 1.2977751E+01  2.3602516E+01
 1.2989250E+01  2.3629402E+01
 1.3000751E+01  2.3654003E+01
 1.3012251E+01  2.3693459E+01
 1.3023750E+01  2.3783934E+01
 1.3035251E+01  2.3822479E+01
 1.3046751E+01  2.3868025E+01
 1.3058250E+01  2.3960953E+01
 1.3069751E+01  2.4066723E+01
 1.3081250E+01  2.4138519E+01
 1.3092751E+01  2.4179253E+01
 1.3104251E+01  2.4358822E+01
 1.3115750E+01  2.4481865E+01
 1.3127251E+01  2.4691856E+01
 1.3138751E+01  2.4751369E+01
 1.3150250E+01  2.4901085E+01
 1.3161751E+01  2.4976749E+01
 1.3173250E+01  2.5089680E+01
 1.3184751E+01  2.5185453E+01
 1.3196251E+01  2.5254620E+01
 1.3207750E+01  2.5399736E+01
 1.3219251E+01  2.5519983E+01
 1.3230751E+01  2.5693274E+01
 1.3242250E+01  2.5822758E+01
 1.3253751E+01  2.5979176E+01
 1.3265250E+01  2.6106846E+01
 1.3276751E+01  2.6247780E+01
 1.3288251E+01  2.6393112E+01
 1.3299750E+01  2.6528105E+01
 1.3311251E+01  2.6685499E+01
 1.3322751E+01  2.6834463E+01
 1.3334250E+01  2.7022310E+01
 1.3345751E+01  2.7182600E+01
 1.3357250E+01  2.7350546E+01
 1.3368751E+01  2.7466579E+01
 1.3380251E+01  2.7543657E+01
 1.3391750E+01  2.7624727E+01
 1.3403251E+01  2.7715221E+01
 1.3414751E+01  2.7818432E+01
 1.3426250E+01  2.7940443E+01
 1.3437751E+01  2.8050816E+01
 1.3449250E+01  2.8188236E+01
 1.3460751E+01  2.8353327E+01
 1.3472251E+01  2.8492546E+01
 1.3483750E+01  2.8689350E+01
 1.3495251E+01  2.8810183E+01
 1.3506751E+01  2.8996271E+01
 1.3518250E+01  2.9044111E+01
 1.3529751E+01  2.9070349E+01
 1.3541250E+01  2.9002110E+01
 1.3552751E+01  2.8973440E+01
 1.3564251E+01  2.9022335E+01
 1.3575750E+01  2.9132940E+01
 1.3587251E+01  2.9208429E+01
 1.3598751E+01  2.9247196E+01
 1.3610250E+01  2.9264860E+01
 1.3621751E+01  2.9236307E+01
 1.3633250E+01  2.9216503E+01
 1.3644751E+01  2.9185274E+01
 1.3656251E+01  2.9230471E+01
 1.3667750E+01  2.9263094E+01
 1.3679251E+01  2.9252823E+01
 1.3690751E+01  2.9277531E+01
 1.3702250E+01  2.9271955E+01
 1.3713751E+01  2.9272337E+01
 1.3725250E+01  2.9250574E+01
 1.3736751E+01  2.9212420E+01
 1.3748251E+01  2.9222527E+01
 1.3759750E+01  2.9159580E+01
 1.3771251E+01  2.9119869E+01
 1.3782751E+01  2.9070477E+01
 1.3794250E+01  2.9000530E+01
 1.3805751E+01  2.8976364E+01
 1.3817250E+01  2.8925995E+01
 1.3828751E+01  2.8944317E+01
 1.3840251E+01  2.8954767E+01
 1.3851750E+01  2.9007406E+01
 1.3863251E+01  2.9113335E+01
 1.3874751E+01  2.9299231E+01
 1.3886250E+01  2.9667957E+01
 1.3897751E+01  3.0310154E+01
 1.3909250E+01  3.1054264E+01
 1.3920751E+01  3.2625572E+01
 1.3932251E+01  3.3465477E+01
 1.3943750E+01  3.4815552E+01
 1.3955251E+01  3.5335033E+01
 1.3966751E+01  3.5242317E+01
 1.3978251E+01  3.4549755E+01
 1.3989751E+01  3.2929047E+01
 1.4001250E+01  3.1988302E+01
 1.4012751E+01  3.0334751E+01
 1.4024251E+01  2.9386269E+01
 1.4035750E+01  2.8642611E+01
 1.4047251E+01  2.8177362E+01
 1.4058751E+01  2.7921902E+01
 1.4070251E+01  2.7761621E+01
 1.4081751E+01  2.7550953E+01
 1.4093250E+01  2.7394207E+01
 1.4104751E+01  2.7247059E+01
 1.4116251E+01  2.7111120E+01
 1.4127750E+01  2.6987932E+01
 1.4139251E+01  2.6894991E+01
 1.4150751E+01  2.6849401E+01
 1.4162251E+01  2.6806477E+01
 1.4173751E+01  2.6701899E+01
 1.4185250E+01  2.6604618E+01
 1.4196751E+01  2.6552921E+01
 1.4208251E+01  2.6474455E+01
 1.4219750E+01  2.6440290E+01
 1.4231251E+01  2.6323681E+01
 1.4242751E+01  2.6225660E+01
 1.4254251E+01  2.6064491E+01
 1.4265751E+01  2.5990126E+01
 1.4277250E+01  2.5953087E+01
 1.4288751E+01  2.5917162E+01
 1.4300251E+01  2.5855906E+01
 1.4311750E+01  2.5854780E+01
 1.4323251E+01  2.5787094E+01
 1.4334751E+01  2.5757414E+01
 1.4346251E+01  2.5717802E+01
 1.4357751E+01  2.5748430E+01
 1.4369250E+01  2.5735287E+01
 1.4380751E+01  2.5718433E+01
 1.4392251E+01  2.5692968E+01
 1.4403750E+01  2.5667444E+01
 1.4415251E+01  2.5638094E+01
 1.4426751E+01  2.5597418E+01
 1.4438251E+01  2.5587574E+01
 1.4449751E+01  2.5519932E+01
 1.4461250E+01  2.5423338E+01
 1.4472751E+01  2.5333366E+01
 1.4484251E+01  2.5270056E+01
 1.4495750E+01  2.5277031E+01
 1.4507251E+01  2.5265421E+01
 1.4518751E+01  2.5252794E+01
 1.4530251E+01  2.5235664E+01
 1.4541751E+01  2.5238209E+01
 1.4553250E+01  2.5218954E+01
 1.4564751E+01  2.5158058E+01
 1.4576251E+01  2.5098972E+01
 1.4587750E+01  2.5091938E+01
 1.4599251E+01  2.5113838E+01
 1.4610751E+01  2.5125776E+01
 1.4622251E+01  2.5123518E+01
 1.4633751E+01  2.5076504E+01
 1.4645250E+01  2.5059011E+01
 1.4656751E+01  2.5036060E+01
 1.4668251E+01  2.5044060E+01
 1.4679750E+01  2.5001905E+01
 1.4691251E+01  2.4959808E+01
 1.4702751E+01  2.4942247E+01
 1.4714251E+01  2.4886568E+01
 1.4725751E+01  2.4856531E+01
 1.4737250E+01  2.4823320E+01
 1.4748751E+01  2.4863770E+01
 1.4760251E+01  2.4846714E+01
 1.4771750E+01  2.4852350E+01
 1.4783251E+01  2.4788158E+01
 1.4794751E+01  2.4742466E+01
 1.4806251E+01  2.4698284E+01
 1.4817751E+01  2.4694191E+01
 1.4829250E+01  2.4744457E+01
 1.4840751E+01  2.4757116E+01
 1.4852251E+01  2.4789427E+01
 1.4863750E+01  2.4729265E+01
 1.4875251E+01  2.4680683E+01
 1.4886751E+01  2.4597651E+01
 1.4898251E+01  2.4603397E+01
 1.4909751E+01  2.4594610E+01
 1.4921250E+01  2.4580967E+01
 1.4932751E+01  2.4580343E+01
 1.4944251E+01  2.4556406E+01
 1.4955750E+01  2.4537210E+01
 1.4967251E+01  2.4478439E+01
 1.4978751E+01  2.4449255E+01
 1.4990251E+01  2.4426552E+01
 1.5001751E+01  2.4424379E+01
 1.5013250E+01  2.4455826E+01
 1.5024751E+01  2.4479027E+01
 1.5036251E+01  2.4470427E+01
 1.5047750E+01  2.4422503E+01
 1.5059251E+01  2.4450703E+01
 1.5070751E+01  2.4463190E+01
 1.5082251E+01  2.4514629E+01
 1.5093751E+01  2.4540949E+01
 1.5105250E+01  2.4608925E+01
 1.5116751E+01  2.4673574E+01
 1.5128251E+01  2.4723398E+01
 1.5139750E+01  2.4896521E+01
 1.5151251E+01  2.5116096E+01
 1.5162751E+01  2.5321787E+01
 1.5174251E+01  2.5558964E+01
 1.5185751E+01  2.5617140E+01
 1.5197250E+01  2.5628958E+01
 1.5208751E+01  2.5481773E+01
 1.5220251E+01  2.5360798E+01
 1.5231750E+01  2.5219988E+01
 1.5243251E+01  2.4995247E+01
 1.5254751E+01  2.4851887E+01
 1.5266251E+01  2.4580736E+01
 1.5277751E+01  2.4445644E+01
 1.5289250E+01  2.4393843E+01
 1.5300751E+01  2.4356335E+01
 1.5312251E+01  2.4362286E+01
 1.5323750E+01  2.4270597E+01
 1.5335251E+01  2.4271833E+01
 1.5346751E+01  2.4185852E+01
 1.5358251E+01  2.4216803E+01
 1.5369751E+01  2.4220453E+01
 1.5381250E+01  2.4256449E+01
 1.5392751E+01  2.4271843E+01
 1.5404251E+01  2.4311708E+01
 1.5415751E+01  2.4300333E+01
 1.5427251E+01  2.4291706E+01
 1.5438751E+01  2.4278458E+01
 1.5450251E+01  2.4271456E+01
 1.5461751E+01  2.4188564E+01
 1.5473250E+01  2.4081812E+01
 1.5484751E+01  2.4052576E+01
 1.5496251E+01  2.4063255E+01
 1.5507751E+01  2.4102974E+01
 1.5519251E+01  2.4113422E+01
 1.5530751E+01  2.4177462E+01
 1.5542251E+01  2.4201769E+01
 1.5553751E+01  2.4222557E+01
 1.5565250E+01  2.4225653E+01
 1.5576751E+01  2.4236769E+01
 1.5588251E+01  2.4268536E+01
 1.5599751E+01  2.4259712E+01
 1.5611251E+01  2.4251717E+01
 1.5622751E+01  2.4261703E+01
 1.5634251E+01  2.4270235E+01
 1.5645751E+01  2.4261383E+01
 1.5657250E+01  2.4246170E+01
 1.5668751E+01  2.4189196E+01
 1.5680251E+01  2.4206314E+01
 1.5691751E+01  2.4167831E+01
 1.5703251E+01  2.4216352E+01
 1.5714751E+01  2.4208830E+01
 1.5726251E+01  2.4255663E+01
 1.5737751E+01  2.4229532E+01
 1.5749250E+01  2.4198181E+01
 1.5760751E+01  2.4214809E+01
 1.5772251E+01  2.4239433E+01
 1.5783751E+01  2.4263962E+01
 1.5795251E+01  2.4268368E+01
 1.5806751E+01  2.4302521E+01
 1.5818251E+01  2.4331480E+01
 1.5829751E+01  2.4276905E+01
 1.5841250E+01  2.4238720E+01
 1.5852751E+01  2.4197594E+01
 1.5864251E+01  2.4189877E+01
 1.5875751E+01  2.4220745E+01
 1.5887251E+01  2.4258375E+01
 1.5898750E+01  2.4311089E+01
 1.5910251E+01  2.4300863E+01
 1.5921751E+01  2.4272097E+01
 1.5933250E+01  2.4227007E+01
 1.5944751E+01  2.4179680E+01
 1.5956251E+01  2.4182209E+01
 1.5967751E+01  2.4192398E+01
 1.5979251E+01  2.4248837E+01
 1.5990750E+01  2.4316568E+01
 1.6002251E+01  2.4388655E+01
 1.6013750E+01  2.4449535E+01
 1.6025251E+01  2.4478279E+01
 1.6036751E+01  2.4494728E+01
 1.6048250E+01  2.4481441E+01
 1.6059752E+01  2.4421598E+01
 1.6071251E+01  2.4353302E+01
 1.6082750E+01  2.4349260E+01
 1.6094252E+01  2.4339823E+01
 1.6105751E+01  2.4432209E+01
 1.6117250E+01  2.4493099E+01
 1.6128750E+01  2.4548798E+01
 1.6140251E+01  2.4577219E+01
 1.6151751E+01  2.4522655E+01
 1.6163250E+01  2.4537262E+01
 1.6174751E+01  2.4489988E+01
 1.6186251E+01  2.4613533E+01
 1.6197750E+01  2.4583160E+01
 1.6209251E+01  2.4786148E+01
 1.6220751E+01  2.4826185E+01
 1.6232250E+01  2.5148613E+01
 1.6243752E+01  2.5258636E+01
 1.6255251E+01  2.5441917E+01
 1.6266750E+01  2.5585819E+01
 1.6278252E+01  2.5370117E+01
 1.6289751E+01  2.5417627E+01
 1.6301250E+01  2.4900490E+01
 1.6312750E+01  2.4948492E+01
 1.6324251E+01  2.4561743E+01
 1.6335751E+01  2.4589798E+01
 1.6347250E+01  2.4400442E+01
 1.6358751E+01  2.4427475E+01
 1.6370251E+01  2.4390226E+01
 1.6381750E+01  2.4406971E+01
 1.6393251E+01  2.4446381E+01
 1.6404751E+01  2.4482676E+01
 1.6416250E+01  2.4497774E+01
 1.6427752E+01  2.4449265E+01
 1.6439251E+01  2.4501194E+01
 1.6450750E+01  2.4531666E+01
 1.6462252E+01  2.4522303E+01
 1.6473751E+01  2.4479975E+01
 1.6485250E+01  2.4442137E+01
 1.6496750E+01  2.4397547E+01
 1.6508251E+01  2.4357124E+01
 1.6519751E+01  2.4350878E+01
 1.6531250E+01  2.4396336E+01
 1.6542751E+01  2.4395159E+01
 1.6554251E+01  2.4369909E+01
 1.6565750E+01  2.4310102E+01
 1.6577251E+01  2.4264324E+01
 1.6588751E+01  2.4201647E+01
 1.6600250E+01  2.4196611E+01
 1.6611752E+01  2.4207752E+01
 1.6623251E+01  2.4219187E+01
 1.6634750E+01  2.4221640E+01
 1.6646252E+01  2.4249359E+01
 1.6657751E+01  2.4264128E+01
 1.6669250E+01  2.4289145E+01
 1.6680750E+01  2.4293459E+01
 1.6692251E+01  2.4301991E+01
 1.6703751E+01  2.4246048E+01
 1.6715250E+01  2.4211031E+01
 1.6726751E+01  2.4132420E+01
 1.6738251E+01  2.4136435E+01
 1.6749750E+01  2.4116173E+01
 1.6761251E+01  2.4081364E+01
 1.6772751E+01  2.4013580E+01
 1.6784250E+01  2.4000921E+01
 1.6795752E+01  2.4026754E+01
 1.6807251E+01  2.4050972E+01
 1.6818750E+01  2.4052095E+01
 1.6830252E+01  2.4048544E+01
 1.6841751E+01  2.4019428E+01
 1.6853251E+01  2.4019670E+01
 1.6864750E+01  2.4021017E+01
 1.6876251E+01  2.4050350E+01
 1.6887751E+01  2.4029800E+01
 1.6899250E+01  2.3978203E+01
 1.6910751E+01  2.3945988E+01
 1.6922251E+01  2.3986164E+01
 1.6933750E+01  2.3996340E+01
 1.6945251E+01  2.4002125E+01
 1.6956751E+01  2.3962061E+01
 1.6968250E+01  2.3990866E+01
 1.6979752E+01  2.4024038E+01
 1.6991251E+01  2.4075512E+01
 1.7002750E+01  2.4037794E+01
 1.7014252E+01  2.3974558E+01
 1.7025751E+01  2.3933149E+01
 1.7037251E+01  2.3918165E+01
 1.7048750E+01  2.3862799E+01
 1.7060251E+01  2.3822292E+01
 1.7071751E+01  2.3843714E+01
 1.7083250E+01  2.3920345E+01
 1.7094751E+01  2.3950781E+01
 1.7106251E+01  2.3956667E+01
 1.7117750E+01  2.3954670E+01
 1.7129251E+01  2.3949728E+01
 1.7140751E+01  2.3947426E+01
 1.7152250E+01  2.3906443E+01
 1.7163752E+01  2.3875822E+01
 1.7175251E+01  2.3849321E+01
 1.7186750E+01  2.3862230E+01
 1.7198252E+01  2.3865511E+01
 1.7209751E+01  2.3887033E+01
 1.7221251E+01  2.3879847E+01
 1.7232750E+01  2.3844582E+01
 1.7244251E+01  2.3788223E+01
 1.7255751E+01  2.3738939E+01
 1.7267250E+01  2.3729010E+01
 1.7278751E+01  2.3754725E+01
 1.7290251E+01  2.3777388E+01
 1.7301750E+01  2.3828690E+01
 1.7313251E+01  2.3797789E+01
 1.7324751E+01  2.3824553E+01
 1.7336250E+01  2.3814951E+01
 1.7347752E+01  2.3822687E+01
 1.7359251E+01  2.3775888E+01
 1.7370750E+01  2.3731628E+01
 1.7382252E+01  2.3709490E+01
 1.7393751E+01  2.3668861E+01
 1.7405251E+01  2.3682423E+01
 1.7416750E+01  2.3684132E+01
 1.7428251E+01  2.3660042E+01
 1.7439751E+01  2.3603912E+01
 1.7451250E+01  2.3569338E+01
 1.7462751E+01  2.3588745E+01
 1.7474251E+01  2.3589224E+01
 1.7485750E+01  2.3588449E+01
 1.7497252E+01  2.3551115E+01
 1.7508751E+01  2.3522436E+01
 1.7520250E+01  2.3488056E+01
 1.7531752E+01  2.3504782E+01
 1.7543251E+01  2.3558031E+01
 1.7554750E+01  2.3584465E+01
 1.7566252E+01  2.3587559E+01
 1.7577751E+01  2.3568253E+01
 1.7589251E+01  2.3544235E+01
 1.7600750E+01  2.3530285E+01
 1.7612251E+01  2.3520950E+01
 1.7623751E+01  2.3542042E+01
 1.7635250E+01  2.3434408E+01
 1.7646751E+01  2.3349026E+01
 1.7658251E+01  2.3312836E+01
 1.7669750E+01  2.3478075E+01
 1.7681252E+01  2.3550114E+01
 1.7692751E+01  2.3706369E+01
 1.7704250E+01  2.3703085E+01
 1.7715752E+01  2.3675236E+01
 1.7727251E+01  2.3500307E+01
 1.7738750E+01  2.3484835E+01
 1.7750252E+01  2.3465851E+01
 1.7761751E+01  2.3426060E+01
 1.7773251E+01  2.3384924E+01
 1.7784750E+01  2.3392670E+01
 1.7796251E+01  2.3419529E+01
 1.7807751E+01  2.3450380E+01
 1.7819250E+01  2.3465324E+01
 1.7830751E+01  2.3443945E+01
 1.7842251E+01  2.3454329E+01
 1.7853750E+01  2.3471746E+01
 1.7865252E+01  2.3494263E+01
 1.7876751E+01  2.3477100E+01
 1.7888250E+01  2.3457281E+01
 1.7899752E+01  2.3485371E+01
 1.7911251E+01  2.3526270E+01
 1.7922750E+01  2.3521704E+01
 1.7934252E+01  2.3468138E+01
 1.7945751E+01  2.3493141E+01
 1.7957251E+01  2.3499266E+01
 1.7968750E+01  2.3502626E+01
 1.7980251E+01  2.3502934E+01
 1.7991751E+01  2.3620602E+01
 1.8003250E+01  2.3755892E+01
 1.8014751E+01  2.3850943E+01
 1.8026251E+01  2.3932005E+01
 1.8037750E+01  2.4054474E+01
 1.8049252E+01  2.4150291E+01
 1.8060751E+01  2.4190245E+01
 1.8072250E+01  2.4102903E+01
 1.8083752E+01  2.4095142E+01
 1.8095251E+01  2.4059502E+01
 1.8106750E+01  2.4058258E+01
 1.8118252E+01  2.3940012E+01
 1.8129751E+01  2.3836437E+01
 1.8141251E+01  2.3761990E+01
 1.8152750E+01  2.3637754E+01
 1.8164251E+01  2.3574522E+01
 1.8175751E+01  2.3505014E+01
 1.8187250E+01  2.3458176E+01
 1.8198751E+01  2.3425280E+01
 1.8210251E+01  2.3410448E+01
 1.8221750E+01  2.3391165E+01
 1.8233252E+01  2.3374460E+01
 1.8244751E+01  2.3355799E+01
 1.8256250E+01  2.3322361E+01
 1.8267752E+01  2.3321064E+01
 1.8279251E+01  2.3299692E+01
 1.8290751E+01  2.3326916E+01
 1.8302252E+01  2.3317383E+01
 1.8313751E+01  2.3290335E+01
 1.8325251E+01  2.3259434E+01
 1.8336750E+01  2.3245661E+01
 1.8348251E+01  2.3297274E+01
 1.8359751E+01  2.3309990E+01
 1.8371250E+01  2.3301661E+01
 1.8382751E+01  2.3283100E+01
 1.8394251E+01  2.3296331E+01
 1.8405750E+01  2.3339165E+01
 1.8417252E+01  2.3334867E+01
 1.8428751E+01  2.3276134E+01
 1.8440250E+01  2.3219788E+01
 1.8451752E+01  2.3203472E+01
 1.8463251E+01  2.3205328E+01
 1.8474751E+01  2.3243097E+01
 1.8486252E+01  2.3247324E+01
 1.8497751E+01  2.3250225E+01
 1.8509251E+01  2.3230839E+01
 1.8520750E+01  2.3212446E+01
 1.8532251E+01  2.3218796E+01
 1.8543751E+01  2.3170946E+01
 1.8555250E+01  2.3197247E+01
 1.8566751E+01  2.3222260E+01
 1.8578251E+01  2.3242567E+01
 1.8589750E+01  2.3278866E+01
 1.8601252E+01  2.3285454E+01
 1.8612751E+01  2.3274561E+01
 1.8624250E+01  2.3220814E+01
 1.8635752E+01  2.3255920E+01
 1.8647251E+01  2.3284355E+01
 1.8658751E+01  2.3273314E+01
 1.8670252E+01  2.3279814E+01
 1.8681751E+01  2.3313446E+01
 1.8693251E+01  2.3335562E+01
 1.8704750E+01  2.3278625E+01
 1.8716251E+01  2.3226940E+01
 1.8727751E+01  2.3180864E+01
 1.8739250E+01  2.3125223E+01
 1.8750751E+01  2.3084484E+01
 1.8762251E+01  2.3053476E+01
 1.8773750E+01  2.3068949E+01
 1.8785252E+01  2.3076538E+01
 1.8796751E+01  2.3143608E+01
 1.8808250E+01  2.3124235E+01
 1.8819752E+01  2.3156755E+01
 1.8831251E+01  2.3147224E+01
 1.8842751E+01  2.3113735E+01
 1.8854252E+01  2.3099722E+01
 1.8865751E+01  2.3097527E+01
 1.8877251E+01  2.3183928E+01
 1.8888750E+01  2.3200502E+01
 1.8900251E+01  2.3225407E+01
 1.8911751E+01  2.3240324E+01
 1.8923250E+01  2.3241381E+01
 1.8934752E+01  2.3304504E+01
 1.8946251E+01  2.3306173E+01
 1.8957750E+01  2.3282717E+01
 1.8969252E+01  2.3195343E+01
 1.8980751E+01  2.3167683E+01
 1.8992250E+01  2.3143858E+01
 1.9003752E+01  2.3187487E+01
 1.9015251E+01  2.3184837E+01
 1.9026751E+01  2.3190994E+01
 1.9038252E+01  2.3151915E+01
 1.9049751E+01  2.3103651E+01
 1.9061251E+01  2.3098558E+01
 1.9072750E+01  2.3113317E+01
 1.9084251E+01  2.3162006E+01
 1.9095751E+01  2.3137844E+01
 1.9107250E+01  2.3115503E+01
 1.9118752E+01  2.3071804E+01
 1.9130251E+01  2.3066965E+01
 1.9141750E+01  2.3092842E+01
 1.9153252E+01  2.3160681E+01
 1.9164751E+01  2.3201488E+01
 1.9176250E+01  2.3208517E+01
 1.9187752E+01  2.3181612E+01
 1.9199251E+01  2.3276796E+01
 1.9210751E+01  2.3336521E+01
 1.9222252E+01  2.3366028E+01
 1.9233751E+01  2.3251186E+01
 1.9245251E+01  2.3245350E+01
 1.9256750E+01  2.3256182E+01
 1.9268251E+01  2.3265562E+01
 1.9279751E+01  2.3245825E+01
 1.9291250E+01  2.3242601E+01
 1.9302752E+01  2.3274879E+01
 1.9314251E+01  2.3261503E+01
 1.9325750E+01  2.3260426E+01
 1.9337252E+01  2.3259493E+01
 1.9348751E+01  2.3247379E+01
 1.9360250E+01  2.3218628E+01
 1.9371752E+01  2.3234793E+01
 1.9383251E+01  2.3249477E+01
 1.9394751E+01  2.3276958E+01
 1.9406250E+01  2.3263748E+01
 1.9417751E+01  2.3343689E+01
 1.9429251E+01  2.3391453E+01
 1.9440750E+01  2.3443563E+01
 1.9452251E+01  2.3434742E+01
 1.9463751E+01  2.3371201E+01
 1.9475250E+01  2.3377283E+01
 1.9486752E+01  2.3393026E+01
 1.9498251E+01  2.3431946E+01
 1.9509750E+01  2.3422815E+01
 1.9521252E+01  2.3464474E+01
 1.9532751E+01  2.3479258E+01
 1.9544250E+01  2.3517469E+01
 1.9555752E+01  2.3531937E+01
 1.9567251E+01  2.3585999E+01
 1.9578751E+01  2.3612932E+01
 1.9590250E+01  2.3615845E+01
 1.9601751E+01  2.3622736E+01
 1.9613251E+01  2.3685480E+01
 1.9624750E+01  2.3849091E+01
 1.9636251E+01  2.4052944E+01
 1.9647751E+01  2.4459482E+01
 1.9659250E+01  2.4855408E+01
 1.9670752E+01  2.5927547E+01
 1.9682251E+01  2.6755867E+01
 1.9693750E+01  2.7387144E+01
 1.9705252E+01  2.7506613E+01
 1.9716751E+01  2.7616903E+01
 1.9728251E+01  2.7244440E+01
 1.9739752E+01  2.6539068E+01
 1.9751251E+01  2.5850857E+01
 1.9762751E+01  2.5248270E+01
 1.9774250E+01  2.4926765E+01
 1.9785751E+01  2.4714085E+01
 1.9797251E+01  2.4613857E+01
 1.9808750E+01  2.4584969E+01
 1.9820251E+01  2.4722761E+01
 1.9831751E+01  2.4875738E+01
 1.9843250E+01  2.5006037E+01
 1.9854752E+01  2.5061228E+01
 1.9866251E+01  2.4987909E+01
 1.9877750E+01  2.4864008E+01
 1.9889252E+01  2.4639214E+01
 1.9900751E+01  2.4463266E+01
 1.9912251E+01  2.4264536E+01
 1.9923752E+01  2.4047041E+01
 1.9935251E+01  2.3857851E+01
 1.9946751E+01  2.3687498E+01
 1.9958250E+01  2.3595415E+01
 1.9969751E+01  2.3555639E+01
 1.9981251E+01  2.3510635E+01
 1.9992750E+01  2.3480648E+01
 2.0004251E+01  2.3431425E+01
 2.0015751E+01  2.3425819E+01
 2.0027250E+01  2.3430847E+01
 2.0038752E+01  2.3429480E+01
 2.0050251E+01  2.3420172E+01
 2.0061750E+01  2.3375114E+01
 2.0073252E+01  2.3380564E+01
 2.0084751E+01  2.3353777E+01
 2.0096251E+01  2.3409697E+01
 2.0107752E+01  2.3442179E+01
 2.0119251E+01  2.3505596E+01
 2.0130751E+01  2.3525837E+01
 2.0142250E+01  2.3537704E+01
 2.0153751E+01  2.3520699E+01
 2.0165251E+01  2.3491692E+01
 2.0176750E+01  2.3461834E+01
 2.0188251E+01  2.3396650E+01
 2.0199751E+01  2.3373896E+01
 2.0211250E+01  2.3382977E+01
 2.0222752E+01  2.3458380E+01
 2.0234251E+01  2.3483919E+01
 2.0245750E+01  2.3498043E+01
 2.0257252E+01  2.3488947E+01
 2.0268751E+01  2.3510580E+01
 2.0280251E+01  2.3507311E+01
 2.0291752E+01  2.3500811E+01
 2.0303251E+01  2.3448002E+01
 2.0314751E+01  2.3425343E+01
 2.0326250E+01  2.3408804E+01
 2.0337751E+01  2.3451073E+01
 2.0349251E+01  2.3483988E+01
 2.0360750E+01  2.3525818E+01
 2.0372252E+01  2.3490696E+01
 2.0383751E+01  2.3468191E+01
 2.0395250E+01  2.3477924E+01
 2.0406752E+01  2.3510927E+01
 2.0418251E+01  2.3528643E+01
 2.0429750E+01  2.3514511E+01
 2.0441252E+01  2.3451920E+01
 2.0452751E+01  2.3449432E+01
 2.0464251E+01  2.3463259E+01
 2.0475752E+01  2.3520041E+01
 2.0487251E+01  2.3519615E+01
 2.0498751E+01  2.3520878E+01
 2.0510250E+01  2.3439049E+01
 2.0521751E+01  2.3383913E+01
 2.0533251E+01  2.3397980E+01
 2.0544750E+01  2.3463757E+01
 2.0556252E+01  2.3591570E+01
 2.0567751E+01  2.3624979E+01
 2.0579250E+01  2.3644157E+01
 2.0590752E+01  2.3650221E+01
 2.0602251E+01  2.3728127E+01
 2.0613750E+01  2.3754053E+01
 2.0625252E+01  2.3748228E+01
 2.0636751E+01  2.3757576E+01
 2.0648251E+01  2.3736536E+01
 2.0659752E+01  2.3743935E+01
 2.0671251E+01  2.3781439E+01
 2.0682751E+01  2.3925911E+01
 2.0694250E+01  2.4108374E+01
 2.0705751E+01  2.4355246E+01
 2.0717251E+01  2.4705442E+01
 2.0728750E+01  2.4989080E+01
 2.0740252E+01  2.5398039E+01
 2.0751751E+01  2.5537594E+01
 2.0763250E+01  2.5731823E+01
 2.0774752E+01  2.5624493E+01
 2.0786251E+01  2.5367523E+01
 2.0797750E+01  2.5012043E+01
 2.0809252E+01  2.4532854E+01
 2.0820751E+01  2.4239012E+01
 2.0832251E+01  2.3916546E+01
 2.0843752E+01  2.3816786E+01
 2.0855251E+01  2.3801483E+01
 2.0866751E+01  2.3757969E+01
 2.0878250E+01  2.3752609E+01
 2.0889751E+01  2.3698090E+01
 2.0901251E+01  2.3742672E+01
 2.0912750E+01  2.3767410E+01
 2.0924252E+01  2.3780558E+01
 2.0935751E+01  2.3768572E+01
 2.0947250E+01  2.3762341E+01
 2.0958752E+01  2.3715887E+01
 2.0970251E+01  2.3635416E+01
 2.0981750E+01  2.3572046E+01
 2.0993252E+01  2.3582481E+01
 2.1004751E+01  2.3597395E+01
 2.1016251E+01  2.3612198E+01
 2.1027752E+01  2.3623745E+01
 2.1039251E+01  2.3648832E+01
 2.1050751E+01  2.3625759E+01
 2.1062250E+01  2.3636057E+01
 2.1073751E+01  2.3676891E+01
 2.1085251E+01  2.3659746E+01
 2.1096750E+01  2.3602390E+01
 2.1108252E+01  2.3609694E+01
 2.1119751E+01  2.3670631E+01
 2.1131250E+01  2.3708796E+01
 2.1142752E+01  2.3649488E+01
 2.1154251E+01  2.3584734E+01
 2.1165751E+01  2.3577467E+01
 2.1177252E+01  2.3610113E+01
 2.1188751E+01  2.3615219E+01
 2.1200251E+01  2.3578754E+01
 2.1211752E+01  2.3567818E+01
 2.1223251E+01  2.3554262E+01
 2.1234751E+01  2.3572493E+01
 2.1246250E+01  2.3634058E+01
 2.1257751E+01  2.3661253E+01
 2.1269251E+01  2.3618219E+01
 2.1280750E+01  2.3597172E+01
 2.1292252E+01  2.3630102E+01
 2.1303751E+01  2.3682215E+01
 2.1315250E+01  2.3653372E+01
 2.1326752E+01  2.3645086E+01
 2.1338251E+01  2.3634005E+01
 2.1349751E+01  2.3629887E+01
 2.1361252E+01  2.3647812E+01
 2.1372751E+01  2.3686277E+01
 2.1384251E+01  2.3647738E+01
 2.1395752E+01  2.3641201E+01
 2.1407251E+01  2.3632132E+01
 2.1418751E+01  2.3651133E+01
 2.1430250E+01  2.3668219E+01
 2.1441751E+01  2.3655649E+01
 2.1453251E+01  2.3669779E+01
 2.1464750E+01  2.3700827E+01
 2.1476252E+01  2.3703224E+01
 2.1487751E+01  2.3703678E+01
 2.1499250E+01  2.3684259E+01
 2.1510752E+01  2.3672407E+01
 2.1522251E+01  2.3647474E+01
 2.1533751E+01  2.3666061E+01
 2.1545252E+01  2.3699163E+01
 2.1556751E+01  2.3658833E+01
 2.1568251E+01  2.3685926E+01
 2.1579752E+01  2.3659494E+01
 2.1591251E+01  2.3693279E+01
 2.1602751E+01  2.3690250E+01
 2.1614250E+01  2.3724575E+01
 2.1625751E+01  2.3723661E+01
 2.1637251E+01  2.3700335E+01
 2.1648750E+01  2.3682188E+01
 2.1660252E+01  2.3690350E+01
 2.1671751E+01  2.3724907E+01
 2.1683250E+01  2.3760660E+01
 2.1694752E+01  2.3751026E+01
 2.1706251E+01  2.3751213E+01
 2.1717751E+01  2.3758717E+01
 2.1729252E+01  2.3783495E+01
 2.1740751E+01  2.3790571E+01
 2.1752251E+01  2.3765615E+01
 2.1763752E+01  2.3784889E+01
 2.1775251E+01  2.3813765E+01
 2.1786751E+01  2.3827909E+01
 2.1798250E+01  2.3835648E+01
 2.1809752E+01  2.3848658E+01
 2.1821251E+01  2.3871275E+01
 2.1832750E+01  2.3809618E+01
 2.1844252E+01  2.3798069E+01
 2.1855751E+01  2.3809853E+01
 2.1867250E+01  2.3899740E+01
 2.1878752E+01  2.3973558E+01
 2.1890251E+01  2.4000454E+01
 2.1901751E+01  2.4001532E+01
 2.1913252E+01  2.3987942E+01
 2.1924751E+01  2.3936232E+01
 2.1936251E+01  2.3900251E+01
 2.1947752E+01  2.3856783E+01
 2.1959251E+01  2.3831942E+01
 2.1970751E+01  2.3789766E+01
 2.1982250E+01  2.3788162E+01
 2.1993752E+01  2.3809065E+01
 2.2005251E+01  2.3857285E+01
 2.2016750E+01  2.3880318E+01
 2.2028252E+01  2.3916080E+01
 2.2039751E+01  2.3932390E+01
 2.2051250E+01  2.3939909E+01
 2.2062752E+01  2.3936533E+01
 2.2074251E+01  2.3962105E+01
 2.2085751E+01  2.4016245E+01
 2.2097252E+01  2.4283092E+01
 2.2108751E+01  2.4276972E+01
 2.2120251E+01  2.4404247E+01
 2.2131752E+01  2.4212009E+01
 2.2143251E+01  2.4143784E+01
 2.2154751E+01  2.3956381E+01
 2.2166250E+01  2.3927835E+01
 2.2177752E+01  2.3908253E+01
 2.2189251E+01  2.3885633E+01
 2.2200750E+01  2.3885910E+01
 2.2212252E+01  2.3921803E+01
 2.2223751E+01  2.4008755E+01
 2.2235250E+01  2.4079802E+01
 2.2246752E+01  2.4131565E+01
 2.2258251E+01  2.4157461E+01
 2.2269751E+01  2.4124111E+01
 2.2281252E+01  2.4139984E+01
 2.2292751E+01  2.4175707E+01
 2.2304251E+01  2.4210571E+01
 2.2315752E+01  2.4276016E+01
 2.2327251E+01  2.4284939E+01
 2.2338751E+01  2.4305582E+01
 2.2350250E+01  2.4312515E+01
 2.2361752E+01  2.4311087E+01
 2.2373251E+01  2.4313219E+01
 2.2384750E+01  2.4289371E+01
 2.2396252E+01  2.4283098E+01
 2.2407751E+01  2.4240738E+01
 2.2419250E+01  2.4214638E+01
 2.2430752E+01  2.4240963E+01
 2.2442251E+01  2.4311077E+01
 2.2453751E+01  2.4399015E+01
 2.2465252E+01  2.4398281E+01
 2.2476751E+01  2.4380096E+01
 2.2488251E+01  2.4387541E+01
 2.2499752E+01  2.4405136E+01
 2.2511251E+01  2.4453032E+01
 2.2522751E+01  2.4509604E+01
 2.2534250E+01  2.4522964E+01
 2.2545752E+01  2.4533480E+01
 2.2557251E+01  2.4515360E+01
 2.2568750E+01  2.4482759E+01
 2.2580252E+01  2.4487331E+01
 2.2591751E+01  2.4490253E+01
 2.2603251E+01  2.4574825E+01
 2.2614752E+01  2.4638411E+01
 2.2626251E+01  2.4712042E+01
 2.2637751E+01  2.4708511E+01
 2.2649252E+01  2.4712255E+01
 2.2660751E+01  2.4695120E+01
 2.2672251E+01  2.4689259E+01
 2.2683752E+01  2.4808514E+01
 2.2695251E+01  2.4894970E+01
 2.2706751E+01  2.4928898E+01
 2.2718250E+01  2.4893473E+01
 2.2729752E+01  2.4865454E+01
 2.2741251E+01  2.4857807E+01
 2.2752750E+01  2.4906553E+01
 2.2764252E+01  2.4951000E+01
 2.2775751E+01  2.4947790E+01
 2.2787251E+01  2.4895563E+01
 2.2798752E+01  2.4919941E+01
 2.2810251E+01  2.5027706E+01
 2.2821751E+01  2.5117012E+01
 2.2833252E+01  2.5188478E+01
 2.2844751E+01  2.5221867E+01
 2.2856251E+01  2.5241243E+01
 2.2867750E+01  2.5268341E+01
 2.2879251E+01  2.5291048E+01
 2.2890751E+01  2.5354914E+01
 2.2902250E+01  2.5415573E+01
 2.2913752E+01  2.5520283E+01
 2.2925251E+01  2.5599134E+01
 2.2936750E+01  2.5642866E+01
 2.2948252E+01  2.5680899E+01
 2.2959751E+01  2.5697683E+01
 2.2971251E+01  2.5753187E+01
 2.2982752E+01  2.5849028E+01
 2.2994251E+01  2.5957991E+01
