F:\20151113_APS_34IDE\\Brian\Particle1\OCV\Data_0112.tif
2-Theta Angle (Degrees)
Intensity
       2000
 5.7500005E-03  0.0000000E+00
 1.7250001E-02  0.0000000E+00
 2.8750001E-02  0.0000000E+00
 4.0250003E-02  0.0000000E+00
 5.1750004E-02  0.0000000E+00
 6.3250005E-02  0.0000000E+00
 7.4750006E-02  0.0000000E+00
 8.6250007E-02  0.0000000E+00
 9.7750008E-02  0.0000000E+00
 1.0925001E-01  0.0000000E+00
 1.2075000E-01  0.0000000E+00
 1.3225001E-01  0.0000000E+00
 1.4375001E-01  0.0000000E+00
 1.5525001E-01  0.0000000E+00
 1.6675001E-01  0.0000000E+00
 1.7825001E-01  0.0000000E+00
 1.8975002E-01  0.0000000E+00
 2.0125002E-01  0.0000000E+00
 2.1275002E-01  0.0000000E+00
 2.2425000E-01  0.0000000E+00
 2.3575000E-01  0.0000000E+00
 2.4725001E-01  0.0000000E+00
 2.5875002E-01  0.0000000E+00
 2.7025002E-01  0.0000000E+00
 2.8175002E-01  0.0000000E+00
 2.9325002E-01  0.0000000E+00
 3.0475003E-01  0.0000000E+00
 3.1625003E-01  0.0000000E+00
 3.2775003E-01  0.0000000E+00
 3.3925003E-01  0.0000000E+00
 3.5075003E-01  0.0000000E+00
 3.6225003E-01  0.0000000E+00
 3.7375003E-01  0.0000000E+00
 3.8525003E-01  0.0000000E+00
 3.9675003E-01  0.0000000E+00
 4.0825003E-01  0.0000000E+00
 4.1975003E-01  0.0000000E+00
 4.3125004E-01  0.0000000E+00
 4.4275001E-01  0.0000000E+00
 4.5425001E-01  0.0000000E+00
 4.6575001E-01  0.0000000E+00
 4.7725001E-01  0.0000000E+00
 4.8875001E-01  0.0000000E+00
 5.0025004E-01  0.0000000E+00
 5.1175004E-01  0.0000000E+00
 5.2325004E-01  0.0000000E+00
 5.3475004E-01  0.0000000E+00
 5.4625005E-01  0.0000000E+00
 5.5775005E-01  0.0000000E+00
 5.6925005E-01  0.0000000E+00
 5.8075005E-01  0.0000000E+00
 5.9225005E-01  0.0000000E+00
 6.0375005E-01  0.0000000E+00
 6.1525005E-01  0.0000000E+00
 6.2675005E-01  0.0000000E+00
 6.3825005E-01  0.0000000E+00
 6.4975005E-01  0.0000000E+00
 6.6125005E-01  0.0000000E+00
 6.7275006E-01  0.0000000E+00
 6.8425006E-01  0.0000000E+00
 6.9575006E-01  0.0000000E+00
 7.0725006E-01  0.0000000E+00
 7.1875006E-01  0.0000000E+00
 7.3025006E-01  0.0000000E+00
 7.4175006E-01  0.0000000E+00
 7.5325006E-01  0.0000000E+00
 7.6475006E-01  0.0000000E+00
 7.7625006E-01  0.0000000E+00
 7.8775007E-01  0.0000000E+00
 7.9925007E-01  0.0000000E+00
 8.1075007E-01  0.0000000E+00
 8.2225007E-01  0.0000000E+00
 8.3375007E-01  0.0000000E+00
 8.4525007E-01  0.0000000E+00
 8.5675007E-01  0.0000000E+00
 8.6825007E-01  0.0000000E+00
 8.7975001E-01  0.0000000E+00
 8.9125001E-01  0.0000000E+00
 9.0275002E-01  0.0000000E+00
 9.1425002E-01  0.0000000E+00
 9.2575002E-01  0.0000000E+00
 9.3725002E-01  0.0000000E+00
 9.4875002E-01  0.0000000E+00
 9.6025002E-01  0.0000000E+00
 9.7175002E-01  0.0000000E+00
 9.8325002E-01  0.0000000E+00
 9.9475002E-01  0.0000000E+00
 1.0062500E+00  0.0000000E+00
 1.0177500E+00  0.0000000E+00
 1.0292500E+00  0.0000000E+00
 1.0407500E+00  0.0000000E+00
 1.0522500E+00  0.0000000E+00
 1.0637500E+00  0.0000000E+00
 1.0752500E+00  0.0000000E+00
 1.0867500E+00  0.0000000E+00
 1.0982500E+00  0.0000000E+00
 1.1097500E+00  0.0000000E+00
 1.1212500E+00  0.0000000E+00
 1.1327500E+00  0.0000000E+00
 1.1442500E+00  0.0000000E+00
 1.1557500E+00  0.0000000E+00
 1.1672500E+00  0.0000000E+00
 1.1787500E+00  0.0000000E+00
 1.1902500E+00  0.0000000E+00
 1.2017500E+00  0.0000000E+00
 1.2132500E+00  0.0000000E+00
 1.2247500E+00  0.0000000E+00
 1.2362500E+00  0.0000000E+00
 1.2477500E+00  0.0000000E+00
 1.2592500E+00  0.0000000E+00
 1.2707500E+00  0.0000000E+00
 1.2822500E+00  0.0000000E+00
 1.2937500E+00  0.0000000E+00
 1.3052500E+00  0.0000000E+00
 1.3167500E+00  0.0000000E+00
 1.3282501E+00  0.0000000E+00
 1.3397501E+00  0.0000000E+00
 1.3512501E+00  0.0000000E+00
 1.3627501E+00  0.0000000E+00
 1.3742501E+00  0.0000000E+00
 1.3857501E+00  0.0000000E+00
 1.3972501E+00  0.0000000E+00
 1.4087501E+00  0.0000000E+00
 1.4202501E+00  0.0000000E+00
 1.4317501E+00  0.0000000E+00
 1.4432501E+00  0.0000000E+00
 1.4547501E+00  0.0000000E+00
 1.4662501E+00  0.0000000E+00
 1.4777501E+00  0.0000000E+00
 1.4892501E+00  0.0000000E+00
 1.5007501E+00  0.0000000E+00
 1.5122501E+00  0.0000000E+00
 1.5237501E+00  0.0000000E+00
 1.5352501E+00  0.0000000E+00
 1.5467501E+00  0.0000000E+00
 1.5582501E+00  0.0000000E+00
 1.5697501E+00  0.0000000E+00
 1.5812501E+00  0.0000000E+00
 1.5927501E+00  0.0000000E+00
 1.6042501E+00  0.0000000E+00
 1.6157501E+00  0.0000000E+00
 1.6272501E+00  0.0000000E+00
 1.6387501E+00  0.0000000E+00
 1.6502501E+00  0.0000000E+00
 1.6617501E+00  0.0000000E+00
 1.6732501E+00  0.0000000E+00
 1.6847501E+00  0.0000000E+00
 1.6962501E+00  0.0000000E+00
 1.7077501E+00  0.0000000E+00
 1.7192501E+00  0.0000000E+00
 1.7307501E+00  0.0000000E+00
 1.7422501E+00  0.0000000E+00
 1.7537501E+00  0.0000000E+00
 1.7652501E+00  0.0000000E+00
 1.7767501E+00  0.0000000E+00
 1.7882501E+00  0.0000000E+00
 1.7997501E+00  0.0000000E+00
 1.8112501E+00  0.0000000E+00
 1.8227501E+00  0.0000000E+00
 1.8342501E+00  0.0000000E+00
 1.8457501E+00  0.0000000E+00
 1.8572501E+00  0.0000000E+00
 1.8687501E+00  0.0000000E+00
 1.8802501E+00  0.0000000E+00
 1.8917501E+00  0.0000000E+00
 1.9032501E+00  0.0000000E+00
 1.9147501E+00  0.0000000E+00
 1.9262501E+00  0.0000000E+00
 1.9377501E+00  0.0000000E+00
 1.9492501E+00  0.0000000E+00
 1.9607501E+00  0.0000000E+00
 1.9722501E+00  0.0000000E+00
 1.9837501E+00  0.0000000E+00
 1.9952501E+00  0.0000000E+00
 2.0067501E+00  0.0000000E+00
 2.0182500E+00  0.0000000E+00
 2.0297501E+00  0.0000000E+00
 2.0412500E+00  0.0000000E+00
 2.0527501E+00  0.0000000E+00
 2.0642500E+00  0.0000000E+00
 2.0757501E+00  0.0000000E+00
 2.0872500E+00  0.0000000E+00
 2.0987501E+00  0.0000000E+00
 2.1102500E+00  0.0000000E+00
 2.1217501E+00  0.0000000E+00
 2.1332500E+00  0.0000000E+00
 2.1447501E+00  0.0000000E+00
 2.1562500E+00  0.0000000E+00
 2.1677501E+00  0.0000000E+00
 2.1792500E+00  0.0000000E+00
 2.1907501E+00  0.0000000E+00
 2.2022500E+00  0.0000000E+00
 2.2137501E+00  0.0000000E+00
 2.2252500E+00  0.0000000E+00
 2.2367501E+00  0.0000000E+00
 2.2482500E+00  0.0000000E+00
 2.2597501E+00  0.0000000E+00
 2.2712500E+00  0.0000000E+00
 2.2827501E+00  0.0000000E+00
 2.2942500E+00  0.0000000E+00
 2.3057501E+00  0.0000000E+00
 2.3172500E+00  0.0000000E+00
 2.3287501E+00  0.0000000E+00
 2.3402500E+00  0.0000000E+00
 2.3517501E+00  0.0000000E+00
 2.3632500E+00  0.0000000E+00
 2.3747501E+00  0.0000000E+00
 2.3862500E+00  0.0000000E+00
 2.3977501E+00  0.0000000E+00
 2.4092500E+00  0.0000000E+00
 2.4207501E+00  0.0000000E+00
 2.4322500E+00  0.0000000E+00
 2.4437501E+00  0.0000000E+00
 2.4552500E+00  0.0000000E+00
 2.4667501E+00  0.0000000E+00
 2.4782500E+00  0.0000000E+00
 2.4897501E+00  0.0000000E+00
 2.5012500E+00  0.0000000E+00
 2.5127501E+00  0.0000000E+00
 2.5242500E+00  0.0000000E+00
 2.5357502E+00  0.0000000E+00
 2.5472500E+00  0.0000000E+00
 2.5587502E+00  0.0000000E+00
 2.5702500E+00  0.0000000E+00
 2.5817502E+00  0.0000000E+00
 2.5932500E+00  0.0000000E+00
 2.6047502E+00  0.0000000E+00
 2.6162500E+00  0.0000000E+00
 2.6277502E+00  0.0000000E+00
 2.6392500E+00  0.0000000E+00
 2.6507502E+00  0.0000000E+00
 2.6622500E+00  0.0000000E+00
 2.6737502E+00  0.0000000E+00
 2.6852500E+00  0.0000000E+00
 2.6967502E+00  0.0000000E+00
 2.7082500E+00  0.0000000E+00
 2.7197502E+00  0.0000000E+00
 2.7312500E+00  0.0000000E+00
 2.7427502E+00  0.0000000E+00
 2.7542500E+00  0.0000000E+00
 2.7657502E+00  0.0000000E+00
 2.7772501E+00  0.0000000E+00
 2.7887502E+00  0.0000000E+00
 2.8002501E+00  0.0000000E+00
 2.8117502E+00  0.0000000E+00
 2.8232501E+00  3.0458912E+01
 2.8347502E+00  3.2630119E+01
 2.8462501E+00  3.3555035E+01
 2.8577502E+00  3.4499874E+01
 2.8692501E+00  3.5199146E+01
 2.8807502E+00  3.5289669E+01
 2.8922501E+00  3.5396824E+01
 2.9037502E+00  3.5250053E+01
 2.9152501E+00  3.5036472E+01
 2.9267502E+00  3.4799084E+01
 2.9382501E+00  3.4584671E+01
 2.9497502E+00  3.4478413E+01
 2.9612501E+00  3.4897278E+01
 2.9727502E+00  3.4966118E+01
 2.9842501E+00  3.5243725E+01
 2.9957502E+00  3.4973148E+01
 3.0072501E+00  3.4966816E+01
 3.0187502E+00  3.5098545E+01
 3.0302501E+00  3.5368782E+01
 3.0417502E+00  3.5600281E+01
 3.0532501E+00  3.5313293E+01
 3.0647502E+00  3.5227814E+01
 3.0762501E+00  3.4712410E+01
 3.0877502E+00  3.4352299E+01
 3.0992501E+00  3.4016388E+01
 3.1107502E+00  3.3775940E+01
 3.1222501E+00  3.3689724E+01
 3.1337502E+00  3.3670513E+01
 3.1452501E+00  3.3860359E+01
 3.1567502E+00  3.3998352E+01
 3.1682501E+00  3.4223644E+01
 3.1797502E+00  3.4205105E+01
 3.1912501E+00  3.4061958E+01
 3.2027502E+00  3.4015617E+01
 3.2142501E+00  3.4149883E+01
 3.2257502E+00  3.4580620E+01
 3.2372501E+00  3.4713623E+01
 3.2487502E+00  3.4610809E+01
 3.2602501E+00  3.4764458E+01
 3.2717502E+00  3.4673229E+01
 3.2832501E+00  3.4789944E+01
 3.2947502E+00  3.4854599E+01
 3.3062501E+00  3.5160206E+01
 3.3177502E+00  3.5250153E+01
 3.3292501E+00  3.5147385E+01
 3.3407502E+00  3.4870239E+01
 3.3522501E+00  3.4795425E+01
 3.3637502E+00  3.4543133E+01
 3.3752501E+00  3.4619873E+01
 3.3867502E+00  3.4424721E+01
 3.3982501E+00  3.4312096E+01
 3.4097502E+00  3.4146149E+01
 3.4212501E+00  3.3952160E+01
 3.4327502E+00  3.4044415E+01
 3.4442501E+00  3.3890232E+01
 3.4557502E+00  3.3842857E+01
 3.4672501E+00  3.3536892E+01
 3.4787502E+00  3.3433723E+01
 3.4902501E+00  3.3410221E+01
 3.5017502E+00  3.3366871E+01
 3.5132501E+00  3.3183365E+01
 3.5247502E+00  3.3084000E+01
 3.5362501E+00  3.3348637E+01
 3.5477502E+00  3.3323074E+01
 3.5592501E+00  3.3526390E+01
 3.5707502E+00  3.3318497E+01
 3.5822501E+00  3.3274944E+01
 3.5937502E+00  3.3036919E+01
 3.6052501E+00  3.2830109E+01
 3.6167502E+00  3.2836945E+01
 3.6282501E+00  3.3090958E+01
 3.6397502E+00  3.3189514E+01
 3.6512501E+00  3.3383034E+01
 3.6627502E+00  3.3353279E+01
 3.6742501E+00  3.3182793E+01
 3.6857502E+00  3.3043152E+01
 3.6972501E+00  3.2801483E+01
 3.7087502E+00  3.2734032E+01
 3.7202501E+00  3.2632648E+01
 3.7317502E+00  3.2763706E+01
 3.7432501E+00  3.2928211E+01
 3.7547503E+00  3.3110470E+01
 3.7662501E+00  3.2997131E+01
 3.7777503E+00  3.2719162E+01
 3.7892501E+00  3.2280411E+01
 3.8007503E+00  3.2020721E+01
 3.8122501E+00  3.2093727E+01
 3.8237503E+00  3.2200718E+01
 3.8352501E+00  3.2414265E+01
 3.8467503E+00  3.2676373E+01
 3.8582501E+00  3.2771309E+01
 3.8697503E+00  3.2860943E+01
 3.8812501E+00  3.2611328E+01
 3.8927503E+00  3.2432617E+01
 3.9042501E+00  3.2115685E+01
 3.9157503E+00  3.2027203E+01
 3.9272501E+00  3.2061344E+01
 3.9387503E+00  3.2259693E+01
 3.9502501E+00  3.2166203E+01
 3.9617503E+00  3.2234745E+01
 3.9732502E+00  3.2163460E+01
 3.9847503E+00  3.2015064E+01
 3.9962502E+00  3.1891672E+01
 4.0077500E+00  3.1794790E+01
 4.0192504E+00  3.1796568E+01
 4.0307503E+00  3.1688551E+01
 4.0422502E+00  3.1524422E+01
 4.0537500E+00  3.1454226E+01
 4.0652504E+00  3.1446051E+01
 4.0767503E+00  3.1539549E+01
 4.0882502E+00  3.1760031E+01
 4.0997500E+00  3.1927368E+01
 4.1112504E+00  3.2160198E+01
 4.1227503E+00  3.2220654E+01
 4.1342502E+00  3.2349953E+01
 4.1457500E+00  3.2287067E+01
 4.1572504E+00  3.2272461E+01
 4.1687503E+00  3.2124451E+01
 4.1802502E+00  3.1843534E+01
 4.1917500E+00  3.1721054E+01
 4.2032504E+00  3.1588291E+01
 4.2147503E+00  3.1697313E+01
 4.2262502E+00  3.1894617E+01
 4.2377501E+00  3.1944735E+01
 4.2492504E+00  3.1944456E+01
 4.2607503E+00  3.1744909E+01
 4.2722502E+00  3.1611172E+01
 4.2837501E+00  3.1593601E+01
 4.2952504E+00  3.1613626E+01
 4.3067503E+00  3.1676395E+01
 4.3182502E+00  3.1729710E+01
 4.3297501E+00  3.1690508E+01
 4.3412504E+00  3.1796894E+01
 4.3527503E+00  3.1788717E+01
 4.3642502E+00  3.1930269E+01
 4.3757501E+00  3.1933760E+01
 4.3872504E+00  3.2054569E+01
 4.3987503E+00  3.2096176E+01
 4.4102502E+00  3.2071465E+01
 4.4217501E+00  3.1894484E+01
 4.4332504E+00  3.1785307E+01
 4.4447503E+00  3.1722172E+01
 4.4562502E+00  3.1879066E+01
 4.4677501E+00  3.1858648E+01
 4.4792504E+00  3.2051708E+01
 4.4907503E+00  3.2026276E+01
 4.5022502E+00  3.2357422E+01
 4.5137501E+00  3.2215206E+01
 4.5252504E+00  3.2344982E+01
 4.5367503E+00  3.2085388E+01
 4.5482502E+00  3.2139141E+01
 4.5597501E+00  3.2045330E+01
 4.5712504E+00  3.2091007E+01
 4.5827503E+00  3.2071354E+01
 4.5942502E+00  3.2162067E+01
 4.6057501E+00  3.2221394E+01
 4.6172504E+00  3.2302528E+01
 4.6287503E+00  3.2209591E+01
 4.6402502E+00  3.2248981E+01
 4.6517501E+00  3.2210320E+01
 4.6632504E+00  3.2319492E+01
 4.6747503E+00  3.2358791E+01
 4.6862502E+00  3.2412052E+01
 4.6977501E+00  3.2535545E+01
 4.7092505E+00  3.2749180E+01
 4.7207503E+00  3.2910866E+01
 4.7322502E+00  3.2871464E+01
 4.7437501E+00  3.2658730E+01
 4.7552505E+00  3.2405201E+01
 4.7667503E+00  3.2287746E+01
 4.7782502E+00  3.2126442E+01
 4.7897501E+00  3.2139278E+01
 4.8012505E+00  3.2115139E+01
 4.8127503E+00  3.2126740E+01
 4.8242502E+00  3.2076134E+01
 4.8357501E+00  3.2079796E+01
 4.8472505E+00  3.1971481E+01
 4.8587503E+00  3.2047844E+01
 4.8702502E+00  3.1963598E+01
 4.8817501E+00  3.2062969E+01
 4.8932505E+00  3.2056362E+01
 4.9047503E+00  3.2140511E+01
 4.9162502E+00  3.2263283E+01
 4.9277501E+00  3.2329632E+01
 4.9392505E+00  3.2465767E+01
 4.9507504E+00  3.2507816E+01
 4.9622502E+00  3.2617149E+01
 4.9737501E+00  3.2677120E+01
 4.9852505E+00  3.2724823E+01
 4.9967504E+00  3.2844414E+01
 5.0082502E+00  3.2890160E+01
 5.0197501E+00  3.2941364E+01
 5.0312505E+00  3.2900421E+01
 5.0427504E+00  3.3010338E+01
 5.0542502E+00  3.2991592E+01
 5.0657501E+00  3.2898666E+01
 5.0772505E+00  3.2871048E+01
 5.0887504E+00  3.3022446E+01
 5.1002502E+00  3.3215675E+01
 5.1117501E+00  3.3410130E+01
 5.1232505E+00  3.3503532E+01
 5.1347504E+00  3.3626656E+01
 5.1462502E+00  3.3596226E+01
 5.1577501E+00  3.3552200E+01
 5.1692505E+00  3.3564953E+01
 5.1807504E+00  3.3588921E+01
 5.1922503E+00  3.3655266E+01
 5.2037501E+00  3.3630707E+01
 5.2152505E+00  3.3700241E+01
 5.2267504E+00  3.3594074E+01
 5.2382503E+00  3.3641773E+01
 5.2497501E+00  3.3482086E+01
 5.2612505E+00  3.3462009E+01
 5.2727504E+00  3.3419556E+01
 5.2842503E+00  3.3451485E+01
 5.2957501E+00  3.3472706E+01
 5.3072500E+00  3.3508949E+01
 5.3187504E+00  3.3614784E+01
 5.3302503E+00  3.3755062E+01
 5.3417501E+00  3.3842205E+01
 5.3532500E+00  3.3843647E+01
 5.3647504E+00  3.3813190E+01
 5.3762503E+00  3.3866016E+01
 5.3877501E+00  3.4022377E+01
 5.3992500E+00  3.4087029E+01
 5.4107504E+00  3.4105362E+01
 5.4222503E+00  3.4084496E+01
 5.4337502E+00  3.3996700E+01
 5.4452500E+00  3.3923756E+01
 5.4567504E+00  3.3735775E+01
 5.4682503E+00  3.3654255E+01
 5.4797502E+00  3.3622906E+01
 5.4912500E+00  3.3704102E+01
 5.5027504E+00  3.3905796E+01
 5.5142503E+00  3.4141571E+01
 5.5257502E+00  3.4364227E+01
 5.5372500E+00  3.4416725E+01
 5.5487504E+00  3.4478500E+01
 5.5602503E+00  3.4530403E+01
 5.5717502E+00  3.4685581E+01
 5.5832500E+00  3.4812271E+01
 5.5947504E+00  3.5010197E+01
 5.6062503E+00  3.5115273E+01
 5.6177502E+00  3.5126896E+01
 5.6292500E+00  3.4970360E+01
 5.6407504E+00  3.4971668E+01
 5.6522503E+00  3.5019913E+01
 5.6637502E+00  3.5122635E+01
 5.6752501E+00  3.5227520E+01
 5.6867504E+00  3.5328743E+01
 5.6982503E+00  3.5413296E+01
 5.7097502E+00  3.5495022E+01
 5.7212501E+00  3.5446823E+01
 5.7327504E+00  3.5560215E+01
 5.7442503E+00  3.5587299E+01
 5.7557502E+00  3.5669258E+01
 5.7672501E+00  3.5649895E+01
 5.7787504E+00  3.5689152E+01
 5.7902503E+00  3.5653732E+01
 5.8017502E+00  3.5684887E+01
 5.8132501E+00  3.5669331E+01
 5.8247504E+00  3.5747818E+01
 5.8362503E+00  3.5851196E+01
 5.8477502E+00  3.6020962E+01
 5.8592501E+00  3.6088474E+01
 5.8707504E+00  3.6412422E+01
 5.8822503E+00  3.6997803E+01
 5.8937502E+00  3.7478447E+01
 5.9052501E+00  3.8837772E+01
 5.9167504E+00  4.0706364E+01
 5.9282503E+00  4.1373375E+01
 5.9397502E+00  4.7246330E+01
 5.9512501E+00  5.0127708E+01
 5.9627504E+00  5.2433437E+01
 5.9742503E+00  5.9727238E+01
 5.9857502E+00  5.8050026E+01
 5.9972501E+00  5.8529114E+01
 6.0087504E+00  5.3079990E+01
 6.0202503E+00  4.9091656E+01
 6.0317502E+00  4.6846855E+01
 6.0432501E+00  4.0260025E+01
 6.0547504E+00  3.9079208E+01
 6.0662503E+00  3.8416634E+01
 6.0777502E+00  3.7449089E+01
 6.0892501E+00  3.7373676E+01
 6.1007504E+00  3.7070850E+01
 6.1122503E+00  3.6933296E+01
 6.1237502E+00  3.6699097E+01
 6.1352501E+00  3.6521049E+01
 6.1467505E+00  3.6357487E+01
 6.1582503E+00  3.6368946E+01
 6.1697502E+00  3.6350029E+01
 6.1812501E+00  3.6432590E+01
 6.1927505E+00  3.6438660E+01
 6.2042503E+00  3.6475513E+01
 6.2157502E+00  3.6530113E+01
 6.2272501E+00  3.6690422E+01
 6.2387505E+00  3.6740772E+01
 6.2502503E+00  3.6919735E+01
 6.2617502E+00  3.6988258E+01
 6.2732501E+00  3.7100113E+01
 6.2847505E+00  3.7231701E+01
 6.2962503E+00  3.7226368E+01
 6.3077502E+00  3.7314522E+01
 6.3192501E+00  3.7332981E+01
 6.3307505E+00  3.7537476E+01
 6.3422503E+00  3.7669460E+01
 6.3537502E+00  3.7838535E+01
 6.3652501E+00  3.7981556E+01
 6.3767505E+00  3.7990749E+01
 6.3882504E+00  3.7941345E+01
 6.3997502E+00  3.7862614E+01
 6.4112501E+00  3.7892441E+01
 6.4227505E+00  3.7995403E+01
 6.4342504E+00  3.8114609E+01
 6.4457502E+00  3.8318916E+01
 6.4572501E+00  3.8373463E+01
 6.4687505E+00  3.8401703E+01
 6.4802504E+00  3.8423248E+01
 6.4917502E+00  3.8481430E+01
 6.5032501E+00  3.8623070E+01
 6.5147505E+00  3.8688374E+01
 6.5262504E+00  3.8811687E+01
 6.5377502E+00  3.8833981E+01
 6.5492501E+00  3.8909267E+01
 6.5607505E+00  3.8910934E+01
 6.5722504E+00  3.8878803E+01
 6.5837502E+00  3.8799492E+01
 6.5952501E+00  3.8830269E+01
 6.6067505E+00  3.8911243E+01
 6.6182504E+00  3.9044449E+01
 6.6297503E+00  3.9193554E+01
 6.6412501E+00  3.9333977E+01
 6.6527505E+00  3.9542801E+01
 6.6642504E+00  3.9746544E+01
 6.6757503E+00  3.9739166E+01
 6.6872501E+00  3.9681721E+01
 6.6987505E+00  3.9526974E+01
 6.7102504E+00  3.9575321E+01
 6.7217503E+00  3.9658432E+01
 6.7332501E+00  3.9725502E+01
 6.7447505E+00  3.9833004E+01
 6.7562504E+00  3.9946865E+01
 6.7677503E+00  4.0154015E+01
 6.7792501E+00  4.0340851E+01
 6.7907505E+00  4.0507866E+01
 6.8022504E+00  4.0631962E+01
 6.8137503E+00  4.0808411E+01
 6.8252501E+00  4.0978481E+01
 6.8367505E+00  4.1053741E+01
 6.8482504E+00  4.1153530E+01
 6.8597503E+00  4.1162132E+01
 6.8712502E+00  4.1181725E+01
 6.8827505E+00  4.1197216E+01
 6.8942504E+00  4.1223763E+01
 6.9057503E+00  4.1375141E+01
 6.9172502E+00  4.1413239E+01
 6.9287505E+00  4.1549801E+01
 6.9402504E+00  4.1523422E+01
 6.9517503E+00  4.1611897E+01
 6.9632502E+00  4.1510132E+01
 6.9747505E+00  4.1649654E+01
 6.9862504E+00  4.1708256E+01
 6.9977503E+00  4.1856121E+01
 7.0092502E+00  4.1830341E+01
 7.0207505E+00  4.1854736E+01
 7.0322504E+00  4.1838268E+01
 7.0437503E+00  4.1878708E+01
 7.0552502E+00  4.1900047E+01
 7.0667505E+00  4.1974121E+01
 7.0782504E+00  4.2004776E+01
 7.0897503E+00  4.2126362E+01
 7.1012502E+00  4.2319450E+01
 7.1127505E+00  4.2496838E+01
 7.1242504E+00  4.2613056E+01
 7.1357503E+00  4.2536518E+01
 7.1472502E+00  4.2484035E+01
 7.1587505E+00  4.2411999E+01
 7.1702504E+00  4.2411789E+01
 7.1817503E+00  4.2440933E+01
 7.1932502E+00  4.2591774E+01
 7.2047505E+00  4.2698643E+01
 7.2162504E+00  4.2803886E+01
 7.2277503E+00  4.2840088E+01
 7.2392502E+00  4.2887287E+01
 7.2507505E+00  4.2962666E+01
 7.2622504E+00  4.2998539E+01
 7.2737503E+00  4.2923916E+01
 7.2852502E+00  4.2886478E+01
 7.2967505E+00  4.2828346E+01
 7.3082504E+00  4.2942577E+01
 7.3197503E+00  4.2982571E+01
 7.3312502E+00  4.3105614E+01
 7.3427505E+00  4.3128803E+01
 7.3542504E+00  4.3185219E+01
 7.3657503E+00  4.3142109E+01
 7.3772502E+00  4.3147434E+01
 7.3887506E+00  4.3156601E+01
 7.4002504E+00  4.3298298E+01
 7.4117503E+00  4.3459980E+01
 7.4232502E+00  4.3626205E+01
 7.4347506E+00  4.3733688E+01
 7.4462504E+00  4.3758087E+01
 7.4577503E+00  4.3739902E+01
 7.4692502E+00  4.3719208E+01
 7.4807506E+00  4.3756096E+01
 7.4922504E+00  4.3850681E+01
 7.5037503E+00  4.3743343E+01
 7.5152502E+00  4.3678963E+01
 7.5267506E+00  4.3625713E+01
 7.5382504E+00  4.3728176E+01
 7.5497503E+00  4.3829067E+01
 7.5612502E+00  4.3833828E+01
 7.5727506E+00  4.3756279E+01
 7.5842505E+00  4.3705479E+01
 7.5957503E+00  4.3736671E+01
 7.6072502E+00  4.3858074E+01
 7.6187506E+00  4.3881710E+01
 7.6302505E+00  4.3866703E+01
 7.6417503E+00  4.3838779E+01
 7.6532502E+00  4.3828178E+01
 7.6647506E+00  4.3773125E+01
 7.6762505E+00  4.3764217E+01
 7.6877503E+00  4.3819790E+01
 7.6992502E+00  4.3820400E+01
 7.7107506E+00  4.3889462E+01
 7.7222505E+00  4.3868607E+01
 7.7337503E+00  4.3890545E+01
 7.7452502E+00  4.3926132E+01
 7.7567506E+00  4.3926086E+01
 7.7682505E+00  4.3986515E+01
 7.7797503E+00  4.3996719E+01
 7.7912502E+00  4.4087132E+01
 7.8027506E+00  4.4058407E+01
 7.8142505E+00  4.4021839E+01
 7.8257504E+00  4.3868614E+01
 7.8372502E+00  4.3790768E+01
 7.8487506E+00  4.3676342E+01
 7.8602505E+00  4.3616673E+01
 7.8717504E+00  4.3479912E+01
 7.8832502E+00  4.3480324E+01
 7.8947506E+00  4.3426918E+01
 7.9062505E+00  4.3530804E+01
 7.9177504E+00  4.3542202E+01
 7.9292502E+00  4.3545517E+01
 7.9407506E+00  4.3464996E+01
 7.9522505E+00  4.3312965E+01
 7.9637504E+00  4.3197681E+01
 7.9752502E+00  4.3054783E+01
 7.9867506E+00  4.2994194E+01
 7.9982505E+00  4.2900005E+01
 8.0097504E+00  4.2864857E+01
 8.0212507E+00  4.2776016E+01
 8.0327501E+00  4.2766281E+01
 8.0442505E+00  4.2803345E+01
 8.0557508E+00  4.2787178E+01
 8.0672503E+00  4.2692902E+01
 8.0787506E+00  4.2649822E+01
 8.0902500E+00  4.2626530E+01
 8.1017504E+00  4.2574886E+01
 8.1132507E+00  4.2373425E+01
 8.1247501E+00  4.2155529E+01
 8.1362505E+00  4.2049206E+01
 8.1477509E+00  4.2008583E+01
 8.1592503E+00  4.1903034E+01
 8.1707506E+00  4.1837490E+01
 8.1822500E+00  4.1660229E+01
 8.1937504E+00  4.1616455E+01
 8.2052507E+00  4.1571716E+01
 8.2167501E+00  4.1479004E+01
 8.2282505E+00  4.1368446E+01
 8.2397509E+00  4.1103317E+01
 8.2512503E+00  4.0971134E+01
 8.2627506E+00  4.0827496E+01
 8.2742500E+00  4.0679585E+01
 8.2857504E+00  4.0480114E+01
 8.2972507E+00  4.0271534E+01
 8.3087502E+00  4.0195835E+01
 8.3202505E+00  4.0097439E+01
 8.3317509E+00  3.9982391E+01
 8.3432503E+00  3.9797916E+01
 8.3547506E+00  3.9600628E+01
 8.3662500E+00  3.9407604E+01
 8.3777504E+00  3.9160263E+01
 8.3892508E+00  3.8985168E+01
 8.4007502E+00  3.8794189E+01
 8.4122505E+00  3.8693966E+01
 8.4237509E+00  3.8554867E+01
 8.4352503E+00  3.8412743E+01
 8.4467506E+00  3.8320900E+01
 8.4582500E+00  3.8184425E+01
 8.4697504E+00  3.8072937E+01
 8.4812508E+00  3.7901806E+01
 8.4927502E+00  3.7808628E+01
 8.5042505E+00  3.7644341E+01
 8.5157509E+00  3.7519386E+01
 8.5272503E+00  3.7357327E+01
 8.5387506E+00  3.7132446E+01
 8.5502501E+00  3.6960194E+01
 8.5617504E+00  3.6677486E+01
 8.5732508E+00  3.6608040E+01
 8.5847502E+00  3.6354702E+01
 8.5962505E+00  3.6129166E+01
 8.6077509E+00  3.5896503E+01
 8.6192503E+00  3.5806252E+01
 8.6307507E+00  3.5715542E+01
 8.6422501E+00  3.5589497E+01
 8.6537504E+00  3.5354103E+01
 8.6652508E+00  3.5258926E+01
 8.6767502E+00  3.5131058E+01
 8.6882505E+00  3.5079403E+01
 8.6997509E+00  3.4953308E+01
 8.7112503E+00  3.4888500E+01
 8.7227507E+00  3.4686455E+01
 8.7342501E+00  3.4465332E+01
 8.7457504E+00  3.4118267E+01
 8.7572508E+00  3.3882160E+01
 8.7687502E+00  3.3679691E+01
 8.7802505E+00  3.3560318E+01
 8.7917500E+00  3.3421795E+01
 8.8032503E+00  3.3268749E+01
 8.8147507E+00  3.3168423E+01
 8.8262501E+00  3.3034512E+01
 8.8377504E+00  3.2816517E+01
 8.8492508E+00  3.2599163E+01
 8.8607502E+00  3.2424473E+01
 8.8722506E+00  3.2326935E+01
 8.8837500E+00  3.2158726E+01
 8.8952503E+00  3.2054363E+01
 8.9067507E+00  3.1896824E+01
 8.9182501E+00  3.1729591E+01
 8.9297504E+00  3.1512384E+01
 8.9412508E+00  3.1296318E+01
 8.9527502E+00  3.1183313E+01
 8.9642506E+00  3.1086512E+01
 8.9757500E+00  3.1039778E+01
 8.9872503E+00  3.0920282E+01
 8.9987507E+00  3.0744867E+01
 9.0102501E+00  3.0483137E+01
 9.0217505E+00  3.0284016E+01
 9.0332508E+00  3.0075243E+01
 9.0447502E+00  2.9966423E+01
 9.0562506E+00  2.9842564E+01
 9.0677500E+00  2.9797720E+01
 9.0792503E+00  2.9746126E+01
 9.0907507E+00  2.9602287E+01
 9.1022501E+00  2.9404236E+01
 9.1137505E+00  2.9245373E+01
 9.1252508E+00  2.9154413E+01
 9.1367502E+00  2.9058115E+01
 9.1482506E+00  2.8883390E+01
 9.1597500E+00  2.8768660E+01
 9.1712503E+00  2.8583456E+01
 9.1827507E+00  2.8458342E+01
 9.1942501E+00  2.8292337E+01
 9.2057505E+00  2.8218529E+01
 9.2172508E+00  2.8205898E+01
 9.2287502E+00  2.8193573E+01
 9.2402506E+00  2.8203558E+01
 9.2517500E+00  2.8116095E+01
 9.2632504E+00  2.7976845E+01
 9.2747507E+00  2.7820513E+01
 9.2862501E+00  2.7643456E+01
 9.2977505E+00  2.7546387E+01
 9.3092508E+00  2.7466536E+01
 9.3207502E+00  2.7405592E+01
 9.3322506E+00  2.7309898E+01
 9.3437500E+00  2.7181477E+01
 9.3552504E+00  2.7139959E+01
 9.3667507E+00  2.7018135E+01
 9.3782501E+00  2.7015011E+01
 9.3897505E+00  2.6934420E+01
 9.4012508E+00  2.6885956E+01
 9.4127502E+00  2.6833515E+01
 9.4242506E+00  2.6809566E+01
 9.4357500E+00  2.6808912E+01
 9.4472504E+00  2.6732214E+01
 9.4587507E+00  2.6589920E+01
 9.4702501E+00  2.6539980E+01
 9.4817505E+00  2.6462740E+01
 9.4932508E+00  2.6444637E+01
 9.5047503E+00  2.6362597E+01
 9.5162506E+00  2.6352274E+01
 9.5277500E+00  2.6283918E+01
 9.5392504E+00  2.6235613E+01
 9.5507507E+00  2.6048605E+01
 9.5622501E+00  2.6011902E+01
 9.5737505E+00  2.5892632E+01
 9.5852509E+00  2.5985281E+01
 9.5967503E+00  2.6026867E+01
 9.6082506E+00  2.6019039E+01
 9.6197500E+00  2.5954922E+01
 9.6312504E+00  2.5751282E+01
 9.6427507E+00  2.5633133E+01
 9.6542501E+00  2.5425385E+01
 9.6657505E+00  2.5313416E+01
 9.6772509E+00  2.5167736E+01
 9.6887503E+00  2.5134050E+01
 9.7002506E+00  2.5119921E+01
 9.7117500E+00  2.5219097E+01
 9.7232504E+00  2.5238899E+01
 9.7347507E+00  2.5177977E+01
 9.7462502E+00  2.5067720E+01
 9.7577505E+00  2.4955961E+01
 9.7692509E+00  2.4880257E+01
 9.7807503E+00  2.4804548E+01
 9.7922506E+00  2.4766239E+01
 9.8037500E+00  2.4733753E+01
 9.8152504E+00  2.4751068E+01
 9.8267508E+00  2.4749695E+01
 9.8382502E+00  2.4723419E+01
 9.8497505E+00  2.4655960E+01
 9.8612509E+00  2.4564632E+01
 9.8727503E+00  2.4468815E+01
 9.8842506E+00  2.4370470E+01
 9.8957500E+00  2.4302849E+01
 9.9072504E+00  2.4294437E+01
 9.9187508E+00  2.4306438E+01
 9.9302502E+00  2.4296637E+01
 9.9417505E+00  2.4248039E+01
 9.9532509E+00  2.4195068E+01
 9.9647503E+00  2.4192619E+01
 9.9762506E+00  2.4208714E+01
 9.9877501E+00  2.4209368E+01
 9.9992504E+00  2.4103027E+01
 1.0010751E+01  2.4026016E+01
 1.0022250E+01  2.3931147E+01
 1.0033751E+01  2.3896700E+01
 1.0045251E+01  2.3872023E+01
 1.0056750E+01  2.3826904E+01
 1.0068251E+01  2.3881405E+01
 1.0079750E+01  2.3857576E+01
 1.0091250E+01  2.3916122E+01
 1.0102751E+01  2.3888124E+01
 1.0114250E+01  2.3875536E+01
 1.0125751E+01  2.3832613E+01
 1.0137251E+01  2.3730576E+01
 1.0148750E+01  2.3695671E+01
 1.0160251E+01  2.3690144E+01
 1.0171750E+01  2.3640894E+01
 1.0183250E+01  2.3662333E+01
 1.0194751E+01  2.3622278E+01
 1.0206250E+01  2.3671333E+01
 1.0217751E+01  2.3688190E+01
 1.0229251E+01  2.3681849E+01
 1.0240750E+01  2.3664812E+01
 1.0252251E+01  2.3609665E+01
 1.0263750E+01  2.3601038E+01
 1.0275250E+01  2.3640348E+01
 1.0286751E+01  2.3628540E+01
 1.0298250E+01  2.3576077E+01
 1.0309751E+01  2.3446135E+01
 1.0321251E+01  2.3334024E+01
 1.0332750E+01  2.3248289E+01
 1.0344251E+01  2.3235563E+01
 1.0355750E+01  2.3208149E+01
 1.0367250E+01  2.3206011E+01
 1.0378751E+01  2.3227896E+01
 1.0390250E+01  2.3308626E+01
 1.0401751E+01  2.3363993E+01
 1.0413251E+01  2.3406740E+01
 1.0424750E+01  2.3345713E+01
 1.0436251E+01  2.3321095E+01
 1.0447750E+01  2.3254627E+01
 1.0459250E+01  2.3243942E+01
 1.0470751E+01  2.3193026E+01
 1.0482250E+01  2.3125090E+01
 1.0493751E+01  2.3066544E+01
 1.0505251E+01  2.3032421E+01
 1.0516750E+01  2.3054375E+01
 1.0528251E+01  2.3076128E+01
 1.0539750E+01  2.3062906E+01
 1.0551250E+01  2.3037844E+01
 1.0562751E+01  2.3055414E+01
 1.0574250E+01  2.2993895E+01
 1.0585751E+01  2.2956270E+01
 1.0597251E+01  2.2904572E+01
 1.0608750E+01  2.2922939E+01
 1.0620251E+01  2.2909212E+01
 1.0631750E+01  2.2910069E+01
 1.0643250E+01  2.2881664E+01
 1.0654751E+01  2.2874252E+01
 1.0666250E+01  2.2847052E+01
 1.0677751E+01  2.2818172E+01
 1.0689251E+01  2.2800802E+01
 1.0700750E+01  2.2788153E+01
 1.0712251E+01  2.2782103E+01
 1.0723750E+01  2.2819838E+01
 1.0735250E+01  2.2785707E+01
 1.0746751E+01  2.2791464E+01
 1.0758250E+01  2.2742495E+01
 1.0769751E+01  2.2711418E+01
 1.0781251E+01  2.2652231E+01
 1.0792750E+01  2.2590738E+01
 1.0804251E+01  2.2531338E+01
 1.0815750E+01  2.2548548E+01
 1.0827250E+01  2.2544266E+01
 1.0838751E+01  2.2536608E+01
 1.0850250E+01  2.2557053E+01
 1.0861751E+01  2.2580364E+01
 1.0873251E+01  2.2646666E+01
 1.0884750E+01  2.2607214E+01
 1.0896251E+01  2.2614868E+01
 1.0907750E+01  2.2636814E+01
 1.0919250E+01  2.2672344E+01
 1.0930751E+01  2.2638893E+01
 1.0942250E+01  2.2560539E+01
 1.0953751E+01  2.2518875E+01
 1.0965251E+01  2.2498148E+01
 1.0976750E+01  2.2508884E+01
 1.0988251E+01  2.2428541E+01
 1.0999750E+01  2.2395754E+01
 1.1011250E+01  2.2372066E+01
 1.1022751E+01  2.2432482E+01
 1.1034250E+01  2.2472830E+01
 1.1045751E+01  2.2457960E+01
 1.1057251E+01  2.2417572E+01
 1.1068750E+01  2.2418758E+01
 1.1080251E+01  2.2419508E+01
 1.1091750E+01  2.2426537E+01
 1.1103251E+01  2.2463200E+01
 1.1114751E+01  2.2469566E+01
 1.1126250E+01  2.2494888E+01
 1.1137751E+01  2.2445700E+01
 1.1149251E+01  2.2480423E+01
 1.1160750E+01  2.2506903E+01
 1.1172251E+01  2.2478212E+01
 1.1183750E+01  2.2432547E+01
 1.1195251E+01  2.2369665E+01
 1.1206751E+01  2.2336811E+01
 1.1218250E+01  2.2257120E+01
 1.1229751E+01  2.2218739E+01
 1.1241251E+01  2.2180832E+01
 1.1252750E+01  2.2147888E+01
 1.1264251E+01  2.2138371E+01
 1.1275750E+01  2.2117397E+01
 1.1287251E+01  2.2106764E+01
 1.1298751E+01  2.2110662E+01
 1.1310250E+01  2.2180096E+01
 1.1321751E+01  2.2279638E+01
 1.1333251E+01  2.2340227E+01
 1.1344750E+01  2.2328199E+01
 1.1356251E+01  2.2359974E+01
 1.1367750E+01  2.2391644E+01
 1.1379251E+01  2.2438162E+01
 1.1390751E+01  2.2506332E+01
 1.1402250E+01  2.2573561E+01
 1.1413751E+01  2.2615608E+01
 1.1425251E+01  2.2581734E+01
 1.1436750E+01  2.2532917E+01
 1.1448251E+01  2.2603491E+01
 1.1459750E+01  2.2672281E+01
 1.1471251E+01  2.2767599E+01
 1.1482751E+01  2.2785797E+01
 1.1494250E+01  2.2831833E+01
 1.1505751E+01  2.2963945E+01
 1.1517251E+01  2.3090263E+01
 1.1528750E+01  2.3608866E+01
 1.1540251E+01  2.4260429E+01
 1.1551750E+01  2.4813467E+01
 1.1563251E+01  2.6754793E+01
 1.1574751E+01  2.7568016E+01
 1.1586250E+01  2.8458523E+01
 1.1597751E+01  2.8930183E+01
 1.1609251E+01  2.8294230E+01
 1.1620750E+01  2.7903826E+01
 1.1632251E+01  2.5908382E+01
 1.1643750E+01  2.5153341E+01
 1.1655251E+01  2.4201393E+01
 1.1666751E+01  2.3320673E+01
 1.1678250E+01  2.3086002E+01
 1.1689751E+01  2.2779697E+01
 1.1701251E+01  2.2547781E+01
 1.1712750E+01  2.2385178E+01
 1.1724251E+01  2.2281376E+01
 1.1735750E+01  2.2285778E+01
 1.1747251E+01  2.2367388E+01
 1.1758751E+01  2.2389198E+01
 1.1770250E+01  2.2384800E+01
 1.1781751E+01  2.2364244E+01
 1.1793251E+01  2.2318287E+01
 1.1804750E+01  2.2319139E+01
 1.1816251E+01  2.2298033E+01
 1.1827750E+01  2.2292850E+01
 1.1839251E+01  2.2304079E+01
 1.1850751E+01  2.2256210E+01
 1.1862250E+01  2.2279905E+01
 1.1873751E+01  2.2284073E+01
 1.1885251E+01  2.2339088E+01
 1.1896750E+01  2.2410063E+01
 1.1908251E+01  2.2462654E+01
 1.1919750E+01  2.2544878E+01
 1.1931251E+01  2.2661739E+01
 1.1942751E+01  2.2721663E+01
 1.1954250E+01  2.2790613E+01
 1.1965751E+01  2.2810528E+01
 1.1977251E+01  2.2809101E+01
 1.1988750E+01  2.2816744E+01
 1.2000251E+01  2.2772013E+01
 1.2011750E+01  2.2781881E+01
 1.2023251E+01  2.2774427E+01
 1.2034751E+01  2.2826664E+01
 1.2046250E+01  2.3005671E+01
 1.2057751E+01  2.3272234E+01
 1.2069251E+01  2.3675634E+01
 1.2080750E+01  2.4155382E+01
 1.2092251E+01  2.4515051E+01
 1.2103750E+01  2.4742144E+01
 1.2115251E+01  2.4671011E+01
 1.2126751E+01  2.4520672E+01
 1.2138250E+01  2.4089771E+01
 1.2149751E+01  2.3727440E+01
 1.2161251E+01  2.3321493E+01
 1.2172750E+01  2.3086868E+01
 1.2184251E+01  2.2833998E+01
 1.2195750E+01  2.2699638E+01
 1.2207251E+01  2.2581947E+01
 1.2218751E+01  2.2500610E+01
 1.2230250E+01  2.2431723E+01
 1.2241751E+01  2.2387091E+01
 1.2253251E+01  2.2382101E+01
 1.2264750E+01  2.2402184E+01
 1.2276251E+01  2.2367264E+01
 1.2287750E+01  2.2374870E+01
 1.2299251E+01  2.2340832E+01
 1.2310751E+01  2.2395630E+01
 1.2322250E+01  2.2325815E+01
 1.2333751E+01  2.2331932E+01
 1.2345250E+01  2.2310085E+01
 1.2356750E+01  2.2309338E+01
 1.2368251E+01  2.2266476E+01
 1.2379750E+01  2.2257078E+01
 1.2391251E+01  2.2294453E+01
 1.2402751E+01  2.2361410E+01
 1.2414250E+01  2.2344156E+01
 1.2425751E+01  2.2373817E+01
 1.2437250E+01  2.2327715E+01
 1.2448750E+01  2.2346365E+01
 1.2460251E+01  2.2307287E+01
 1.2471750E+01  2.2378252E+01
 1.2483251E+01  2.2448801E+01
 1.2494751E+01  2.2483421E+01
 1.2506250E+01  2.2430449E+01
 1.2517751E+01  2.2418549E+01
 1.2529250E+01  2.2413883E+01
 1.2540751E+01  2.2444677E+01
 1.2552251E+01  2.2470278E+01
 1.2563750E+01  2.2545458E+01
 1.2575251E+01  2.2601519E+01
 1.2586751E+01  2.2624866E+01
 1.2598250E+01  2.2680193E+01
 1.2609751E+01  2.2699579E+01
 1.2621250E+01  2.2737448E+01
 1.2632751E+01  2.2706829E+01
 1.2644251E+01  2.2644125E+01
 1.2655750E+01  2.2572742E+01
 1.2667251E+01  2.2590832E+01
 1.2678751E+01  2.2684685E+01
 1.2690250E+01  2.2764116E+01
 1.2701751E+01  2.2822485E+01
 1.2713250E+01  2.2889502E+01
 1.2724751E+01  2.2934536E+01
 1.2736251E+01  2.2922237E+01
 1.2747750E+01  2.2929461E+01
 1.2759251E+01  2.2964211E+01
 1.2770751E+01  2.2997980E+01
 1.2782250E+01  2.3034225E+01
 1.2793751E+01  2.3026411E+01
 1.2805250E+01  2.3081362E+01
 1.2816751E+01  2.3119209E+01
 1.2828251E+01  2.3150824E+01
 1.2839750E+01  2.3138935E+01
 1.2851251E+01  2.3166744E+01
 1.2862751E+01  2.3229954E+01
 1.2874250E+01  2.3266180E+01
 1.2885751E+01  2.3267044E+01
 1.2897250E+01  2.3321951E+01
 1.2908751E+01  2.3456579E+01
 1.2920251E+01  2.3534672E+01
 1.2931750E+01  2.3603016E+01
 1.2943251E+01  2.3604965E+01
 1.2954751E+01  2.3647875E+01
 1.2966250E+01  2.3682844E+01
 1.2977751E+01  2.3742794E+01
 1.2989250E+01  2.3752579E+01
 1.3000751E+01  2.3869940E+01
 1.3012251E+01  2.3939850E+01
 1.3023750E+01  2.4036514E+01
 1.3035251E+01  2.4019791E+01
 1.3046751E+01  2.4092882E+01
 1.3058250E+01  2.4149019E+01
 1.3069751E+01  2.4204784E+01
 1.3081250E+01  2.4283800E+01
 1.3092751E+01  2.4451759E+01
 1.3104251E+01  2.4631741E+01
 1.3115750E+01  2.4829895E+01
 1.3127251E+01  2.4982037E+01
 1.3138751E+01  2.5045828E+01
 1.3150250E+01  2.5132164E+01
 1.3161751E+01  2.5165674E+01
 1.3173250E+01  2.5295273E+01
 1.3184751E+01  2.5362413E+01
 1.3196251E+01  2.5457989E+01
 1.3207750E+01  2.5606220E+01
 1.3219251E+01  2.5776569E+01
 1.3230751E+01  2.5956944E+01
 1.3242250E+01  2.6121655E+01
 1.3253751E+01  2.6261564E+01
 1.3265250E+01  2.6400320E+01
 1.3276751E+01  2.6514790E+01
 1.3288251E+01  2.6625231E+01
 1.3299750E+01  2.6815985E+01
 1.3311251E+01  2.6919926E+01
 1.3322751E+01  2.7084736E+01
 1.3334250E+01  2.7210985E+01
 1.3345751E+01  2.7340664E+01
 1.3357250E+01  2.7449211E+01
 1.3368751E+01  2.7538532E+01
 1.3380251E+01  2.7711571E+01
 1.3391750E+01  2.7852547E+01
 1.3403251E+01  2.7993416E+01
 1.3414751E+01  2.8049950E+01
 1.3426250E+01  2.8097857E+01
 1.3437751E+01  2.8115145E+01
 1.3449250E+01  2.8270683E+01
 1.3460751E+01  2.8376707E+01
 1.3472251E+01  2.8560240E+01
 1.3483750E+01  2.8734798E+01
 1.3495251E+01  2.8892729E+01
 1.3506751E+01  2.9071379E+01
 1.3518250E+01  2.9114283E+01
 1.3529751E+01  2.9221134E+01
 1.3541250E+01  2.9265951E+01
 1.3552751E+01  2.9261028E+01
 1.3564251E+01  2.9289801E+01
 1.3575750E+01  2.9292835E+01
 1.3587251E+01  2.9405972E+01
 1.3598751E+01  2.9476147E+01
 1.3610250E+01  2.9534784E+01
 1.3621751E+01  2.9557129E+01
 1.3633250E+01  2.9509771E+01
 1.3644751E+01  2.9519905E+01
 1.3656251E+01  2.9510588E+01
 1.3667750E+01  2.9567749E+01
 1.3679251E+01  2.9540800E+01
 1.3690751E+01  2.9475130E+01
 1.3702250E+01  2.9369923E+01
 1.3713751E+01  2.9298517E+01
 1.3725250E+01  2.9274176E+01
 1.3736751E+01  2.9311949E+01
 1.3748251E+01  2.9370409E+01
 1.3759750E+01  2.9379988E+01
 1.3771251E+01  2.9378887E+01
 1.3782751E+01  2.9322254E+01
 1.3794250E+01  2.9371176E+01
 1.3805751E+01  2.9389032E+01
 1.3817250E+01  2.9419119E+01
 1.3828751E+01  2.9372875E+01
 1.3840251E+01  2.9354685E+01
 1.3851750E+01  2.9433098E+01
 1.3863251E+01  2.9742659E+01
 1.3874751E+01  3.0258749E+01
 1.3886250E+01  3.1374353E+01
 1.3897751E+01  3.2469818E+01
 1.3909250E+01  3.4463299E+01
 1.3920751E+01  3.6183273E+01
 1.3932251E+01  3.8280621E+01
 1.3943750E+01  3.9746704E+01
 1.3955251E+01  4.0533146E+01
 1.3966751E+01  4.0422543E+01
 1.3978251E+01  3.9263237E+01
 1.3989751E+01  3.7383984E+01
 1.4001250E+01  3.5079456E+01
 1.4012751E+01  3.2606667E+01
 1.4024251E+01  3.0785669E+01
 1.4035750E+01  2.9442833E+01
 1.4047251E+01  2.8598333E+01
 1.4058751E+01  2.8172483E+01
 1.4070251E+01  2.7920008E+01
 1.4081751E+01  2.7697803E+01
 1.4093250E+01  2.7601601E+01
 1.4104751E+01  2.7530663E+01
 1.4116251E+01  2.7516500E+01
 1.4127750E+01  2.7495813E+01
 1.4139251E+01  2.7432796E+01
 1.4150751E+01  2.7326426E+01
 1.4162251E+01  2.7183271E+01
 1.4173751E+01  2.7031107E+01
 1.4185250E+01  2.6867733E+01
 1.4196751E+01  2.6736534E+01
 1.4208251E+01  2.6642380E+01
 1.4219750E+01  2.6610563E+01
 1.4231251E+01  2.6529016E+01
 1.4242751E+01  2.6476397E+01
 1.4254251E+01  2.6403376E+01
 1.4265751E+01  2.6382889E+01
 1.4277250E+01  2.6294798E+01
 1.4288751E+01  2.6236259E+01
 1.4300251E+01  2.6231621E+01
 1.4311750E+01  2.6268276E+01
 1.4323251E+01  2.6220650E+01
 1.4334751E+01  2.6128513E+01
 1.4346251E+01  2.6032570E+01
 1.4357751E+01  2.5952045E+01
 1.4369250E+01  2.5879328E+01
 1.4380751E+01  2.5837234E+01
 1.4392251E+01  2.5803377E+01
 1.4403750E+01  2.5760010E+01
 1.4415251E+01  2.5741894E+01
 1.4426751E+01  2.5736603E+01
 1.4438251E+01  2.5708422E+01
 1.4449751E+01  2.5680555E+01
 1.4461250E+01  2.5635014E+01
 1.4472751E+01  2.5626591E+01
 1.4484251E+01  2.5600811E+01
 1.4495750E+01  2.5614960E+01
 1.4507251E+01  2.5588221E+01
 1.4518751E+01  2.5495340E+01
 1.4530251E+01  2.5453356E+01
 1.4541751E+01  2.5398022E+01
 1.4553250E+01  2.5389530E+01
 1.4564751E+01  2.5380013E+01
 1.4576251E+01  2.5372944E+01
 1.4587750E+01  2.5365496E+01
 1.4599251E+01  2.5287411E+01
 1.4610751E+01  2.5264532E+01
 1.4622251E+01  2.5220568E+01
 1.4633751E+01  2.5168848E+01
 1.4645250E+01  2.5145893E+01
 1.4656751E+01  2.5096109E+01
 1.4668251E+01  2.5089657E+01
 1.4679750E+01  2.5081594E+01
 1.4691251E+01  2.5113586E+01
 1.4702751E+01  2.5149784E+01
 1.4714251E+01  2.5113260E+01
 1.4725751E+01  2.5075108E+01
 1.4737250E+01  2.4978035E+01
 1.4748751E+01  2.4931211E+01
 1.4760251E+01  2.4864811E+01
 1.4771750E+01  2.4840662E+01
 1.4783251E+01  2.4781174E+01
 1.4794751E+01  2.4775875E+01
 1.4806251E+01  2.4784168E+01
 1.4817751E+01  2.4814520E+01
 1.4829250E+01  2.4812864E+01
 1.4840751E+01  2.4843775E+01
 1.4852251E+01  2.4820305E+01
 1.4863750E+01  2.4810537E+01
 1.4875251E+01  2.4719091E+01
 1.4886751E+01  2.4722944E+01
 1.4898251E+01  2.4736311E+01
 1.4909751E+01  2.4755127E+01
 1.4921250E+01  2.4719948E+01
 1.4932751E+01  2.4710037E+01
 1.4944251E+01  2.4720655E+01
 1.4955750E+01  2.4739098E+01
 1.4967251E+01  2.4735907E+01
 1.4978751E+01  2.4742760E+01
 1.4990251E+01  2.4668367E+01
 1.5001751E+01  2.4649446E+01
 1.5013250E+01  2.4664326E+01
 1.5024751E+01  2.4709991E+01
 1.5036251E+01  2.4664434E+01
 1.5047750E+01  2.4655205E+01
 1.5059251E+01  2.4690317E+01
 1.5070751E+01  2.4696012E+01
 1.5082251E+01  2.4639570E+01
 1.5093751E+01  2.4599257E+01
 1.5105250E+01  2.4588398E+01
 1.5116751E+01  2.4626944E+01
 1.5128251E+01  2.4701574E+01
 1.5139750E+01  2.4902388E+01
 1.5151251E+01  2.5267405E+01
 1.5162751E+01  2.5577530E+01
 1.5174251E+01  2.5964558E+01
 1.5185751E+01  2.6177225E+01
 1.5197250E+01  2.6305794E+01
 1.5208751E+01  2.6328621E+01
 1.5220251E+01  2.6137760E+01
 1.5231750E+01  2.5915781E+01
 1.5243251E+01  2.5494402E+01
 1.5254751E+01  2.5229118E+01
 1.5266251E+01  2.4928473E+01
 1.5277751E+01  2.4756386E+01
 1.5289250E+01  2.4657223E+01
 1.5300751E+01  2.4620646E+01
 1.5312251E+01  2.4573748E+01
 1.5323750E+01  2.4480383E+01
 1.5335251E+01  2.4393703E+01
 1.5346751E+01  2.4317430E+01
 1.5358251E+01  2.4278133E+01
 1.5369751E+01  2.4283730E+01
 1.5381250E+01  2.4285511E+01
 1.5392751E+01  2.4311670E+01
 1.5404251E+01  2.4347338E+01
 1.5415751E+01  2.4364338E+01
 1.5427251E+01  2.4361212E+01
 1.5438751E+01  2.4352251E+01
 1.5450251E+01  2.4326067E+01
 1.5461751E+01  2.4305620E+01
 1.5473250E+01  2.4258310E+01
 1.5484751E+01  2.4292917E+01
 1.5496251E+01  2.4281944E+01
 1.5507751E+01  2.4255978E+01
 1.5519251E+01  2.4228344E+01
 1.5530751E+01  2.4234673E+01
 1.5542251E+01  2.4277267E+01
 1.5553751E+01  2.4258743E+01
 1.5565250E+01  2.4340267E+01
 1.5576751E+01  2.4340914E+01
 1.5588251E+01  2.4409485E+01
 1.5599751E+01  2.4380838E+01
 1.5611251E+01  2.4371765E+01
 1.5622751E+01  2.4326311E+01
 1.5634251E+01  2.4263536E+01
 1.5645751E+01  2.4333605E+01
 1.5657250E+01  2.4339218E+01
 1.5668751E+01  2.4357140E+01
 1.5680251E+01  2.4291124E+01
 1.5691751E+01  2.4312492E+01
 1.5703251E+01  2.4353853E+01
 1.5714751E+01  2.4346979E+01
 1.5726251E+01  2.4354408E+01
 1.5737751E+01  2.4293346E+01
 1.5749250E+01  2.4259607E+01
 1.5760751E+01  2.4270653E+01
 1.5772251E+01  2.4331741E+01
 1.5783751E+01  2.4386370E+01
 1.5795251E+01  2.4410339E+01
 1.5806751E+01  2.4457752E+01
 1.5818251E+01  2.4468849E+01
 1.5829751E+01  2.4450180E+01
 1.5841250E+01  2.4440128E+01
 1.5852751E+01  2.4450191E+01
 1.5864251E+01  2.4423824E+01
 1.5875751E+01  2.4427372E+01
 1.5887251E+01  2.4420887E+01
 1.5898750E+01  2.4428543E+01
 1.5910251E+01  2.4437128E+01
 1.5921751E+01  2.4406574E+01
 1.5933250E+01  2.4415133E+01
 1.5944751E+01  2.4362411E+01
 1.5956251E+01  2.4401688E+01
 1.5967751E+01  2.4381399E+01
 1.5979251E+01  2.4412647E+01
 1.5990750E+01  2.4444281E+01
 1.6002251E+01  2.4473654E+01
 1.6013750E+01  2.4488768E+01
 1.6025251E+01  2.4468060E+01
 1.6036751E+01  2.4492424E+01
 1.6048250E+01  2.4499714E+01
 1.6059752E+01  2.4563417E+01
 1.6071251E+01  2.4561590E+01
 1.6082750E+01  2.4591219E+01
 1.6094252E+01  2.4566202E+01
 1.6105751E+01  2.4637756E+01
 1.6117250E+01  2.4655378E+01
 1.6128750E+01  2.4668026E+01
 1.6140251E+01  2.4715322E+01
 1.6151751E+01  2.4679169E+01
 1.6163250E+01  2.4754705E+01
 1.6174751E+01  2.4709949E+01
 1.6186251E+01  2.5030848E+01
 1.6197750E+01  2.4962364E+01
 1.6209251E+01  2.5726875E+01
 1.6220751E+01  2.5845634E+01
 1.6232250E+01  2.6912907E+01
 1.6243752E+01  2.7255125E+01
 1.6255251E+01  2.7795067E+01
 1.6266750E+01  2.7887362E+01
 1.6278252E+01  2.7183453E+01
 1.6289751E+01  2.6963497E+01
 1.6301250E+01  2.5742725E+01
 1.6312750E+01  2.5644897E+01
 1.6324251E+01  2.4936970E+01
 1.6335751E+01  2.4975037E+01
 1.6347250E+01  2.4714302E+01
 1.6358751E+01  2.4668121E+01
 1.6370251E+01  2.4540878E+01
 1.6381750E+01  2.4478434E+01
 1.6393251E+01  2.4504225E+01
 1.6404751E+01  2.4482998E+01
 1.6416250E+01  2.4530817E+01
 1.6427752E+01  2.4498369E+01
 1.6439251E+01  2.4489878E+01
 1.6450750E+01  2.4445253E+01
 1.6462252E+01  2.4413002E+01
 1.6473751E+01  2.4416006E+01
 1.6485250E+01  2.4434507E+01
 1.6496750E+01  2.4509054E+01
 1.6508251E+01  2.4488276E+01
 1.6519751E+01  2.4488766E+01
 1.6531250E+01  2.4416084E+01
 1.6542751E+01  2.4452755E+01
 1.6554251E+01  2.4344063E+01
 1.6565750E+01  2.4341383E+01
 1.6577251E+01  2.4303997E+01
 1.6588751E+01  2.4356483E+01
 1.6600250E+01  2.4385607E+01
 1.6611752E+01  2.4402554E+01
 1.6623251E+01  2.4368160E+01
 1.6634750E+01  2.4305323E+01
 1.6646252E+01  2.4284784E+01
 1.6657751E+01  2.4344696E+01
 1.6669250E+01  2.4367849E+01
 1.6680750E+01  2.4346907E+01
 1.6692251E+01  2.4342646E+01
 1.6703751E+01  2.4328535E+01
 1.6715250E+01  2.4366394E+01
 1.6726751E+01  2.4315268E+01
 1.6738251E+01  2.4306648E+01
 1.6749750E+01  2.4317120E+01
 1.6761251E+01  2.4283491E+01
 1.6772751E+01  2.4300360E+01
 1.6784250E+01  2.4245628E+01
 1.6795752E+01  2.4252010E+01
 1.6807251E+01  2.4249920E+01
 1.6818750E+01  2.4260574E+01
 1.6830252E+01  2.4313021E+01
 1.6841751E+01  2.4275686E+01
 1.6853251E+01  2.4239864E+01
 1.6864750E+01  2.4193357E+01
 1.6876251E+01  2.4196695E+01
 1.6887751E+01  2.4194824E+01
 1.6899250E+01  2.4186214E+01
 1.6910751E+01  2.4217760E+01
 1.6922251E+01  2.4209393E+01
 1.6933750E+01  2.4224512E+01
 1.6945251E+01  2.4218428E+01
 1.6956751E+01  2.4216003E+01
 1.6968250E+01  2.4190475E+01
 1.6979752E+01  2.4182543E+01
 1.6991251E+01  2.4190605E+01
 1.7002750E+01  2.4133923E+01
 1.7014252E+01  2.4166759E+01
 1.7025751E+01  2.4136889E+01
 1.7037251E+01  2.4138880E+01
 1.7048750E+01  2.4069021E+01
 1.7060251E+01  2.4039276E+01
 1.7071751E+01  2.4054634E+01
 1.7083250E+01  2.4050661E+01
 1.7094751E+01  2.4079803E+01
 1.7106251E+01  2.4085228E+01
 1.7117750E+01  2.4139132E+01
 1.7129251E+01  2.4182625E+01
 1.7140751E+01  2.4251371E+01
 1.7152250E+01  2.4252913E+01
 1.7163752E+01  2.4209774E+01
 1.7175251E+01  2.4122620E+01
 1.7186750E+01  2.4117226E+01
 1.7198252E+01  2.4123634E+01
 1.7209751E+01  2.4141787E+01
 1.7221251E+01  2.4116781E+01
 1.7232750E+01  2.4099785E+01
 1.7244251E+01  2.4080847E+01
 1.7255751E+01  2.4035645E+01
 1.7267250E+01  2.4021391E+01
 1.7278751E+01  2.3991510E+01
 1.7290251E+01  2.3987576E+01
 1.7301750E+01  2.3968987E+01
 1.7313251E+01  2.3969625E+01
 1.7324751E+01  2.4009275E+01
 1.7336250E+01  2.4027969E+01
 1.7347752E+01  2.4011457E+01
 1.7359251E+01  2.3995481E+01
 1.7370750E+01  2.3979120E+01
 1.7382252E+01  2.3983957E+01
 1.7393751E+01  2.3964476E+01
 1.7405251E+01  2.3932049E+01
 1.7416750E+01  2.3850061E+01
 1.7428251E+01  2.3807278E+01
 1.7439751E+01  2.3756525E+01
 1.7451250E+01  2.3782694E+01
 1.7462751E+01  2.3809856E+01
 1.7474251E+01  2.3869539E+01
 1.7485750E+01  2.3867655E+01
 1.7497252E+01  2.3817015E+01
 1.7508751E+01  2.3754995E+01
 1.7520250E+01  2.3728588E+01
 1.7531752E+01  2.3725025E+01
 1.7543251E+01  2.3744850E+01
 1.7554750E+01  2.3720032E+01
 1.7566252E+01  2.3736515E+01
 1.7577751E+01  2.3733664E+01
 1.7589251E+01  2.3756849E+01
 1.7600750E+01  2.3825771E+01
 1.7612251E+01  2.3839979E+01
 1.7623751E+01  2.3870861E+01
 1.7635250E+01  2.3766655E+01
 1.7646751E+01  2.3754240E+01
 1.7658251E+01  2.3667202E+01
 1.7669750E+01  2.3660904E+01
 1.7681252E+01  2.3628553E+01
 1.7692751E+01  2.3675482E+01
 1.7704250E+01  2.3681292E+01
 1.7715752E+01  2.3685324E+01
 1.7727251E+01  2.3656687E+01
 1.7738750E+01  2.3573416E+01
 1.7750252E+01  2.3512978E+01
 1.7761751E+01  2.3538286E+01
 1.7773251E+01  2.3620579E+01
 1.7784750E+01  2.3720863E+01
 1.7796251E+01  2.3758110E+01
 1.7807751E+01  2.3720537E+01
 1.7819250E+01  2.3668493E+01
 1.7830751E+01  2.3619429E+01
 1.7842251E+01  2.3626503E+01
 1.7853750E+01  2.3622623E+01
 1.7865252E+01  2.3669476E+01
 1.7876751E+01  2.3693232E+01
 1.7888250E+01  2.3641584E+01
 1.7899752E+01  2.3536678E+01
 1.7911251E+01  2.3476574E+01
 1.7922750E+01  2.3529655E+01
 1.7934252E+01  2.3657534E+01
 1.7945751E+01  2.3736946E+01
 1.7957251E+01  2.3711134E+01
 1.7968750E+01  2.3697901E+01
 1.7980251E+01  2.3695919E+01
 1.7991751E+01  2.3781330E+01
 1.8003250E+01  2.3849024E+01
 1.8014751E+01  2.3920654E+01
 1.8026251E+01  2.3935602E+01
 1.8037750E+01  2.3945951E+01
 1.8049252E+01  2.4060036E+01
 1.8060751E+01  2.4209360E+01
 1.8072250E+01  2.4353445E+01
 1.8083752E+01  2.4498201E+01
 1.8095251E+01  2.4610331E+01
 1.8106750E+01  2.4663118E+01
 1.8118252E+01  2.4614759E+01
 1.8129751E+01  2.4476284E+01
 1.8141251E+01  2.4333429E+01
 1.8152750E+01  2.4160639E+01
 1.8164251E+01  2.4051029E+01
 1.8175751E+01  2.3909954E+01
 1.8187250E+01  2.3775341E+01
 1.8198751E+01  2.3691364E+01
 1.8210251E+01  2.3626343E+01
 1.8221750E+01  2.3584196E+01
 1.8233252E+01  2.3538914E+01
 1.8244751E+01  2.3562408E+01
 1.8256250E+01  2.3590256E+01
 1.8267752E+01  2.3621109E+01
 1.8279251E+01  2.3606438E+01
 1.8290751E+01  2.3598198E+01
 1.8302252E+01  2.3591330E+01
 1.8313751E+01  2.3623169E+01
 1.8325251E+01  2.3633745E+01
 1.8336750E+01  2.3677874E+01
 1.8348251E+01  2.3662302E+01
 1.8359751E+01  2.3645481E+01
 1.8371250E+01  2.3530474E+01
 1.8382751E+01  2.3447824E+01
 1.8394251E+01  2.3449606E+01
 1.8405750E+01  2.3501093E+01
 1.8417252E+01  2.3524464E+01
 1.8428751E+01  2.3512909E+01
 1.8440250E+01  2.3514847E+01
 1.8451752E+01  2.3482325E+01
 1.8463251E+01  2.3452246E+01
 1.8474751E+01  2.3405697E+01
 1.8486252E+01  2.3392096E+01
 1.8497751E+01  2.3342207E+01
 1.8509251E+01  2.3346069E+01
 1.8520750E+01  2.3278797E+01
 1.8532251E+01  2.3305759E+01
 1.8543751E+01  2.3277742E+01
 1.8555250E+01  2.3348623E+01
 1.8566751E+01  2.3375847E+01
 1.8578251E+01  2.3439907E+01
 1.8589750E+01  2.3503624E+01
 1.8601252E+01  2.3522440E+01
 1.8612751E+01  2.3498415E+01
 1.8624250E+01  2.3432459E+01
 1.8635752E+01  2.3397961E+01
 1.8647251E+01  2.3345053E+01
 1.8658751E+01  2.3309231E+01
 1.8670252E+01  2.3280327E+01
 1.8681751E+01  2.3322817E+01
 1.8693251E+01  2.3367992E+01
 1.8704750E+01  2.3429129E+01
 1.8716251E+01  2.3394421E+01
 1.8727751E+01  2.3372173E+01
 1.8739250E+01  2.3340082E+01
 1.8750751E+01  2.3349531E+01
 1.8762251E+01  2.3347368E+01
 1.8773750E+01  2.3339619E+01
 1.8785252E+01  2.3328871E+01
 1.8796751E+01  2.3294315E+01
 1.8808250E+01  2.3292694E+01
 1.8819752E+01  2.3300051E+01
 1.8831251E+01  2.3358267E+01
 1.8842751E+01  2.3360279E+01
 1.8854252E+01  2.3362957E+01
 1.8865751E+01  2.3294968E+01
 1.8877251E+01  2.3263351E+01
 1.8888750E+01  2.3216566E+01
 1.8900251E+01  2.3229326E+01
 1.8911751E+01  2.3265799E+01
 1.8923250E+01  2.3350677E+01
 1.8934752E+01  2.3402775E+01
 1.8946251E+01  2.3449144E+01
 1.8957750E+01  2.3392248E+01
 1.8969252E+01  2.3304840E+01
 1.8980751E+01  2.3282211E+01
 1.8992250E+01  2.3287746E+01
 1.9003752E+01  2.3313320E+01
 1.9015251E+01  2.3328217E+01
 1.9026751E+01  2.3401052E+01
 1.9038252E+01  2.3454073E+01
 1.9049751E+01  2.3447273E+01
 1.9061251E+01  2.3478134E+01
 1.9072750E+01  2.3491112E+01
 1.9084251E+01  2.3504831E+01
 1.9095751E+01  2.3463095E+01
 1.9107250E+01  2.3421463E+01
 1.9118752E+01  2.3387451E+01
 1.9130251E+01  2.3414072E+01
 1.9141750E+01  2.3478559E+01
 1.9153252E+01  2.3472965E+01
 1.9164751E+01  2.3419397E+01
 1.9176250E+01  2.3361095E+01
 1.9187752E+01  2.3395826E+01
 1.9199251E+01  2.3442257E+01
 1.9210751E+01  2.3495832E+01
 1.9222252E+01  2.3477938E+01
 1.9233751E+01  2.3475121E+01
 1.9245251E+01  2.3492350E+01
 1.9256750E+01  2.3493771E+01
 1.9268251E+01  2.3492762E+01
 1.9279751E+01  2.3473553E+01
 1.9291250E+01  2.3512478E+01
 1.9302752E+01  2.3576151E+01
 1.9314251E+01  2.3611250E+01
 1.9325750E+01  2.3618702E+01
 1.9337252E+01  2.3568911E+01
 1.9348751E+01  2.3530939E+01
 1.9360250E+01  2.3461487E+01
 1.9371752E+01  2.3461349E+01
 1.9383251E+01  2.3467289E+01
 1.9394751E+01  2.3520153E+01
 1.9406250E+01  2.3550949E+01
 1.9417751E+01  2.3588579E+01
 1.9429251E+01  2.3584015E+01
 1.9440750E+01  2.3627676E+01
 1.9452251E+01  2.3641653E+01
 1.9463751E+01  2.3676237E+01
 1.9475250E+01  2.3644007E+01
 1.9486752E+01  2.3551317E+01
 1.9498251E+01  2.3487293E+01
 1.9509750E+01  2.3488977E+01
 1.9521252E+01  2.3584820E+01
 1.9532751E+01  2.3599665E+01
 1.9544250E+01  2.3674337E+01
 1.9555752E+01  2.3666416E+01
 1.9567251E+01  2.3747869E+01
 1.9578751E+01  2.3805645E+01
 1.9590250E+01  2.3891411E+01
 1.9601751E+01  2.3927721E+01
 1.9613251E+01  2.3991890E+01
 1.9624750E+01  2.4075846E+01
 1.9636251E+01  2.4277725E+01
 1.9647751E+01  2.4485872E+01
 1.9659250E+01  2.4947475E+01
 1.9670752E+01  2.5584021E+01
 1.9682251E+01  2.6452200E+01
 1.9693750E+01  2.7357752E+01
 1.9705252E+01  2.8289663E+01
 1.9716751E+01  2.8888262E+01
 1.9728251E+01  2.8942625E+01
 1.9739752E+01  2.8612434E+01
 1.9751251E+01  2.8091141E+01
 1.9762751E+01  2.7220442E+01
 1.9774250E+01  2.6576578E+01
 1.9785751E+01  2.6014889E+01
 1.9797251E+01  2.5886646E+01
 1.9808750E+01  2.5952862E+01
 1.9820251E+01  2.5953239E+01
 1.9831751E+01  2.8244595E+01
 1.9843250E+01  2.8518045E+01
 1.9854752E+01  3.1080107E+01
 1.9866251E+01  3.2440060E+01
 1.9877750E+01  3.2389687E+01
 1.9889252E+01  3.3662239E+01
 1.9900751E+01  3.1250048E+01
 1.9912251E+01  3.0349886E+01
 1.9923752E+01  2.5869150E+01
 1.9935251E+01  2.5631273E+01
 1.9946751E+01  2.4652395E+01
 1.9958250E+01  2.4264671E+01
 1.9969751E+01  2.4257814E+01
 1.9981251E+01  2.4050629E+01
 1.9992750E+01  2.4034731E+01
 2.0004251E+01  2.3913994E+01
 2.0015751E+01  2.3865591E+01
 2.0027250E+01  2.3840902E+01
 2.0038752E+01  2.3770859E+01
 2.0050251E+01  2.3778547E+01
 2.0061750E+01  2.3735098E+01
 2.0073252E+01  2.3719957E+01
 2.0084751E+01  2.3712215E+01
 2.0096251E+01  2.3738583E+01
 2.0107752E+01  2.3791290E+01
 2.0119251E+01  2.3812525E+01
 2.0130751E+01  2.3784605E+01
 2.0142250E+01  2.3733934E+01
 2.0153751E+01  2.3713974E+01
 2.0165251E+01  2.3695330E+01
 2.0176750E+01  2.3662212E+01
 2.0188251E+01  2.3658419E+01
 2.0199751E+01  2.3682558E+01
 2.0211250E+01  2.3695330E+01
 2.0222752E+01  2.3693714E+01
 2.0234251E+01  2.3688877E+01
 2.0245750E+01  2.3638134E+01
 2.0257252E+01  2.3590631E+01
 2.0268751E+01  2.3504812E+01
 2.0280251E+01  2.3494011E+01
 2.0291752E+01  2.3504202E+01
 2.0303251E+01  2.3540577E+01
 2.0314751E+01  2.3569021E+01
 2.0326250E+01  2.3593740E+01
 2.0337751E+01  2.3640486E+01
 2.0349251E+01  2.3613369E+01
 2.0360750E+01  2.3605333E+01
 2.0372252E+01  2.3611067E+01
 2.0383751E+01  2.3585100E+01
 2.0395250E+01  2.3564976E+01
 2.0406752E+01  2.3568649E+01
 2.0418251E+01  2.3584650E+01
 2.0429750E+01  2.3624582E+01
 2.0441252E+01  2.3601608E+01
 2.0452751E+01  2.3625818E+01
 2.0464251E+01  2.3630762E+01
 2.0475752E+01  2.3642387E+01
 2.0487251E+01  2.3625071E+01
 2.0498751E+01  2.3598900E+01
 2.0510250E+01  2.3566738E+01
 2.0521751E+01  2.3529039E+01
 2.0533251E+01  2.3532253E+01
 2.0544750E+01  2.3574314E+01
 2.0556252E+01  2.3617693E+01
 2.0567751E+01  2.3637062E+01
 2.0579250E+01  2.3635818E+01
 2.0590752E+01  2.3705330E+01
 2.0602251E+01  2.3789736E+01
 2.0613750E+01  2.3842245E+01
 2.0625252E+01  2.3829580E+01
 2.0636751E+01  2.3868887E+01
 2.0648251E+01  2.3861639E+01
 2.0659752E+01  2.3905405E+01
 2.0671251E+01  2.3976280E+01
 2.0682751E+01  2.4151134E+01
 2.0694250E+01  2.4302855E+01
 2.0705751E+01  2.4502674E+01
 2.0717251E+01  2.4836926E+01
 2.0728750E+01  2.5328697E+01
 2.0740252E+01  2.5796871E+01
 2.0751751E+01  2.6340891E+01
 2.0763250E+01  2.6582142E+01
 2.0774752E+01  2.6662573E+01
 2.0786251E+01  2.6458597E+01
 2.0797750E+01  2.6120459E+01
 2.0809252E+01  2.5513294E+01
 2.0820751E+01  2.5004089E+01
 2.0832251E+01  2.4608126E+01
 2.0843752E+01  2.4396381E+01
 2.0855251E+01  2.4285730E+01
 2.0866751E+01  2.4160137E+01
 2.0878250E+01  2.4066643E+01
 2.0889751E+01  2.3946573E+01
 2.0901251E+01  2.3860472E+01
 2.0912750E+01  2.3769213E+01
 2.0924252E+01  2.3757353E+01
 2.0935751E+01  2.3772810E+01
 2.0947250E+01  2.3841276E+01
 2.0958752E+01  2.3833889E+01
 2.0970251E+01  2.3799620E+01
 2.0981750E+01  2.3744677E+01
 2.0993252E+01  2.3813076E+01
 2.1004751E+01  2.3848988E+01
 2.1016251E+01  2.3868452E+01
 2.1027752E+01  2.3859055E+01
 2.1039251E+01  2.3848438E+01
 2.1050751E+01  2.3803190E+01
 2.1062250E+01  2.3771755E+01
 2.1073751E+01  2.3787977E+01
 2.1085251E+01  2.3779284E+01
 2.1096750E+01  2.3773544E+01
 2.1108252E+01  2.3831146E+01
 2.1119751E+01  2.3893768E+01
 2.1131250E+01  2.3936228E+01
 2.1142752E+01  2.3878845E+01
 2.1154251E+01  2.3795399E+01
 2.1165751E+01  2.3766518E+01
 2.1177252E+01  2.3748972E+01
 2.1188751E+01  2.3739754E+01
 2.1200251E+01  2.3772440E+01
 2.1211752E+01  2.3838699E+01
 2.1223251E+01  2.3819910E+01
 2.1234751E+01  2.3783342E+01
 2.1246250E+01  2.3772802E+01
 2.1257751E+01  2.3768129E+01
 2.1269251E+01  2.3756292E+01
 2.1280750E+01  2.3744905E+01
 2.1292252E+01  2.3756241E+01
 2.1303751E+01  2.3762915E+01
 2.1315250E+01  2.3814091E+01
 2.1326752E+01  2.3830332E+01
 2.1338251E+01  2.3829189E+01
 2.1349751E+01  2.3805984E+01
 2.1361252E+01  2.3822220E+01
 2.1372751E+01  2.3789179E+01
 2.1384251E+01  2.3748926E+01
 2.1395752E+01  2.3794277E+01
 2.1407251E+01  2.3847971E+01
 2.1418751E+01  2.3905449E+01
 2.1430250E+01  2.3867064E+01
 2.1441751E+01  2.3804647E+01
 2.1453251E+01  2.3820461E+01
 2.1464750E+01  2.3812046E+01
 2.1476252E+01  2.3850348E+01
 2.1487751E+01  2.3913332E+01
 2.1499250E+01  2.3947151E+01
 2.1510752E+01  2.3933132E+01
 2.1522251E+01  2.3894485E+01
 2.1533751E+01  2.3924595E+01
 2.1545252E+01  2.3922430E+01
 2.1556751E+01  2.3895142E+01
 2.1568251E+01  2.3841166E+01
 2.1579752E+01  2.3811663E+01
 2.1591251E+01  2.3857376E+01
 2.1602751E+01  2.3873377E+01
 2.1614250E+01  2.4031427E+01
 2.1625751E+01  2.4062279E+01
 2.1637251E+01  2.4089840E+01
 2.1648750E+01  2.3979914E+01
 2.1660252E+01  2.4032164E+01
 2.1671751E+01  2.3988340E+01
 2.1683250E+01  2.3989151E+01
 2.1694752E+01  2.3923925E+01
 2.1706251E+01  2.3930096E+01
 2.1717751E+01  2.3922905E+01
 2.1729252E+01  2.3965815E+01
 2.1740751E+01  2.3967260E+01
 2.1752251E+01  2.3921045E+01
 2.1763752E+01  2.3898716E+01
 2.1775251E+01  2.3917906E+01
 2.1786751E+01  2.3984209E+01
 2.1798250E+01  2.3993008E+01
 2.1809752E+01  2.4048620E+01
 2.1821251E+01  2.4116989E+01
 2.1832750E+01  2.4102819E+01
 2.1844252E+01  2.4093800E+01
 2.1855751E+01  2.4043741E+01
 2.1867250E+01  2.4052639E+01
 2.1878752E+01  2.4035500E+01
 2.1890251E+01  2.4036051E+01
 2.1901751E+01  2.4028059E+01
 2.1913252E+01  2.4063383E+01
 2.1924751E+01  2.4096485E+01
 2.1936251E+01  2.4085691E+01
 2.1947752E+01  2.4047098E+01
 2.1959251E+01  2.4065878E+01
 2.1970751E+01  2.4087841E+01
 2.1982250E+01  2.4062363E+01
 2.1993752E+01  2.4016676E+01
 2.2005251E+01  2.4008036E+01
 2.2016750E+01  2.4059368E+01
 2.2028252E+01  2.4106770E+01
 2.2039751E+01  2.4106771E+01
 2.2051250E+01  2.4132425E+01
 2.2062752E+01  2.4155169E+01
 2.2074251E+01  2.4182459E+01
 2.2085751E+01  2.4163933E+01
 2.2097252E+01  2.4180531E+01
 2.2108751E+01  2.4194860E+01
 2.2120251E+01  2.4275351E+01
 2.2131752E+01  2.4297436E+01
 2.2143251E+01  2.4317717E+01
 2.2154751E+01  2.4262945E+01
 2.2166250E+01  2.4245806E+01
 2.2177752E+01  2.4228298E+01
 2.2189251E+01  2.4256201E+01
 2.2200750E+01  2.4279778E+01
 2.2212252E+01  2.4275076E+01
 2.2223751E+01  2.4297375E+01
 2.2235250E+01  2.4284460E+01
 2.2246752E+01  2.4275721E+01
 2.2258251E+01  2.4262751E+01
 2.2269751E+01  2.4247459E+01
 2.2281252E+01  2.4238310E+01
 2.2292751E+01  2.4256836E+01
 2.2304251E+01  2.4349319E+01
 2.2315752E+01  2.4429831E+01
 2.2327251E+01  2.4456152E+01
 2.2338751E+01  2.4454895E+01
 2.2350250E+01  2.4455091E+01
 2.2361752E+01  2.4491508E+01
 2.2373251E+01  2.4493031E+01
 2.2384750E+01  2.4472050E+01
 2.2396252E+01  2.4438864E+01
 2.2407751E+01  2.4401890E+01
 2.2419250E+01  2.4350880E+01
 2.2430752E+01  2.4378992E+01
 2.2442251E+01  2.4470764E+01
 2.2453751E+01  2.4565720E+01
 2.2465252E+01  2.4581762E+01
 2.2476751E+01  2.4554781E+01
 2.2488251E+01  2.4578323E+01
 2.2499752E+01  2.4611757E+01
 2.2511251E+01  2.4624895E+01
 2.2522751E+01  2.4607004E+01
 2.2534250E+01  2.4584955E+01
 2.2545752E+01  2.4647884E+01
 2.2557251E+01  2.4671005E+01
 2.2568750E+01  2.4689619E+01
 2.2580252E+01  2.4661139E+01
 2.2591751E+01  2.4642941E+01
 2.2603251E+01  2.4626858E+01
 2.2614752E+01  2.4697809E+01
 2.2626251E+01  2.4765810E+01
 2.2637751E+01  2.4795065E+01
 2.2649252E+01  2.4764029E+01
 2.2660751E+01  2.4795416E+01
 2.2672251E+01  2.4815710E+01
 2.2683752E+01  2.4844360E+01
 2.2695251E+01  2.4889452E+01
 2.2706751E+01  2.4942194E+01
 2.2718250E+01  2.4988436E+01
 2.2729752E+01  2.4982979E+01
 2.2741251E+01  2.5014139E+01
 2.2752750E+01  2.5031878E+01
 2.2764252E+01  2.5060209E+01
 2.2775751E+01  2.5100676E+01
 2.2787251E+01  2.5085073E+01
 2.2798752E+01  2.5118284E+01
 2.2810251E+01  2.5179777E+01
 2.2821751E+01  2.5228357E+01
 2.2833252E+01  2.5474110E+01
 2.2844751E+01  2.5693512E+01
 2.2856251E+01  2.5730738E+01
 2.2867750E+01  2.5539160E+01
 2.2879251E+01  2.5537012E+01
 2.2890751E+01  2.5585611E+01
 2.2902250E+01  2.5537811E+01
 2.2913752E+01  2.5619808E+01
 2.2925251E+01  2.5616737E+01
 2.2936750E+01  2.5621576E+01
 2.2948252E+01  2.5649025E+01
 2.2959751E+01  2.5706450E+01
 2.2971251E+01  2.5827503E+01
 2.2982752E+01  2.5949200E+01
 2.2994251E+01  2.6043114E+01
