F:\20151113_APS_34IDE\\Brian\Particle1\OCV\Data_0084.tif
2-Theta Angle (Degrees)
Intensity
       2000
 5.7500005E-03  0.0000000E+00
 1.7250001E-02  0.0000000E+00
 2.8750001E-02  0.0000000E+00
 4.0250003E-02  0.0000000E+00
 5.1750004E-02  0.0000000E+00
 6.3250005E-02  0.0000000E+00
 7.4750006E-02  0.0000000E+00
 8.6250007E-02  0.0000000E+00
 9.7750008E-02  0.0000000E+00
 1.0925001E-01  0.0000000E+00
 1.2075000E-01  0.0000000E+00
 1.3225001E-01  0.0000000E+00
 1.4375001E-01  0.0000000E+00
 1.5525001E-01  0.0000000E+00
 1.6675001E-01  0.0000000E+00
 1.7825001E-01  0.0000000E+00
 1.8975002E-01  0.0000000E+00
 2.0125002E-01  0.0000000E+00
 2.1275002E-01  0.0000000E+00
 2.2425000E-01  0.0000000E+00
 2.3575000E-01  0.0000000E+00
 2.4725001E-01  0.0000000E+00
 2.5875002E-01  0.0000000E+00
 2.7025002E-01  0.0000000E+00
 2.8175002E-01  0.0000000E+00
 2.9325002E-01  0.0000000E+00
 3.0475003E-01  0.0000000E+00
 3.1625003E-01  0.0000000E+00
 3.2775003E-01  0.0000000E+00
 3.3925003E-01  0.0000000E+00
 3.5075003E-01  0.0000000E+00
 3.6225003E-01  0.0000000E+00
 3.7375003E-01  0.0000000E+00
 3.8525003E-01  0.0000000E+00
 3.9675003E-01  0.0000000E+00
 4.0825003E-01  0.0000000E+00
 4.1975003E-01  0.0000000E+00
 4.3125004E-01  0.0000000E+00
 4.4275001E-01  0.0000000E+00
 4.5425001E-01  0.0000000E+00
 4.6575001E-01  0.0000000E+00
 4.7725001E-01  0.0000000E+00
 4.8875001E-01  0.0000000E+00
 5.0025004E-01  0.0000000E+00
 5.1175004E-01  0.0000000E+00
 5.2325004E-01  0.0000000E+00
 5.3475004E-01  0.0000000E+00
 5.4625005E-01  0.0000000E+00
 5.5775005E-01  0.0000000E+00
 5.6925005E-01  0.0000000E+00
 5.8075005E-01  0.0000000E+00
 5.9225005E-01  0.0000000E+00
 6.0375005E-01  0.0000000E+00
 6.1525005E-01  0.0000000E+00
 6.2675005E-01  0.0000000E+00
 6.3825005E-01  0.0000000E+00
 6.4975005E-01  0.0000000E+00
 6.6125005E-01  0.0000000E+00
 6.7275006E-01  0.0000000E+00
 6.8425006E-01  0.0000000E+00
 6.9575006E-01  0.0000000E+00
 7.0725006E-01  0.0000000E+00
 7.1875006E-01  0.0000000E+00
 7.3025006E-01  0.0000000E+00
 7.4175006E-01  0.0000000E+00
 7.5325006E-01  0.0000000E+00
 7.6475006E-01  0.0000000E+00
 7.7625006E-01  0.0000000E+00
 7.8775007E-01  0.0000000E+00
 7.9925007E-01  0.0000000E+00
 8.1075007E-01  0.0000000E+00
 8.2225007E-01  0.0000000E+00
 8.3375007E-01  0.0000000E+00
 8.4525007E-01  0.0000000E+00
 8.5675007E-01  0.0000000E+00
 8.6825007E-01  0.0000000E+00
 8.7975001E-01  0.0000000E+00
 8.9125001E-01  0.0000000E+00
 9.0275002E-01  0.0000000E+00
 9.1425002E-01  0.0000000E+00
 9.2575002E-01  0.0000000E+00
 9.3725002E-01  0.0000000E+00
 9.4875002E-01  0.0000000E+00
 9.6025002E-01  0.0000000E+00
 9.7175002E-01  0.0000000E+00
 9.8325002E-01  0.0000000E+00
 9.9475002E-01  0.0000000E+00
 1.0062500E+00  0.0000000E+00
 1.0177500E+00  0.0000000E+00
 1.0292500E+00  0.0000000E+00
 1.0407500E+00  0.0000000E+00
 1.0522500E+00  0.0000000E+00
 1.0637500E+00  0.0000000E+00
 1.0752500E+00  0.0000000E+00
 1.0867500E+00  0.0000000E+00
 1.0982500E+00  0.0000000E+00
 1.1097500E+00  0.0000000E+00
 1.1212500E+00  0.0000000E+00
 1.1327500E+00  0.0000000E+00
 1.1442500E+00  0.0000000E+00
 1.1557500E+00  0.0000000E+00
 1.1672500E+00  0.0000000E+00
 1.1787500E+00  0.0000000E+00
 1.1902500E+00  0.0000000E+00
 1.2017500E+00  0.0000000E+00
 1.2132500E+00  0.0000000E+00
 1.2247500E+00  0.0000000E+00
 1.2362500E+00  0.0000000E+00
 1.2477500E+00  0.0000000E+00
 1.2592500E+00  0.0000000E+00
 1.2707500E+00  0.0000000E+00
 1.2822500E+00  0.0000000E+00
 1.2937500E+00  0.0000000E+00
 1.3052500E+00  0.0000000E+00
 1.3167500E+00  0.0000000E+00
 1.3282501E+00  0.0000000E+00
 1.3397501E+00  0.0000000E+00
 1.3512501E+00  0.0000000E+00
 1.3627501E+00  0.0000000E+00
 1.3742501E+00  0.0000000E+00
 1.3857501E+00  0.0000000E+00
 1.3972501E+00  0.0000000E+00
 1.4087501E+00  0.0000000E+00
 1.4202501E+00  0.0000000E+00
 1.4317501E+00  0.0000000E+00
 1.4432501E+00  0.0000000E+00
 1.4547501E+00  0.0000000E+00
 1.4662501E+00  0.0000000E+00
 1.4777501E+00  0.0000000E+00
 1.4892501E+00  0.0000000E+00
 1.5007501E+00  0.0000000E+00
 1.5122501E+00  0.0000000E+00
 1.5237501E+00  0.0000000E+00
 1.5352501E+00  0.0000000E+00
 1.5467501E+00  0.0000000E+00
 1.5582501E+00  0.0000000E+00
 1.5697501E+00  0.0000000E+00
 1.5812501E+00  0.0000000E+00
 1.5927501E+00  0.0000000E+00
 1.6042501E+00  0.0000000E+00
 1.6157501E+00  0.0000000E+00
 1.6272501E+00  0.0000000E+00
 1.6387501E+00  0.0000000E+00
 1.6502501E+00  0.0000000E+00
 1.6617501E+00  0.0000000E+00
 1.6732501E+00  0.0000000E+00
 1.6847501E+00  0.0000000E+00
 1.6962501E+00  0.0000000E+00
 1.7077501E+00  0.0000000E+00
 1.7192501E+00  0.0000000E+00
 1.7307501E+00  0.0000000E+00
 1.7422501E+00  0.0000000E+00
 1.7537501E+00  0.0000000E+00
 1.7652501E+00  0.0000000E+00
 1.7767501E+00  0.0000000E+00
 1.7882501E+00  0.0000000E+00
 1.7997501E+00  0.0000000E+00
 1.8112501E+00  0.0000000E+00
 1.8227501E+00  0.0000000E+00
 1.8342501E+00  0.0000000E+00
 1.8457501E+00  0.0000000E+00
 1.8572501E+00  0.0000000E+00
 1.8687501E+00  0.0000000E+00
 1.8802501E+00  0.0000000E+00
 1.8917501E+00  0.0000000E+00
 1.9032501E+00  0.0000000E+00
 1.9147501E+00  0.0000000E+00
 1.9262501E+00  0.0000000E+00
 1.9377501E+00  0.0000000E+00
 1.9492501E+00  0.0000000E+00
 1.9607501E+00  0.0000000E+00
 1.9722501E+00  0.0000000E+00
 1.9837501E+00  0.0000000E+00
 1.9952501E+00  0.0000000E+00
 2.0067501E+00  0.0000000E+00
 2.0182500E+00  0.0000000E+00
 2.0297501E+00  0.0000000E+00
 2.0412500E+00  0.0000000E+00
 2.0527501E+00  0.0000000E+00
 2.0642500E+00  0.0000000E+00
 2.0757501E+00  0.0000000E+00
 2.0872500E+00  0.0000000E+00
 2.0987501E+00  0.0000000E+00
 2.1102500E+00  0.0000000E+00
 2.1217501E+00  0.0000000E+00
 2.1332500E+00  0.0000000E+00
 2.1447501E+00  0.0000000E+00
 2.1562500E+00  0.0000000E+00
 2.1677501E+00  0.0000000E+00
 2.1792500E+00  0.0000000E+00
 2.1907501E+00  0.0000000E+00
 2.2022500E+00  0.0000000E+00
 2.2137501E+00  0.0000000E+00
 2.2252500E+00  0.0000000E+00
 2.2367501E+00  0.0000000E+00
 2.2482500E+00  0.0000000E+00
 2.2597501E+00  0.0000000E+00
 2.2712500E+00  0.0000000E+00
 2.2827501E+00  0.0000000E+00
 2.2942500E+00  0.0000000E+00
 2.3057501E+00  0.0000000E+00
 2.3172500E+00  0.0000000E+00
 2.3287501E+00  0.0000000E+00
 2.3402500E+00  0.0000000E+00
 2.3517501E+00  0.0000000E+00
 2.3632500E+00  0.0000000E+00
 2.3747501E+00  0.0000000E+00
 2.3862500E+00  0.0000000E+00
 2.3977501E+00  0.0000000E+00
 2.4092500E+00  0.0000000E+00
 2.4207501E+00  0.0000000E+00
 2.4322500E+00  0.0000000E+00
 2.4437501E+00  0.0000000E+00
 2.4552500E+00  0.0000000E+00
 2.4667501E+00  0.0000000E+00
 2.4782500E+00  0.0000000E+00
 2.4897501E+00  0.0000000E+00
 2.5012500E+00  0.0000000E+00
 2.5127501E+00  0.0000000E+00
 2.5242500E+00  0.0000000E+00
 2.5357502E+00  0.0000000E+00
 2.5472500E+00  0.0000000E+00
 2.5587502E+00  0.0000000E+00
 2.5702500E+00  0.0000000E+00
 2.5817502E+00  0.0000000E+00
 2.5932500E+00  0.0000000E+00
 2.6047502E+00  0.0000000E+00
 2.6162500E+00  0.0000000E+00
 2.6277502E+00  0.0000000E+00
 2.6392500E+00  0.0000000E+00
 2.6507502E+00  0.0000000E+00
 2.6622500E+00  0.0000000E+00
 2.6737502E+00  0.0000000E+00
 2.6852500E+00  0.0000000E+00
 2.6967502E+00  0.0000000E+00
 2.7082500E+00  0.0000000E+00
 2.7197502E+00  0.0000000E+00
 2.7312500E+00  0.0000000E+00
 2.7427502E+00  0.0000000E+00
 2.7542500E+00  0.0000000E+00
 2.7657502E+00  0.0000000E+00
 2.7772501E+00  0.0000000E+00
 2.7887502E+00  0.0000000E+00
 2.8002501E+00  0.0000000E+00
 2.8117502E+00  0.0000000E+00
 2.8232501E+00  3.4411514E+01
 2.8347502E+00  3.4917686E+01
 2.8462501E+00  3.4625309E+01
 2.8577502E+00  3.4703735E+01
 2.8692501E+00  3.4808331E+01
 2.8807502E+00  3.5224606E+01
 2.8922501E+00  3.5250164E+01
 2.9037502E+00  3.5134632E+01
 2.9152501E+00  3.5246685E+01
 2.9267502E+00  3.5264648E+01
 2.9382501E+00  3.5371803E+01
 2.9497502E+00  3.5234241E+01
 2.9612501E+00  3.5130615E+01
 2.9727502E+00  3.5099388E+01
 2.9842501E+00  3.4968044E+01
 2.9957502E+00  3.5414139E+01
 3.0072501E+00  3.6222565E+01
 3.0187502E+00  3.7028301E+01
 3.0302501E+00  3.6994320E+01
 3.0417502E+00  3.6905567E+01
 3.0532501E+00  3.6151752E+01
 3.0647502E+00  3.5888313E+01
 3.0762501E+00  3.5450199E+01
 3.0877502E+00  3.5652859E+01
 3.0992501E+00  3.5811951E+01
 3.1107502E+00  3.5602489E+01
 3.1222501E+00  3.5588440E+01
 3.1337502E+00  3.5531544E+01
 3.1452501E+00  3.5753597E+01
 3.1567502E+00  3.5671448E+01
 3.1682501E+00  3.5903389E+01
 3.1797502E+00  3.6041569E+01
 3.1912501E+00  3.6437771E+01
 3.2027502E+00  3.6288731E+01
 3.2142501E+00  3.6612518E+01
 3.2257502E+00  3.6393517E+01
 3.2372501E+00  3.6210434E+01
 3.2487502E+00  3.6034882E+01
 3.2602501E+00  3.6302650E+01
 3.2717502E+00  3.6505791E+01
 3.2832501E+00  3.6735374E+01
 3.2947502E+00  3.6518658E+01
 3.3062501E+00  3.6468868E+01
 3.3177502E+00  3.6399788E+01
 3.3292501E+00  3.6237919E+01
 3.3407502E+00  3.6105217E+01
 3.3522501E+00  3.6029514E+01
 3.3637502E+00  3.5598404E+01
 3.3752501E+00  3.5746662E+01
 3.3867502E+00  3.5375912E+01
 3.3982501E+00  3.5365437E+01
 3.4097502E+00  3.5032368E+01
 3.4212501E+00  3.4957584E+01
 3.4327502E+00  3.4758850E+01
 3.4442501E+00  3.4796001E+01
 3.4557502E+00  3.4650616E+01
 3.4672501E+00  3.4753391E+01
 3.4787502E+00  3.4622665E+01
 3.4902501E+00  3.4320076E+01
 3.5017502E+00  3.3993454E+01
 3.5132501E+00  3.3468719E+01
 3.5247502E+00  3.3359619E+01
 3.5362501E+00  3.3321690E+01
 3.5477502E+00  3.3323513E+01
 3.5592501E+00  3.3482014E+01
 3.5707502E+00  3.3735867E+01
 3.5822501E+00  3.4032215E+01
 3.5937502E+00  3.4136700E+01
 3.6052501E+00  3.3939419E+01
 3.6167502E+00  3.3846561E+01
 3.6282501E+00  3.3777344E+01
 3.6397502E+00  3.3523102E+01
 3.6512501E+00  3.3553749E+01
 3.6627502E+00  3.3557804E+01
 3.6742501E+00  3.3663132E+01
 3.6857502E+00  3.3620323E+01
 3.6972501E+00  3.3418365E+01
 3.7087502E+00  3.3307659E+01
 3.7202501E+00  3.3121506E+01
 3.7317502E+00  3.3310448E+01
 3.7432501E+00  3.3538715E+01
 3.7547503E+00  3.3931530E+01
 3.7662501E+00  3.3777176E+01
 3.7777503E+00  3.3578857E+01
 3.7892501E+00  3.3272331E+01
 3.8007503E+00  3.3154816E+01
 3.8122501E+00  3.3192810E+01
 3.8237503E+00  3.3124580E+01
 3.8352501E+00  3.3051689E+01
 3.8467503E+00  3.3167374E+01
 3.8582501E+00  3.3088860E+01
 3.8697503E+00  3.3023067E+01
 3.8812501E+00  3.2959980E+01
 3.8927503E+00  3.2741917E+01
 3.9042501E+00  3.2652946E+01
 3.9157503E+00  3.2403534E+01
 3.9272501E+00  3.2441177E+01
 3.9387503E+00  3.2472267E+01
 3.9502501E+00  3.2655884E+01
 3.9617503E+00  3.2560486E+01
 3.9732502E+00  3.2782192E+01
 3.9847503E+00  3.2841164E+01
 3.9962502E+00  3.3016949E+01
 4.0077500E+00  3.3262314E+01
 4.0192504E+00  3.3079742E+01
 4.0307503E+00  3.3065853E+01
 4.0422502E+00  3.2812843E+01
 4.0537500E+00  3.2788471E+01
 4.0652504E+00  3.2642120E+01
 4.0767503E+00  3.2566120E+01
 4.0882502E+00  3.2372154E+01
 4.0997500E+00  3.2243099E+01
 4.1112504E+00  3.2236519E+01
 4.1227503E+00  3.2379524E+01
 4.1342502E+00  3.2565010E+01
 4.1457500E+00  3.2641487E+01
 4.1572504E+00  3.2646919E+01
 4.1687503E+00  3.2590477E+01
 4.1802502E+00  3.2541771E+01
 4.1917500E+00  3.2552547E+01
 4.2032504E+00  3.2531364E+01
 4.2147503E+00  3.2478611E+01
 4.2262502E+00  3.2502064E+01
 4.2377501E+00  3.2538689E+01
 4.2492504E+00  3.2683464E+01
 4.2607503E+00  3.2744534E+01
 4.2722502E+00  3.2898735E+01
 4.2837501E+00  3.3139149E+01
 4.2952504E+00  3.3304081E+01
 4.3067503E+00  3.3267944E+01
 4.3182502E+00  3.3116486E+01
 4.3297501E+00  3.2802364E+01
 4.3412504E+00  3.2786003E+01
 4.3527503E+00  3.2626427E+01
 4.3642502E+00  3.2624325E+01
 4.3757501E+00  3.2450382E+01
 4.3872504E+00  3.2397488E+01
 4.3987503E+00  3.2425919E+01
 4.4102502E+00  3.2511086E+01
 4.4217501E+00  3.2601254E+01
 4.4332504E+00  3.2626514E+01
 4.4447503E+00  3.2533478E+01
 4.4562502E+00  3.2618465E+01
 4.4677501E+00  3.2649406E+01
 4.4792504E+00  3.2863899E+01
 4.4907503E+00  3.2716778E+01
 4.5022502E+00  3.2666016E+01
 4.5137501E+00  3.2552486E+01
 4.5252504E+00  3.2680767E+01
 4.5367503E+00  3.2665173E+01
 4.5482502E+00  3.2854946E+01
 4.5597501E+00  3.2802952E+01
 4.5712504E+00  3.2854706E+01
 4.5827503E+00  3.2725876E+01
 4.5942502E+00  3.2805305E+01
 4.6057501E+00  3.2746971E+01
 4.6172504E+00  3.2782394E+01
 4.6287503E+00  3.2743008E+01
 4.6402502E+00  3.2739594E+01
 4.6517501E+00  3.2771305E+01
 4.6632504E+00  3.2895111E+01
 4.6747503E+00  3.2967419E+01
 4.6862502E+00  3.3072937E+01
 4.6977501E+00  3.3264702E+01
 4.7092505E+00  3.3379593E+01
 4.7207503E+00  3.3401169E+01
 4.7322502E+00  3.3150265E+01
 4.7437501E+00  3.3069237E+01
 4.7552505E+00  3.2989552E+01
 4.7667503E+00  3.2847401E+01
 4.7782502E+00  3.2777996E+01
 4.7897501E+00  3.2744507E+01
 4.8012505E+00  3.2724747E+01
 4.8127503E+00  3.2786793E+01
 4.8242502E+00  3.2774857E+01
 4.8357501E+00  3.2898952E+01
 4.8472505E+00  3.2871441E+01
 4.8587503E+00  3.2975891E+01
 4.8702502E+00  3.2908707E+01
 4.8817501E+00  3.2897621E+01
 4.8932505E+00  3.2821354E+01
 4.9047503E+00  3.2822933E+01
 4.9162502E+00  3.2924770E+01
 4.9277501E+00  3.3003700E+01
 4.9392505E+00  3.3060520E+01
 4.9507504E+00  3.3063992E+01
 4.9622502E+00  3.2971016E+01
 4.9737501E+00  3.2941036E+01
 4.9852505E+00  3.2899658E+01
 4.9967504E+00  3.2996315E+01
 5.0082502E+00  3.3105640E+01
 5.0197501E+00  3.3125992E+01
 5.0312505E+00  3.3155495E+01
 5.0427504E+00  3.3180431E+01
 5.0542502E+00  3.3240479E+01
 5.0657501E+00  3.3283249E+01
 5.0772505E+00  3.3276852E+01
 5.0887504E+00  3.3426479E+01
 5.1002502E+00  3.3499870E+01
 5.1117501E+00  3.3605907E+01
 5.1232505E+00  3.3537773E+01
 5.1347504E+00  3.3683784E+01
 5.1462502E+00  3.3758648E+01
 5.1577501E+00  3.3800549E+01
 5.1692505E+00  3.3706429E+01
 5.1807504E+00  3.3744595E+01
 5.1922503E+00  3.3812675E+01
 5.2037501E+00  3.3985287E+01
 5.2152505E+00  3.4064491E+01
 5.2267504E+00  3.4203545E+01
 5.2382503E+00  3.4170376E+01
 5.2497501E+00  3.4082794E+01
 5.2612505E+00  3.4053902E+01
 5.2727504E+00  3.4061962E+01
 5.2842503E+00  3.4083225E+01
 5.2957501E+00  3.4191978E+01
 5.3072500E+00  3.4257847E+01
 5.3187504E+00  3.4277176E+01
 5.3302503E+00  3.4180531E+01
 5.3417501E+00  3.4151505E+01
 5.3532500E+00  3.4178074E+01
 5.3647504E+00  3.4134579E+01
 5.3762503E+00  3.4187824E+01
 5.3877501E+00  3.4330605E+01
 5.3992500E+00  3.4436310E+01
 5.4107504E+00  3.4546440E+01
 5.4222503E+00  3.4616840E+01
 5.4337502E+00  3.4682854E+01
 5.4452500E+00  3.4797409E+01
 5.4567504E+00  3.4879948E+01
 5.4682503E+00  3.4949684E+01
 5.4797502E+00  3.4903305E+01
 5.4912500E+00  3.4876858E+01
 5.5027504E+00  3.5003086E+01
 5.5142503E+00  3.5198700E+01
 5.5257502E+00  3.5310360E+01
 5.5372500E+00  3.5397049E+01
 5.5487504E+00  3.5374279E+01
 5.5602503E+00  3.5342285E+01
 5.5717502E+00  3.5307579E+01
 5.5832500E+00  3.5222145E+01
 5.5947504E+00  3.5208000E+01
 5.6062503E+00  3.5160717E+01
 5.6177502E+00  3.5235138E+01
 5.6292500E+00  3.5285973E+01
 5.6407504E+00  3.5474468E+01
 5.6522503E+00  3.5603432E+01
 5.6637502E+00  3.5898483E+01
 5.6752501E+00  3.6052013E+01
 5.6867504E+00  3.6233204E+01
 5.6982503E+00  3.6227623E+01
 5.7097502E+00  3.6138466E+01
 5.7212501E+00  3.6003559E+01
 5.7327504E+00  3.5878735E+01
 5.7442503E+00  3.5847424E+01
 5.7557502E+00  3.5828529E+01
 5.7672501E+00  3.5895378E+01
 5.7787504E+00  3.5921566E+01
 5.7902503E+00  3.6112865E+01
 5.8017502E+00  3.6226719E+01
 5.8132501E+00  3.6243156E+01
 5.8247504E+00  3.6291016E+01
 5.8362503E+00  3.6410881E+01
 5.8477502E+00  3.6585361E+01
 5.8592501E+00  3.6701649E+01
 5.8707504E+00  3.6891754E+01
 5.8822503E+00  3.7093403E+01
 5.8937502E+00  3.7429955E+01
 5.9052501E+00  3.7791309E+01
 5.9167504E+00  3.8396812E+01
 5.9282503E+00  3.9821724E+01
 5.9397502E+00  4.2070942E+01
 5.9512501E+00  4.5244045E+01
 5.9627504E+00  4.8638321E+01
 5.9742503E+00  5.2206383E+01
 5.9857502E+00  5.4140606E+01
 5.9972501E+00  5.4252842E+01
 6.0087504E+00  5.1635727E+01
 6.0202503E+00  4.8091133E+01
 6.0317502E+00  4.4544716E+01
 6.0432501E+00  4.1539940E+01
 6.0547504E+00  3.9807632E+01
 6.0662503E+00  3.8660976E+01
 6.0777502E+00  3.8003548E+01
 6.0892501E+00  3.7632900E+01
 6.1007504E+00  3.7473221E+01
 6.1122503E+00  3.7315228E+01
 6.1237502E+00  3.7176643E+01
 6.1352501E+00  3.7085682E+01
 6.1467505E+00  3.6971119E+01
 6.1582503E+00  3.7073616E+01
 6.1697502E+00  3.7027271E+01
 6.1812501E+00  3.7140583E+01
 6.1927505E+00  3.7146301E+01
 6.2042503E+00  3.7102276E+01
 6.2157502E+00  3.7258465E+01
 6.2272501E+00  3.7343155E+01
 6.2387505E+00  3.7466110E+01
 6.2502503E+00  3.7493111E+01
 6.2617502E+00  3.7565849E+01
 6.2732501E+00  3.7691151E+01
 6.2847505E+00  3.7793571E+01
 6.2962503E+00  3.7796959E+01
 6.3077502E+00  3.7811115E+01
 6.3192501E+00  3.7870895E+01
 6.3307505E+00  3.7954987E+01
 6.3422503E+00  3.8033802E+01
 6.3537502E+00  3.8120754E+01
 6.3652501E+00  3.8132336E+01
 6.3767505E+00  3.8200226E+01
 6.3882504E+00  3.8237865E+01
 6.3997502E+00  3.8376968E+01
 6.4112501E+00  3.8569416E+01
 6.4227505E+00  3.8701778E+01
 6.4342504E+00  3.8731197E+01
 6.4457502E+00  3.8816208E+01
 6.4572501E+00  3.8740955E+01
 6.4687505E+00  3.8832787E+01
 6.4802504E+00  3.8784531E+01
 6.4917502E+00  3.8854076E+01
 6.5032501E+00  3.8982712E+01
 6.5147505E+00  3.9090763E+01
 6.5262504E+00  3.9230560E+01
 6.5377502E+00  3.9307037E+01
 6.5492501E+00  3.9422245E+01
 6.5607505E+00  3.9539276E+01
 6.5722504E+00  3.9637646E+01
 6.5837502E+00  3.9732815E+01
 6.5952501E+00  3.9780823E+01
 6.6067505E+00  3.9772564E+01
 6.6182504E+00  3.9770107E+01
 6.6297503E+00  3.9823547E+01
 6.6412501E+00  3.9950439E+01
 6.6527505E+00  4.0124119E+01
 6.6642504E+00  4.0258949E+01
 6.6757503E+00  4.0332798E+01
 6.6872501E+00  4.0357189E+01
 6.6987505E+00  4.0418831E+01
 6.7102504E+00  4.0455223E+01
 6.7217503E+00  4.0558090E+01
 6.7332501E+00  4.0590034E+01
 6.7447505E+00  4.0670261E+01
 6.7562504E+00  4.0750713E+01
 6.7677503E+00  4.0769447E+01
 6.7792501E+00  4.0843002E+01
 6.7907505E+00  4.0867607E+01
 6.8022504E+00  4.0989895E+01
 6.8137503E+00  4.1083725E+01
 6.8252501E+00  4.1159679E+01
 6.8367505E+00  4.1243431E+01
 6.8482504E+00  4.1413769E+01
 6.8597503E+00  4.1491665E+01
 6.8712502E+00  4.1597042E+01
 6.8827505E+00  4.1625587E+01
 6.8942504E+00  4.1676483E+01
 6.9057503E+00  4.1778824E+01
 6.9172502E+00  4.1916214E+01
 6.9287505E+00  4.1966793E+01
 6.9402504E+00  4.2139385E+01
 6.9517503E+00  4.2280350E+01
 6.9632502E+00  4.2405277E+01
 6.9747505E+00  4.2430649E+01
 6.9862504E+00  4.2360935E+01
 6.9977503E+00  4.2384254E+01
 7.0092502E+00  4.2414978E+01
 7.0207505E+00  4.2451431E+01
 7.0322504E+00  4.2508495E+01
 7.0437503E+00  4.2571800E+01
 7.0552502E+00  4.2779900E+01
 7.0667505E+00  4.2946945E+01
 7.0782504E+00  4.3021492E+01
 7.0897503E+00  4.3042862E+01
 7.1012502E+00  4.3087906E+01
 7.1127505E+00  4.3204937E+01
 7.1242504E+00  4.3232441E+01
 7.1357503E+00  4.3251221E+01
 7.1472502E+00  4.3186687E+01
 7.1587505E+00  4.3282730E+01
 7.1702504E+00  4.3377495E+01
 7.1817503E+00  4.3531799E+01
 7.1932502E+00  4.3551823E+01
 7.2047505E+00  4.3673931E+01
 7.2162504E+00  4.3740807E+01
 7.2277503E+00  4.3864983E+01
 7.2392502E+00  4.3993629E+01
 7.2507505E+00  4.4114506E+01
 7.2622504E+00  4.4189442E+01
 7.2737503E+00  4.4227306E+01
 7.2852502E+00  4.4230137E+01
 7.2967505E+00  4.4266262E+01
 7.3082504E+00  4.4207329E+01
 7.3197503E+00  4.4150406E+01
 7.3312502E+00  4.4096035E+01
 7.3427505E+00  4.4127121E+01
 7.3542504E+00  4.4143703E+01
 7.3657503E+00  4.4191189E+01
 7.3772502E+00  4.4105995E+01
 7.3887506E+00  4.4095646E+01
 7.4002504E+00  4.4102802E+01
 7.4117503E+00  4.4217121E+01
 7.4232502E+00  4.4207760E+01
 7.4347506E+00  4.4245197E+01
 7.4462504E+00  4.4245865E+01
 7.4577503E+00  4.4333290E+01
 7.4692502E+00  4.4347851E+01
 7.4807506E+00  4.4344837E+01
 7.4922504E+00  4.4402122E+01
 7.5037503E+00  4.4435791E+01
 7.5152502E+00  4.4464935E+01
 7.5267506E+00  4.4501183E+01
 7.5382504E+00  4.4563847E+01
 7.5497503E+00  4.4546337E+01
 7.5612502E+00  4.4542175E+01
 7.5727506E+00  4.4638981E+01
 7.5842505E+00  4.4710934E+01
 7.5957503E+00  4.4795330E+01
 7.6072502E+00  4.4712788E+01
 7.6187506E+00  4.4637192E+01
 7.6302505E+00  4.4435795E+01
 7.6417503E+00  4.4364197E+01
 7.6532502E+00  4.4258701E+01
 7.6647506E+00  4.4273369E+01
 7.6762505E+00  4.4275501E+01
 7.6877503E+00  4.4270603E+01
 7.6992502E+00  4.4247353E+01
 7.7107506E+00  4.4219673E+01
 7.7222505E+00  4.4226326E+01
 7.7337503E+00  4.4203022E+01
 7.7452502E+00  4.4160873E+01
 7.7567506E+00  4.4106960E+01
 7.7682505E+00  4.4141376E+01
 7.7797503E+00  4.4176399E+01
 7.7912502E+00  4.4164566E+01
 7.8027506E+00  4.4136944E+01
 7.8142505E+00  4.4087547E+01
 7.8257504E+00  4.4124870E+01
 7.8372502E+00  4.4200439E+01
 7.8487506E+00  4.4181934E+01
 7.8602505E+00  4.4189007E+01
 7.8717504E+00  4.4008686E+01
 7.8832502E+00  4.4040531E+01
 7.8947506E+00  4.3991638E+01
 7.9062505E+00  4.4071842E+01
 7.9177504E+00  4.4056694E+01
 7.9292502E+00  4.3944176E+01
 7.9407506E+00  4.3818756E+01
 7.9522505E+00  4.3657211E+01
 7.9637504E+00  4.3591972E+01
 7.9752502E+00  4.3486931E+01
 7.9867506E+00  4.3517956E+01
 7.9982505E+00  4.3533276E+01
 8.0097504E+00  4.3538971E+01
 8.0212507E+00  4.3541206E+01
 8.0327501E+00  4.3374100E+01
 8.0442505E+00  4.3320068E+01
 8.0557508E+00  4.3154331E+01
 8.0672503E+00  4.3094337E+01
 8.0787506E+00  4.3047722E+01
 8.0902500E+00  4.3001274E+01
 8.1017504E+00  4.2934013E+01
 8.1132507E+00  4.2862057E+01
 8.1247501E+00  4.2630356E+01
 8.1362505E+00  4.2469299E+01
 8.1477509E+00  4.2259609E+01
 8.1592503E+00  4.2174801E+01
 8.1707506E+00  4.2083965E+01
 8.1822500E+00  4.1969040E+01
 8.1937504E+00  4.1886261E+01
 8.2052507E+00  4.1722847E+01
 8.2167501E+00  4.1631245E+01
 8.2282505E+00  4.1594257E+01
 8.2397509E+00  4.1555984E+01
 8.2512503E+00  4.1490696E+01
 8.2627506E+00  4.1362518E+01
 8.2742500E+00  4.1178593E+01
 8.2857504E+00  4.1013485E+01
 8.2972507E+00  4.0788006E+01
 8.3087502E+00  4.0650276E+01
 8.3202505E+00  4.0496277E+01
 8.3317509E+00  4.0317234E+01
 8.3432503E+00  4.0170055E+01
 8.3547506E+00  3.9987835E+01
 8.3662500E+00  3.9959972E+01
 8.3777504E+00  3.9829735E+01
 8.3892508E+00  3.9720749E+01
 8.4007502E+00  3.9538246E+01
 8.4122505E+00  3.9383385E+01
 8.4237509E+00  3.9243137E+01
 8.4352503E+00  3.9060558E+01
 8.4467506E+00  3.8895081E+01
 8.4582500E+00  3.8730965E+01
 8.4697504E+00  3.8536003E+01
 8.4812508E+00  3.8289227E+01
 8.4927502E+00  3.8091339E+01
 8.5042505E+00  3.7888218E+01
 8.5157509E+00  3.7790825E+01
 8.5272503E+00  3.7623081E+01
 8.5387506E+00  3.7476360E+01
 8.5502501E+00  3.7223179E+01
 8.5617504E+00  3.6958157E+01
 8.5732508E+00  3.6793365E+01
 8.5847502E+00  3.6596451E+01
 8.5962505E+00  3.6471176E+01
 8.6077509E+00  3.6316952E+01
 8.6192503E+00  3.6209846E+01
 8.6307507E+00  3.6118336E+01
 8.6422501E+00  3.5880016E+01
 8.6537504E+00  3.5652237E+01
 8.6652508E+00  3.5487370E+01
 8.6767502E+00  3.5345608E+01
 8.6882505E+00  3.5226887E+01
 8.6997509E+00  3.5037853E+01
 8.7112503E+00  3.4888432E+01
 8.7227507E+00  3.4755527E+01
 8.7342501E+00  3.4556862E+01
 8.7457504E+00  3.4309624E+01
 8.7572508E+00  3.4101299E+01
 8.7687502E+00  3.3887230E+01
 8.7802505E+00  3.3746140E+01
 8.7917500E+00  3.3571903E+01
 8.8032503E+00  3.3457317E+01
 8.8147507E+00  3.3360573E+01
 8.8262501E+00  3.3254139E+01
 8.8377504E+00  3.3170593E+01
 8.8492508E+00  3.3046951E+01
 8.8607502E+00  3.2853004E+01
 8.8722506E+00  3.2703571E+01
 8.8837500E+00  3.2510956E+01
 8.8952503E+00  3.2279694E+01
 8.9067507E+00  3.2076607E+01
 8.9182501E+00  3.1874191E+01
 8.9297504E+00  3.1815603E+01
 8.9412508E+00  3.1643534E+01
 8.9527502E+00  3.1559416E+01
 8.9642506E+00  3.1359900E+01
 8.9757500E+00  3.1250046E+01
 8.9872503E+00  3.1097183E+01
 8.9987507E+00  3.0970673E+01
 9.0102501E+00  3.0745415E+01
 9.0217505E+00  3.0513451E+01
 9.0332508E+00  3.0266779E+01
 9.0447502E+00  3.0186502E+01
 9.0562506E+00  3.0041182E+01
 9.0677500E+00  3.0073185E+01
 9.0792503E+00  2.9993929E+01
 9.0907507E+00  2.9915964E+01
 9.1022501E+00  2.9654282E+01
 9.1137505E+00  2.9466743E+01
 9.1252508E+00  2.9273525E+01
 9.1367502E+00  2.9232780E+01
 9.1482506E+00  2.9149399E+01
 9.1597500E+00  2.9118729E+01
 9.1712503E+00  2.9073355E+01
 9.1827507E+00  2.8984125E+01
 9.1942501E+00  2.8893999E+01
 9.2057505E+00  2.8701187E+01
 9.2172508E+00  2.8607126E+01
 9.2287502E+00  2.8458220E+01
 9.2402506E+00  2.8429161E+01
 9.2517500E+00  2.8285889E+01
 9.2632504E+00  2.8224184E+01
 9.2747507E+00  2.8112762E+01
 9.2862501E+00  2.8038164E+01
 9.2977505E+00  2.7912403E+01
 9.3092508E+00  2.7745861E+01
 9.3207502E+00  2.7576637E+01
 9.3322506E+00  2.7422857E+01
 9.3437500E+00  2.7340961E+01
 9.3552504E+00  2.7271887E+01
 9.3667507E+00  2.7276588E+01
 9.3782501E+00  2.7203232E+01
 9.3897505E+00  2.7180969E+01
 9.4012508E+00  2.7072670E+01
 9.4127502E+00  2.7088413E+01
 9.4242506E+00  2.6997232E+01
 9.4357500E+00  2.6956150E+01
 9.4472504E+00  2.6823780E+01
 9.4587507E+00  2.6799889E+01
 9.4702501E+00  2.6768606E+01
 9.4817505E+00  2.6774366E+01
 9.4932508E+00  2.6761055E+01
 9.5047503E+00  2.6733992E+01
 9.5162506E+00  2.6650743E+01
 9.5277500E+00  2.6502117E+01
 9.5392504E+00  2.6349051E+01
 9.5507507E+00  2.6230156E+01
 9.5622501E+00  2.6114374E+01
 9.5737505E+00  2.6001720E+01
 9.5852509E+00  2.5907213E+01
 9.5967503E+00  2.5977144E+01
 9.6082506E+00  2.6025618E+01
 9.6197500E+00  2.6066278E+01
 9.6312504E+00  2.5966309E+01
 9.6427507E+00  2.5857893E+01
 9.6542501E+00  2.5704556E+01
 9.6657505E+00  2.5581333E+01
 9.6772509E+00  2.5462694E+01
 9.6887503E+00  2.5417036E+01
 9.7002506E+00  2.5397001E+01
 9.7117500E+00  2.5450567E+01
 9.7232504E+00  2.5404562E+01
 9.7347507E+00  2.5380169E+01
 9.7462502E+00  2.5260817E+01
 9.7577505E+00  2.5201038E+01
 9.7692509E+00  2.5098446E+01
 9.7807503E+00  2.5047901E+01
 9.7922506E+00  2.5010523E+01
 9.8037500E+00  2.5001768E+01
 9.8152504E+00  2.4978884E+01
 9.8267508E+00  2.4912868E+01
 9.8382502E+00  2.4807606E+01
 9.8497505E+00  2.4767954E+01
 9.8612509E+00  2.4763643E+01
 9.8727503E+00  2.4774143E+01
 9.8842506E+00  2.4756697E+01
 9.8957500E+00  2.4695118E+01
 9.9072504E+00  2.4701719E+01
 9.9187508E+00  2.4610703E+01
 9.9302502E+00  2.4622299E+01
 9.9417505E+00  2.4584044E+01
 9.9532509E+00  2.4557091E+01
 9.9647503E+00  2.4539936E+01
 9.9762506E+00  2.4485163E+01
 9.9877501E+00  2.4443464E+01
 9.9992504E+00  2.4367851E+01
 1.0010751E+01  2.4278435E+01
 1.0022250E+01  2.4205227E+01
 1.0033751E+01  2.4140778E+01
 1.0045251E+01  2.4115616E+01
 1.0056750E+01  2.4162306E+01
 1.0068251E+01  2.4142693E+01
 1.0079750E+01  2.4171896E+01
 1.0091250E+01  2.4139412E+01
 1.0102751E+01  2.4123533E+01
 1.0114250E+01  2.4096725E+01
 1.0125751E+01  2.4050869E+01
 1.0137251E+01  2.4007645E+01
 1.0148750E+01  2.3964540E+01
 1.0160251E+01  2.3954329E+01
 1.0171750E+01  2.3930206E+01
 1.0183250E+01  2.3922438E+01
 1.0194751E+01  2.3938421E+01
 1.0206250E+01  2.3991047E+01
 1.0217751E+01  2.4021717E+01
 1.0229251E+01  2.4015295E+01
 1.0240750E+01  2.4032518E+01
 1.0252251E+01  2.3933645E+01
 1.0263750E+01  2.3893160E+01
 1.0275250E+01  2.3740372E+01
 1.0286751E+01  2.3739832E+01
 1.0298250E+01  2.3702408E+01
 1.0309751E+01  2.3719669E+01
 1.0321251E+01  2.3683823E+01
 1.0332750E+01  2.3635967E+01
 1.0344251E+01  2.3642172E+01
 1.0355750E+01  2.3677364E+01
 1.0367250E+01  2.3651644E+01
 1.0378751E+01  2.3641296E+01
 1.0390250E+01  2.3641428E+01
 1.0401751E+01  2.3618774E+01
 1.0413251E+01  2.3631773E+01
 1.0424750E+01  2.3520815E+01
 1.0436251E+01  2.3453493E+01
 1.0447750E+01  2.3329601E+01
 1.0459250E+01  2.3289700E+01
 1.0470751E+01  2.3291292E+01
 1.0482250E+01  2.3276649E+01
 1.0493751E+01  2.3288979E+01
 1.0505251E+01  2.3300060E+01
 1.0516750E+01  2.3303102E+01
 1.0528251E+01  2.3284563E+01
 1.0539750E+01  2.3245073E+01
 1.0551250E+01  2.3257744E+01
 1.0562751E+01  2.3263195E+01
 1.0574250E+01  2.3234531E+01
 1.0585751E+01  2.3239256E+01
 1.0597251E+01  2.3155983E+01
 1.0608750E+01  2.3168182E+01
 1.0620251E+01  2.3133642E+01
 1.0631750E+01  2.3230005E+01
 1.0643250E+01  2.3264872E+01
 1.0654751E+01  2.3270823E+01
 1.0666250E+01  2.3234112E+01
 1.0677751E+01  2.3189264E+01
 1.0689251E+01  2.3154903E+01
 1.0700750E+01  2.3109531E+01
 1.0712251E+01  2.3116112E+01
 1.0723750E+01  2.3165163E+01
 1.0735250E+01  2.3143780E+01
 1.0746751E+01  2.3111469E+01
 1.0758250E+01  2.3049454E+01
 1.0769751E+01  2.3048140E+01
 1.0781251E+01  2.3071781E+01
 1.0792750E+01  2.3074291E+01
 1.0804251E+01  2.3085522E+01
 1.0815750E+01  2.3052391E+01
 1.0827250E+01  2.3065529E+01
 1.0838751E+01  2.2974554E+01
 1.0850250E+01  2.2939230E+01
 1.0861751E+01  2.2935970E+01
 1.0873251E+01  2.2996046E+01
 1.0884750E+01  2.3012074E+01
 1.0896251E+01  2.2946226E+01
 1.0907750E+01  2.2928738E+01
 1.0919250E+01  2.2868534E+01
 1.0930751E+01  2.2859848E+01
 1.0942250E+01  2.2826656E+01
 1.0953751E+01  2.2856405E+01
 1.0965251E+01  2.2847889E+01
 1.0976750E+01  2.2857086E+01
 1.0988251E+01  2.2805679E+01
 1.0999750E+01  2.2735376E+01
 1.1011250E+01  2.2651201E+01
 1.1022751E+01  2.2605612E+01
 1.1034250E+01  2.2594410E+01
 1.1045751E+01  2.2574205E+01
 1.1057251E+01  2.2563612E+01
 1.1068750E+01  2.2548719E+01
 1.1080251E+01  2.2620213E+01
 1.1091750E+01  2.2691376E+01
 1.1103251E+01  2.2770132E+01
 1.1114751E+01  2.2823191E+01
 1.1126250E+01  2.2830328E+01
 1.1137751E+01  2.2793779E+01
 1.1149251E+01  2.2747549E+01
 1.1160750E+01  2.2747274E+01
 1.1172251E+01  2.2737507E+01
 1.1183750E+01  2.2715944E+01
 1.1195251E+01  2.2690054E+01
 1.1206751E+01  2.2653622E+01
 1.1218250E+01  2.2614363E+01
 1.1229751E+01  2.2559732E+01
 1.1241251E+01  2.2569605E+01
 1.1252750E+01  2.2597061E+01
 1.1264251E+01  2.2662167E+01
 1.1275750E+01  2.2698908E+01
 1.1287251E+01  2.2651436E+01
 1.1298751E+01  2.2627827E+01
 1.1310250E+01  2.2591957E+01
 1.1321751E+01  2.2619438E+01
 1.1333251E+01  2.2601582E+01
 1.1344750E+01  2.2586353E+01
 1.1356251E+01  2.2613417E+01
 1.1367750E+01  2.2680363E+01
 1.1379251E+01  2.2776949E+01
 1.1390751E+01  2.2850321E+01
 1.1402250E+01  2.3056566E+01
 1.1413751E+01  2.3101482E+01
 1.1425251E+01  2.3129543E+01
 1.1436750E+01  2.3070633E+01
 1.1448251E+01  2.3095387E+01
 1.1459750E+01  2.3145239E+01
 1.1471251E+01  2.3143906E+01
 1.1482751E+01  2.3195393E+01
 1.1494250E+01  2.3305813E+01
 1.1505751E+01  2.3432703E+01
 1.1517251E+01  2.3689840E+01
 1.1528750E+01  2.4275829E+01
 1.1540251E+01  2.4938461E+01
 1.1551750E+01  2.6228106E+01
 1.1563251E+01  2.7909475E+01
 1.1574751E+01  2.9484144E+01
 1.1586250E+01  3.1277538E+01
 1.1597751E+01  3.1804022E+01
 1.1609251E+01  3.1773167E+01
 1.1620750E+01  3.0434093E+01
 1.1632251E+01  2.8901375E+01
 1.1643750E+01  2.7161455E+01
 1.1655251E+01  2.5734781E+01
 1.1666751E+01  2.4454699E+01
 1.1678250E+01  2.3945244E+01
 1.1689751E+01  2.3351973E+01
 1.1701251E+01  2.3227930E+01
 1.1712750E+01  2.3010351E+01
 1.1724251E+01  2.2856211E+01
 1.1735750E+01  2.2752848E+01
 1.1747251E+01  2.2731678E+01
 1.1758751E+01  2.2722813E+01
 1.1770250E+01  2.2707537E+01
 1.1781751E+01  2.2667833E+01
 1.1793251E+01  2.2650978E+01
 1.1804750E+01  2.2648405E+01
 1.1816251E+01  2.2665396E+01
 1.1827750E+01  2.2692064E+01
 1.1839251E+01  2.2718557E+01
 1.1850751E+01  2.2703892E+01
 1.1862250E+01  2.2742144E+01
 1.1873751E+01  2.2702635E+01
 1.1885251E+01  2.2711203E+01
 1.1896750E+01  2.2675404E+01
 1.1908251E+01  2.2741940E+01
 1.1919750E+01  2.2835747E+01
 1.1931251E+01  2.3051180E+01
 1.1942751E+01  2.3312138E+01
 1.1954250E+01  2.3599638E+01
 1.1965751E+01  2.3693457E+01
 1.1977251E+01  2.3953218E+01
 1.1988750E+01  2.3957577E+01
 1.2000251E+01  2.4065475E+01
 1.2011750E+01  2.3916779E+01
 1.2023251E+01  2.3945688E+01
 1.2034751E+01  2.3932880E+01
 1.2046250E+01  2.4411177E+01
 1.2057751E+01  2.4714539E+01
 1.2069251E+01  2.5874144E+01
 1.2080750E+01  2.6325874E+01
 1.2092251E+01  2.7480125E+01
 1.2103750E+01  2.6845720E+01
 1.2115251E+01  2.6769367E+01
 1.2126751E+01  2.5448856E+01
 1.2138250E+01  2.5009678E+01
 1.2149751E+01  2.3947809E+01
 1.2161251E+01  2.3627121E+01
 1.2172750E+01  2.3246267E+01
 1.2184251E+01  2.3086206E+01
 1.2195750E+01  2.2933079E+01
 1.2207251E+01  2.2804150E+01
 1.2218751E+01  2.2717890E+01
 1.2230250E+01  2.2649788E+01
 1.2241751E+01  2.2626966E+01
 1.2253251E+01  2.2657463E+01
 1.2264750E+01  2.2646065E+01
 1.2276251E+01  2.2602047E+01
 1.2287750E+01  2.2599068E+01
 1.2299251E+01  2.2602528E+01
 1.2310751E+01  2.2704319E+01
 1.2322250E+01  2.2716896E+01
 1.2333751E+01  2.2795618E+01
 1.2345250E+01  2.2819237E+01
 1.2356750E+01  2.2883020E+01
 1.2368251E+01  2.2808350E+01
 1.2379750E+01  2.2785849E+01
 1.2391251E+01  2.2736776E+01
 1.2402751E+01  2.2671076E+01
 1.2414250E+01  2.2613871E+01
 1.2425751E+01  2.2571030E+01
 1.2437250E+01  2.2591156E+01
 1.2448750E+01  2.2609186E+01
 1.2460251E+01  2.2672733E+01
 1.2471750E+01  2.2744526E+01
 1.2483251E+01  2.2845877E+01
 1.2494751E+01  2.2842628E+01
 1.2506250E+01  2.2894783E+01
 1.2517751E+01  2.2868673E+01
 1.2529250E+01  2.2912634E+01
 1.2540751E+01  2.2908306E+01
 1.2552251E+01  2.2895615E+01
 1.2563750E+01  2.2872324E+01
 1.2575251E+01  2.2869770E+01
 1.2586751E+01  2.2883415E+01
 1.2598250E+01  2.2882862E+01
 1.2609751E+01  2.2905346E+01
 1.2621250E+01  2.2914194E+01
 1.2632751E+01  2.2932598E+01
 1.2644251E+01  2.2871641E+01
 1.2655750E+01  2.2868525E+01
 1.2667251E+01  2.2873783E+01
 1.2678751E+01  2.2955278E+01
 1.2690250E+01  2.3020401E+01
 1.2701751E+01  2.3052181E+01
 1.2713250E+01  2.3066547E+01
 1.2724751E+01  2.3009232E+01
 1.2736251E+01  2.3054161E+01
 1.2747750E+01  2.3033638E+01
 1.2759251E+01  2.3121073E+01
 1.2770751E+01  2.3120714E+01
 1.2782250E+01  2.3221579E+01
 1.2793751E+01  2.3176266E+01
 1.2805250E+01  2.3174347E+01
 1.2816751E+01  2.3156771E+01
 1.2828251E+01  2.3192350E+01
 1.2839750E+01  2.3289036E+01
 1.2851251E+01  2.3362820E+01
 1.2862751E+01  2.3457758E+01
 1.2874250E+01  2.3486835E+01
 1.2885751E+01  2.3514112E+01
 1.2897250E+01  2.3569752E+01
 1.2908751E+01  2.3612434E+01
 1.2920251E+01  2.3680593E+01
 1.2931750E+01  2.3706520E+01
 1.2943251E+01  2.3752323E+01
 1.2954751E+01  2.3797707E+01
 1.2966250E+01  2.3875443E+01
 1.2977751E+01  2.3982389E+01
 1.2989250E+01  2.4051342E+01
 1.3000751E+01  2.4155638E+01
 1.3012251E+01  2.4207317E+01
 1.3023750E+01  2.4283886E+01
 1.3035251E+01  2.4345715E+01
 1.3046751E+01  2.4498703E+01
 1.3058250E+01  2.4589386E+01
 1.3069751E+01  2.4641514E+01
 1.3081250E+01  2.4668190E+01
 1.3092751E+01  2.4795891E+01
 1.3104251E+01  2.4963367E+01
 1.3115750E+01  2.5094698E+01
 1.3127251E+01  2.5214369E+01
 1.3138751E+01  2.5356953E+01
 1.3150250E+01  2.5477100E+01
 1.3161751E+01  2.5617502E+01
 1.3173250E+01  2.5707664E+01
 1.3184751E+01  2.5806849E+01
 1.3196251E+01  2.5895647E+01
 1.3207750E+01  2.6000378E+01
 1.3219251E+01  2.6165150E+01
 1.3230751E+01  2.6307499E+01
 1.3242250E+01  2.6488522E+01
 1.3253751E+01  2.6625343E+01
 1.3265250E+01  2.6731867E+01
 1.3276751E+01  2.6854782E+01
 1.3288251E+01  2.6965523E+01
 1.3299750E+01  2.7165874E+01
 1.3311251E+01  2.7247713E+01
 1.3322751E+01  2.7400743E+01
 1.3334250E+01  2.7496630E+01
 1.3345751E+01  2.7668440E+01
 1.3357250E+01  2.7802214E+01
 1.3368751E+01  2.7871302E+01
 1.3380251E+01  2.8008873E+01
 1.3391750E+01  2.8083416E+01
 1.3403251E+01  2.8230938E+01
 1.3414751E+01  2.8283932E+01
 1.3426250E+01  2.8454111E+01
 1.3437751E+01  2.8625183E+01
 1.3449250E+01  2.8782076E+01
 1.3460751E+01  2.8901934E+01
 1.3472251E+01  2.8991964E+01
 1.3483750E+01  2.9155579E+01
 1.3495251E+01  2.9295141E+01
 1.3506751E+01  2.9437904E+01
 1.3518250E+01  2.9536922E+01
 1.3529751E+01  2.9618080E+01
 1.3541250E+01  2.9678837E+01
 1.3552751E+01  2.9735954E+01
 1.3564251E+01  2.9830687E+01
 1.3575750E+01  2.9945974E+01
 1.3587251E+01  2.9996223E+01
 1.3598751E+01  2.9994349E+01
 1.3610250E+01  2.9998631E+01
 1.3621751E+01  3.0041090E+01
 1.3633250E+01  3.0059490E+01
 1.3644751E+01  3.0091286E+01
 1.3656251E+01  3.0097057E+01
 1.3667750E+01  3.0168877E+01
 1.3679251E+01  3.0139307E+01
 1.3690751E+01  3.0138502E+01
 1.3702250E+01  3.0079723E+01
 1.3713751E+01  3.0062675E+01
 1.3725250E+01  3.0051676E+01
 1.3736751E+01  3.0010990E+01
 1.3748251E+01  3.0038929E+01
 1.3759750E+01  3.0091091E+01
 1.3771251E+01  3.0114300E+01
 1.3782751E+01  3.0149481E+01
 1.3794250E+01  3.0150990E+01
 1.3805751E+01  3.0258955E+01
 1.3817250E+01  3.0427202E+01
 1.3828751E+01  3.0700636E+01
 1.3840251E+01  3.1112244E+01
 1.3851750E+01  3.1812212E+01
 1.3863251E+01  3.2551445E+01
 1.3874751E+01  3.3828495E+01
 1.3886250E+01  3.5377480E+01
 1.3897751E+01  3.8376060E+01
 1.3909250E+01  4.3095718E+01
 1.3920751E+01  4.9689671E+01
 1.3932251E+01  5.9582512E+01
 1.3943750E+01  6.6680534E+01
 1.3955251E+01  7.6507004E+01
 1.3966751E+01  7.6119423E+01
 1.3978251E+01  7.6289581E+01
 1.3989751E+01  6.5032158E+01
 1.4001250E+01  5.7784077E+01
 1.4012751E+01  4.5880035E+01
 1.4024251E+01  3.9823586E+01
 1.4035750E+01  3.4536469E+01
 1.4047251E+01  3.2333069E+01
 1.4058751E+01  3.0675186E+01
 1.4070251E+01  2.9919403E+01
 1.4081751E+01  2.9376228E+01
 1.4093250E+01  2.9051334E+01
 1.4104751E+01  2.8733984E+01
 1.4116251E+01  2.8494513E+01
 1.4127750E+01  2.8297976E+01
 1.4139251E+01  2.8127653E+01
 1.4150751E+01  2.7962851E+01
 1.4162251E+01  2.7796141E+01
 1.4173751E+01  2.7650915E+01
 1.4185250E+01  2.7526556E+01
 1.4196751E+01  2.7383865E+01
 1.4208251E+01  2.7278028E+01
 1.4219750E+01  2.7160372E+01
 1.4231251E+01  2.7019871E+01
 1.4242751E+01  2.6978823E+01
 1.4254251E+01  2.6856712E+01
 1.4265751E+01  2.6798571E+01
 1.4277250E+01  2.6696760E+01
 1.4288751E+01  2.6701307E+01
 1.4300251E+01  2.6661068E+01
 1.4311750E+01  2.6629992E+01
 1.4323251E+01  2.6563267E+01
 1.4334751E+01  2.6497429E+01
 1.4346251E+01  2.6431393E+01
 1.4357751E+01  2.6337137E+01
 1.4369250E+01  2.6236109E+01
 1.4380751E+01  2.6126524E+01
 1.4392251E+01  2.6073963E+01
 1.4403750E+01  2.6032570E+01
 1.4415251E+01  2.6040306E+01
 1.4426751E+01  2.6038122E+01
 1.4438251E+01  2.6030985E+01
 1.4449751E+01  2.5974440E+01
 1.4461250E+01  2.5907948E+01
 1.4472751E+01  2.5848166E+01
 1.4484251E+01  2.5837969E+01
 1.4495750E+01  2.5815264E+01
 1.4507251E+01  2.5827461E+01
 1.4518751E+01  2.5883665E+01
 1.4530251E+01  2.5951311E+01
 1.4541751E+01  2.5925711E+01
 1.4553250E+01  2.5872700E+01
 1.4564751E+01  2.5807379E+01
 1.4576251E+01  2.5739662E+01
 1.4587750E+01  2.5649410E+01
 1.4599251E+01  2.5580605E+01
 1.4610751E+01  2.5543320E+01
 1.4622251E+01  2.5516897E+01
 1.4633751E+01  2.5535248E+01
 1.4645250E+01  2.5538696E+01
 1.4656751E+01  2.5532728E+01
 1.4668251E+01  2.5478649E+01
 1.4679750E+01  2.5422682E+01
 1.4691251E+01  2.5393282E+01
 1.4702751E+01  2.5332605E+01
 1.4714251E+01  2.5306820E+01
 1.4725751E+01  2.5286211E+01
 1.4737250E+01  2.5301712E+01
 1.4748751E+01  2.5276783E+01
 1.4760251E+01  2.5190369E+01
 1.4771750E+01  2.5168432E+01
 1.4783251E+01  2.5146484E+01
 1.4794751E+01  2.5157784E+01
 1.4806251E+01  2.5134222E+01
 1.4817751E+01  2.5104952E+01
 1.4829250E+01  2.5068546E+01
 1.4840751E+01  2.5064779E+01
 1.4852251E+01  2.5081135E+01
 1.4863750E+01  2.5049580E+01
 1.4875251E+01  2.5040236E+01
 1.4886751E+01  2.5036873E+01
 1.4898251E+01  2.5078302E+01
 1.4909751E+01  2.5083878E+01
 1.4921250E+01  2.5074137E+01
 1.4932751E+01  2.5074394E+01
 1.4944251E+01  2.5031063E+01
 1.4955750E+01  2.5007256E+01
 1.4967251E+01  2.4907793E+01
 1.4978751E+01  2.4916702E+01
 1.4990251E+01  2.4885258E+01
 1.5001751E+01  2.4942163E+01
 1.5013250E+01  2.4966021E+01
 1.5024751E+01  2.4995710E+01
 1.5036251E+01  2.4979973E+01
 1.5047750E+01  2.4945904E+01
 1.5059251E+01  2.4988497E+01
 1.5070751E+01  2.5011890E+01
 1.5082251E+01  2.5022856E+01
 1.5093751E+01  2.5020390E+01
 1.5105250E+01  2.5095695E+01
 1.5116751E+01  2.5233610E+01
 1.5128251E+01  2.5391169E+01
 1.5139750E+01  2.5634953E+01
 1.5151251E+01  2.5986860E+01
 1.5162751E+01  2.6378231E+01
 1.5174251E+01  2.6789808E+01
 1.5185751E+01  2.7095303E+01
 1.5197250E+01  2.7212370E+01
 1.5208751E+01  2.7070896E+01
 1.5220251E+01  2.6712843E+01
 1.5231750E+01  2.6322392E+01
 1.5243251E+01  2.5875607E+01
 1.5254751E+01  2.5567089E+01
 1.5266251E+01  2.5246561E+01
 1.5277751E+01  2.5130388E+01
 1.5289250E+01  2.5004679E+01
 1.5300751E+01  2.4944864E+01
 1.5312251E+01  2.4852808E+01
 1.5323750E+01  2.4762915E+01
 1.5335251E+01  2.4749207E+01
 1.5346751E+01  2.4726198E+01
 1.5358251E+01  2.4783730E+01
 1.5369751E+01  2.4776497E+01
 1.5381250E+01  2.4796642E+01
 1.5392751E+01  2.4744644E+01
 1.5404251E+01  2.4714613E+01
 1.5415751E+01  2.4647274E+01
 1.5427251E+01  2.4616110E+01
 1.5438751E+01  2.4604017E+01
 1.5450251E+01  2.4659294E+01
 1.5461751E+01  2.4722288E+01
 1.5473250E+01  2.4697701E+01
 1.5484751E+01  2.4653416E+01
 1.5496251E+01  2.4613518E+01
 1.5507751E+01  2.4611673E+01
 1.5519251E+01  2.4605642E+01
 1.5530751E+01  2.4610777E+01
 1.5542251E+01  2.4647150E+01
 1.5553751E+01  2.4650597E+01
 1.5565250E+01  2.4678333E+01
 1.5576751E+01  2.4627480E+01
 1.5588251E+01  2.4647671E+01
 1.5599751E+01  2.4578384E+01
 1.5611251E+01  2.4561125E+01
 1.5622751E+01  2.4561413E+01
 1.5634251E+01  2.4589579E+01
 1.5645751E+01  2.4613081E+01
 1.5657250E+01  2.4635826E+01
 1.5668751E+01  2.4674398E+01
 1.5680251E+01  2.4704617E+01
 1.5691751E+01  2.4707941E+01
 1.5703251E+01  2.4727413E+01
 1.5714751E+01  2.4702021E+01
 1.5726251E+01  2.4647560E+01
 1.5737751E+01  2.4605301E+01
 1.5749250E+01  2.4608332E+01
 1.5760751E+01  2.4680824E+01
 1.5772251E+01  2.4742039E+01
 1.5783751E+01  2.4749481E+01
 1.5795251E+01  2.4770887E+01
 1.5806751E+01  2.4782642E+01
 1.5818251E+01  2.4823040E+01
 1.5829751E+01  2.4782675E+01
 1.5841250E+01  2.4739119E+01
 1.5852751E+01  2.4744305E+01
 1.5864251E+01  2.4690323E+01
 1.5875751E+01  2.4706598E+01
 1.5887251E+01  2.4693302E+01
 1.5898750E+01  2.4752914E+01
 1.5910251E+01  2.4803410E+01
 1.5921751E+01  2.4804052E+01
 1.5933250E+01  2.4778051E+01
 1.5944751E+01  2.4704016E+01
 1.5956251E+01  2.4721313E+01
 1.5967751E+01  2.4752575E+01
 1.5979251E+01  2.4787382E+01
 1.5990750E+01  2.4793211E+01
 1.6002251E+01  2.4795218E+01
 1.6013750E+01  2.4766035E+01
 1.6025251E+01  2.4763304E+01
 1.6036751E+01  2.4780598E+01
 1.6048250E+01  2.4821306E+01
 1.6059752E+01  2.4891155E+01
 1.6071251E+01  2.4892265E+01
 1.6082750E+01  2.4903955E+01
 1.6094252E+01  2.4891155E+01
 1.6105751E+01  2.4931715E+01
 1.6117250E+01  2.4854845E+01
 1.6128750E+01  2.4844223E+01
 1.6140251E+01  2.4880274E+01
 1.6151751E+01  2.4950539E+01
 1.6163250E+01  2.5013134E+01
 1.6174751E+01  2.4992979E+01
 1.6186251E+01  2.5114157E+01
 1.6197750E+01  2.5041824E+01
 1.6209251E+01  2.5263472E+01
 1.6220751E+01  2.5185358E+01
 1.6232250E+01  2.5418198E+01
 1.6243752E+01  2.5537395E+01
 1.6255251E+01  2.5744238E+01
 1.6266750E+01  2.5964680E+01
 1.6278252E+01  2.5778183E+01
 1.6289751E+01  2.5923656E+01
 1.6301250E+01  2.5429472E+01
 1.6312750E+01  2.5550005E+01
 1.6324251E+01  2.5181650E+01
 1.6335751E+01  2.5223921E+01
 1.6347250E+01  2.4986897E+01
 1.6358751E+01  2.4936386E+01
 1.6370251E+01  2.4800703E+01
 1.6381750E+01  2.4758160E+01
 1.6393251E+01  2.4728640E+01
 1.6404751E+01  2.4746845E+01
 1.6416250E+01  2.4705572E+01
 1.6427752E+01  2.4667065E+01
 1.6439251E+01  2.4637960E+01
 1.6450750E+01  2.4608606E+01
 1.6462252E+01  2.4612293E+01
 1.6473751E+01  2.4613312E+01
 1.6485250E+01  2.4671021E+01
 1.6496750E+01  2.4730724E+01
 1.6508251E+01  2.4740391E+01
 1.6519751E+01  2.4758930E+01
 1.6531250E+01  2.4761520E+01
 1.6542751E+01  2.4797092E+01
 1.6554251E+01  2.4778713E+01
 1.6565750E+01  2.4762177E+01
 1.6577251E+01  2.4712055E+01
 1.6588751E+01  2.4650600E+01
 1.6600250E+01  2.4598745E+01
 1.6611752E+01  2.4570717E+01
 1.6623251E+01  2.4562178E+01
 1.6634750E+01  2.4582928E+01
 1.6646252E+01  2.4625040E+01
 1.6657751E+01  2.4655849E+01
 1.6669250E+01  2.4701355E+01
 1.6680750E+01  2.4695507E+01
 1.6692251E+01  2.4681410E+01
 1.6703751E+01  2.4660088E+01
 1.6715250E+01  2.4676689E+01
 1.6726751E+01  2.4647425E+01
 1.6738251E+01  2.4643120E+01
 1.6749750E+01  2.4655310E+01
 1.6761251E+01  2.4659681E+01
 1.6772751E+01  2.4625933E+01
 1.6784250E+01  2.4615114E+01
 1.6795752E+01  2.4623638E+01
 1.6807251E+01  2.4646610E+01
 1.6818750E+01  2.4671320E+01
 1.6830252E+01  2.4660954E+01
 1.6841751E+01  2.4636646E+01
 1.6853251E+01  2.4578362E+01
 1.6864750E+01  2.4605021E+01
 1.6876251E+01  2.4601542E+01
 1.6887751E+01  2.4602703E+01
 1.6899250E+01  2.4592501E+01
 1.6910751E+01  2.4543257E+01
 1.6922251E+01  2.4498114E+01
 1.6933750E+01  2.4433916E+01
 1.6945251E+01  2.4383360E+01
 1.6956751E+01  2.4363401E+01
 1.6968250E+01  2.4390423E+01
 1.6979752E+01  2.4412464E+01
 1.6991251E+01  2.4389189E+01
 1.7002750E+01  2.4337530E+01
 1.7014252E+01  2.4383299E+01
 1.7025751E+01  2.4386524E+01
 1.7037251E+01  2.4379845E+01
 1.7048750E+01  2.4340122E+01
 1.7060251E+01  2.4325520E+01
 1.7071751E+01  2.4335585E+01
 1.7083250E+01  2.4356939E+01
 1.7094751E+01  2.4339300E+01
 1.7106251E+01  2.4300831E+01
 1.7117750E+01  2.4236366E+01
 1.7129251E+01  2.4239889E+01
 1.7140751E+01  2.4251476E+01
 1.7152250E+01  2.4242159E+01
 1.7163752E+01  2.4209341E+01
 1.7175251E+01  2.4206673E+01
 1.7186750E+01  2.4213840E+01
 1.7198252E+01  2.4207796E+01
 1.7209751E+01  2.4209127E+01
 1.7221251E+01  2.4206093E+01
 1.7232750E+01  2.4249504E+01
 1.7244251E+01  2.4238451E+01
 1.7255751E+01  2.4252512E+01
 1.7267250E+01  2.4224813E+01
 1.7278751E+01  2.4207287E+01
 1.7290251E+01  2.4169178E+01
 1.7301750E+01  2.4140579E+01
 1.7313251E+01  2.4199173E+01
 1.7324751E+01  2.4248796E+01
 1.7336250E+01  2.4299385E+01
 1.7347752E+01  2.4265469E+01
 1.7359251E+01  2.4259205E+01
 1.7370750E+01  2.4193327E+01
 1.7382252E+01  2.4196009E+01
 1.7393751E+01  2.4215496E+01
 1.7405251E+01  2.4200581E+01
 1.7416750E+01  2.4159891E+01
 1.7428251E+01  2.4128736E+01
 1.7439751E+01  2.4120966E+01
 1.7451250E+01  2.4098190E+01
 1.7462751E+01  2.4085827E+01
 1.7474251E+01  2.4088787E+01
 1.7485750E+01  2.4108099E+01
 1.7497252E+01  2.4056477E+01
 1.7508751E+01  2.4028408E+01
 1.7520250E+01  2.3967266E+01
 1.7531752E+01  2.3933027E+01
 1.7543251E+01  2.3963379E+01
 1.7554750E+01  2.3951893E+01
 1.7566252E+01  2.3942122E+01
 1.7577751E+01  2.3911993E+01
 1.7589251E+01  2.3904408E+01
 1.7600750E+01  2.3945742E+01
 1.7612251E+01  2.3951164E+01
 1.7623751E+01  2.4018503E+01
 1.7635250E+01  2.3965857E+01
 1.7646751E+01  2.3964258E+01
 1.7658251E+01  2.3907272E+01
 1.7669750E+01  2.3956928E+01
 1.7681252E+01  2.3969532E+01
 1.7692751E+01  2.4024305E+01
 1.7704250E+01  2.4021402E+01
 1.7715752E+01  2.4016199E+01
 1.7727251E+01  2.3969109E+01
 1.7738750E+01  2.3927212E+01
 1.7750252E+01  2.3906242E+01
 1.7761751E+01  2.3884371E+01
 1.7773251E+01  2.3935459E+01
 1.7784750E+01  2.3949610E+01
 1.7796251E+01  2.4013605E+01
 1.7807751E+01  2.3957869E+01
 1.7819250E+01  2.3985863E+01
 1.7830751E+01  2.3993813E+01
 1.7842251E+01  2.4048134E+01
 1.7853750E+01  2.4033754E+01
 1.7865252E+01  2.4001610E+01
 1.7876751E+01  2.3962860E+01
 1.7888250E+01  2.3927265E+01
 1.7899752E+01  2.3929012E+01
 1.7911251E+01  2.3945999E+01
 1.7922750E+01  2.3963324E+01
 1.7934252E+01  2.3933733E+01
 1.7945751E+01  2.3933878E+01
 1.7957251E+01  2.3991371E+01
 1.7968750E+01  2.4103975E+01
 1.7980251E+01  2.4230652E+01
 1.7991751E+01  2.4300041E+01
 1.8003250E+01  2.4442242E+01
 1.8014751E+01  2.4486893E+01
 1.8026251E+01  2.4606951E+01
 1.8037750E+01  2.4722639E+01
 1.8049252E+01  2.4970560E+01
 1.8060751E+01  2.5346802E+01
 1.8072250E+01  2.5635611E+01
 1.8083752E+01  2.6166418E+01
 1.8095251E+01  2.6427284E+01
 1.8106750E+01  2.6707851E+01
 1.8118252E+01  2.6552343E+01
 1.8129751E+01  2.6322720E+01
 1.8141251E+01  2.5841789E+01
 1.8152750E+01  2.5369526E+01
 1.8164251E+01  2.4968206E+01
 1.8175751E+01  2.4628048E+01
 1.8187250E+01  2.4424097E+01
 1.8198751E+01  2.4269241E+01
 1.8210251E+01  2.4202623E+01
 1.8221750E+01  2.4082535E+01
 1.8233252E+01  2.3984943E+01
 1.8244751E+01  2.3913107E+01
 1.8256250E+01  2.3864561E+01
 1.8267752E+01  2.3826178E+01
 1.8279251E+01  2.3776949E+01
 1.8290751E+01  2.3776554E+01
 1.8302252E+01  2.3792803E+01
 1.8313751E+01  2.3779078E+01
 1.8325251E+01  2.3748783E+01
 1.8336750E+01  2.3741581E+01
 1.8348251E+01  2.3808537E+01
 1.8359751E+01  2.3826082E+01
 1.8371250E+01  2.3795248E+01
 1.8382751E+01  2.3700220E+01
 1.8394251E+01  2.3661905E+01
 1.8405750E+01  2.3673208E+01
 1.8417252E+01  2.3687609E+01
 1.8428751E+01  2.3658161E+01
 1.8440250E+01  2.3637857E+01
 1.8451752E+01  2.3619963E+01
 1.8463251E+01  2.3643944E+01
 1.8474751E+01  2.3694454E+01
 1.8486252E+01  2.3748285E+01
 1.8497751E+01  2.3740122E+01
 1.8509251E+01  2.3731316E+01
 1.8520750E+01  2.3738842E+01
 1.8532251E+01  2.3742956E+01
 1.8543751E+01  2.3686237E+01
 1.8555250E+01  2.3676327E+01
 1.8566751E+01  2.3633097E+01
 1.8578251E+01  2.3643063E+01
 1.8589750E+01  2.3636133E+01
 1.8601252E+01  2.3639523E+01
 1.8612751E+01  2.3646811E+01
 1.8624250E+01  2.3679476E+01
 1.8635752E+01  2.3733912E+01
 1.8647251E+01  2.3728148E+01
 1.8658751E+01  2.3719290E+01
 1.8670252E+01  2.3694971E+01
 1.8681751E+01  2.3733898E+01
 1.8693251E+01  2.3736212E+01
 1.8704750E+01  2.3701914E+01
 1.8716251E+01  2.3646858E+01
 1.8727751E+01  2.3592251E+01
 1.8739250E+01  2.3524027E+01
 1.8750751E+01  2.3496632E+01
 1.8762251E+01  2.3465425E+01
 1.8773750E+01  2.3490322E+01
 1.8785252E+01  2.3501823E+01
 1.8796751E+01  2.3545965E+01
 1.8808250E+01  2.3568924E+01
 1.8819752E+01  2.3582579E+01
 1.8831251E+01  2.3563944E+01
 1.8842751E+01  2.3570457E+01
 1.8854252E+01  2.3521217E+01
 1.8865751E+01  2.3541203E+01
 1.8877251E+01  2.3548479E+01
 1.8888750E+01  2.3606874E+01
 1.8900251E+01  2.3631279E+01
 1.8911751E+01  2.3666994E+01
 1.8923250E+01  2.3703478E+01
 1.8934752E+01  2.3727242E+01
 1.8946251E+01  2.3784218E+01
 1.8957750E+01  2.3785456E+01
 1.8969252E+01  2.3688351E+01
 1.8980751E+01  2.3620037E+01
 1.8992250E+01  2.3583597E+01
 1.9003752E+01  2.3618313E+01
 1.9015251E+01  2.3612831E+01
 1.9026751E+01  2.3652473E+01
 1.9038252E+01  2.3669987E+01
 1.9049751E+01  2.3694456E+01
 1.9061251E+01  2.3727079E+01
 1.9072750E+01  2.3770485E+01
 1.9084251E+01  2.3788107E+01
 1.9095751E+01  2.3756596E+01
 1.9107250E+01  2.3753515E+01
 1.9118752E+01  2.3716787E+01
 1.9130251E+01  2.3719774E+01
 1.9141750E+01  2.3697529E+01
 1.9153252E+01  2.3711531E+01
 1.9164751E+01  2.3667494E+01
 1.9176250E+01  2.3670700E+01
 1.9187752E+01  2.3707739E+01
 1.9199251E+01  2.3735670E+01
 1.9210751E+01  2.3790409E+01
 1.9222252E+01  2.3779207E+01
 1.9233751E+01  2.3782757E+01
 1.9245251E+01  2.3789980E+01
 1.9256750E+01  2.3850948E+01
 1.9268251E+01  2.3866194E+01
 1.9279751E+01  2.3948404E+01
 1.9291250E+01  2.3993050E+01
 1.9302752E+01  2.4134157E+01
 1.9314251E+01  2.4044735E+01
 1.9325750E+01  2.3987577E+01
 1.9337252E+01  2.3885283E+01
 1.9348751E+01  2.3833496E+01
 1.9360250E+01  2.3808388E+01
 1.9371752E+01  2.3855673E+01
 1.9383251E+01  2.3907150E+01
 1.9394751E+01  2.3954323E+01
 1.9406250E+01  2.3984388E+01
 1.9417751E+01  2.4015984E+01
 1.9429251E+01  2.3990131E+01
 1.9440750E+01  2.3948219E+01
 1.9452251E+01  2.3897667E+01
 1.9463751E+01  2.3884571E+01
 1.9475250E+01  2.3880772E+01
 1.9486752E+01  2.3919004E+01
 1.9498251E+01  2.3929689E+01
 1.9509750E+01  2.3937134E+01
 1.9521252E+01  2.3980028E+01
 1.9532751E+01  2.4073709E+01
 1.9544250E+01  2.4204145E+01
 1.9555752E+01  2.4204851E+01
 1.9567251E+01  2.4204798E+01
 1.9578751E+01  2.4214226E+01
 1.9590250E+01  2.4263311E+01
 1.9601751E+01  2.4379112E+01
 1.9613251E+01  2.4524261E+01
 1.9624750E+01  2.4707674E+01
 1.9636251E+01  2.4976738E+01
 1.9647751E+01  2.5341362E+01
 1.9659250E+01  2.5864208E+01
 1.9670752E+01  2.6415552E+01
 1.9682251E+01  2.7224785E+01
 1.9693750E+01  2.7909195E+01
 1.9705252E+01  2.8442604E+01
 1.9716751E+01  2.8748802E+01
 1.9728251E+01  2.8733963E+01
 1.9739752E+01  2.8386524E+01
 1.9751251E+01  2.7977697E+01
 1.9762751E+01  2.7800886E+01
 1.9774250E+01  2.7932976E+01
 1.9785751E+01  2.9101147E+01
 1.9797251E+01  3.1377134E+01
 1.9808750E+01  3.4981239E+01
 1.9820251E+01  3.9467102E+01
 1.9831751E+01  4.2585384E+01
 1.9843250E+01  4.4199963E+01
 1.9854752E+01  4.2669617E+01
 1.9866251E+01  3.9787334E+01
 1.9877750E+01  3.6018196E+01
 1.9889252E+01  3.2518501E+01
 1.9900751E+01  3.0070396E+01
 1.9912251E+01  2.8190403E+01
 1.9923752E+01  2.6787548E+01
 1.9935251E+01  2.6054739E+01
 1.9946751E+01  2.5405611E+01
 1.9958250E+01  2.5145426E+01
 1.9969751E+01  2.5004690E+01
 1.9981251E+01  2.4831293E+01
 1.9992750E+01  2.4721191E+01
 2.0004251E+01  2.4622032E+01
 2.0015751E+01  2.4576038E+01
 2.0027250E+01  2.4496170E+01
 2.0038752E+01  2.4456114E+01
 2.0050251E+01  2.4398851E+01
 2.0061750E+01  2.4367624E+01
 2.0073252E+01  2.4315020E+01
 2.0084751E+01  2.4233929E+01
 2.0096251E+01  2.4182318E+01
 2.0107752E+01  2.4138000E+01
 2.0119251E+01  2.4156961E+01
 2.0130751E+01  2.4130133E+01
 2.0142250E+01  2.4115065E+01
 2.0153751E+01  2.4074503E+01
 2.0165251E+01  2.4046560E+01
 2.0176750E+01  2.4054346E+01
 2.0188251E+01  2.4047058E+01
 2.0199751E+01  2.4028893E+01
 2.0211250E+01  2.4006968E+01
 2.0222752E+01  2.3993538E+01
 2.0234251E+01  2.3972923E+01
 2.0245750E+01  2.3951813E+01
 2.0257252E+01  2.3924351E+01
 2.0268751E+01  2.3905401E+01
 2.0280251E+01  2.3901804E+01
 2.0291752E+01  2.3951494E+01
 2.0303251E+01  2.3897215E+01
 2.0314751E+01  2.3862333E+01
 2.0326250E+01  2.3839046E+01
 2.0337751E+01  2.3827927E+01
 2.0349251E+01  2.3809534E+01
 2.0360750E+01  2.3820814E+01
 2.0372252E+01  2.3828873E+01
 2.0383751E+01  2.3792622E+01
 2.0395250E+01  2.3853262E+01
 2.0406752E+01  2.3880030E+01
 2.0418251E+01  2.3938606E+01
 2.0429750E+01  2.3976488E+01
 2.0441252E+01  2.3996372E+01
 2.0452751E+01  2.3990665E+01
 2.0464251E+01  2.3929337E+01
 2.0475752E+01  2.3897402E+01
 2.0487251E+01  2.3853733E+01
 2.0498751E+01  2.3843851E+01
 2.0510250E+01  2.3879871E+01
 2.0521751E+01  2.3880133E+01
 2.0533251E+01  2.3906752E+01
 2.0544750E+01  2.3947119E+01
 2.0556252E+01  2.4023342E+01
 2.0567751E+01  2.4052979E+01
 2.0579250E+01  2.4031149E+01
 2.0590752E+01  2.4095306E+01
 2.0602251E+01  2.4166344E+01
 2.0613750E+01  2.4242819E+01
 2.0625252E+01  2.4288422E+01
 2.0636751E+01  2.4327759E+01
 2.0648251E+01  2.4364887E+01
 2.0659752E+01  2.4468842E+01
 2.0671251E+01  2.4632725E+01
 2.0682751E+01  2.5093046E+01
 2.0694250E+01  2.5489742E+01
 2.0705751E+01  2.6537842E+01
 2.0717251E+01  2.7445890E+01
 2.0728750E+01  2.8546101E+01
 2.0740252E+01  2.9314171E+01
 2.0751751E+01  2.9720760E+01
 2.0763250E+01  2.9302431E+01
 2.0774752E+01  2.8488306E+01
 2.0786251E+01  2.7771090E+01
 2.0797750E+01  2.6691418E+01
 2.0809252E+01  2.6111551E+01
 2.0820751E+01  2.5423998E+01
 2.0832251E+01  2.5133209E+01
 2.0843752E+01  2.4837460E+01
 2.0855251E+01  2.4609625E+01
 2.0866751E+01  2.4424704E+01
 2.0878250E+01  2.4315559E+01
 2.0889751E+01  2.4285797E+01
 2.0901251E+01  2.4276604E+01
 2.0912750E+01  2.4228294E+01
 2.0924252E+01  2.4202868E+01
 2.0935751E+01  2.4183611E+01
 2.0947250E+01  2.4221987E+01
 2.0958752E+01  2.4231266E+01
 2.0970251E+01  2.4202927E+01
 2.0981750E+01  2.4207220E+01
 2.0993252E+01  2.4211895E+01
 2.1004751E+01  2.4220230E+01
 2.1016251E+01  2.4172804E+01
 2.1027752E+01  2.4133902E+01
 2.1039251E+01  2.4104658E+01
 2.1050751E+01  2.4076904E+01
 2.1062250E+01  2.4077766E+01
 2.1073751E+01  2.4080620E+01
 2.1085251E+01  2.4113853E+01
 2.1096750E+01  2.4100208E+01
 2.1108252E+01  2.4121765E+01
 2.1119751E+01  2.4155685E+01
 2.1131250E+01  2.4174955E+01
 2.1142752E+01  2.4157454E+01
 2.1154251E+01  2.4109694E+01
 2.1165751E+01  2.4097235E+01
 2.1177252E+01  2.4105965E+01
 2.1188751E+01  2.4063745E+01
 2.1200251E+01  2.4050541E+01
 2.1211752E+01  2.4034637E+01
 2.1223251E+01  2.4024925E+01
 2.1234751E+01  2.3963829E+01
 2.1246250E+01  2.3962620E+01
 2.1257751E+01  2.4001020E+01
 2.1269251E+01  2.4026302E+01
 2.1280750E+01  2.4028740E+01
 2.1292252E+01  2.4043808E+01
 2.1303751E+01  2.4051762E+01
 2.1315250E+01  2.4074921E+01
 2.1326752E+01  2.4062145E+01
 2.1338251E+01  2.4090437E+01
 2.1349751E+01  2.4130856E+01
 2.1361252E+01  2.4213163E+01
 2.1372751E+01  2.4264772E+01
 2.1384251E+01  2.4230442E+01
 2.1395752E+01  2.4200432E+01
 2.1407251E+01  2.4153311E+01
 2.1418751E+01  2.4140360E+01
 2.1430250E+01  2.4082479E+01
 2.1441751E+01  2.4050886E+01
 2.1453251E+01  2.4034849E+01
 2.1464750E+01  2.4017769E+01
 2.1476252E+01  2.4029572E+01
 2.1487751E+01  2.4105965E+01
 2.1499250E+01  2.4180227E+01
 2.1510752E+01  2.4204063E+01
 2.1522251E+01  2.4189453E+01
 2.1533751E+01  2.4143991E+01
 2.1545252E+01  2.4103094E+01
 2.1556751E+01  2.4100370E+01
 2.1568251E+01  2.4135500E+01
 2.1579752E+01  2.4183727E+01
 2.1591251E+01  2.4232407E+01
 2.1602751E+01  2.4212534E+01
 2.1614250E+01  2.4218340E+01
 2.1625751E+01  2.4212282E+01
 2.1637251E+01  2.4211075E+01
 2.1648750E+01  2.4209494E+01
 2.1660252E+01  2.4236763E+01
 2.1671751E+01  2.4190514E+01
 2.1683250E+01  2.4191158E+01
 2.1694752E+01  2.4187674E+01
 2.1706251E+01  2.4193619E+01
 2.1717751E+01  2.4189697E+01
 2.1729252E+01  2.4208555E+01
 2.1740751E+01  2.4311705E+01
 2.1752251E+01  2.4349144E+01
 2.1763752E+01  2.4403622E+01
 2.1775251E+01  2.4382504E+01
 2.1786751E+01  2.4388134E+01
 2.1798250E+01  2.4353594E+01
 2.1809752E+01  2.4327486E+01
 2.1821251E+01  2.4318298E+01
 2.1832750E+01  2.4292795E+01
 2.1844252E+01  2.4290464E+01
 2.1855751E+01  2.4305557E+01
 2.1867250E+01  2.4323774E+01
 2.1878752E+01  2.4378540E+01
 2.1890251E+01  2.4388123E+01
 2.1901751E+01  2.4397892E+01
 2.1913252E+01  2.4425039E+01
 2.1924751E+01  2.4451187E+01
 2.1936251E+01  2.4440849E+01
 2.1947752E+01  2.4401815E+01
 2.1959251E+01  2.4404066E+01
 2.1970751E+01  2.4417208E+01
 2.1982250E+01  2.4395452E+01
 2.1993752E+01  2.4409235E+01
 2.2005251E+01  2.4387560E+01
 2.2016750E+01  2.4400696E+01
 2.2028252E+01  2.4386858E+01
 2.2039751E+01  2.4407719E+01
 2.2051250E+01  2.4434256E+01
 2.2062752E+01  2.4448174E+01
 2.2074251E+01  2.4459763E+01
 2.2085751E+01  2.4432714E+01
 2.2097252E+01  2.4428671E+01
 2.2108751E+01  2.4463203E+01
 2.2120251E+01  2.4573606E+01
 2.2131752E+01  2.4653051E+01
 2.2143251E+01  2.4671192E+01
 2.2154751E+01  2.4593035E+01
 2.2166250E+01  2.4539072E+01
 2.2177752E+01  2.4511965E+01
 2.2189251E+01  2.4489233E+01
 2.2200750E+01  2.4479055E+01
 2.2212252E+01  2.4494078E+01
 2.2223751E+01  2.4541920E+01
 2.2235250E+01  2.4594612E+01
 2.2246752E+01  2.4615953E+01
 2.2258251E+01  2.4585810E+01
 2.2269751E+01  2.4566168E+01
 2.2281252E+01  2.4563988E+01
 2.2292751E+01  2.4566084E+01
 2.2304251E+01  2.4624556E+01
 2.2315752E+01  2.4669874E+01
 2.2327251E+01  2.4708633E+01
 2.2338751E+01  2.4695063E+01
 2.2350250E+01  2.4712603E+01
 2.2361752E+01  2.4741505E+01
 2.2373251E+01  2.4755854E+01
 2.2384750E+01  2.4773651E+01
 2.2396252E+01  2.4729599E+01
 2.2407751E+01  2.4720675E+01
 2.2419250E+01  2.4683725E+01
 2.2430752E+01  2.4721264E+01
 2.2442251E+01  2.4789869E+01
 2.2453751E+01  2.4845320E+01
 2.2465252E+01  2.4872721E+01
 2.2476751E+01  2.4859190E+01
 2.2488251E+01  2.4870470E+01
 2.2499752E+01  2.4874317E+01
 2.2511251E+01  2.4928762E+01
 2.2522751E+01  2.4968800E+01
 2.2534250E+01  2.5012306E+01
 2.2545752E+01  2.5072521E+01
 2.2557251E+01  2.5117579E+01
 2.2568750E+01  2.5122522E+01
 2.2580252E+01  2.5121595E+01
 2.2591751E+01  2.5090361E+01
 2.2603251E+01  2.5119272E+01
 2.2614752E+01  2.5170134E+01
 2.2626251E+01  2.5219244E+01
 2.2637751E+01  2.5213896E+01
 2.2649252E+01  2.5159306E+01
 2.2660751E+01  2.5110542E+01
 2.2672251E+01  2.5097431E+01
 2.2683752E+01  2.5127342E+01
 2.2695251E+01  2.5174244E+01
 2.2706751E+01  2.5191914E+01
 2.2718250E+01  2.5247108E+01
 2.2729752E+01  2.5263540E+01
 2.2741251E+01  2.5292858E+01
 2.2752750E+01  2.5316496E+01
 2.2764252E+01  2.5377413E+01
 2.2775751E+01  2.5423037E+01
 2.2787251E+01  2.5454870E+01
 2.2798752E+01  2.5499132E+01
 2.2810251E+01  2.5545589E+01
 2.2821751E+01  2.5603804E+01
 2.2833252E+01  2.5680021E+01
 2.2844751E+01  2.5733870E+01
 2.2856251E+01  2.5746571E+01
 2.2867750E+01  2.5797941E+01
 2.2879251E+01  2.5837341E+01
 2.2890751E+01  2.5926600E+01
 2.2902250E+01  2.5970070E+01
 2.2913752E+01  2.6049244E+01
 2.2925251E+01  2.6096115E+01
 2.2936750E+01  2.6190472E+01
 2.2948252E+01  2.6282780E+01
 2.2959751E+01  2.6382900E+01
 2.2971251E+01  2.6491343E+01
 2.2982752E+01  2.6627403E+01
 2.2994251E+01  2.6742365E+01
