F:\20151113_APS_34IDE\\Brian\Particle1\OCV\Data_0116.tif
2-Theta Angle (Degrees)
Intensity
       2000
 5.7500005E-03  0.0000000E+00
 1.7250001E-02  0.0000000E+00
 2.8750001E-02  0.0000000E+00
 4.0250003E-02  0.0000000E+00
 5.1750004E-02  0.0000000E+00
 6.3250005E-02  0.0000000E+00
 7.4750006E-02  0.0000000E+00
 8.6250007E-02  0.0000000E+00
 9.7750008E-02  0.0000000E+00
 1.0925001E-01  0.0000000E+00
 1.2075000E-01  0.0000000E+00
 1.3225001E-01  0.0000000E+00
 1.4375001E-01  0.0000000E+00
 1.5525001E-01  0.0000000E+00
 1.6675001E-01  0.0000000E+00
 1.7825001E-01  0.0000000E+00
 1.8975002E-01  0.0000000E+00
 2.0125002E-01  0.0000000E+00
 2.1275002E-01  0.0000000E+00
 2.2425000E-01  0.0000000E+00
 2.3575000E-01  0.0000000E+00
 2.4725001E-01  0.0000000E+00
 2.5875002E-01  0.0000000E+00
 2.7025002E-01  0.0000000E+00
 2.8175002E-01  0.0000000E+00
 2.9325002E-01  0.0000000E+00
 3.0475003E-01  0.0000000E+00
 3.1625003E-01  0.0000000E+00
 3.2775003E-01  0.0000000E+00
 3.3925003E-01  0.0000000E+00
 3.5075003E-01  0.0000000E+00
 3.6225003E-01  0.0000000E+00
 3.7375003E-01  0.0000000E+00
 3.8525003E-01  0.0000000E+00
 3.9675003E-01  0.0000000E+00
 4.0825003E-01  0.0000000E+00
 4.1975003E-01  0.0000000E+00
 4.3125004E-01  0.0000000E+00
 4.4275001E-01  0.0000000E+00
 4.5425001E-01  0.0000000E+00
 4.6575001E-01  0.0000000E+00
 4.7725001E-01  0.0000000E+00
 4.8875001E-01  0.0000000E+00
 5.0025004E-01  0.0000000E+00
 5.1175004E-01  0.0000000E+00
 5.2325004E-01  0.0000000E+00
 5.3475004E-01  0.0000000E+00
 5.4625005E-01  0.0000000E+00
 5.5775005E-01  0.0000000E+00
 5.6925005E-01  0.0000000E+00
 5.8075005E-01  0.0000000E+00
 5.9225005E-01  0.0000000E+00
 6.0375005E-01  0.0000000E+00
 6.1525005E-01  0.0000000E+00
 6.2675005E-01  0.0000000E+00
 6.3825005E-01  0.0000000E+00
 6.4975005E-01  0.0000000E+00
 6.6125005E-01  0.0000000E+00
 6.7275006E-01  0.0000000E+00
 6.8425006E-01  0.0000000E+00
 6.9575006E-01  0.0000000E+00
 7.0725006E-01  0.0000000E+00
 7.1875006E-01  0.0000000E+00
 7.3025006E-01  0.0000000E+00
 7.4175006E-01  0.0000000E+00
 7.5325006E-01  0.0000000E+00
 7.6475006E-01  0.0000000E+00
 7.7625006E-01  0.0000000E+00
 7.8775007E-01  0.0000000E+00
 7.9925007E-01  0.0000000E+00
 8.1075007E-01  0.0000000E+00
 8.2225007E-01  0.0000000E+00
 8.3375007E-01  0.0000000E+00
 8.4525007E-01  0.0000000E+00
 8.5675007E-01  0.0000000E+00
 8.6825007E-01  0.0000000E+00
 8.7975001E-01  0.0000000E+00
 8.9125001E-01  0.0000000E+00
 9.0275002E-01  0.0000000E+00
 9.1425002E-01  0.0000000E+00
 9.2575002E-01  0.0000000E+00
 9.3725002E-01  0.0000000E+00
 9.4875002E-01  0.0000000E+00
 9.6025002E-01  0.0000000E+00
 9.7175002E-01  0.0000000E+00
 9.8325002E-01  0.0000000E+00
 9.9475002E-01  0.0000000E+00
 1.0062500E+00  0.0000000E+00
 1.0177500E+00  0.0000000E+00
 1.0292500E+00  0.0000000E+00
 1.0407500E+00  0.0000000E+00
 1.0522500E+00  0.0000000E+00
 1.0637500E+00  0.0000000E+00
 1.0752500E+00  0.0000000E+00
 1.0867500E+00  0.0000000E+00
 1.0982500E+00  0.0000000E+00
 1.1097500E+00  0.0000000E+00
 1.1212500E+00  0.0000000E+00
 1.1327500E+00  0.0000000E+00
 1.1442500E+00  0.0000000E+00
 1.1557500E+00  0.0000000E+00
 1.1672500E+00  0.0000000E+00
 1.1787500E+00  0.0000000E+00
 1.1902500E+00  0.0000000E+00
 1.2017500E+00  0.0000000E+00
 1.2132500E+00  0.0000000E+00
 1.2247500E+00  0.0000000E+00
 1.2362500E+00  0.0000000E+00
 1.2477500E+00  0.0000000E+00
 1.2592500E+00  0.0000000E+00
 1.2707500E+00  0.0000000E+00
 1.2822500E+00  0.0000000E+00
 1.2937500E+00  0.0000000E+00
 1.3052500E+00  0.0000000E+00
 1.3167500E+00  0.0000000E+00
 1.3282501E+00  0.0000000E+00
 1.3397501E+00  0.0000000E+00
 1.3512501E+00  0.0000000E+00
 1.3627501E+00  0.0000000E+00
 1.3742501E+00  0.0000000E+00
 1.3857501E+00  0.0000000E+00
 1.3972501E+00  0.0000000E+00
 1.4087501E+00  0.0000000E+00
 1.4202501E+00  0.0000000E+00
 1.4317501E+00  0.0000000E+00
 1.4432501E+00  0.0000000E+00
 1.4547501E+00  0.0000000E+00
 1.4662501E+00  0.0000000E+00
 1.4777501E+00  0.0000000E+00
 1.4892501E+00  0.0000000E+00
 1.5007501E+00  0.0000000E+00
 1.5122501E+00  0.0000000E+00
 1.5237501E+00  0.0000000E+00
 1.5352501E+00  0.0000000E+00
 1.5467501E+00  0.0000000E+00
 1.5582501E+00  0.0000000E+00
 1.5697501E+00  0.0000000E+00
 1.5812501E+00  0.0000000E+00
 1.5927501E+00  0.0000000E+00
 1.6042501E+00  0.0000000E+00
 1.6157501E+00  0.0000000E+00
 1.6272501E+00  0.0000000E+00
 1.6387501E+00  0.0000000E+00
 1.6502501E+00  0.0000000E+00
 1.6617501E+00  0.0000000E+00
 1.6732501E+00  0.0000000E+00
 1.6847501E+00  0.0000000E+00
 1.6962501E+00  0.0000000E+00
 1.7077501E+00  0.0000000E+00
 1.7192501E+00  0.0000000E+00
 1.7307501E+00  0.0000000E+00
 1.7422501E+00  0.0000000E+00
 1.7537501E+00  0.0000000E+00
 1.7652501E+00  0.0000000E+00
 1.7767501E+00  0.0000000E+00
 1.7882501E+00  0.0000000E+00
 1.7997501E+00  0.0000000E+00
 1.8112501E+00  0.0000000E+00
 1.8227501E+00  0.0000000E+00
 1.8342501E+00  0.0000000E+00
 1.8457501E+00  0.0000000E+00
 1.8572501E+00  0.0000000E+00
 1.8687501E+00  0.0000000E+00
 1.8802501E+00  0.0000000E+00
 1.8917501E+00  0.0000000E+00
 1.9032501E+00  0.0000000E+00
 1.9147501E+00  0.0000000E+00
 1.9262501E+00  0.0000000E+00
 1.9377501E+00  0.0000000E+00
 1.9492501E+00  0.0000000E+00
 1.9607501E+00  0.0000000E+00
 1.9722501E+00  0.0000000E+00
 1.9837501E+00  0.0000000E+00
 1.9952501E+00  0.0000000E+00
 2.0067501E+00  0.0000000E+00
 2.0182500E+00  0.0000000E+00
 2.0297501E+00  0.0000000E+00
 2.0412500E+00  0.0000000E+00
 2.0527501E+00  0.0000000E+00
 2.0642500E+00  0.0000000E+00
 2.0757501E+00  0.0000000E+00
 2.0872500E+00  0.0000000E+00
 2.0987501E+00  0.0000000E+00
 2.1102500E+00  0.0000000E+00
 2.1217501E+00  0.0000000E+00
 2.1332500E+00  0.0000000E+00
 2.1447501E+00  0.0000000E+00
 2.1562500E+00  0.0000000E+00
 2.1677501E+00  0.0000000E+00
 2.1792500E+00  0.0000000E+00
 2.1907501E+00  0.0000000E+00
 2.2022500E+00  0.0000000E+00
 2.2137501E+00  0.0000000E+00
 2.2252500E+00  0.0000000E+00
 2.2367501E+00  0.0000000E+00
 2.2482500E+00  0.0000000E+00
 2.2597501E+00  0.0000000E+00
 2.2712500E+00  0.0000000E+00
 2.2827501E+00  0.0000000E+00
 2.2942500E+00  0.0000000E+00
 2.3057501E+00  0.0000000E+00
 2.3172500E+00  0.0000000E+00
 2.3287501E+00  0.0000000E+00
 2.3402500E+00  0.0000000E+00
 2.3517501E+00  0.0000000E+00
 2.3632500E+00  0.0000000E+00
 2.3747501E+00  0.0000000E+00
 2.3862500E+00  0.0000000E+00
 2.3977501E+00  0.0000000E+00
 2.4092500E+00  0.0000000E+00
 2.4207501E+00  0.0000000E+00
 2.4322500E+00  0.0000000E+00
 2.4437501E+00  0.0000000E+00
 2.4552500E+00  0.0000000E+00
 2.4667501E+00  0.0000000E+00
 2.4782500E+00  0.0000000E+00
 2.4897501E+00  0.0000000E+00
 2.5012500E+00  0.0000000E+00
 2.5127501E+00  0.0000000E+00
 2.5242500E+00  0.0000000E+00
 2.5357502E+00  0.0000000E+00
 2.5472500E+00  0.0000000E+00
 2.5587502E+00  0.0000000E+00
 2.5702500E+00  0.0000000E+00
 2.5817502E+00  0.0000000E+00
 2.5932500E+00  0.0000000E+00
 2.6047502E+00  0.0000000E+00
 2.6162500E+00  0.0000000E+00
 2.6277502E+00  0.0000000E+00
 2.6392500E+00  0.0000000E+00
 2.6507502E+00  0.0000000E+00
 2.6622500E+00  0.0000000E+00
 2.6737502E+00  0.0000000E+00
 2.6852500E+00  0.0000000E+00
 2.6967502E+00  0.0000000E+00
 2.7082500E+00  0.0000000E+00
 2.7197502E+00  0.0000000E+00
 2.7312500E+00  0.0000000E+00
 2.7427502E+00  0.0000000E+00
 2.7542500E+00  0.0000000E+00
 2.7657502E+00  0.0000000E+00
 2.7772501E+00  0.0000000E+00
 2.7887502E+00  0.0000000E+00
 2.8002501E+00  0.0000000E+00
 2.8117502E+00  0.0000000E+00
 2.8232501E+00  3.1843611E+01
 2.8347502E+00  3.2516132E+01
 2.8462501E+00  3.3365818E+01
 2.8577502E+00  3.3619686E+01
 2.8692501E+00  3.4133472E+01
 2.8807502E+00  3.4797340E+01
 2.8922501E+00  3.5150841E+01
 2.9037502E+00  3.5209225E+01
 2.9152501E+00  3.4603199E+01
 2.9267502E+00  3.4057148E+01
 2.9382501E+00  3.3666962E+01
 2.9497502E+00  3.3432491E+01
 2.9612501E+00  3.3642895E+01
 2.9727502E+00  3.3893635E+01
 2.9842501E+00  3.4247608E+01
 2.9957502E+00  3.4729130E+01
 3.0072501E+00  3.4832054E+01
 3.0187502E+00  3.4911182E+01
 3.0302501E+00  3.4635181E+01
 3.0417502E+00  3.4806732E+01
 3.0532501E+00  3.4724724E+01
 3.0647502E+00  3.4938801E+01
 3.0762501E+00  3.4883991E+01
 3.0877502E+00  3.4995663E+01
 3.0992501E+00  3.5050789E+01
 3.1107502E+00  3.4625244E+01
 3.1222501E+00  3.4397118E+01
 3.1337502E+00  3.4089382E+01
 3.1452501E+00  3.4245167E+01
 3.1567502E+00  3.4346409E+01
 3.1682501E+00  3.4068958E+01
 3.1797502E+00  3.3787350E+01
 3.1912501E+00  3.3596298E+01
 3.2027502E+00  3.3757969E+01
 3.2142501E+00  3.3698135E+01
 3.2257502E+00  3.4015549E+01
 3.2372501E+00  3.4122681E+01
 3.2487502E+00  3.4300720E+01
 3.2602501E+00  3.4261536E+01
 3.2717502E+00  3.3856686E+01
 3.2832501E+00  3.3792938E+01
 3.2947502E+00  3.3354076E+01
 3.3062501E+00  3.3348316E+01
 3.3177502E+00  3.3427395E+01
 3.3292501E+00  3.3302647E+01
 3.3407502E+00  3.3608318E+01
 3.3522501E+00  3.3544411E+01
 3.3637502E+00  3.3759987E+01
 3.3752501E+00  3.3830414E+01
 3.3867502E+00  3.3958248E+01
 3.3982501E+00  3.4152325E+01
 3.4097502E+00  3.4267574E+01
 3.4212501E+00  3.4052532E+01
 3.4327502E+00  3.3774296E+01
 3.4442501E+00  3.3516895E+01
 3.4557502E+00  3.3405567E+01
 3.4672501E+00  3.3355045E+01
 3.4787502E+00  3.3544220E+01
 3.4902501E+00  3.3607552E+01
 3.5017502E+00  3.3419540E+01
 3.5132501E+00  3.3300594E+01
 3.5247502E+00  3.3190411E+01
 3.5362501E+00  3.3455109E+01
 3.5477502E+00  3.3262180E+01
 3.5592501E+00  3.3406837E+01
 3.5707502E+00  3.3184875E+01
 3.5822501E+00  3.3137291E+01
 3.5937502E+00  3.2966843E+01
 3.6052501E+00  3.2927143E+01
 3.6167502E+00  3.2902882E+01
 3.6282501E+00  3.2759018E+01
 3.6397502E+00  3.2744949E+01
 3.6512501E+00  3.2749348E+01
 3.6627502E+00  3.2789330E+01
 3.6742501E+00  3.2833954E+01
 3.6857502E+00  3.2926411E+01
 3.6972501E+00  3.2702072E+01
 3.7087502E+00  3.2559067E+01
 3.7202501E+00  3.2221134E+01
 3.7317502E+00  3.2189663E+01
 3.7432501E+00  3.2253944E+01
 3.7547503E+00  3.2289028E+01
 3.7662501E+00  3.2419102E+01
 3.7777503E+00  3.2652508E+01
 3.7892501E+00  3.2653484E+01
 3.8007503E+00  3.2456924E+01
 3.8122501E+00  3.2266670E+01
 3.8237503E+00  3.2070648E+01
 3.8352501E+00  3.2251564E+01
 3.8467503E+00  3.2221416E+01
 3.8582501E+00  3.2147942E+01
 3.8697503E+00  3.2461723E+01
 3.8812501E+00  3.2540699E+01
 3.8927503E+00  3.2649033E+01
 3.9042501E+00  3.2518890E+01
 3.9157503E+00  3.2339615E+01
 3.9272501E+00  3.2301140E+01
 3.9387503E+00  3.2160213E+01
 3.9502501E+00  3.2279724E+01
 3.9617503E+00  3.2386990E+01
 3.9732502E+00  3.2406708E+01
 3.9847503E+00  3.2359413E+01
 3.9962502E+00  3.2361710E+01
 4.0077500E+00  3.2391861E+01
 4.0192504E+00  3.2177334E+01
 4.0307503E+00  3.1915728E+01
 4.0422502E+00  3.1856758E+01
 4.0537500E+00  3.1754606E+01
 4.0652504E+00  3.1834646E+01
 4.0767503E+00  3.1612572E+01
 4.0882502E+00  3.1680075E+01
 4.0997500E+00  3.1677855E+01
 4.1112504E+00  3.1814888E+01
 4.1227503E+00  3.1842403E+01
 4.1342502E+00  3.1842539E+01
 4.1457500E+00  3.1985231E+01
 4.1572504E+00  3.1813742E+01
 4.1687503E+00  3.2015240E+01
 4.1802502E+00  3.1889723E+01
 4.1917500E+00  3.2105042E+01
 4.2032504E+00  3.2112637E+01
 4.2147503E+00  3.2018097E+01
 4.2262502E+00  3.2055328E+01
 4.2377501E+00  3.1949223E+01
 4.2492504E+00  3.1865950E+01
 4.2607503E+00  3.1865593E+01
 4.2722502E+00  3.1782694E+01
 4.2837501E+00  3.1935585E+01
 4.2952504E+00  3.1898695E+01
 4.3067503E+00  3.1947506E+01
 4.3182502E+00  3.1889482E+01
 4.3297501E+00  3.1792093E+01
 4.3412504E+00  3.1602041E+01
 4.3527503E+00  3.1535753E+01
 4.3642502E+00  3.1594469E+01
 4.3757501E+00  3.1534849E+01
 4.3872504E+00  3.1526869E+01
 4.3987503E+00  3.1433527E+01
 4.4102502E+00  3.1623161E+01
 4.4217501E+00  3.1604019E+01
 4.4332504E+00  3.1885668E+01
 4.4447503E+00  3.1927267E+01
 4.4562502E+00  3.2203537E+01
 4.4677501E+00  3.2163303E+01
 4.4792504E+00  3.2236282E+01
 4.4907503E+00  3.2036110E+01
 4.5022502E+00  3.1966423E+01
 4.5137501E+00  3.1915005E+01
 4.5252504E+00  3.2061417E+01
 4.5367503E+00  3.2121780E+01
 4.5482502E+00  3.2222485E+01
 4.5597501E+00  3.2252651E+01
 4.5712504E+00  3.2251835E+01
 4.5827503E+00  3.2141464E+01
 4.5942502E+00  3.2101501E+01
 4.6057501E+00  3.2021965E+01
 4.6172504E+00  3.2012470E+01
 4.6287503E+00  3.1949903E+01
 4.6402502E+00  3.2142639E+01
 4.6517501E+00  3.2175728E+01
 4.6632504E+00  3.2331707E+01
 4.6747503E+00  3.2244358E+01
 4.6862502E+00  3.2060135E+01
 4.6977501E+00  3.1842255E+01
 4.7092505E+00  3.1717302E+01
 4.7207503E+00  3.1876951E+01
 4.7322502E+00  3.1914347E+01
 4.7437501E+00  3.1997509E+01
 4.7552505E+00  3.1970520E+01
 4.7667503E+00  3.2125381E+01
 4.7782502E+00  3.2031998E+01
 4.7897501E+00  3.2032734E+01
 4.8012505E+00  3.1952696E+01
 4.8127503E+00  3.2101471E+01
 4.8242502E+00  3.2253075E+01
 4.8357501E+00  3.2339783E+01
 4.8472505E+00  3.2465656E+01
 4.8587503E+00  3.2468609E+01
 4.8702502E+00  3.2444389E+01
 4.8817501E+00  3.2394615E+01
 4.8932505E+00  3.2315655E+01
 4.9047503E+00  3.2380543E+01
 4.9162502E+00  3.2515305E+01
 4.9277501E+00  3.2512001E+01
 4.9392505E+00  3.2476078E+01
 4.9507504E+00  3.2313530E+01
 4.9622502E+00  3.2234116E+01
 4.9737501E+00  3.2254444E+01
 4.9852505E+00  3.2213013E+01
 4.9967504E+00  3.2208679E+01
 5.0082502E+00  3.2301773E+01
 5.0197501E+00  3.2336113E+01
 5.0312505E+00  3.2586193E+01
 5.0427504E+00  3.2628651E+01
 5.0542502E+00  3.2810707E+01
 5.0657501E+00  3.2780533E+01
 5.0772505E+00  3.2787357E+01
 5.0887504E+00  3.2736858E+01
 5.1002502E+00  3.2707935E+01
 5.1117501E+00  3.2671520E+01
 5.1232505E+00  3.2699375E+01
 5.1347504E+00  3.2892174E+01
 5.1462502E+00  3.3059616E+01
 5.1577501E+00  3.3135136E+01
 5.1692505E+00  3.3264542E+01
 5.1807504E+00  3.3290916E+01
 5.1922503E+00  3.3371185E+01
 5.2037501E+00  3.3376755E+01
 5.2152505E+00  3.3355564E+01
 5.2267504E+00  3.3439468E+01
 5.2382503E+00  3.3466595E+01
 5.2497501E+00  3.3484585E+01
 5.2612505E+00  3.3620144E+01
 5.2727504E+00  3.3517792E+01
 5.2842503E+00  3.3489662E+01
 5.2957501E+00  3.3480366E+01
 5.3072500E+00  3.3626320E+01
 5.3187504E+00  3.3796585E+01
 5.3302503E+00  3.3890789E+01
 5.3417501E+00  3.3878796E+01
 5.3532500E+00  3.3973186E+01
 5.3647504E+00  3.3869110E+01
 5.3762503E+00  3.4001957E+01
 5.3877501E+00  3.4043022E+01
 5.3992500E+00  3.4237511E+01
 5.4107504E+00  3.4264332E+01
 5.4222503E+00  3.4259586E+01
 5.4337502E+00  3.4175259E+01
 5.4452500E+00  3.4228394E+01
 5.4567504E+00  3.4294514E+01
 5.4682503E+00  3.4318050E+01
 5.4797502E+00  3.4314228E+01
 5.4912500E+00  3.4314770E+01
 5.5027504E+00  3.4440311E+01
 5.5142503E+00  3.4568768E+01
 5.5257502E+00  3.4726387E+01
 5.5372500E+00  3.4781776E+01
 5.5487504E+00  3.4625019E+01
 5.5602503E+00  3.4495876E+01
 5.5717502E+00  3.4470734E+01
 5.5832500E+00  3.4515961E+01
 5.5947504E+00  3.4501080E+01
 5.6062503E+00  3.4478756E+01
 5.6177502E+00  3.4472252E+01
 5.6292500E+00  3.4581421E+01
 5.6407504E+00  3.4689587E+01
 5.6522503E+00  3.4842033E+01
 5.6637502E+00  3.4966396E+01
 5.6752501E+00  3.5059582E+01
 5.6867504E+00  3.5080181E+01
 5.6982503E+00  3.5109932E+01
 5.7097502E+00  3.5085732E+01
 5.7212501E+00  3.5049538E+01
 5.7327504E+00  3.5025742E+01
 5.7442503E+00  3.5055096E+01
 5.7557502E+00  3.5187546E+01
 5.7672501E+00  3.5252117E+01
 5.7787504E+00  3.5149544E+01
 5.7902503E+00  3.5178074E+01
 5.8017502E+00  3.5179085E+01
 5.8132501E+00  3.5294235E+01
 5.8247504E+00  3.5359447E+01
 5.8362503E+00  3.5291218E+01
 5.8477502E+00  3.5301918E+01
 5.8592501E+00  3.5182869E+01
 5.8707504E+00  3.5262287E+01
 5.8822503E+00  3.5392467E+01
 5.8937502E+00  3.5665653E+01
 5.9052501E+00  3.5914917E+01
 5.9167504E+00  3.6505844E+01
 5.9282503E+00  3.7293282E+01
 5.9397502E+00  3.8116348E+01
 5.9512501E+00  3.9970367E+01
 5.9627504E+00  4.0926228E+01
 5.9742503E+00  4.2040424E+01
 5.9857502E+00  4.2487965E+01
 5.9972501E+00  4.2329197E+01
 6.0087504E+00  4.1609726E+01
 6.0202503E+00  4.0288376E+01
 6.0317502E+00  3.8978367E+01
 6.0432501E+00  3.8137367E+01
 6.0547504E+00  3.7041210E+01
 6.0662503E+00  3.6666538E+01
 6.0777502E+00  3.6409687E+01
 6.0892501E+00  3.6274097E+01
 6.1007504E+00  3.6117981E+01
 6.1122503E+00  3.6090591E+01
 6.1237502E+00  3.6008526E+01
 6.1352501E+00  3.5972900E+01
 6.1467505E+00  3.5916336E+01
 6.1582503E+00  3.5985928E+01
 6.1697502E+00  3.6132153E+01
 6.1812501E+00  3.6364880E+01
 6.1927505E+00  3.6512356E+01
 6.2042503E+00  3.6595196E+01
 6.2157502E+00  3.6559486E+01
 6.2272501E+00  3.6629196E+01
 6.2387505E+00  3.6622971E+01
 6.2502503E+00  3.6732674E+01
 6.2617502E+00  3.6777969E+01
 6.2732501E+00  3.6966579E+01
 6.2847505E+00  3.7099945E+01
 6.2962503E+00  3.7168617E+01
 6.3077502E+00  3.7207077E+01
 6.3192501E+00  3.7204048E+01
 6.3307505E+00  3.7316360E+01
 6.3422503E+00  3.7363380E+01
 6.3537502E+00  3.7448097E+01
 6.3652501E+00  3.7458477E+01
 6.3767505E+00  3.7622654E+01
 6.3882504E+00  3.7646275E+01
 6.3997502E+00  3.7733990E+01
 6.4112501E+00  3.7702560E+01
 6.4227505E+00  3.7721668E+01
 6.4342504E+00  3.7850555E+01
 6.4457502E+00  3.7868584E+01
 6.4572501E+00  3.8025902E+01
 6.4687505E+00  3.8121437E+01
 6.4802504E+00  3.8158470E+01
 6.4917502E+00  3.8238659E+01
 6.5032501E+00  3.8267513E+01
 6.5147505E+00  3.8374264E+01
 6.5262504E+00  3.8371380E+01
 6.5377502E+00  3.8416607E+01
 6.5492501E+00  3.8399899E+01
 6.5607505E+00  3.8463600E+01
 6.5722504E+00  3.8547272E+01
 6.5837502E+00  3.8719456E+01
 6.5952501E+00  3.8791092E+01
 6.6067505E+00  3.8834019E+01
 6.6182504E+00  3.8932835E+01
 6.6297503E+00  3.9002026E+01
 6.6412501E+00  3.9134987E+01
 6.6527505E+00  3.9215179E+01
 6.6642504E+00  3.9366112E+01
 6.6757503E+00  3.9404743E+01
 6.6872501E+00  3.9405777E+01
 6.6987505E+00  3.9397469E+01
 6.7102504E+00  3.9457222E+01
 6.7217503E+00  3.9453350E+01
 6.7332501E+00  3.9546547E+01
 6.7447505E+00  3.9667091E+01
 6.7562504E+00  3.9859875E+01
 6.7677503E+00  4.0026283E+01
 6.7792501E+00  4.0158707E+01
 6.7907505E+00  4.0188938E+01
 6.8022504E+00  4.0353561E+01
 6.8137503E+00  4.0503258E+01
 6.8252501E+00  4.0681599E+01
 6.8367505E+00  4.0699333E+01
 6.8482504E+00  4.0747105E+01
 6.8597503E+00  4.0697956E+01
 6.8712502E+00  4.0702648E+01
 6.8827505E+00  4.0712368E+01
 6.8942504E+00  4.0859661E+01
 6.9057503E+00  4.1033768E+01
 6.9172502E+00  4.1181580E+01
 6.9287505E+00  4.1295399E+01
 6.9402504E+00  4.1545650E+01
 6.9517503E+00  4.1640907E+01
 6.9632502E+00  4.1716576E+01
 6.9747505E+00  4.1735210E+01
 6.9862504E+00  4.1797489E+01
 6.9977503E+00  4.1849628E+01
 7.0092502E+00  4.1900730E+01
 7.0207505E+00  4.1945038E+01
 7.0322504E+00  4.2065617E+01
 7.0437503E+00  4.2026287E+01
 7.0552502E+00  4.2078583E+01
 7.0667505E+00  4.2109165E+01
 7.0782504E+00  4.2231270E+01
 7.0897503E+00  4.2228882E+01
 7.1012502E+00  4.2267418E+01
 7.1127505E+00  4.2354061E+01
 7.1242504E+00  4.2457531E+01
 7.1357503E+00  4.2475513E+01
 7.1472502E+00  4.2440758E+01
 7.1587505E+00  4.2447781E+01
 7.1702504E+00  4.2451202E+01
 7.1817503E+00  4.2397495E+01
 7.1932502E+00  4.2385902E+01
 7.2047505E+00  4.2427315E+01
 7.2162504E+00  4.2391365E+01
 7.2277503E+00  4.2434967E+01
 7.2392502E+00  4.2459732E+01
 7.2507505E+00  4.2595097E+01
 7.2622504E+00  4.2607693E+01
 7.2737503E+00  4.2680210E+01
 7.2852502E+00  4.2696419E+01
 7.2967505E+00  4.2719574E+01
 7.3082504E+00  4.2811745E+01
 7.3197503E+00  4.2932106E+01
 7.3312502E+00  4.3081230E+01
 7.3427505E+00  4.3063927E+01
 7.3542504E+00  4.3114029E+01
 7.3657503E+00  4.3100033E+01
 7.3772502E+00  4.3174084E+01
 7.3887506E+00  4.3233894E+01
 7.4002504E+00  4.3220051E+01
 7.4117503E+00  4.3276653E+01
 7.4232502E+00  4.3226013E+01
 7.4347506E+00  4.3234970E+01
 7.4462504E+00  4.3193699E+01
 7.4577503E+00  4.3227966E+01
 7.4692502E+00  4.3281376E+01
 7.4807506E+00  4.3367668E+01
 7.4922504E+00  4.3375446E+01
 7.5037503E+00  4.3511543E+01
 7.5152502E+00  4.3496300E+01
 7.5267506E+00  4.3560757E+01
 7.5382504E+00  4.3543762E+01
 7.5497503E+00  4.3567978E+01
 7.5612502E+00  4.3585747E+01
 7.5727506E+00  4.3542931E+01
 7.5842505E+00  4.3496544E+01
 7.5957503E+00  4.3474358E+01
 7.6072502E+00  4.3418629E+01
 7.6187506E+00  4.3447330E+01
 7.6302505E+00  4.3401459E+01
 7.6417503E+00  4.3390823E+01
 7.6532502E+00  4.3302200E+01
 7.6647506E+00  4.3166893E+01
 7.6762505E+00  4.3104599E+01
 7.6877503E+00  4.3047222E+01
 7.6992502E+00  4.3061588E+01
 7.7107506E+00  4.3037445E+01
 7.7222505E+00  4.3092247E+01
 7.7337503E+00  4.3136475E+01
 7.7452502E+00  4.3272434E+01
 7.7567506E+00  4.3242680E+01
 7.7682505E+00  4.3249020E+01
 7.7797503E+00  4.3297592E+01
 7.7912502E+00  4.3277596E+01
 7.8027506E+00  4.3342297E+01
 7.8142505E+00  4.3294205E+01
 7.8257504E+00  4.3472057E+01
 7.8372502E+00  4.3466053E+01
 7.8487506E+00  4.3527916E+01
 7.8602505E+00  4.3403149E+01
 7.8717504E+00  4.3352207E+01
 7.8832502E+00  4.3223660E+01
 7.8947506E+00  4.3074921E+01
 7.9062505E+00  4.3065037E+01
 7.9177504E+00  4.3025784E+01
 7.9292502E+00  4.3037098E+01
 7.9407506E+00  4.2987770E+01
 7.9522505E+00  4.2840595E+01
 7.9637504E+00  4.2778568E+01
 7.9752502E+00  4.2728180E+01
 7.9867506E+00  4.2839230E+01
 7.9982505E+00  4.2861904E+01
 8.0097504E+00  4.2818733E+01
 8.0212507E+00  4.2804996E+01
 8.0327501E+00  4.2608456E+01
 8.0442505E+00  4.2594696E+01
 8.0557508E+00  4.2363747E+01
 8.0672503E+00  4.2254597E+01
 8.0787506E+00  4.2039349E+01
 8.0902500E+00  4.1868591E+01
 8.1017504E+00  4.1826099E+01
 8.1132507E+00  4.1694778E+01
 8.1247501E+00  4.1616783E+01
 8.1362505E+00  4.1495392E+01
 8.1477509E+00  4.1423809E+01
 8.1592503E+00  4.1260117E+01
 8.1707506E+00  4.1227482E+01
 8.1822500E+00  4.1096245E+01
 8.1937504E+00  4.1060177E+01
 8.2052507E+00  4.0971657E+01
 8.2167501E+00  4.0948395E+01
 8.2282505E+00  4.0881767E+01
 8.2397509E+00  4.0744625E+01
 8.2512503E+00  4.0587296E+01
 8.2627506E+00  4.0423748E+01
 8.2742500E+00  4.0292454E+01
 8.2857504E+00  4.0169083E+01
 8.2972507E+00  4.0055153E+01
 8.3087502E+00  3.9877480E+01
 8.3202505E+00  3.9670563E+01
 8.3317509E+00  3.9548576E+01
 8.3432503E+00  3.9424961E+01
 8.3547506E+00  3.9366306E+01
 8.3662500E+00  3.9119530E+01
 8.3777504E+00  3.8906624E+01
 8.3892508E+00  3.8696121E+01
 8.4007502E+00  3.8529453E+01
 8.4122505E+00  3.8436008E+01
 8.4237509E+00  3.8311184E+01
 8.4352503E+00  3.8177307E+01
 8.4467506E+00  3.8000729E+01
 8.4582500E+00  3.7791557E+01
 8.4697504E+00  3.7729836E+01
 8.4812508E+00  3.7531967E+01
 8.4927502E+00  3.7347408E+01
 8.5042505E+00  3.7139359E+01
 8.5157509E+00  3.7046474E+01
 8.5272503E+00  3.6924656E+01
 8.5387506E+00  3.6737644E+01
 8.5502501E+00  3.6509377E+01
 8.5617504E+00  3.6351021E+01
 8.5732508E+00  3.6185535E+01
 8.5847502E+00  3.6006668E+01
 8.5962505E+00  3.5840080E+01
 8.6077509E+00  3.5694283E+01
 8.6192503E+00  3.5566177E+01
 8.6307507E+00  3.5384651E+01
 8.6422501E+00  3.5182011E+01
 8.6537504E+00  3.4985107E+01
 8.6652508E+00  3.4873566E+01
 8.6767502E+00  3.4792244E+01
 8.6882505E+00  3.4929794E+01
 8.6997509E+00  3.4745461E+01
 8.7112503E+00  3.4778782E+01
 8.7227507E+00  3.4475311E+01
 8.7342501E+00  3.4277630E+01
 8.7457504E+00  3.3855946E+01
 8.7572508E+00  3.3515434E+01
 8.7687502E+00  3.3320179E+01
 8.7802505E+00  3.3130951E+01
 8.7917500E+00  3.2901199E+01
 8.8032503E+00  3.2730061E+01
 8.8147507E+00  3.2648903E+01
 8.8262501E+00  3.2542557E+01
 8.8377504E+00  3.2472733E+01
 8.8492508E+00  3.2318317E+01
 8.8607502E+00  3.2169128E+01
 8.8722506E+00  3.1977619E+01
 8.8837500E+00  3.1817162E+01
 8.8952503E+00  3.1613459E+01
 8.9067507E+00  3.1484930E+01
 8.9182501E+00  3.1316236E+01
 8.9297504E+00  3.1161453E+01
 8.9412508E+00  3.1033180E+01
 8.9527502E+00  3.0871960E+01
 8.9642506E+00  3.0830462E+01
 8.9757500E+00  3.0677061E+01
 8.9872503E+00  3.0532425E+01
 8.9987507E+00  3.0277306E+01
 9.0102501E+00  3.0100904E+01
 9.0217505E+00  2.9870142E+01
 9.0332508E+00  2.9824158E+01
 9.0447502E+00  2.9699625E+01
 9.0562506E+00  2.9592539E+01
 9.0677500E+00  2.9496527E+01
 9.0792503E+00  2.9399178E+01
 9.0907507E+00  2.9298120E+01
 9.1022501E+00  2.9233688E+01
 9.1137505E+00  2.9163233E+01
 9.1252508E+00  2.9131907E+01
 9.1367502E+00  2.9000898E+01
 9.1482506E+00  2.8867945E+01
 9.1597500E+00  2.8663771E+01
 9.1712503E+00  2.8428022E+01
 9.1827507E+00  2.8171686E+01
 9.1942501E+00  2.8020323E+01
 9.2057505E+00  2.7883598E+01
 9.2172508E+00  2.7801741E+01
 9.2287502E+00  2.7682566E+01
 9.2402506E+00  2.7552874E+01
 9.2517500E+00  2.7449484E+01
 9.2632504E+00  2.7416025E+01
 9.2747507E+00  2.7340155E+01
 9.2862501E+00  2.7277777E+01
 9.2977505E+00  2.7231764E+01
 9.3092508E+00  2.7177395E+01
 9.3207502E+00  2.7171680E+01
 9.3322506E+00  2.7055424E+01
 9.3437500E+00  2.6942423E+01
 9.3552504E+00  2.6785501E+01
 9.3667507E+00  2.6740797E+01
 9.3782501E+00  2.6708832E+01
 9.3897505E+00  2.6653221E+01
 9.4012508E+00  2.6617859E+01
 9.4127502E+00  2.6571100E+01
 9.4242506E+00  2.6495506E+01
 9.4357500E+00  2.6417128E+01
 9.4472504E+00  2.6332506E+01
 9.4587507E+00  2.6267429E+01
 9.4702501E+00  2.6166115E+01
 9.4817505E+00  2.6124865E+01
 9.4932508E+00  2.6022488E+01
 9.5047503E+00  2.5880337E+01
 9.5162506E+00  2.5796309E+01
 9.5277500E+00  2.5752522E+01
 9.5392504E+00  2.5718800E+01
 9.5507507E+00  2.5616940E+01
 9.5622501E+00  2.5538948E+01
 9.5737505E+00  2.5427580E+01
 9.5852509E+00  2.5330341E+01
 9.5967503E+00  2.5242714E+01
 9.6082506E+00  2.5220287E+01
 9.6197500E+00  2.5195408E+01
 9.6312504E+00  2.5218872E+01
 9.6427507E+00  2.5201103E+01
 9.6542501E+00  2.5145006E+01
 9.6657505E+00  2.5075584E+01
 9.6772509E+00  2.4978706E+01
 9.6887503E+00  2.4894999E+01
 9.7002506E+00  2.4772978E+01
 9.7117500E+00  2.4694511E+01
 9.7232504E+00  2.4675823E+01
 9.7347507E+00  2.4633848E+01
 9.7462502E+00  2.4637415E+01
 9.7577505E+00  2.4546314E+01
 9.7692509E+00  2.4539009E+01
 9.7807503E+00  2.4466343E+01
 9.7922506E+00  2.4431112E+01
 9.8037500E+00  2.4373026E+01
 9.8152504E+00  2.4310463E+01
 9.8267508E+00  2.4240351E+01
 9.8382502E+00  2.4211056E+01
 9.8497505E+00  2.4146864E+01
 9.8612509E+00  2.4154751E+01
 9.8727503E+00  2.4168880E+01
 9.8842506E+00  2.4136803E+01
 9.8957500E+00  2.4139791E+01
 9.9072504E+00  2.4103380E+01
 9.9187508E+00  2.4162560E+01
 9.9302502E+00  2.4184187E+01
 9.9417505E+00  2.4166985E+01
 9.9532509E+00  2.4134169E+01
 9.9647503E+00  2.4064541E+01
 9.9762506E+00  2.4008766E+01
 9.9877501E+00  2.3932178E+01
 9.9992504E+00  2.3873800E+01
 1.0010751E+01  2.3802372E+01
 1.0022250E+01  2.3735590E+01
 1.0033751E+01  2.3723938E+01
 1.0045251E+01  2.3684872E+01
 1.0056750E+01  2.3652239E+01
 1.0068251E+01  2.3618938E+01
 1.0079750E+01  2.3612675E+01
 1.0091250E+01  2.3636114E+01
 1.0102751E+01  2.3628263E+01
 1.0114250E+01  2.3623671E+01
 1.0125751E+01  2.3640076E+01
 1.0137251E+01  2.3603397E+01
 1.0148750E+01  2.3610559E+01
 1.0160251E+01  2.3594666E+01
 1.0171750E+01  2.3581835E+01
 1.0183250E+01  2.3552143E+01
 1.0194751E+01  2.3488863E+01
 1.0206250E+01  2.3437759E+01
 1.0217751E+01  2.3431879E+01
 1.0229251E+01  2.3391783E+01
 1.0240750E+01  2.3389091E+01
 1.0252251E+01  2.3342993E+01
 1.0263750E+01  2.3337767E+01
 1.0275250E+01  2.3283920E+01
 1.0286751E+01  2.3244179E+01
 1.0298250E+01  2.3212481E+01
 1.0309751E+01  2.3186417E+01
 1.0321251E+01  2.3163010E+01
 1.0332750E+01  2.3189409E+01
 1.0344251E+01  2.3222168E+01
 1.0355750E+01  2.3188700E+01
 1.0367250E+01  2.3116652E+01
 1.0378751E+01  2.3055841E+01
 1.0390250E+01  2.3070660E+01
 1.0401751E+01  2.3072773E+01
 1.0413251E+01  2.3077723E+01
 1.0424750E+01  2.3029554E+01
 1.0436251E+01  2.2965620E+01
 1.0447750E+01  2.2925285E+01
 1.0459250E+01  2.2948633E+01
 1.0470751E+01  2.2956732E+01
 1.0482250E+01  2.3013889E+01
 1.0493751E+01  2.2999500E+01
 1.0505251E+01  2.2973131E+01
 1.0516750E+01  2.2977663E+01
 1.0528251E+01  2.2907682E+01
 1.0539750E+01  2.2949890E+01
 1.0551250E+01  2.2945038E+01
 1.0562751E+01  2.2975613E+01
 1.0574250E+01  2.2942680E+01
 1.0585751E+01  2.2919250E+01
 1.0597251E+01  2.2917809E+01
 1.0608750E+01  2.2929529E+01
 1.0620251E+01  2.2889734E+01
 1.0631750E+01  2.2867741E+01
 1.0643250E+01  2.2794283E+01
 1.0654751E+01  2.2762024E+01
 1.0666250E+01  2.2683250E+01
 1.0677751E+01  2.2653009E+01
 1.0689251E+01  2.2576315E+01
 1.0700750E+01  2.2545658E+01
 1.0712251E+01  2.2529200E+01
 1.0723750E+01  2.2522316E+01
 1.0735250E+01  2.2540627E+01
 1.0746751E+01  2.2536068E+01
 1.0758250E+01  2.2502432E+01
 1.0769751E+01  2.2422298E+01
 1.0781251E+01  2.2376951E+01
 1.0792750E+01  2.2323870E+01
 1.0804251E+01  2.2374710E+01
 1.0815750E+01  2.2400198E+01
 1.0827250E+01  2.2492710E+01
 1.0838751E+01  2.2449406E+01
 1.0850250E+01  2.2437281E+01
 1.0861751E+01  2.2395773E+01
 1.0873251E+01  2.2434317E+01
 1.0884750E+01  2.2421761E+01
 1.0896251E+01  2.2413559E+01
 1.0907750E+01  2.2450716E+01
 1.0919250E+01  2.2512362E+01
 1.0930751E+01  2.2580132E+01
 1.0942250E+01  2.2555494E+01
 1.0953751E+01  2.2552265E+01
 1.0965251E+01  2.2487816E+01
 1.0976750E+01  2.2486843E+01
 1.0988251E+01  2.2439220E+01
 1.0999750E+01  2.2468395E+01
 1.1011250E+01  2.2406275E+01
 1.1022751E+01  2.2375772E+01
 1.1034250E+01  2.2298256E+01
 1.1045751E+01  2.2277601E+01
 1.1057251E+01  2.2229645E+01
 1.1068750E+01  2.2223841E+01
 1.1080251E+01  2.2208555E+01
 1.1091750E+01  2.2215605E+01
 1.1103251E+01  2.2230984E+01
 1.1114751E+01  2.2241194E+01
 1.1126250E+01  2.2319237E+01
 1.1137751E+01  2.2289818E+01
 1.1149251E+01  2.2273077E+01
 1.1160750E+01  2.2172329E+01
 1.1172251E+01  2.2149178E+01
 1.1183750E+01  2.2148891E+01
 1.1195251E+01  2.2160053E+01
 1.1206751E+01  2.2112667E+01
 1.1218250E+01  2.2063606E+01
 1.1229751E+01  2.1973026E+01
 1.1241251E+01  2.1956203E+01
 1.1252750E+01  2.1943459E+01
 1.1264251E+01  2.1976545E+01
 1.1275750E+01  2.2025881E+01
 1.1287251E+01  2.2060125E+01
 1.1298751E+01  2.2073561E+01
 1.1310250E+01  2.2134968E+01
 1.1321751E+01  2.2148746E+01
 1.1333251E+01  2.2202204E+01
 1.1344750E+01  2.2192780E+01
 1.1356251E+01  2.2205864E+01
 1.1367750E+01  2.2304937E+01
 1.1379251E+01  2.2348902E+01
 1.1390751E+01  2.2411409E+01
 1.1402250E+01  2.2480888E+01
 1.1413751E+01  2.2492458E+01
 1.1425251E+01  2.2546618E+01
 1.1436750E+01  2.2463707E+01
 1.1448251E+01  2.2456444E+01
 1.1459750E+01  2.2446531E+01
 1.1471251E+01  2.2484381E+01
 1.1482751E+01  2.2571304E+01
 1.1494250E+01  2.2654043E+01
 1.1505751E+01  2.2809284E+01
 1.1517251E+01  2.3020615E+01
 1.1528750E+01  2.3389706E+01
 1.1540251E+01  2.3857010E+01
 1.1551750E+01  2.4287073E+01
 1.1563251E+01  2.5021755E+01
 1.1574751E+01  2.5487848E+01
 1.1586250E+01  2.6102259E+01
 1.1597751E+01  2.6093945E+01
 1.1609251E+01  2.5894279E+01
 1.1620750E+01  2.5303923E+01
 1.1632251E+01  2.4632093E+01
 1.1643750E+01  2.4009449E+01
 1.1655251E+01  2.3504271E+01
 1.1666751E+01  2.3090937E+01
 1.1678250E+01  2.2842196E+01
 1.1689751E+01  2.2605558E+01
 1.1701251E+01  2.2488670E+01
 1.1712750E+01  2.2382647E+01
 1.1724251E+01  2.2295801E+01
 1.1735750E+01  2.2270416E+01
 1.1747251E+01  2.2232023E+01
 1.1758751E+01  2.2246120E+01
 1.1770250E+01  2.2224949E+01
 1.1781751E+01  2.2227394E+01
 1.1793251E+01  2.2237995E+01
 1.1804750E+01  2.2237991E+01
 1.1816251E+01  2.2219130E+01
 1.1827750E+01  2.2229151E+01
 1.1839251E+01  2.2206808E+01
 1.1850751E+01  2.2284410E+01
 1.1862250E+01  2.2283600E+01
 1.1873751E+01  2.2302958E+01
 1.1885251E+01  2.2275679E+01
 1.1896750E+01  2.2383163E+01
 1.1908251E+01  2.2455996E+01
 1.1919750E+01  2.2671984E+01
 1.1931251E+01  2.2980818E+01
 1.1942751E+01  2.3411016E+01
 1.1954250E+01  2.4170759E+01
 1.1965751E+01  2.4773643E+01
 1.1977251E+01  2.5507730E+01
 1.1988750E+01  2.5849453E+01
 1.2000251E+01  2.5873690E+01
 1.2011750E+01  2.5439270E+01
 1.2023251E+01  2.4758266E+01
 1.2034751E+01  2.4202868E+01
 1.2046250E+01  2.3851738E+01
 1.2057751E+01  2.3778229E+01
 1.2069251E+01  2.3946672E+01
 1.2080750E+01  2.4241070E+01
 1.2092251E+01  2.4324797E+01
 1.2103750E+01  2.4382339E+01
 1.2115251E+01  2.4138332E+01
 1.2126751E+01  2.3902544E+01
 1.2138250E+01  2.3526684E+01
 1.2149751E+01  2.3172920E+01
 1.2161251E+01  2.2840742E+01
 1.2172750E+01  2.2582819E+01
 1.2184251E+01  2.2446009E+01
 1.2195750E+01  2.2333427E+01
 1.2207251E+01  2.2239391E+01
 1.2218751E+01  2.2157516E+01
 1.2230250E+01  2.2099020E+01
 1.2241751E+01  2.2084326E+01
 1.2253251E+01  2.2087624E+01
 1.2264750E+01  2.2133368E+01
 1.2276251E+01  2.2081865E+01
 1.2287750E+01  2.2131676E+01
 1.2299251E+01  2.2156252E+01
 1.2310751E+01  2.2229418E+01
 1.2322250E+01  2.2166967E+01
 1.2333751E+01  2.2170923E+01
 1.2345250E+01  2.2188980E+01
 1.2356750E+01  2.2203512E+01
 1.2368251E+01  2.2208443E+01
 1.2379750E+01  2.2228601E+01
 1.2391251E+01  2.2287973E+01
 1.2402751E+01  2.2291290E+01
 1.2414250E+01  2.2225378E+01
 1.2425751E+01  2.2185297E+01
 1.2437250E+01  2.2194407E+01
 1.2448750E+01  2.2180447E+01
 1.2460251E+01  2.2198996E+01
 1.2471750E+01  2.2195774E+01
 1.2483251E+01  2.2243366E+01
 1.2494751E+01  2.2252220E+01
 1.2506250E+01  2.2234228E+01
 1.2517751E+01  2.2250435E+01
 1.2529250E+01  2.2250525E+01
 1.2540751E+01  2.2247976E+01
 1.2552251E+01  2.2247623E+01
 1.2563750E+01  2.2269705E+01
 1.2575251E+01  2.2278620E+01
 1.2586751E+01  2.2315624E+01
 1.2598250E+01  2.2339388E+01
 1.2609751E+01  2.2409216E+01
 1.2621250E+01  2.2441595E+01
 1.2632751E+01  2.2451223E+01
 1.2644251E+01  2.2366035E+01
 1.2655750E+01  2.2362617E+01
 1.2667251E+01  2.2351440E+01
 1.2678751E+01  2.2407440E+01
 1.2690250E+01  2.2423697E+01
 1.2701751E+01  2.2474409E+01
 1.2713250E+01  2.2544699E+01
 1.2724751E+01  2.2526516E+01
 1.2736251E+01  2.2540483E+01
 1.2747750E+01  2.2595835E+01
 1.2759251E+01  2.2662920E+01
 1.2770751E+01  2.2685963E+01
 1.2782250E+01  2.2684380E+01
 1.2793751E+01  2.2678827E+01
 1.2805250E+01  2.2721159E+01
 1.2816751E+01  2.2796284E+01
 1.2828251E+01  2.2896206E+01
 1.2839750E+01  2.2938730E+01
 1.2851251E+01  2.3015514E+01
 1.2862751E+01  2.3113178E+01
 1.2874250E+01  2.3166990E+01
 1.2885751E+01  2.3146807E+01
 1.2897250E+01  2.3045975E+01
 1.2908751E+01  2.3093939E+01
 1.2920251E+01  2.3127621E+01
 1.2931750E+01  2.3238735E+01
 1.2943251E+01  2.3280912E+01
 1.2954751E+01  2.3302736E+01
 1.2966250E+01  2.3384857E+01
 1.2977751E+01  2.3434275E+01
 1.2989250E+01  2.3518782E+01
 1.3000751E+01  2.3536886E+01
 1.3012251E+01  2.3582144E+01
 1.3023750E+01  2.3619081E+01
 1.3035251E+01  2.3697828E+01
 1.3046751E+01  2.3750956E+01
 1.3058250E+01  2.3921043E+01
 1.3069751E+01  2.4015329E+01
 1.3081250E+01  2.4134102E+01
 1.3092751E+01  2.4182734E+01
 1.3104251E+01  2.4304621E+01
 1.3115750E+01  2.4418364E+01
 1.3127251E+01  2.4475307E+01
 1.3138751E+01  2.4507532E+01
 1.3150250E+01  2.4580954E+01
 1.3161751E+01  2.4702785E+01
 1.3173250E+01  2.4814955E+01
 1.3184751E+01  2.4957994E+01
 1.3196251E+01  2.5061357E+01
 1.3207750E+01  2.5233574E+01
 1.3219251E+01  2.5409620E+01
 1.3230751E+01  2.5627359E+01
 1.3242250E+01  2.5798206E+01
 1.3253751E+01  2.5913385E+01
 1.3265250E+01  2.6041492E+01
 1.3276751E+01  2.6141916E+01
 1.3288251E+01  2.6242050E+01
 1.3299750E+01  2.6372347E+01
 1.3311251E+01  2.6482061E+01
 1.3322751E+01  2.6600447E+01
 1.3334250E+01  2.6716816E+01
 1.3345751E+01  2.6863262E+01
 1.3357250E+01  2.7045748E+01
 1.3368751E+01  2.7164865E+01
 1.3380251E+01  2.7352417E+01
 1.3391750E+01  2.7518961E+01
 1.3403251E+01  2.7731205E+01
 1.3414751E+01  2.7879324E+01
 1.3426250E+01  2.7983547E+01
 1.3437751E+01  2.8041817E+01
 1.3449250E+01  2.8125338E+01
 1.3460751E+01  2.8198259E+01
 1.3472251E+01  2.8298782E+01
 1.3483750E+01  2.8441416E+01
 1.3495251E+01  2.8569294E+01
 1.3506751E+01  2.8664902E+01
 1.3518250E+01  2.8777100E+01
 1.3529751E+01  2.8886517E+01
 1.3541250E+01  2.9053911E+01
 1.3552751E+01  2.9131042E+01
 1.3564251E+01  2.9196915E+01
 1.3575750E+01  2.9229280E+01
 1.3587251E+01  2.9247643E+01
 1.3598751E+01  2.9312471E+01
 1.3610250E+01  2.9303505E+01
 1.3621751E+01  2.9303684E+01
 1.3633250E+01  2.9225801E+01
 1.3644751E+01  2.9202929E+01
 1.3656251E+01  2.9136362E+01
 1.3667750E+01  2.9206564E+01
 1.3679251E+01  2.9232557E+01
 1.3690751E+01  2.9276068E+01
 1.3702250E+01  2.9179916E+01
 1.3713751E+01  2.9121305E+01
 1.3725250E+01  2.9082497E+01
 1.3736751E+01  2.9081964E+01
 1.3748251E+01  2.9052330E+01
 1.3759750E+01  2.9030336E+01
 1.3771251E+01  2.8992641E+01
 1.3782751E+01  2.8949993E+01
 1.3794250E+01  2.8895794E+01
 1.3805751E+01  2.8871246E+01
 1.3817250E+01  2.8942514E+01
 1.3828751E+01  2.9000895E+01
 1.3840251E+01  2.9109863E+01
 1.3851750E+01  2.9199497E+01
 1.3863251E+01  2.9450340E+01
 1.3874751E+01  2.9816343E+01
 1.3886250E+01  3.0356550E+01
 1.3897751E+01  3.1453598E+01
 1.3909250E+01  3.2442581E+01
 1.3920751E+01  3.3880394E+01
 1.3932251E+01  3.5027294E+01
 1.3943750E+01  3.5821297E+01
 1.3955251E+01  3.6053928E+01
 1.3966751E+01  3.5514397E+01
 1.3978251E+01  3.4475681E+01
 1.3989751E+01  3.2938000E+01
 1.4001250E+01  3.1471148E+01
 1.4012751E+01  3.0246571E+01
 1.4024251E+01  2.9139883E+01
 1.4035750E+01  2.8435949E+01
 1.4047251E+01  2.7984766E+01
 1.4058751E+01  2.7716465E+01
 1.4070251E+01  2.7539566E+01
 1.4081751E+01  2.7357437E+01
 1.4093250E+01  2.7176220E+01
 1.4104751E+01  2.7014450E+01
 1.4116251E+01  2.6865973E+01
 1.4127750E+01  2.6785070E+01
 1.4139251E+01  2.6701593E+01
 1.4150751E+01  2.6624189E+01
 1.4162251E+01  2.6565025E+01
 1.4173751E+01  2.6515451E+01
 1.4185250E+01  2.6526531E+01
 1.4196751E+01  2.6473661E+01
 1.4208251E+01  2.6500612E+01
 1.4219750E+01  2.6496670E+01
 1.4231251E+01  2.6436619E+01
 1.4242751E+01  2.6313126E+01
 1.4254251E+01  2.6196114E+01
 1.4265751E+01  2.6129129E+01
 1.4277250E+01  2.6025751E+01
 1.4288751E+01  2.5949383E+01
 1.4300251E+01  2.5816526E+01
 1.4311750E+01  2.5805519E+01
 1.4323251E+01  2.5669184E+01
 1.4334751E+01  2.5667908E+01
 1.4346251E+01  2.5596403E+01
 1.4357751E+01  2.5639641E+01
 1.4369250E+01  2.5686808E+01
 1.4380751E+01  2.5711145E+01
 1.4392251E+01  2.5762686E+01
 1.4403750E+01  2.5797554E+01
 1.4415251E+01  2.5782824E+01
 1.4426751E+01  2.5723452E+01
 1.4438251E+01  2.5642483E+01
 1.4449751E+01  2.5551380E+01
 1.4461250E+01  2.5507225E+01
 1.4472751E+01  2.5450735E+01
 1.4484251E+01  2.5428116E+01
 1.4495750E+01  2.5383173E+01
 1.4507251E+01  2.5345469E+01
 1.4518751E+01  2.5264023E+01
 1.4530251E+01  2.5247175E+01
 1.4541751E+01  2.5204544E+01
 1.4553250E+01  2.5236977E+01
 1.4564751E+01  2.5225206E+01
 1.4576251E+01  2.5229031E+01
 1.4587750E+01  2.5179115E+01
 1.4599251E+01  2.5098545E+01
 1.4610751E+01  2.5098076E+01
 1.4622251E+01  2.5100445E+01
 1.4633751E+01  2.5085880E+01
 1.4645250E+01  2.5020107E+01
 1.4656751E+01  2.4945368E+01
 1.4668251E+01  2.4826426E+01
 1.4679750E+01  2.4803522E+01
 1.4691251E+01  2.4801878E+01
 1.4702751E+01  2.4864336E+01
 1.4714251E+01  2.4788513E+01
 1.4725751E+01  2.4747936E+01
 1.4737250E+01  2.4738295E+01
 1.4748751E+01  2.4779829E+01
 1.4760251E+01  2.4743921E+01
 1.4771750E+01  2.4705923E+01
 1.4783251E+01  2.4628902E+01
 1.4794751E+01  2.4560820E+01
 1.4806251E+01  2.4535297E+01
 1.4817751E+01  2.4522589E+01
 1.4829250E+01  2.4563828E+01
 1.4840751E+01  2.4567898E+01
 1.4852251E+01  2.4598145E+01
 1.4863750E+01  2.4580326E+01
 1.4875251E+01  2.4589827E+01
 1.4886751E+01  2.4575914E+01
 1.4898251E+01  2.4652328E+01
 1.4909751E+01  2.4674149E+01
 1.4921250E+01  2.4651157E+01
 1.4932751E+01  2.4584213E+01
 1.4944251E+01  2.4486086E+01
 1.4955750E+01  2.4477133E+01
 1.4967251E+01  2.4434490E+01
 1.4978751E+01  2.4465939E+01
 1.4990251E+01  2.4421099E+01
 1.5001751E+01  2.4411467E+01
 1.5013250E+01  2.4426878E+01
 1.5024751E+01  2.4478701E+01
 1.5036251E+01  2.4522217E+01
 1.5047750E+01  2.4529737E+01
 1.5059251E+01  2.4545511E+01
 1.5070751E+01  2.4556717E+01
 1.5082251E+01  2.4557030E+01
 1.5093751E+01  2.4619276E+01
 1.5105250E+01  2.4731546E+01
 1.5116751E+01  2.4922928E+01
 1.5128251E+01  2.5227346E+01
 1.5139750E+01  2.5592773E+01
 1.5151251E+01  2.6120836E+01
 1.5162751E+01  2.6476830E+01
 1.5174251E+01  2.6957638E+01
 1.5185751E+01  2.7210443E+01
 1.5197250E+01  2.7448553E+01
 1.5208751E+01  2.7353756E+01
 1.5220251E+01  2.7318398E+01
 1.5231750E+01  2.6853590E+01
 1.5243251E+01  2.6318184E+01
 1.5254751E+01  2.5659046E+01
 1.5266251E+01  2.5220577E+01
 1.5277751E+01  2.4915800E+01
 1.5289250E+01  2.4716600E+01
 1.5300751E+01  2.4630442E+01
 1.5312251E+01  2.4555517E+01
 1.5323750E+01  2.4488098E+01
 1.5335251E+01  2.4421288E+01
 1.5346751E+01  2.4399158E+01
 1.5358251E+01  2.4392252E+01
 1.5369751E+01  2.4343534E+01
 1.5381250E+01  2.4247780E+01
 1.5392751E+01  2.4203056E+01
 1.5404251E+01  2.4241959E+01
 1.5415751E+01  2.4247179E+01
 1.5427251E+01  2.4293350E+01
 1.5438751E+01  2.4344584E+01
 1.5450251E+01  2.4342472E+01
 1.5461751E+01  2.4313250E+01
 1.5473250E+01  2.4272861E+01
 1.5484751E+01  2.4322199E+01
 1.5496251E+01  2.4304592E+01
 1.5507751E+01  2.4328371E+01
 1.5519251E+01  2.4328959E+01
 1.5530751E+01  2.4327841E+01
 1.5542251E+01  2.4271652E+01
 1.5553751E+01  2.4205948E+01
 1.5565250E+01  2.4174999E+01
 1.5576751E+01  2.4163046E+01
 1.5588251E+01  2.4139498E+01
 1.5599751E+01  2.4097958E+01
 1.5611251E+01  2.4000433E+01
 1.5622751E+01  2.3946785E+01
 1.5634251E+01  2.3918949E+01
 1.5645751E+01  2.4011099E+01
 1.5657250E+01  2.4089144E+01
 1.5668751E+01  2.4100235E+01
 1.5680251E+01  2.4083263E+01
 1.5691751E+01  2.4105688E+01
 1.5703251E+01  2.4199121E+01
 1.5714751E+01  2.4197899E+01
 1.5726251E+01  2.4225578E+01
 1.5737751E+01  2.4191198E+01
 1.5749250E+01  2.4174299E+01
 1.5760751E+01  2.4123453E+01
 1.5772251E+01  2.4117657E+01
 1.5783751E+01  2.4092152E+01
 1.5795251E+01  2.4123425E+01
 1.5806751E+01  2.4176735E+01
 1.5818251E+01  2.4224543E+01
 1.5829751E+01  2.4226049E+01
 1.5841250E+01  2.4187202E+01
 1.5852751E+01  2.4200819E+01
 1.5864251E+01  2.4176931E+01
 1.5875751E+01  2.4272924E+01
 1.5887251E+01  2.4344210E+01
 1.5898750E+01  2.4387510E+01
 1.5910251E+01  2.4340115E+01
 1.5921751E+01  2.4305225E+01
 1.5933250E+01  2.4317392E+01
 1.5944751E+01  2.4317833E+01
 1.5956251E+01  2.4391087E+01
 1.5967751E+01  2.4379696E+01
 1.5979251E+01  2.4294230E+01
 1.5990750E+01  2.4249432E+01
 1.6002251E+01  2.4155930E+01
 1.6013750E+01  2.4154554E+01
 1.6025251E+01  2.4106121E+01
 1.6036751E+01  2.4146074E+01
 1.6048250E+01  2.4208239E+01
 1.6059752E+01  2.4302002E+01
 1.6071251E+01  2.4379807E+01
 1.6082750E+01  2.4479343E+01
 1.6094252E+01  2.4477669E+01
 1.6105751E+01  2.4564466E+01
 1.6117250E+01  2.4531754E+01
 1.6128750E+01  2.4542475E+01
 1.6140251E+01  2.4529724E+01
 1.6151751E+01  2.4502907E+01
 1.6163250E+01  2.4523396E+01
 1.6174751E+01  2.4453964E+01
 1.6186251E+01  2.4513197E+01
 1.6197750E+01  2.4371862E+01
 1.6209251E+01  2.4567883E+01
 1.6220751E+01  2.4555660E+01
 1.6232250E+01  2.4949274E+01
 1.6243752E+01  2.5106936E+01
 1.6255251E+01  2.5426945E+01
 1.6266750E+01  2.5651333E+01
 1.6278252E+01  2.5445738E+01
 1.6289751E+01  2.5511177E+01
 1.6301250E+01  2.4916876E+01
 1.6312750E+01  2.4960636E+01
 1.6324251E+01  2.4512196E+01
 1.6335751E+01  2.4580364E+01
 1.6347250E+01  2.4449394E+01
 1.6358751E+01  2.4460562E+01
 1.6370251E+01  2.4407455E+01
 1.6381750E+01  2.4373648E+01
 1.6393251E+01  2.4343809E+01
 1.6404751E+01  2.4351770E+01
 1.6416250E+01  2.4380030E+01
 1.6427752E+01  2.4422771E+01
 1.6439251E+01  2.4430372E+01
 1.6450750E+01  2.4416065E+01
 1.6462252E+01  2.4377312E+01
 1.6473751E+01  2.4292479E+01
 1.6485250E+01  2.4270054E+01
 1.6496750E+01  2.4297493E+01
 1.6508251E+01  2.4354181E+01
 1.6519751E+01  2.4332399E+01
 1.6531250E+01  2.4305634E+01
 1.6542751E+01  2.4308363E+01
 1.6554251E+01  2.4261980E+01
 1.6565750E+01  2.4236032E+01
 1.6577251E+01  2.4150530E+01
 1.6588751E+01  2.4202862E+01
 1.6600250E+01  2.4215708E+01
 1.6611752E+01  2.4322042E+01
 1.6623251E+01  2.4272694E+01
 1.6634750E+01  2.4284119E+01
 1.6646252E+01  2.4260778E+01
 1.6657751E+01  2.4286533E+01
 1.6669250E+01  2.4228758E+01
 1.6680750E+01  2.4169466E+01
 1.6692251E+01  2.4145933E+01
 1.6703751E+01  2.4138336E+01
 1.6715250E+01  2.4099339E+01
 1.6726751E+01  2.4089638E+01
 1.6738251E+01  2.4094099E+01
 1.6749750E+01  2.4124895E+01
 1.6761251E+01  2.4036076E+01
 1.6772751E+01  2.3999018E+01
 1.6784250E+01  2.3949335E+01
 1.6795752E+01  2.3991465E+01
 1.6807251E+01  2.4068546E+01
 1.6818750E+01  2.4129572E+01
 1.6830252E+01  2.4136982E+01
 1.6841751E+01  2.4077724E+01
 1.6853251E+01  2.4009455E+01
 1.6864750E+01  2.3939056E+01
 1.6876251E+01  2.3886841E+01
 1.6887751E+01  2.3871727E+01
 1.6899250E+01  2.3844547E+01
 1.6910751E+01  2.3891808E+01
 1.6922251E+01  2.3902779E+01
 1.6933750E+01  2.3903225E+01
 1.6945251E+01  2.3872889E+01
 1.6956751E+01  2.3912651E+01
 1.6968250E+01  2.3915609E+01
 1.6979752E+01  2.3961552E+01
 1.6991251E+01  2.3970276E+01
 1.7002750E+01  2.3995361E+01
 1.7014252E+01  2.3989801E+01
 1.7025751E+01  2.4003887E+01
 1.7037251E+01  2.3968386E+01
 1.7048750E+01  2.3967104E+01
 1.7060251E+01  2.3927498E+01
 1.7071751E+01  2.3917698E+01
 1.7083250E+01  2.3873320E+01
 1.7094751E+01  2.3832699E+01
 1.7106251E+01  2.3851843E+01
 1.7117750E+01  2.3796638E+01
 1.7129251E+01  2.3829483E+01
 1.7140751E+01  2.3806461E+01
 1.7152250E+01  2.3831055E+01
 1.7163752E+01  2.3800703E+01
 1.7175251E+01  2.3818872E+01
 1.7186750E+01  2.3840050E+01
 1.7198252E+01  2.3861082E+01
 1.7209751E+01  2.3914869E+01
 1.7221251E+01  2.3926083E+01
 1.7232750E+01  2.3945747E+01
 1.7244251E+01  2.3914383E+01
 1.7255751E+01  2.3894810E+01
 1.7267250E+01  2.3824944E+01
 1.7278751E+01  2.3776136E+01
 1.7290251E+01  2.3762400E+01
 1.7301750E+01  2.3787903E+01
 1.7313251E+01  2.3733011E+01
 1.7324751E+01  2.3710270E+01
 1.7336250E+01  2.3694937E+01
 1.7347752E+01  2.3665565E+01
 1.7359251E+01  2.3637638E+01
 1.7370750E+01  2.3616726E+01
 1.7382252E+01  2.3660362E+01
 1.7393751E+01  2.3645260E+01
 1.7405251E+01  2.3594234E+01
 1.7416750E+01  2.3557457E+01
 1.7428251E+01  2.3537619E+01
 1.7439751E+01  2.3520300E+01
 1.7451250E+01  2.3550571E+01
 1.7462751E+01  2.3599272E+01
 1.7474251E+01  2.3688316E+01
 1.7485750E+01  2.3689314E+01
 1.7497252E+01  2.3683968E+01
 1.7508751E+01  2.3637806E+01
 1.7520250E+01  2.3616970E+01
 1.7531752E+01  2.3611279E+01
 1.7543251E+01  2.3613068E+01
 1.7554750E+01  2.3609806E+01
 1.7566252E+01  2.3543522E+01
 1.7577751E+01  2.3471478E+01
 1.7589251E+01  2.3407951E+01
 1.7600750E+01  2.3464615E+01
 1.7612251E+01  2.3491638E+01
 1.7623751E+01  2.3538521E+01
 1.7635250E+01  2.3492210E+01
 1.7646751E+01  2.3459108E+01
 1.7658251E+01  2.3365654E+01
 1.7669750E+01  2.3369192E+01
 1.7681252E+01  2.3393393E+01
 1.7692751E+01  2.3483488E+01
 1.7704250E+01  2.3500059E+01
 1.7715752E+01  2.3459856E+01
 1.7727251E+01  2.3415979E+01
 1.7738750E+01  2.3376974E+01
 1.7750252E+01  2.3410316E+01
 1.7761751E+01  2.3418318E+01
 1.7773251E+01  2.3509804E+01
 1.7784750E+01  2.3571548E+01
 1.7796251E+01  2.3531084E+01
 1.7807751E+01  2.3460581E+01
 1.7819250E+01  2.3444086E+01
 1.7830751E+01  2.3426708E+01
 1.7842251E+01  2.3435429E+01
 1.7853750E+01  2.3450724E+01
 1.7865252E+01  2.3493986E+01
 1.7876751E+01  2.3474279E+01
 1.7888250E+01  2.3428888E+01
 1.7899752E+01  2.3426031E+01
 1.7911251E+01  2.3500853E+01
 1.7922750E+01  2.3549479E+01
 1.7934252E+01  2.3556383E+01
 1.7945751E+01  2.3492989E+01
 1.7957251E+01  2.3473633E+01
 1.7968750E+01  2.3466255E+01
 1.7980251E+01  2.3527760E+01
 1.7991751E+01  2.3582472E+01
 1.8003250E+01  2.3690132E+01
 1.8014751E+01  2.3763309E+01
 1.8026251E+01  2.3810238E+01
 1.8037750E+01  2.3831024E+01
 1.8049252E+01  2.3897703E+01
 1.8060751E+01  2.3996216E+01
 1.8072250E+01  2.4120447E+01
 1.8083752E+01  2.4303148E+01
 1.8095251E+01  2.4509111E+01
 1.8106750E+01  2.4693821E+01
 1.8118252E+01  2.4791208E+01
 1.8129751E+01  2.4841637E+01
 1.8141251E+01  2.4671469E+01
 1.8152750E+01  2.4475914E+01
 1.8164251E+01  2.4190763E+01
 1.8175751E+01  2.3947496E+01
 1.8187250E+01  2.3714891E+01
 1.8198751E+01  2.3599873E+01
 1.8210251E+01  2.3554064E+01
 1.8221750E+01  2.3523474E+01
 1.8233252E+01  2.3471464E+01
 1.8244751E+01  2.3397810E+01
 1.8256250E+01  2.3282091E+01
 1.8267752E+01  2.3268290E+01
 1.8279251E+01  2.3281765E+01
 1.8290751E+01  2.3305969E+01
 1.8302252E+01  2.3305346E+01
 1.8313751E+01  2.3274057E+01
 1.8325251E+01  2.3249439E+01
 1.8336750E+01  2.3192991E+01
 1.8348251E+01  2.3156946E+01
 1.8359751E+01  2.3182579E+01
 1.8371250E+01  2.3211456E+01
 1.8382751E+01  2.3223476E+01
 1.8394251E+01  2.3271030E+01
 1.8405750E+01  2.3339556E+01
 1.8417252E+01  2.3402655E+01
 1.8428751E+01  2.3356298E+01
 1.8440250E+01  2.3300545E+01
 1.8451752E+01  2.3217377E+01
 1.8463251E+01  2.3207619E+01
 1.8474751E+01  2.3228230E+01
 1.8486252E+01  2.3190538E+01
 1.8497751E+01  2.3193342E+01
 1.8509251E+01  2.3200420E+01
 1.8520750E+01  2.3233614E+01
 1.8532251E+01  2.3250866E+01
 1.8543751E+01  2.3222248E+01
 1.8555250E+01  2.3244656E+01
 1.8566751E+01  2.3221474E+01
 1.8578251E+01  2.3228374E+01
 1.8589750E+01  2.3231186E+01
 1.8601252E+01  2.3258238E+01
 1.8612751E+01  2.3300318E+01
 1.8624250E+01  2.3304466E+01
 1.8635752E+01  2.3327980E+01
 1.8647251E+01  2.3296099E+01
 1.8658751E+01  2.3260021E+01
 1.8670252E+01  2.3236534E+01
 1.8681751E+01  2.3232967E+01
 1.8693251E+01  2.3219509E+01
 1.8704750E+01  2.3195419E+01
 1.8716251E+01  2.3162163E+01
 1.8727751E+01  2.3118822E+01
 1.8739250E+01  2.3066990E+01
 1.8750751E+01  2.3073515E+01
 1.8762251E+01  2.3072098E+01
 1.8773750E+01  2.3100746E+01
 1.8785252E+01  2.3133331E+01
 1.8796751E+01  2.3180965E+01
 1.8808250E+01  2.3175697E+01
 1.8819752E+01  2.3172153E+01
 1.8831251E+01  2.3131844E+01
 1.8842751E+01  2.3185184E+01
 1.8854252E+01  2.3169353E+01
 1.8865751E+01  2.3189524E+01
 1.8877251E+01  2.3170567E+01
 1.8888750E+01  2.3159662E+01
 1.8900251E+01  2.3120295E+01
 1.8911751E+01  2.3109213E+01
 1.8923250E+01  2.3130804E+01
 1.8934752E+01  2.3202520E+01
 1.8946251E+01  2.3237755E+01
 1.8957750E+01  2.3223635E+01
 1.8969252E+01  2.3171837E+01
 1.8980751E+01  2.3109343E+01
 1.8992250E+01  2.3125856E+01
 1.9003752E+01  2.3140944E+01
 1.9015251E+01  2.3175478E+01
 1.9026751E+01  2.3242159E+01
 1.9038252E+01  2.3272451E+01
 1.9049751E+01  2.3270721E+01
 1.9061251E+01  2.3228233E+01
 1.9072750E+01  2.3211611E+01
 1.9084251E+01  2.3174274E+01
 1.9095751E+01  2.3085531E+01
 1.9107250E+01  2.3044769E+01
 1.9118752E+01  2.3039436E+01
 1.9130251E+01  2.3074364E+01
 1.9141750E+01  2.3147369E+01
 1.9153252E+01  2.3170166E+01
 1.9164751E+01  2.3132090E+01
 1.9176250E+01  2.3096430E+01
 1.9187752E+01  2.3118040E+01
 1.9199251E+01  2.3129780E+01
 1.9210751E+01  2.3162228E+01
 1.9222252E+01  2.3143492E+01
 1.9233751E+01  2.3133331E+01
 1.9245251E+01  2.3097946E+01
 1.9256750E+01  2.3160971E+01
 1.9268251E+01  2.3216911E+01
 1.9279751E+01  2.3240929E+01
 1.9291250E+01  2.3249874E+01
 1.9302752E+01  2.3237684E+01
 1.9314251E+01  2.3239401E+01
 1.9325750E+01  2.3272839E+01
 1.9337252E+01  2.3314873E+01
 1.9348751E+01  2.3329973E+01
 1.9360250E+01  2.3289085E+01
 1.9371752E+01  2.3300425E+01
 1.9383251E+01  2.3306730E+01
 1.9394751E+01  2.3335381E+01
 1.9406250E+01  2.3417086E+01
 1.9417751E+01  2.3466845E+01
 1.9429251E+01  2.3484457E+01
 1.9440750E+01  2.3479044E+01
 1.9452251E+01  2.3492336E+01
 1.9463751E+01  2.3407446E+01
 1.9475250E+01  2.3352806E+01
 1.9486752E+01  2.3360687E+01
 1.9498251E+01  2.3312952E+01
 1.9509750E+01  2.3262310E+01
 1.9521252E+01  2.3285728E+01
 1.9532751E+01  2.3344713E+01
 1.9544250E+01  2.3384558E+01
 1.9555752E+01  2.3399416E+01
 1.9567251E+01  2.3437311E+01
 1.9578751E+01  2.3503498E+01
 1.9590250E+01  2.3544294E+01
 1.9601751E+01  2.3582411E+01
 1.9613251E+01  2.3616899E+01
 1.9624750E+01  2.3670889E+01
 1.9636251E+01  2.3747749E+01
 1.9647751E+01  2.3851095E+01
 1.9659250E+01  2.4096102E+01
 1.9670752E+01  2.4394238E+01
 1.9682251E+01  2.4733515E+01
 1.9693750E+01  2.5136534E+01
 1.9705252E+01  2.5465508E+01
 1.9716751E+01  2.5775642E+01
 1.9728251E+01  2.5662832E+01
 1.9739752E+01  2.5524654E+01
 1.9751251E+01  2.5217306E+01
 1.9762751E+01  2.5084255E+01
 1.9774250E+01  2.4905140E+01
 1.9785751E+01  2.4860588E+01
 1.9797251E+01  2.4985472E+01
 1.9808750E+01  2.5207317E+01
 1.9820251E+01  2.5581581E+01
 1.9831751E+01  2.5919630E+01
 1.9843250E+01  2.6167791E+01
 1.9854752E+01  2.6190414E+01
 1.9866251E+01  2.6100388E+01
 1.9877750E+01  2.5786840E+01
 1.9889252E+01  2.5402866E+01
 1.9900751E+01  2.4985699E+01
 1.9912251E+01  2.4599077E+01
 1.9923752E+01  2.4225248E+01
 1.9935251E+01  2.3897190E+01
 1.9946751E+01  2.3715382E+01
 1.9958250E+01  2.3608540E+01
 1.9969751E+01  2.3593111E+01
 1.9981251E+01  2.3524239E+01
 1.9992750E+01  2.3539907E+01
 2.0004251E+01  2.3509895E+01
 2.0015751E+01  2.3506485E+01
 2.0027250E+01  2.3535267E+01
 2.0038752E+01  2.3513718E+01
 2.0050251E+01  2.3495621E+01
 2.0061750E+01  2.3437082E+01
 2.0073252E+01  2.3411650E+01
 2.0084751E+01  2.3382244E+01
 2.0096251E+01  2.3380651E+01
 2.0107752E+01  2.3416521E+01
 2.0119251E+01  2.3428146E+01
 2.0130751E+01  2.3437225E+01
 2.0142250E+01  2.3443626E+01
 2.0153751E+01  2.3475727E+01
 2.0165251E+01  2.3471664E+01
 2.0176750E+01  2.3483335E+01
 2.0188251E+01  2.3477280E+01
 2.0199751E+01  2.3463057E+01
 2.0211250E+01  2.3417807E+01
 2.0222752E+01  2.3394997E+01
 2.0234251E+01  2.3387264E+01
 2.0245750E+01  2.3340851E+01
 2.0257252E+01  2.3324234E+01
 2.0268751E+01  2.3297541E+01
 2.0280251E+01  2.3336689E+01
 2.0291752E+01  2.3364618E+01
 2.0303251E+01  2.3387766E+01
 2.0314751E+01  2.3379425E+01
 2.0326250E+01  2.3367889E+01
 2.0337751E+01  2.3422197E+01
 2.0349251E+01  2.3465574E+01
 2.0360750E+01  2.3484211E+01
 2.0372252E+01  2.3454987E+01
 2.0383751E+01  2.3425875E+01
 2.0395250E+01  2.3425127E+01
 2.0406752E+01  2.3403484E+01
 2.0418251E+01  2.3444717E+01
 2.0429750E+01  2.3446453E+01
 2.0441252E+01  2.3407068E+01
 2.0452751E+01  2.3351992E+01
 2.0464251E+01  2.3342875E+01
 2.0475752E+01  2.3334198E+01
 2.0487251E+01  2.3324991E+01
 2.0498751E+01  2.3329657E+01
 2.0510250E+01  2.3335505E+01
 2.0521751E+01  2.3348562E+01
 2.0533251E+01  2.3401304E+01
 2.0544750E+01  2.3464054E+01
 2.0556252E+01  2.3582582E+01
 2.0567751E+01  2.3620007E+01
 2.0579250E+01  2.3626202E+01
 2.0590752E+01  2.3551777E+01
 2.0602251E+01  2.3517807E+01
 2.0613750E+01  2.3498995E+01
 2.0625252E+01  2.3520338E+01
 2.0636751E+01  2.3566736E+01
 2.0648251E+01  2.3613483E+01
 2.0659752E+01  2.3687721E+01
 2.0671251E+01  2.3779280E+01
 2.0682751E+01  2.3997032E+01
 2.0694250E+01  2.4219116E+01
 2.0705751E+01  2.4556993E+01
 2.0717251E+01  2.4921360E+01
 2.0728750E+01  2.5209805E+01
 2.0740252E+01  2.5397757E+01
 2.0751751E+01  2.5466877E+01
 2.0763250E+01  2.5387657E+01
 2.0774752E+01  2.5262520E+01
 2.0786251E+01  2.5038437E+01
 2.0797750E+01  2.4826008E+01
 2.0809252E+01  2.4480738E+01
 2.0820751E+01  2.4241859E+01
 2.0832251E+01  2.4018583E+01
 2.0843752E+01  2.3917295E+01
 2.0855251E+01  2.3823149E+01
 2.0866751E+01  2.3773428E+01
 2.0878250E+01  2.3743856E+01
 2.0889751E+01  2.3684011E+01
 2.0901251E+01  2.3667973E+01
 2.0912750E+01  2.3737131E+01
 2.0924252E+01  2.3892759E+01
 2.0935751E+01  2.3913336E+01
 2.0947250E+01  2.3869967E+01
 2.0958752E+01  2.3825720E+01
 2.0970251E+01  2.3771801E+01
 2.0981750E+01  2.3820208E+01
 2.0993252E+01  2.3829994E+01
 2.1004751E+01  2.3781055E+01
 2.1016251E+01  2.3582500E+01
 2.1027752E+01  2.3580078E+01
 2.1039251E+01  2.3605705E+01
 2.1050751E+01  2.3597876E+01
 2.1062250E+01  2.3598764E+01
 2.1073751E+01  2.3626835E+01
 2.1085251E+01  2.3600851E+01
 2.1096750E+01  2.3496799E+01
 2.1108252E+01  2.3433146E+01
 2.1119751E+01  2.3413164E+01
 2.1131250E+01  2.3483236E+01
 2.1142752E+01  2.3486423E+01
 2.1154251E+01  2.3458029E+01
 2.1165751E+01  2.3507349E+01
 2.1177252E+01  2.3537157E+01
 2.1188751E+01  2.3557137E+01
 2.1200251E+01  2.3528933E+01
 2.1211752E+01  2.3539663E+01
 2.1223251E+01  2.3524151E+01
 2.1234751E+01  2.3476690E+01
 2.1246250E+01  2.3487650E+01
 2.1257751E+01  2.3483366E+01
 2.1269251E+01  2.3535297E+01
 2.1280750E+01  2.3619509E+01
 2.1292252E+01  2.3684603E+01
 2.1303751E+01  2.3689821E+01
 2.1315250E+01  2.3606379E+01
 2.1326752E+01  2.3554474E+01
 2.1338251E+01  2.3516943E+01
 2.1349751E+01  2.3519741E+01
 2.1361252E+01  2.3526686E+01
 2.1372751E+01  2.3541609E+01
 2.1384251E+01  2.3554453E+01
 2.1395752E+01  2.3551229E+01
 2.1407251E+01  2.3566324E+01
 2.1418751E+01  2.3587263E+01
 2.1430250E+01  2.3564274E+01
 2.1441751E+01  2.3509264E+01
 2.1453251E+01  2.3513084E+01
 2.1464750E+01  2.3563328E+01
 2.1476252E+01  2.3563953E+01
 2.1487751E+01  2.3584307E+01
 2.1499250E+01  2.3563606E+01
 2.1510752E+01  2.3587317E+01
 2.1522251E+01  2.3580317E+01
 2.1533751E+01  2.3637827E+01
 2.1545252E+01  2.3697245E+01
 2.1556751E+01  2.3749989E+01
 2.1568251E+01  2.3771456E+01
 2.1579752E+01  2.3782358E+01
 2.1591251E+01  2.3820135E+01
 2.1602751E+01  2.3844063E+01
 2.1614250E+01  2.3806755E+01
 2.1625751E+01  2.3744207E+01
 2.1637251E+01  2.3661407E+01
 2.1648750E+01  2.3611303E+01
 2.1660252E+01  2.3606739E+01
 2.1671751E+01  2.3618408E+01
 2.1683250E+01  2.3656582E+01
 2.1694752E+01  2.3711878E+01
 2.1706251E+01  2.3758070E+01
 2.1717751E+01  2.3744436E+01
 2.1729252E+01  2.3780201E+01
 2.1740751E+01  2.3858486E+01
 2.1752251E+01  2.3880499E+01
 2.1763752E+01  2.3833248E+01
 2.1775251E+01  2.3791885E+01
 2.1786751E+01  2.3756273E+01
 2.1798250E+01  2.3725500E+01
 2.1809752E+01  2.3713329E+01
 2.1821251E+01  2.3734901E+01
 2.1832750E+01  2.3731749E+01
 2.1844252E+01  2.3734066E+01
 2.1855751E+01  2.3730114E+01
 2.1867250E+01  2.3794168E+01
 2.1878752E+01  2.3880947E+01
 2.1890251E+01  2.3891380E+01
 2.1901751E+01  2.3940840E+01
 2.1913252E+01  2.3912384E+01
 2.1924751E+01  2.3933962E+01
 2.1936251E+01  2.3895691E+01
 2.1947752E+01  2.3900070E+01
 2.1959251E+01  2.3834600E+01
 2.1970751E+01  2.3812595E+01
 2.1982250E+01  2.3809984E+01
 2.1993752E+01  2.3831026E+01
 2.2005251E+01  2.3814833E+01
 2.2016750E+01  2.3843328E+01
 2.2028252E+01  2.3854273E+01
 2.2039751E+01  2.3859495E+01
 2.2051250E+01  2.3853712E+01
 2.2062752E+01  2.3847570E+01
 2.2074251E+01  2.3835451E+01
 2.2085751E+01  2.3827137E+01
 2.2097252E+01  2.3846699E+01
 2.2108751E+01  2.3887365E+01
 2.2120251E+01  2.3978722E+01
 2.2131752E+01  2.3989882E+01
 2.2143251E+01  2.4022898E+01
 2.2154751E+01  2.3963732E+01
 2.2166250E+01  2.3903860E+01
 2.2177752E+01  2.3848461E+01
 2.2189251E+01  2.3855862E+01
 2.2200750E+01  2.3899466E+01
 2.2212252E+01  2.3916227E+01
 2.2223751E+01  2.3972208E+01
 2.2235250E+01  2.4021549E+01
 2.2246752E+01  2.4048679E+01
 2.2258251E+01  2.4002571E+01
 2.2269751E+01  2.3953882E+01
 2.2281252E+01  2.3936266E+01
 2.2292751E+01  2.3937801E+01
 2.2304251E+01  2.3997700E+01
 2.2315752E+01  2.4058359E+01
 2.2327251E+01  2.4100849E+01
 2.2338751E+01  2.4123497E+01
 2.2350250E+01  2.4128323E+01
 2.2361752E+01  2.4107239E+01
 2.2373251E+01  2.4063866E+01
 2.2384750E+01  2.4028933E+01
 2.2396252E+01  2.4042717E+01
 2.2407751E+01  2.4060904E+01
 2.2419250E+01  2.4111095E+01
 2.2430752E+01  2.4159649E+01
 2.2442251E+01  2.4249073E+01
 2.2453751E+01  2.4275995E+01
 2.2465252E+01  2.4268843E+01
 2.2476751E+01  2.4218208E+01
 2.2488251E+01  2.4247374E+01
 2.2499752E+01  2.4266188E+01
 2.2511251E+01  2.4305458E+01
 2.2522751E+01  2.4324175E+01
 2.2534250E+01  2.4336576E+01
 2.2545752E+01  2.4363577E+01
 2.2557251E+01  2.4371792E+01
 2.2568750E+01  2.4369081E+01
 2.2580252E+01  2.4419447E+01
 2.2591751E+01  2.4443237E+01
 2.2603251E+01  2.4501837E+01
 2.2614752E+01  2.4557877E+01
 2.2626251E+01  2.4589579E+01
 2.2637751E+01  2.4622475E+01
 2.2649252E+01  2.4603951E+01
 2.2660751E+01  2.4568724E+01
 2.2672251E+01  2.4561680E+01
 2.2683752E+01  2.4590754E+01
 2.2695251E+01  2.4668814E+01
 2.2706751E+01  2.4659065E+01
 2.2718250E+01  2.4737936E+01
 2.2729752E+01  2.4781475E+01
 2.2741251E+01  2.4884174E+01
 2.2752750E+01  2.4927202E+01
 2.2764252E+01  2.4931044E+01
 2.2775751E+01  2.4895588E+01
 2.2787251E+01  2.4839943E+01
 2.2798752E+01  2.4882341E+01
 2.2810251E+01  2.4979441E+01
 2.2821751E+01  2.5051851E+01
 2.2833252E+01  2.5104122E+01
 2.2844751E+01  2.5096882E+01
 2.2856251E+01  2.5168680E+01
 2.2867750E+01  2.5215347E+01
 2.2879251E+01  2.5281425E+01
 2.2890751E+01  2.5328259E+01
 2.2902250E+01  2.5325945E+01
 2.2913752E+01  2.5361319E+01
 2.2925251E+01  2.5424675E+01
 2.2936750E+01  2.5501196E+01
 2.2948252E+01  2.5557074E+01
 2.2959751E+01  2.5630461E+01
 2.2971251E+01  2.5747932E+01
 2.2982752E+01  2.5820875E+01
 2.2994251E+01  2.5878456E+01
