F:\20151113_APS_34IDE\\Brian\Particle1\OCV\Data_0002.tif
2-Theta Angle (Degrees)
Intensity
       2000
 5.7500005E-03  0.0000000E+00
 1.7250001E-02  0.0000000E+00
 2.8750001E-02  0.0000000E+00
 4.0250003E-02  0.0000000E+00
 5.1750004E-02  0.0000000E+00
 6.3250005E-02  0.0000000E+00
 7.4750006E-02  0.0000000E+00
 8.6250007E-02  0.0000000E+00
 9.7750008E-02  0.0000000E+00
 1.0925001E-01  0.0000000E+00
 1.2075000E-01  0.0000000E+00
 1.3225001E-01  0.0000000E+00
 1.4375001E-01  0.0000000E+00
 1.5525001E-01  0.0000000E+00
 1.6675001E-01  0.0000000E+00
 1.7825001E-01  0.0000000E+00
 1.8975002E-01  0.0000000E+00
 2.0125002E-01  0.0000000E+00
 2.1275002E-01  0.0000000E+00
 2.2425000E-01  0.0000000E+00
 2.3575000E-01  0.0000000E+00
 2.4725001E-01  0.0000000E+00
 2.5875002E-01  0.0000000E+00
 2.7025002E-01  0.0000000E+00
 2.8175002E-01  0.0000000E+00
 2.9325002E-01  0.0000000E+00
 3.0475003E-01  0.0000000E+00
 3.1625003E-01  0.0000000E+00
 3.2775003E-01  0.0000000E+00
 3.3925003E-01  0.0000000E+00
 3.5075003E-01  0.0000000E+00
 3.6225003E-01  0.0000000E+00
 3.7375003E-01  0.0000000E+00
 3.8525003E-01  0.0000000E+00
 3.9675003E-01  0.0000000E+00
 4.0825003E-01  0.0000000E+00
 4.1975003E-01  0.0000000E+00
 4.3125004E-01  0.0000000E+00
 4.4275001E-01  0.0000000E+00
 4.5425001E-01  0.0000000E+00
 4.6575001E-01  0.0000000E+00
 4.7725001E-01  0.0000000E+00
 4.8875001E-01  0.0000000E+00
 5.0025004E-01  0.0000000E+00
 5.1175004E-01  0.0000000E+00
 5.2325004E-01  0.0000000E+00
 5.3475004E-01  0.0000000E+00
 5.4625005E-01  0.0000000E+00
 5.5775005E-01  0.0000000E+00
 5.6925005E-01  0.0000000E+00
 5.8075005E-01  0.0000000E+00
 5.9225005E-01  0.0000000E+00
 6.0375005E-01  0.0000000E+00
 6.1525005E-01  0.0000000E+00
 6.2675005E-01  0.0000000E+00
 6.3825005E-01  0.0000000E+00
 6.4975005E-01  0.0000000E+00
 6.6125005E-01  0.0000000E+00
 6.7275006E-01  0.0000000E+00
 6.8425006E-01  0.0000000E+00
 6.9575006E-01  0.0000000E+00
 7.0725006E-01  0.0000000E+00
 7.1875006E-01  0.0000000E+00
 7.3025006E-01  0.0000000E+00
 7.4175006E-01  0.0000000E+00
 7.5325006E-01  0.0000000E+00
 7.6475006E-01  0.0000000E+00
 7.7625006E-01  0.0000000E+00
 7.8775007E-01  0.0000000E+00
 7.9925007E-01  0.0000000E+00
 8.1075007E-01  0.0000000E+00
 8.2225007E-01  0.0000000E+00
 8.3375007E-01  0.0000000E+00
 8.4525007E-01  0.0000000E+00
 8.5675007E-01  0.0000000E+00
 8.6825007E-01  0.0000000E+00
 8.7975001E-01  0.0000000E+00
 8.9125001E-01  0.0000000E+00
 9.0275002E-01  0.0000000E+00
 9.1425002E-01  0.0000000E+00
 9.2575002E-01  0.0000000E+00
 9.3725002E-01  0.0000000E+00
 9.4875002E-01  0.0000000E+00
 9.6025002E-01  0.0000000E+00
 9.7175002E-01  0.0000000E+00
 9.8325002E-01  0.0000000E+00
 9.9475002E-01  0.0000000E+00
 1.0062500E+00  0.0000000E+00
 1.0177500E+00  0.0000000E+00
 1.0292500E+00  0.0000000E+00
 1.0407500E+00  0.0000000E+00
 1.0522500E+00  0.0000000E+00
 1.0637500E+00  0.0000000E+00
 1.0752500E+00  0.0000000E+00
 1.0867500E+00  0.0000000E+00
 1.0982500E+00  0.0000000E+00
 1.1097500E+00  0.0000000E+00
 1.1212500E+00  0.0000000E+00
 1.1327500E+00  0.0000000E+00
 1.1442500E+00  0.0000000E+00
 1.1557500E+00  0.0000000E+00
 1.1672500E+00  0.0000000E+00
 1.1787500E+00  0.0000000E+00
 1.1902500E+00  0.0000000E+00
 1.2017500E+00  0.0000000E+00
 1.2132500E+00  0.0000000E+00
 1.2247500E+00  0.0000000E+00
 1.2362500E+00  0.0000000E+00
 1.2477500E+00  0.0000000E+00
 1.2592500E+00  0.0000000E+00
 1.2707500E+00  0.0000000E+00
 1.2822500E+00  0.0000000E+00
 1.2937500E+00  0.0000000E+00
 1.3052500E+00  0.0000000E+00
 1.3167500E+00  0.0000000E+00
 1.3282501E+00  0.0000000E+00
 1.3397501E+00  0.0000000E+00
 1.3512501E+00  0.0000000E+00
 1.3627501E+00  0.0000000E+00
 1.3742501E+00  0.0000000E+00
 1.3857501E+00  0.0000000E+00
 1.3972501E+00  0.0000000E+00
 1.4087501E+00  0.0000000E+00
 1.4202501E+00  0.0000000E+00
 1.4317501E+00  0.0000000E+00
 1.4432501E+00  0.0000000E+00
 1.4547501E+00  0.0000000E+00
 1.4662501E+00  0.0000000E+00
 1.4777501E+00  0.0000000E+00
 1.4892501E+00  0.0000000E+00
 1.5007501E+00  0.0000000E+00
 1.5122501E+00  0.0000000E+00
 1.5237501E+00  0.0000000E+00
 1.5352501E+00  0.0000000E+00
 1.5467501E+00  0.0000000E+00
 1.5582501E+00  0.0000000E+00
 1.5697501E+00  0.0000000E+00
 1.5812501E+00  0.0000000E+00
 1.5927501E+00  0.0000000E+00
 1.6042501E+00  0.0000000E+00
 1.6157501E+00  0.0000000E+00
 1.6272501E+00  0.0000000E+00
 1.6387501E+00  0.0000000E+00
 1.6502501E+00  0.0000000E+00
 1.6617501E+00  0.0000000E+00
 1.6732501E+00  0.0000000E+00
 1.6847501E+00  0.0000000E+00
 1.6962501E+00  0.0000000E+00
 1.7077501E+00  0.0000000E+00
 1.7192501E+00  0.0000000E+00
 1.7307501E+00  0.0000000E+00
 1.7422501E+00  0.0000000E+00
 1.7537501E+00  0.0000000E+00
 1.7652501E+00  0.0000000E+00
 1.7767501E+00  0.0000000E+00
 1.7882501E+00  0.0000000E+00
 1.7997501E+00  0.0000000E+00
 1.8112501E+00  0.0000000E+00
 1.8227501E+00  0.0000000E+00
 1.8342501E+00  0.0000000E+00
 1.8457501E+00  0.0000000E+00
 1.8572501E+00  0.0000000E+00
 1.8687501E+00  0.0000000E+00
 1.8802501E+00  0.0000000E+00
 1.8917501E+00  0.0000000E+00
 1.9032501E+00  0.0000000E+00
 1.9147501E+00  0.0000000E+00
 1.9262501E+00  0.0000000E+00
 1.9377501E+00  0.0000000E+00
 1.9492501E+00  0.0000000E+00
 1.9607501E+00  0.0000000E+00
 1.9722501E+00  0.0000000E+00
 1.9837501E+00  0.0000000E+00
 1.9952501E+00  0.0000000E+00
 2.0067501E+00  0.0000000E+00
 2.0182500E+00  0.0000000E+00
 2.0297501E+00  0.0000000E+00
 2.0412500E+00  0.0000000E+00
 2.0527501E+00  0.0000000E+00
 2.0642500E+00  0.0000000E+00
 2.0757501E+00  0.0000000E+00
 2.0872500E+00  0.0000000E+00
 2.0987501E+00  0.0000000E+00
 2.1102500E+00  0.0000000E+00
 2.1217501E+00  0.0000000E+00
 2.1332500E+00  0.0000000E+00
 2.1447501E+00  0.0000000E+00
 2.1562500E+00  0.0000000E+00
 2.1677501E+00  0.0000000E+00
 2.1792500E+00  0.0000000E+00
 2.1907501E+00  0.0000000E+00
 2.2022500E+00  0.0000000E+00
 2.2137501E+00  0.0000000E+00
 2.2252500E+00  0.0000000E+00
 2.2367501E+00  0.0000000E+00
 2.2482500E+00  0.0000000E+00
 2.2597501E+00  0.0000000E+00
 2.2712500E+00  0.0000000E+00
 2.2827501E+00  0.0000000E+00
 2.2942500E+00  0.0000000E+00
 2.3057501E+00  0.0000000E+00
 2.3172500E+00  0.0000000E+00
 2.3287501E+00  0.0000000E+00
 2.3402500E+00  0.0000000E+00
 2.3517501E+00  0.0000000E+00
 2.3632500E+00  0.0000000E+00
 2.3747501E+00  0.0000000E+00
 2.3862500E+00  0.0000000E+00
 2.3977501E+00  0.0000000E+00
 2.4092500E+00  0.0000000E+00
 2.4207501E+00  0.0000000E+00
 2.4322500E+00  0.0000000E+00
 2.4437501E+00  0.0000000E+00
 2.4552500E+00  0.0000000E+00
 2.4667501E+00  0.0000000E+00
 2.4782500E+00  0.0000000E+00
 2.4897501E+00  0.0000000E+00
 2.5012500E+00  0.0000000E+00
 2.5127501E+00  0.0000000E+00
 2.5242500E+00  0.0000000E+00
 2.5357502E+00  0.0000000E+00
 2.5472500E+00  0.0000000E+00
 2.5587502E+00  0.0000000E+00
 2.5702500E+00  0.0000000E+00
 2.5817502E+00  0.0000000E+00
 2.5932500E+00  0.0000000E+00
 2.6047502E+00  0.0000000E+00
 2.6162500E+00  0.0000000E+00
 2.6277502E+00  0.0000000E+00
 2.6392500E+00  0.0000000E+00
 2.6507502E+00  0.0000000E+00
 2.6622500E+00  0.0000000E+00
 2.6737502E+00  0.0000000E+00
 2.6852500E+00  0.0000000E+00
 2.6967502E+00  0.0000000E+00
 2.7082500E+00  0.0000000E+00
 2.7197502E+00  0.0000000E+00
 2.7312500E+00  0.0000000E+00
 2.7427502E+00  0.0000000E+00
 2.7542500E+00  0.0000000E+00
 2.7657502E+00  0.0000000E+00
 2.7772501E+00  0.0000000E+00
 2.7887502E+00  0.0000000E+00
 2.8002501E+00  0.0000000E+00
 2.8117502E+00  0.0000000E+00
 2.8232501E+00  3.3653690E+01
 2.8347502E+00  3.4202496E+01
 2.8462501E+00  3.3801800E+01
 2.8577502E+00  3.3607056E+01
 2.8692501E+00  3.3434372E+01
 2.8807502E+00  3.4453060E+01
 2.8922501E+00  3.4960972E+01
 2.9037502E+00  3.5701157E+01
 2.9152501E+00  3.5755100E+01
 2.9267502E+00  3.5625011E+01
 2.9382501E+00  3.5374329E+01
 2.9497502E+00  3.4925037E+01
 2.9612501E+00  3.4792545E+01
 2.9727502E+00  3.4395477E+01
 2.9842501E+00  3.4341148E+01
 2.9957502E+00  3.4246090E+01
 3.0072501E+00  3.4737877E+01
 3.0187502E+00  3.4872997E+01
 3.0302501E+00  3.4984718E+01
 3.0417502E+00  3.4893410E+01
 3.0532501E+00  3.4597435E+01
 3.0647502E+00  3.4655296E+01
 3.0762501E+00  3.5007420E+01
 3.0877502E+00  3.5471745E+01
 3.0992501E+00  3.5480526E+01
 3.1107502E+00  3.5147141E+01
 3.1222501E+00  3.5161945E+01
 3.1337502E+00  3.5152653E+01
 3.1452501E+00  3.5181255E+01
 3.1567502E+00  3.5361176E+01
 3.1682501E+00  3.5390205E+01
 3.1797502E+00  3.5563995E+01
 3.1912501E+00  3.5034565E+01
 3.2027502E+00  3.4673126E+01
 3.2142501E+00  3.4233582E+01
 3.2257502E+00  3.4176735E+01
 3.2372501E+00  3.3860168E+01
 3.2487502E+00  3.3855175E+01
 3.2602501E+00  3.3704773E+01
 3.2717502E+00  3.3783596E+01
 3.2832501E+00  3.3859814E+01
 3.2947502E+00  3.3969227E+01
 3.3062501E+00  3.3888439E+01
 3.3177502E+00  3.3767498E+01
 3.3292501E+00  3.3598782E+01
 3.3407502E+00  3.3751289E+01
 3.3522501E+00  3.3767956E+01
 3.3637502E+00  3.4108772E+01
 3.3752501E+00  3.4264053E+01
 3.3867502E+00  3.4600563E+01
 3.3982501E+00  3.4367672E+01
 3.4097502E+00  3.4461697E+01
 3.4212501E+00  3.4186016E+01
 3.4327502E+00  3.4267109E+01
 3.4442501E+00  3.4313885E+01
 3.4557502E+00  3.4425034E+01
 3.4672501E+00  3.4544365E+01
 3.4787502E+00  3.4606441E+01
 3.4902501E+00  3.4519497E+01
 3.5017502E+00  3.4345249E+01
 3.5132501E+00  3.4008324E+01
 3.5247502E+00  3.3730637E+01
 3.5362501E+00  3.3738102E+01
 3.5477502E+00  3.3842777E+01
 3.5592501E+00  3.3918125E+01
 3.5707502E+00  3.4069191E+01
 3.5822501E+00  3.3807499E+01
 3.5937502E+00  3.3889233E+01
 3.6052501E+00  3.3724922E+01
 3.6167502E+00  3.3693558E+01
 3.6282501E+00  3.3686108E+01
 3.6397502E+00  3.3677498E+01
 3.6512501E+00  3.3744194E+01
 3.6627502E+00  3.3692921E+01
 3.6742501E+00  3.3566391E+01
 3.6857502E+00  3.3441265E+01
 3.6972501E+00  3.3404587E+01
 3.7087502E+00  3.3271633E+01
 3.7202501E+00  3.3222275E+01
 3.7317502E+00  3.3147465E+01
 3.7432501E+00  3.3023762E+01
 3.7547503E+00  3.2910240E+01
 3.7662501E+00  3.2773869E+01
 3.7777503E+00  3.2874756E+01
 3.7892501E+00  3.2682133E+01
 3.8007503E+00  3.2570778E+01
 3.8122501E+00  3.2492580E+01
 3.8237503E+00  3.2639168E+01
 3.8352501E+00  3.2685417E+01
 3.8467503E+00  3.2678928E+01
 3.8582501E+00  3.2588741E+01
 3.8697503E+00  3.2519650E+01
 3.8812501E+00  3.2513252E+01
 3.8927503E+00  3.2397095E+01
 3.9042501E+00  3.2304344E+01
 3.9157503E+00  3.2102829E+01
 3.9272501E+00  3.2155067E+01
 3.9387503E+00  3.2430576E+01
 3.9502501E+00  3.2574238E+01
 3.9617503E+00  3.2855133E+01
 3.9732502E+00  3.2777054E+01
 3.9847503E+00  3.2598602E+01
 3.9962502E+00  3.2529663E+01
 4.0077500E+00  3.2610081E+01
 4.0192504E+00  3.2800583E+01
 4.0307503E+00  3.2792934E+01
 4.0422502E+00  3.2780155E+01
 4.0537500E+00  3.2880722E+01
 4.0652504E+00  3.3052307E+01
 4.0767503E+00  3.2848141E+01
 4.0882502E+00  3.2713535E+01
 4.0997500E+00  3.2530231E+01
 4.1112504E+00  3.2483284E+01
 4.1227503E+00  3.2376141E+01
 4.1342502E+00  3.2241371E+01
 4.1457500E+00  3.2337677E+01
 4.1572504E+00  3.2303989E+01
 4.1687503E+00  3.2340904E+01
 4.1802502E+00  3.2305389E+01
 4.1917500E+00  3.2438129E+01
 4.2032504E+00  3.2389374E+01
 4.2147503E+00  3.2526592E+01
 4.2262502E+00  3.2500614E+01
 4.2377501E+00  3.2614441E+01
 4.2492504E+00  3.2440578E+01
 4.2607503E+00  3.2363235E+01
 4.2722502E+00  3.2325459E+01
 4.2837501E+00  3.2319008E+01
 4.2952504E+00  3.2193050E+01
 4.3067503E+00  3.2259251E+01
 4.3182502E+00  3.2265499E+01
 4.3297501E+00  3.2381989E+01
 4.3412504E+00  3.2456982E+01
 4.3527503E+00  3.2439102E+01
 4.3642502E+00  3.2546387E+01
 4.3757501E+00  3.2497463E+01
 4.3872504E+00  3.2450447E+01
 4.3987503E+00  3.2352612E+01
 4.4102502E+00  3.2296917E+01
 4.4217501E+00  3.2346943E+01
 4.4332504E+00  3.2447807E+01
 4.4447503E+00  3.2470425E+01
 4.4562502E+00  3.2643200E+01
 4.4677501E+00  3.2665863E+01
 4.4792504E+00  3.2716099E+01
 4.4907503E+00  3.2525772E+01
 4.5022502E+00  3.2490993E+01
 4.5137501E+00  3.2443958E+01
 4.5252504E+00  3.2494892E+01
 4.5367503E+00  3.2564144E+01
 4.5482502E+00  3.2648754E+01
 4.5597501E+00  3.2653065E+01
 4.5712504E+00  3.2596073E+01
 4.5827503E+00  3.2650562E+01
 4.5942502E+00  3.2686665E+01
 4.6057501E+00  3.2760246E+01
 4.6172504E+00  3.2671570E+01
 4.6287503E+00  3.2710182E+01
 4.6402502E+00  3.2674458E+01
 4.6517501E+00  3.2807590E+01
 4.6632504E+00  3.2763515E+01
 4.6747503E+00  3.2704197E+01
 4.6862502E+00  3.2568268E+01
 4.6977501E+00  3.2711258E+01
 4.7092505E+00  3.2805233E+01
 4.7207503E+00  3.2991413E+01
 4.7322502E+00  3.2880009E+01
 4.7437501E+00  3.2925091E+01
 4.7552505E+00  3.2666447E+01
 4.7667503E+00  3.2570343E+01
 4.7782502E+00  3.2292313E+01
 4.7897501E+00  3.2336327E+01
 4.8012505E+00  3.2346600E+01
 4.8127503E+00  3.2539379E+01
 4.8242502E+00  3.2599312E+01
 4.8357501E+00  3.2730370E+01
 4.8472505E+00  3.2722252E+01
 4.8587503E+00  3.2808136E+01
 4.8702502E+00  3.2786366E+01
 4.8817501E+00  3.2908955E+01
 4.8932505E+00  3.2956615E+01
 4.9047503E+00  3.2979572E+01
 4.9162502E+00  3.3027256E+01
 4.9277501E+00  3.2998844E+01
 4.9392505E+00  3.3041828E+01
 4.9507504E+00  3.2959492E+01
 4.9622502E+00  3.2985401E+01
 4.9737501E+00  3.3040638E+01
 4.9852505E+00  3.3084450E+01
 4.9967504E+00  3.3112007E+01
 5.0082502E+00  3.3090477E+01
 5.0197501E+00  3.3025612E+01
 5.0312505E+00  3.2994316E+01
 5.0427504E+00  3.3018250E+01
 5.0542502E+00  3.3145081E+01
 5.0657501E+00  3.3228836E+01
 5.0772505E+00  3.3283142E+01
 5.0887504E+00  3.3335678E+01
 5.1002502E+00  3.3365982E+01
 5.1117501E+00  3.3529175E+01
 5.1232505E+00  3.3576271E+01
 5.1347504E+00  3.3630096E+01
 5.1462502E+00  3.3606098E+01
 5.1577501E+00  3.3565800E+01
 5.1692505E+00  3.3620266E+01
 5.1807504E+00  3.3647896E+01
 5.1922503E+00  3.3776672E+01
 5.2037501E+00  3.3845543E+01
 5.2152505E+00  3.3930641E+01
 5.2267504E+00  3.3934696E+01
 5.2382503E+00  3.4018368E+01
 5.2497501E+00  3.3932430E+01
 5.2612505E+00  3.4055752E+01
 5.2727504E+00  3.4077274E+01
 5.2842503E+00  3.4257172E+01
 5.2957501E+00  3.4297073E+01
 5.3072500E+00  3.4219563E+01
 5.3187504E+00  3.4098419E+01
 5.3302503E+00  3.3952888E+01
 5.3417501E+00  3.3897182E+01
 5.3532500E+00  3.3878963E+01
 5.3647504E+00  3.4011730E+01
 5.3762503E+00  3.4210274E+01
 5.3877501E+00  3.4400005E+01
 5.3992500E+00  3.4535995E+01
 5.4107504E+00  3.4508423E+01
 5.4222503E+00  3.4476204E+01
 5.4337502E+00  3.4292191E+01
 5.4452500E+00  3.4358173E+01
 5.4567504E+00  3.4382984E+01
 5.4682503E+00  3.4580185E+01
 5.4797502E+00  3.4666286E+01
 5.4912500E+00  3.4783012E+01
 5.5027504E+00  3.4863911E+01
 5.5142503E+00  3.4942318E+01
 5.5257502E+00  3.5002590E+01
 5.5372500E+00  3.4958534E+01
 5.5487504E+00  3.4984863E+01
 5.5602503E+00  3.4929852E+01
 5.5717502E+00  3.5060265E+01
 5.5832500E+00  3.5145794E+01
 5.5947504E+00  3.5147411E+01
 5.6062503E+00  3.5122051E+01
 5.6177502E+00  3.4946251E+01
 5.6292500E+00  3.4983368E+01
 5.6407504E+00  3.4942390E+01
 5.6522503E+00  3.5041584E+01
 5.6637502E+00  3.5126984E+01
 5.6752501E+00  3.5207752E+01
 5.6867504E+00  3.5254890E+01
 5.6982503E+00  3.5341042E+01
 5.7097502E+00  3.5374142E+01
 5.7212501E+00  3.5398972E+01
 5.7327504E+00  3.5336060E+01
 5.7442503E+00  3.5215824E+01
 5.7557502E+00  3.5227821E+01
 5.7672501E+00  3.5180950E+01
 5.7787504E+00  3.5397270E+01
 5.7902503E+00  3.5521416E+01
 5.8017502E+00  3.5616013E+01
 5.8132501E+00  3.5645412E+01
 5.8247504E+00  3.5632660E+01
 5.8362503E+00  3.5724567E+01
 5.8477502E+00  3.5731041E+01
 5.8592501E+00  3.5799137E+01
 5.8707504E+00  3.5870613E+01
 5.8822503E+00  3.5889801E+01
 5.8937502E+00  3.5888611E+01
 5.9052501E+00  3.6049873E+01
 5.9167504E+00  3.6231506E+01
 5.9282503E+00  3.6545555E+01
 5.9397502E+00  3.7274368E+01
 5.9512501E+00  3.7955833E+01
 5.9627504E+00  3.8654819E+01
 5.9742503E+00  3.9624889E+01
 5.9857502E+00  3.9716572E+01
 5.9972501E+00  3.9642521E+01
 6.0087504E+00  3.8871502E+01
 6.0202503E+00  3.8171711E+01
 6.0317502E+00  3.7700783E+01
 6.0432501E+00  3.7040012E+01
 6.0547504E+00  3.6931725E+01
 6.0662503E+00  3.6936245E+01
 6.0777502E+00  3.6905003E+01
 6.0892501E+00  3.6950890E+01
 6.1007504E+00  3.6926598E+01
 6.1122503E+00  3.6886364E+01
 6.1237502E+00  3.6960484E+01
 6.1352501E+00  3.6914440E+01
 6.1467505E+00  3.6814495E+01
 6.1582503E+00  3.6835247E+01
 6.1697502E+00  3.6777657E+01
 6.1812501E+00  3.6960537E+01
 6.1927505E+00  3.7003433E+01
 6.2042503E+00  3.7111778E+01
 6.2157502E+00  3.7240177E+01
 6.2272501E+00  3.7333977E+01
 6.2387505E+00  3.7394848E+01
 6.2502503E+00  3.7409935E+01
 6.2617502E+00  3.7334171E+01
 6.2732501E+00  3.7407215E+01
 6.2847505E+00  3.7442062E+01
 6.2962503E+00  3.7529179E+01
 6.3077502E+00  3.7667522E+01
 6.3192501E+00  3.7833019E+01
 6.3307505E+00  3.7998886E+01
 6.3422503E+00  3.8171192E+01
 6.3537502E+00  3.8227928E+01
 6.3652501E+00  3.8362968E+01
 6.3767505E+00  3.8409409E+01
 6.3882504E+00  3.8581577E+01
 6.3997502E+00  3.8554832E+01
 6.4112501E+00  3.8659225E+01
 6.4227505E+00  3.8653896E+01
 6.4342504E+00  3.8826347E+01
 6.4457502E+00  3.8972836E+01
 6.4572501E+00  3.9007839E+01
 6.4687505E+00  3.9005543E+01
 6.4802504E+00  3.8989571E+01
 6.4917502E+00  3.9062935E+01
 6.5032501E+00  3.9205929E+01
 6.5147505E+00  3.9291611E+01
 6.5262504E+00  3.9328022E+01
 6.5377502E+00  3.9487427E+01
 6.5492501E+00  3.9545216E+01
 6.5607505E+00  3.9724819E+01
 6.5722504E+00  3.9828014E+01
 6.5837502E+00  3.9894703E+01
 6.5952501E+00  3.9948284E+01
 6.6067505E+00  4.0040428E+01
 6.6182504E+00  4.0147732E+01
 6.6297503E+00  4.0242352E+01
 6.6412501E+00  4.0224842E+01
 6.6527505E+00  4.0220844E+01
 6.6642504E+00  4.0264267E+01
 6.6757503E+00  4.0281551E+01
 6.6872501E+00  4.0220142E+01
 6.6987505E+00  4.0264481E+01
 6.7102504E+00  4.0299873E+01
 6.7217503E+00  4.0472900E+01
 6.7332501E+00  4.0619801E+01
 6.7447505E+00  4.0744389E+01
 6.7562504E+00  4.0889618E+01
 6.7677503E+00  4.1045025E+01
 6.7792501E+00  4.1198776E+01
 6.7907505E+00  4.1239128E+01
 6.8022504E+00  4.1394142E+01
 6.8137503E+00  4.1419731E+01
 6.8252501E+00  4.1519348E+01
 6.8367505E+00  4.1442078E+01
 6.8482504E+00  4.1609169E+01
 6.8597503E+00  4.1792763E+01
 6.8712502E+00  4.1943352E+01
 6.8827505E+00  4.2084782E+01
 6.8942504E+00  4.2216892E+01
 6.9057503E+00  4.2335175E+01
 6.9172502E+00  4.2421494E+01
 6.9287505E+00  4.2474823E+01
 6.9402504E+00  4.2565075E+01
 6.9517503E+00  4.2514774E+01
 6.9632502E+00  4.2517288E+01
 6.9747505E+00  4.2527020E+01
 6.9862504E+00  4.2519791E+01
 6.9977503E+00  4.2407429E+01
 7.0092502E+00  4.2438744E+01
 7.0207505E+00  4.2557602E+01
 7.0322504E+00  4.2684757E+01
 7.0437503E+00  4.2789536E+01
 7.0552502E+00  4.2839127E+01
 7.0667505E+00  4.2959499E+01
 7.0782504E+00  4.2980507E+01
 7.0897503E+00  4.3035995E+01
 7.1012502E+00  4.3152695E+01
 7.1127505E+00  4.3247715E+01
 7.1242504E+00  4.3350960E+01
 7.1357503E+00  4.3348927E+01
 7.1472502E+00  4.3395988E+01
 7.1587505E+00  4.3344746E+01
 7.1702504E+00  4.3366852E+01
 7.1817503E+00  4.3377350E+01
 7.1932502E+00  4.3437733E+01
 7.2047505E+00  4.3473297E+01
 7.2162504E+00  4.3514332E+01
 7.2277503E+00  4.3611294E+01
 7.2392502E+00  4.3779148E+01
 7.2507505E+00  4.3807690E+01
 7.2622504E+00  4.3893181E+01
 7.2737503E+00  4.3892746E+01
 7.2852502E+00  4.4072563E+01
 7.2967505E+00  4.4146805E+01
 7.3082504E+00  4.4291733E+01
 7.3197503E+00  4.4416824E+01
 7.3312502E+00  4.4447807E+01
 7.3427505E+00  4.4374954E+01
 7.3542504E+00  4.4278320E+01
 7.3657503E+00  4.4234154E+01
 7.3772502E+00  4.4219990E+01
 7.3887506E+00  4.4222618E+01
 7.4002504E+00  4.4342686E+01
 7.4117503E+00  4.4490402E+01
 7.4232502E+00  4.4583897E+01
 7.4347506E+00  4.4671349E+01
 7.4462504E+00  4.4773567E+01
 7.4577503E+00  4.4812901E+01
 7.4692502E+00  4.4817726E+01
 7.4807506E+00  4.4729431E+01
 7.4922504E+00  4.4691963E+01
 7.5037503E+00  4.4645668E+01
 7.5152502E+00  4.4619770E+01
 7.5267506E+00  4.4600063E+01
 7.5382504E+00  4.4667435E+01
 7.5497503E+00  4.4636600E+01
 7.5612502E+00  4.4766041E+01
 7.5727506E+00  4.4728081E+01
 7.5842505E+00  4.4741158E+01
 7.5957503E+00  4.4699074E+01
 7.6072502E+00  4.4705315E+01
 7.6187506E+00  4.4725582E+01
 7.6302505E+00  4.4652489E+01
 7.6417503E+00  4.4585907E+01
 7.6532502E+00  4.4554951E+01
 7.6647506E+00  4.4506134E+01
 7.6762505E+00  4.4535484E+01
 7.6877503E+00  4.4551262E+01
 7.6992502E+00  4.4667389E+01
 7.7107506E+00  4.4849579E+01
 7.7222505E+00  4.5025345E+01
 7.7337503E+00  4.5103569E+01
 7.7452502E+00  4.5146000E+01
 7.7567506E+00  4.5130894E+01
 7.7682505E+00  4.5198761E+01
 7.7797503E+00  4.5074154E+01
 7.7912502E+00  4.5101109E+01
 7.8027506E+00  4.4942310E+01
 7.8142505E+00  4.4869041E+01
 7.8257504E+00  4.4756771E+01
 7.8372502E+00  4.4799553E+01
 7.8487506E+00  4.4793488E+01
 7.8602505E+00  4.4763596E+01
 7.8717504E+00  4.4736355E+01
 7.8832502E+00  4.4711208E+01
 7.8947506E+00  4.4659451E+01
 7.9062505E+00  4.4710876E+01
 7.9177504E+00  4.4747147E+01
 7.9292502E+00  4.4760105E+01
 7.9407506E+00  4.4760178E+01
 7.9522505E+00  4.4591381E+01
 7.9637504E+00  4.4505985E+01
 7.9752502E+00  4.4312660E+01
 7.9867506E+00  4.4208057E+01
 7.9982505E+00  4.4196266E+01
 8.0097504E+00  4.4009010E+01
 8.0212507E+00  4.3984604E+01
 8.0327501E+00  4.3874012E+01
 8.0442505E+00  4.3833691E+01
 8.0557508E+00  4.3759350E+01
 8.0672503E+00  4.3603085E+01
 8.0787506E+00  4.3473862E+01
 8.0902500E+00  4.3511951E+01
 8.1017504E+00  4.3607403E+01
 8.1132507E+00  4.3649601E+01
 8.1247501E+00  4.3528526E+01
 8.1362505E+00  4.3452549E+01
 8.1477509E+00  4.3356495E+01
 8.1592503E+00  4.3229370E+01
 8.1707506E+00  4.3065380E+01
 8.1822500E+00  4.2862751E+01
 8.1937504E+00  4.2731098E+01
 8.2052507E+00  4.2484905E+01
 8.2167501E+00  4.2342072E+01
 8.2282505E+00  4.2229755E+01
 8.2397509E+00  4.2181473E+01
 8.2512503E+00  4.2194721E+01
 8.2627506E+00  4.2143513E+01
 8.2742500E+00  4.2047462E+01
 8.2857504E+00  4.1824093E+01
 8.2972507E+00  4.1551342E+01
 8.3087502E+00  4.1304539E+01
 8.3202505E+00  4.1156239E+01
 8.3317509E+00  4.1010956E+01
 8.3432503E+00  4.0918114E+01
 8.3547506E+00  4.0835884E+01
 8.3662500E+00  4.0796207E+01
 8.3777504E+00  4.0629101E+01
 8.3892508E+00  4.0412376E+01
 8.4007502E+00  4.0187931E+01
 8.4122505E+00  3.9916592E+01
 8.4237509E+00  3.9711327E+01
 8.4352503E+00  3.9502922E+01
 8.4467506E+00  3.9472790E+01
 8.4582500E+00  3.9445934E+01
 8.4697504E+00  3.9469494E+01
 8.4812508E+00  3.9345047E+01
 8.4927502E+00  3.9183125E+01
 8.5042505E+00  3.8950462E+01
 8.5157509E+00  3.8752625E+01
 8.5272503E+00  3.8533463E+01
 8.5387506E+00  3.8266445E+01
 8.5502501E+00  3.7998226E+01
 8.5617504E+00  3.7699253E+01
 8.5732508E+00  3.7450420E+01
 8.5847502E+00  3.7183720E+01
 8.5962505E+00  3.7015759E+01
 8.6077509E+00  3.6851471E+01
 8.6192503E+00  3.6776798E+01
 8.6307507E+00  3.6661282E+01
 8.6422501E+00  3.6593472E+01
 8.6537504E+00  3.6410748E+01
 8.6652508E+00  3.6332844E+01
 8.6767502E+00  3.6170689E+01
 8.6882505E+00  3.6090809E+01
 8.6997509E+00  3.5938961E+01
 8.7112503E+00  3.5752613E+01
 8.7227507E+00  3.5507263E+01
 8.7342501E+00  3.5229309E+01
 8.7457504E+00  3.4976532E+01
 8.7572508E+00  3.4830746E+01
 8.7687502E+00  3.4688534E+01
 8.7802505E+00  3.4546188E+01
 8.7917500E+00  3.4351994E+01
 8.8032503E+00  3.4179646E+01
 8.8147507E+00  3.3975380E+01
 8.8262501E+00  3.3832344E+01
 8.8377504E+00  3.3633724E+01
 8.8492508E+00  3.3496906E+01
 8.8607502E+00  3.3333473E+01
 8.8722506E+00  3.3241444E+01
 8.8837500E+00  3.3103451E+01
 8.8952503E+00  3.2935040E+01
 8.9067507E+00  3.2727074E+01
 8.9182501E+00  3.2578968E+01
 8.9297504E+00  3.2393570E+01
 8.9412508E+00  3.2210262E+01
 8.9527502E+00  3.2011856E+01
 8.9642506E+00  3.1846949E+01
 8.9757500E+00  3.1756617E+01
 8.9872503E+00  3.1651983E+01
 8.9987507E+00  3.1478764E+01
 9.0102501E+00  3.1333340E+01
 9.0217505E+00  3.1113068E+01
 9.0332508E+00  3.0992714E+01
 9.0447502E+00  3.0758268E+01
 9.0562506E+00  3.0657852E+01
 9.0677500E+00  3.0617050E+01
 9.0792503E+00  3.0666088E+01
 9.0907507E+00  3.0649582E+01
 9.1022501E+00  3.0545340E+01
 9.1137505E+00  3.0338642E+01
 9.1252508E+00  3.0068747E+01
 9.1367502E+00  2.9878094E+01
 9.1482506E+00  2.9783506E+01
 9.1597500E+00  2.9714195E+01
 9.1712503E+00  2.9583055E+01
 9.1827507E+00  2.9463095E+01
 9.1942501E+00  2.9398912E+01
 9.2057505E+00  2.9279882E+01
 9.2172508E+00  2.9161659E+01
 9.2287502E+00  2.8966906E+01
 9.2402506E+00  2.8878307E+01
 9.2517500E+00  2.8751909E+01
 9.2632504E+00  2.8606726E+01
 9.2747507E+00  2.8521713E+01
 9.2862501E+00  2.8442968E+01
 9.2977505E+00  2.8389118E+01
 9.3092508E+00  2.8304504E+01
 9.3207502E+00  2.8232796E+01
 9.3322506E+00  2.8150314E+01
 9.3437500E+00  2.8081833E+01
 9.3552504E+00  2.7892462E+01
 9.3667507E+00  2.7847004E+01
 9.3782501E+00  2.7767830E+01
 9.3897505E+00  2.7770018E+01
 9.4012508E+00  2.7711664E+01
 9.4127502E+00  2.7621315E+01
 9.4242506E+00  2.7562073E+01
 9.4357500E+00  2.7452364E+01
 9.4472504E+00  2.7433022E+01
 9.4587507E+00  2.7361618E+01
 9.4702501E+00  2.7371515E+01
 9.4817505E+00  2.7320942E+01
 9.4932508E+00  2.7284452E+01
 9.5047503E+00  2.7214985E+01
 9.5162506E+00  2.7092241E+01
 9.5277500E+00  2.6979881E+01
 9.5392504E+00  2.6825539E+01
 9.5507507E+00  2.6674755E+01
 9.5622501E+00  2.6532484E+01
 9.5737505E+00  2.6407373E+01
 9.5852509E+00  2.6366787E+01
 9.5967503E+00  2.6345007E+01
 9.6082506E+00  2.6351618E+01
 9.6197500E+00  2.6362831E+01
 9.6312504E+00  2.6308640E+01
 9.6427507E+00  2.6215595E+01
 9.6542501E+00  2.6123959E+01
 9.6657505E+00  2.6071198E+01
 9.6772509E+00  2.5973274E+01
 9.6887503E+00  2.5870201E+01
 9.7002506E+00  2.5796192E+01
 9.7117500E+00  2.5847626E+01
 9.7232504E+00  2.5863789E+01
 9.7347507E+00  2.5818233E+01
 9.7462502E+00  2.5760893E+01
 9.7577505E+00  2.5692772E+01
 9.7692509E+00  2.5681074E+01
 9.7807503E+00  2.5631926E+01
 9.7922506E+00  2.5669296E+01
 9.8037500E+00  2.5656641E+01
 9.8152504E+00  2.5604853E+01
 9.8267508E+00  2.5450640E+01
 9.8382502E+00  2.5348473E+01
 9.8497505E+00  2.5279350E+01
 9.8612509E+00  2.5220722E+01
 9.8727503E+00  2.5172287E+01
 9.8842506E+00  2.5106375E+01
 9.8957500E+00  2.5089281E+01
 9.9072504E+00  2.5026016E+01
 9.9187508E+00  2.5005800E+01
 9.9302502E+00  2.4935572E+01
 9.9417505E+00  2.4913191E+01
 9.9532509E+00  2.4819647E+01
 9.9647503E+00  2.4838335E+01
 9.9762506E+00  2.4792112E+01
 9.9877501E+00  2.4741842E+01
 9.9992504E+00  2.4655115E+01
 1.0010751E+01  2.4601667E+01
 1.0022250E+01  2.4633358E+01
 1.0033751E+01  2.4592718E+01
 1.0045251E+01  2.4580959E+01
 1.0056750E+01  2.4520393E+01
 1.0068251E+01  2.4507425E+01
 1.0079750E+01  2.4422462E+01
 1.0091250E+01  2.4430931E+01
 1.0102751E+01  2.4429392E+01
 1.0114250E+01  2.4455828E+01
 1.0125751E+01  2.4466856E+01
 1.0137251E+01  2.4423353E+01
 1.0148750E+01  2.4404034E+01
 1.0160251E+01  2.4377831E+01
 1.0171750E+01  2.4352160E+01
 1.0183250E+01  2.4379465E+01
 1.0194751E+01  2.4295567E+01
 1.0206250E+01  2.4317450E+01
 1.0217751E+01  2.4317923E+01
 1.0229251E+01  2.4325895E+01
 1.0240750E+01  2.4310146E+01
 1.0252251E+01  2.4230785E+01
 1.0263750E+01  2.4167109E+01
 1.0275250E+01  2.4083534E+01
 1.0286751E+01  2.4020418E+01
 1.0298250E+01  2.4025265E+01
 1.0309751E+01  2.3961023E+01
 1.0321251E+01  2.3917948E+01
 1.0332750E+01  2.3898064E+01
 1.0344251E+01  2.3920738E+01
 1.0355750E+01  2.3954294E+01
 1.0367250E+01  2.3901617E+01
 1.0378751E+01  2.3911264E+01
 1.0390250E+01  2.3957008E+01
 1.0401751E+01  2.3964151E+01
 1.0413251E+01  2.3936625E+01
 1.0424750E+01  2.3795876E+01
 1.0436251E+01  2.3769922E+01
 1.0447750E+01  2.3687666E+01
 1.0459250E+01  2.3697903E+01
 1.0470751E+01  2.3698521E+01
 1.0482250E+01  2.3759228E+01
 1.0493751E+01  2.3793192E+01
 1.0505251E+01  2.3767782E+01
 1.0516750E+01  2.3747744E+01
 1.0528251E+01  2.3728510E+01
 1.0539750E+01  2.3675234E+01
 1.0551250E+01  2.3568771E+01
 1.0562751E+01  2.3455446E+01
 1.0574250E+01  2.3372435E+01
 1.0585751E+01  2.3336971E+01
 1.0597251E+01  2.3281719E+01
 1.0608750E+01  2.3312899E+01
 1.0620251E+01  2.3312357E+01
 1.0631750E+01  2.3310730E+01
 1.0643250E+01  2.3284769E+01
 1.0654751E+01  2.3288475E+01
 1.0666250E+01  2.3298122E+01
 1.0677751E+01  2.3248188E+01
 1.0689251E+01  2.3213409E+01
 1.0700750E+01  2.3243134E+01
 1.0712251E+01  2.3267330E+01
 1.0723750E+01  2.3300430E+01
 1.0735250E+01  2.3245419E+01
 1.0746751E+01  2.3234226E+01
 1.0758250E+01  2.3215031E+01
 1.0769751E+01  2.3195866E+01
 1.0781251E+01  2.3167433E+01
 1.0792750E+01  2.3147497E+01
 1.0804251E+01  2.3147097E+01
 1.0815750E+01  2.3144474E+01
 1.0827250E+01  2.3140251E+01
 1.0838751E+01  2.3119459E+01
 1.0850250E+01  2.3133030E+01
 1.0861751E+01  2.3091896E+01
 1.0873251E+01  2.3110806E+01
 1.0884750E+01  2.3060345E+01
 1.0896251E+01  2.3001593E+01
 1.0907750E+01  2.2964962E+01
 1.0919250E+01  2.2907784E+01
 1.0930751E+01  2.2890102E+01
 1.0942250E+01  2.2844856E+01
 1.0953751E+01  2.2942152E+01
 1.0965251E+01  2.2991722E+01
 1.0976750E+01  2.3005535E+01
 1.0988251E+01  2.2916431E+01
 1.0999750E+01  2.2843086E+01
 1.1011250E+01  2.2843933E+01
 1.1022751E+01  2.2868126E+01
 1.1034250E+01  2.2909824E+01
 1.1045751E+01  2.2889021E+01
 1.1057251E+01  2.2862856E+01
 1.1068750E+01  2.2801588E+01
 1.1080251E+01  2.2790209E+01
 1.1091750E+01  2.2751247E+01
 1.1103251E+01  2.2793953E+01
 1.1114751E+01  2.2801079E+01
 1.1126250E+01  2.2895224E+01
 1.1137751E+01  2.2976812E+01
 1.1149251E+01  2.3002232E+01
 1.1160750E+01  2.2987562E+01
 1.1172251E+01  2.2890465E+01
 1.1183750E+01  2.2844145E+01
 1.1195251E+01  2.2744934E+01
 1.1206751E+01  2.2729307E+01
 1.1218250E+01  2.2663132E+01
 1.1229751E+01  2.2666597E+01
 1.1241251E+01  2.2643768E+01
 1.1252750E+01  2.2657183E+01
 1.1264251E+01  2.2617456E+01
 1.1275750E+01  2.2626030E+01
 1.1287251E+01  2.2581335E+01
 1.1298751E+01  2.2576815E+01
 1.1310250E+01  2.2551222E+01
 1.1321751E+01  2.2525768E+01
 1.1333251E+01  2.2541880E+01
 1.1344750E+01  2.2501305E+01
 1.1356251E+01  2.2562824E+01
 1.1367750E+01  2.2630756E+01
 1.1379251E+01  2.2692333E+01
 1.1390751E+01  2.2763832E+01
 1.1402250E+01  2.2882254E+01
 1.1413751E+01  2.2949497E+01
 1.1425251E+01  2.3012341E+01
 1.1436750E+01  2.3018187E+01
 1.1448251E+01  2.3073334E+01
 1.1459750E+01  2.3091232E+01
 1.1471251E+01  2.3060173E+01
 1.1482751E+01  2.3019501E+01
 1.1494250E+01  2.2980259E+01
 1.1505751E+01  2.2948145E+01
 1.1517251E+01  2.3008905E+01
 1.1528750E+01  2.3192869E+01
 1.1540251E+01  2.3483532E+01
 1.1551750E+01  2.3956203E+01
 1.1563251E+01  2.4481787E+01
 1.1574751E+01  2.4949045E+01
 1.1586250E+01  2.5282984E+01
 1.1597751E+01  2.5265171E+01
 1.1609251E+01  2.4967733E+01
 1.1620750E+01  2.4424320E+01
 1.1632251E+01  2.3861712E+01
 1.1643750E+01  2.3407948E+01
 1.1655251E+01  2.3057642E+01
 1.1666751E+01  2.2853605E+01
 1.1678250E+01  2.2705685E+01
 1.1689751E+01  2.2608641E+01
 1.1701251E+01  2.2581499E+01
 1.1712750E+01  2.2574020E+01
 1.1724251E+01  2.2630766E+01
 1.1735750E+01  2.2651442E+01
 1.1747251E+01  2.2734278E+01
 1.1758751E+01  2.2726650E+01
 1.1770250E+01  2.2677998E+01
 1.1781751E+01  2.2608231E+01
 1.1793251E+01  2.2554655E+01
 1.1804750E+01  2.2482908E+01
 1.1816251E+01  2.2449898E+01
 1.1827750E+01  2.2412523E+01
 1.1839251E+01  2.2472044E+01
 1.1850751E+01  2.2468189E+01
 1.1862250E+01  2.2530771E+01
 1.1873751E+01  2.2536770E+01
 1.1885251E+01  2.2522169E+01
 1.1896750E+01  2.2521936E+01
 1.1908251E+01  2.2520992E+01
 1.1919750E+01  2.2588327E+01
 1.1931251E+01  2.2635094E+01
 1.1942751E+01  2.2741842E+01
 1.1954250E+01  2.2806763E+01
 1.1965751E+01  2.2889423E+01
 1.1977251E+01  2.2912014E+01
 1.1988750E+01  2.2952473E+01
 1.2000251E+01  2.2893440E+01
 1.2011750E+01  2.2870331E+01
 1.2023251E+01  2.2795523E+01
 1.2034751E+01  2.2784822E+01
 1.2046250E+01  2.2786928E+01
 1.2057751E+01  2.2824438E+01
 1.2069251E+01  2.2939653E+01
 1.2080750E+01  2.3047220E+01
 1.2092251E+01  2.3164007E+01
 1.2103750E+01  2.3183208E+01
 1.2115251E+01  2.3095930E+01
 1.2126751E+01  2.3017517E+01
 1.2138250E+01  2.2918407E+01
 1.2149751E+01  2.2878702E+01
 1.2161251E+01  2.2859795E+01
 1.2172750E+01  2.2834957E+01
 1.2184251E+01  2.2886005E+01
 1.2195750E+01  2.2837870E+01
 1.2207251E+01  2.2832272E+01
 1.2218751E+01  2.2762701E+01
 1.2230250E+01  2.2726494E+01
 1.2241751E+01  2.2684433E+01
 1.2253251E+01  2.2648991E+01
 1.2264750E+01  2.2673693E+01
 1.2276251E+01  2.2675690E+01
 1.2287750E+01  2.2706347E+01
 1.2299251E+01  2.2682646E+01
 1.2310751E+01  2.2727501E+01
 1.2322250E+01  2.2725702E+01
 1.2333751E+01  2.2797129E+01
 1.2345250E+01  2.2796453E+01
 1.2356750E+01  2.2812519E+01
 1.2368251E+01  2.2744541E+01
 1.2379750E+01  2.2732046E+01
 1.2391251E+01  2.2693544E+01
 1.2402751E+01  2.2649845E+01
 1.2414250E+01  2.2627899E+01
 1.2425751E+01  2.2622711E+01
 1.2437250E+01  2.2691366E+01
 1.2448750E+01  2.2720949E+01
 1.2460251E+01  2.2788246E+01
 1.2471750E+01  2.2826801E+01
 1.2483251E+01  2.2873564E+01
 1.2494751E+01  2.2819386E+01
 1.2506250E+01  2.2803408E+01
 1.2517751E+01  2.2701817E+01
 1.2529250E+01  2.2711285E+01
 1.2540751E+01  2.2670832E+01
 1.2552251E+01  2.2745514E+01
 1.2563750E+01  2.2741003E+01
 1.2575251E+01  2.2805271E+01
 1.2586751E+01  2.2820951E+01
 1.2598250E+01  2.2886236E+01
 1.2609751E+01  2.2896444E+01
 1.2621250E+01  2.2951571E+01
 1.2632751E+01  2.2990957E+01
 1.2644251E+01  2.3013826E+01
 1.2655750E+01  2.3020416E+01
 1.2667251E+01  2.3040169E+01
 1.2678751E+01  2.3062376E+01
 1.2690250E+01  2.3071241E+01
 1.2701751E+01  2.3068380E+01
 1.2713250E+01  2.3101973E+01
 1.2724751E+01  2.3141918E+01
 1.2736251E+01  2.3205490E+01
 1.2747750E+01  2.3294626E+01
 1.2759251E+01  2.3367865E+01
 1.2770751E+01  2.3385660E+01
 1.2782250E+01  2.3409296E+01
 1.2793751E+01  2.3391792E+01
 1.2805250E+01  2.3461876E+01
 1.2816751E+01  2.3474270E+01
 1.2828251E+01  2.3533133E+01
 1.2839750E+01  2.3540049E+01
 1.2851251E+01  2.3546871E+01
 1.2862751E+01  2.3574005E+01
 1.2874250E+01  2.3582481E+01
 1.2885751E+01  2.3545328E+01
 1.2897250E+01  2.3553837E+01
 1.2908751E+01  2.3603779E+01
 1.2920251E+01  2.3742481E+01
 1.2931750E+01  2.3834602E+01
 1.2943251E+01  2.3900106E+01
 1.2954751E+01  2.3930042E+01
 1.2966250E+01  2.3969879E+01
 1.2977751E+01  2.3954960E+01
 1.2989250E+01  2.4001656E+01
 1.3000751E+01  2.4040281E+01
 1.3012251E+01  2.4095861E+01
 1.3023750E+01  2.4149179E+01
 1.3035251E+01  2.4202469E+01
 1.3046751E+01  2.4346840E+01
 1.3058250E+01  2.4461182E+01
 1.3069751E+01  2.4567410E+01
 1.3081250E+01  2.4659117E+01
 1.3092751E+01  2.4792366E+01
 1.3104251E+01  2.4965851E+01
 1.3115750E+01  2.5124723E+01
 1.3127251E+01  2.5222334E+01
 1.3138751E+01  2.5308857E+01
 1.3150250E+01  2.5390339E+01
 1.3161751E+01  2.5493822E+01
 1.3173250E+01  2.5596813E+01
 1.3184751E+01  2.5712509E+01
 1.3196251E+01  2.5838833E+01
 1.3207750E+01  2.5923141E+01
 1.3219251E+01  2.6057823E+01
 1.3230751E+01  2.6249201E+01
 1.3242250E+01  2.6469761E+01
 1.3253751E+01  2.6607117E+01
 1.3265250E+01  2.6731464E+01
 1.3276751E+01  2.6885807E+01
 1.3288251E+01  2.7068296E+01
 1.3299750E+01  2.7209503E+01
 1.3311251E+01  2.7265507E+01
 1.3322751E+01  2.7402451E+01
 1.3334250E+01  2.7554556E+01
 1.3345751E+01  2.7780277E+01
 1.3357250E+01  2.7977243E+01
 1.3368751E+01  2.8101122E+01
 1.3380251E+01  2.8270809E+01
 1.3391750E+01  2.8364763E+01
 1.3403251E+01  2.8510265E+01
 1.3414751E+01  2.8623749E+01
 1.3426250E+01  2.8755053E+01
 1.3437751E+01  2.8889118E+01
 1.3449250E+01  2.8979000E+01
 1.3460751E+01  2.9023928E+01
 1.3472251E+01  2.9099331E+01
 1.3483750E+01  2.9244724E+01
 1.3495251E+01  2.9407896E+01
 1.3506751E+01  2.9557526E+01
 1.3518250E+01  2.9646513E+01
 1.3529751E+01  2.9721134E+01
 1.3541250E+01  2.9774750E+01
 1.3552751E+01  2.9848291E+01
 1.3564251E+01  2.9963335E+01
 1.3575750E+01  2.9990543E+01
 1.3587251E+01  2.9981760E+01
 1.3598751E+01  2.9965061E+01
 1.3610250E+01  2.9950806E+01
 1.3621751E+01  2.9912970E+01
 1.3633250E+01  2.9878363E+01
 1.3644751E+01  2.9887737E+01
 1.3656251E+01  2.9867882E+01
 1.3667750E+01  2.9879395E+01
 1.3679251E+01  2.9842915E+01
 1.3690751E+01  2.9825108E+01
 1.3702250E+01  2.9722084E+01
 1.3713751E+01  2.9665178E+01
 1.3725250E+01  2.9617937E+01
 1.3736751E+01  2.9612383E+01
 1.3748251E+01  2.9573992E+01
 1.3759750E+01  2.9516367E+01
 1.3771251E+01  2.9485397E+01
 1.3782751E+01  2.9501612E+01
 1.3794250E+01  2.9531252E+01
 1.3805751E+01  2.9513796E+01
 1.3817250E+01  2.9467382E+01
 1.3828751E+01  2.9327080E+01
 1.3840251E+01  2.9242046E+01
 1.3851750E+01  2.9224701E+01
 1.3863251E+01  2.9283947E+01
 1.3874751E+01  2.9413408E+01
 1.3886250E+01  2.9553816E+01
 1.3897751E+01  2.9943466E+01
 1.3909250E+01  3.0338236E+01
 1.3920751E+01  3.0958006E+01
 1.3932251E+01  3.1609335E+01
 1.3943750E+01  3.2146015E+01
 1.3955251E+01  3.2327667E+01
 1.3966751E+01  3.2151844E+01
 1.3978251E+01  3.1466793E+01
 1.3989751E+01  3.0596603E+01
 1.4001250E+01  2.9673018E+01
 1.4012751E+01  2.9052822E+01
 1.4024251E+01  2.8510639E+01
 1.4035750E+01  2.8141314E+01
 1.4047251E+01  2.7966190E+01
 1.4058751E+01  2.7797504E+01
 1.4070251E+01  2.7760254E+01
 1.4081751E+01  2.7638128E+01
 1.4093250E+01  2.7618843E+01
 1.4104751E+01  2.7554613E+01
 1.4116251E+01  2.7460188E+01
 1.4127750E+01  2.7362722E+01
 1.4139251E+01  2.7220348E+01
 1.4150751E+01  2.7145723E+01
 1.4162251E+01  2.7063978E+01
 1.4173751E+01  2.6998816E+01
 1.4185250E+01  2.6938835E+01
 1.4196751E+01  2.6875099E+01
 1.4208251E+01  2.6853670E+01
 1.4219750E+01  2.6841400E+01
 1.4231251E+01  2.6778551E+01
 1.4242751E+01  2.6751524E+01
 1.4254251E+01  2.6645725E+01
 1.4265751E+01  2.6612333E+01
 1.4277250E+01  2.6487110E+01
 1.4288751E+01  2.6487038E+01
 1.4300251E+01  2.6431124E+01
 1.4311750E+01  2.6375145E+01
 1.4323251E+01  2.6297909E+01
 1.4334751E+01  2.6300514E+01
 1.4346251E+01  2.6313259E+01
 1.4357751E+01  2.6296782E+01
 1.4369250E+01  2.6256834E+01
 1.4380751E+01  2.6179455E+01
 1.4392251E+01  2.6111740E+01
 1.4403750E+01  2.6033789E+01
 1.4415251E+01  2.6032667E+01
 1.4426751E+01  2.5990381E+01
 1.4438251E+01  2.5951567E+01
 1.4449751E+01  2.5895063E+01
 1.4461250E+01  2.5837831E+01
 1.4472751E+01  2.5830809E+01
 1.4484251E+01  2.5781483E+01
 1.4495750E+01  2.5772148E+01
 1.4507251E+01  2.5748930E+01
 1.4518751E+01  2.5697155E+01
 1.4530251E+01  2.5719210E+01
 1.4541751E+01  2.5678757E+01
 1.4553250E+01  2.5764322E+01
 1.4564751E+01  2.5699909E+01
 1.4576251E+01  2.5633570E+01
 1.4587750E+01  2.5530880E+01
 1.4599251E+01  2.5431974E+01
 1.4610751E+01  2.5429790E+01
 1.4622251E+01  2.5377134E+01
 1.4633751E+01  2.5434620E+01
 1.4645250E+01  2.5465540E+01
 1.4656751E+01  2.5513710E+01
 1.4668251E+01  2.5494249E+01
 1.4679750E+01  2.5464399E+01
 1.4691251E+01  2.5423592E+01
 1.4702751E+01  2.5397079E+01
 1.4714251E+01  2.5349464E+01
 1.4725751E+01  2.5325764E+01
 1.4737250E+01  2.5275852E+01
 1.4748751E+01  2.5264811E+01
 1.4760251E+01  2.5191860E+01
 1.4771750E+01  2.5250639E+01
 1.4783251E+01  2.5239820E+01
 1.4794751E+01  2.5298498E+01
 1.4806251E+01  2.5247860E+01
 1.4817751E+01  2.5251047E+01
 1.4829250E+01  2.5186907E+01
 1.4840751E+01  2.5183977E+01
 1.4852251E+01  2.5133160E+01
 1.4863750E+01  2.5082819E+01
 1.4875251E+01  2.4994808E+01
 1.4886751E+01  2.4955624E+01
 1.4898251E+01  2.5012264E+01
 1.4909751E+01  2.5076616E+01
 1.4921250E+01  2.5092419E+01
 1.4932751E+01  2.5113958E+01
 1.4944251E+01  2.5093681E+01
 1.4955750E+01  2.5061705E+01
 1.4967251E+01  2.4994209E+01
 1.4978751E+01  2.4989056E+01
 1.4990251E+01  2.4977045E+01
 1.5001751E+01  2.4968672E+01
 1.5013250E+01  2.4952377E+01
 1.5024751E+01  2.4942501E+01
 1.5036251E+01  2.4938543E+01
 1.5047750E+01  2.4912151E+01
 1.5059251E+01  2.4944864E+01
 1.5070751E+01  2.4951200E+01
 1.5082251E+01  2.4960768E+01
 1.5093751E+01  2.4966667E+01
 1.5105250E+01  2.4975533E+01
 1.5116751E+01  2.4929953E+01
 1.5128251E+01  2.4917179E+01
 1.5139750E+01  2.4911650E+01
 1.5151251E+01  2.4989052E+01
 1.5162751E+01  2.5073776E+01
 1.5174251E+01  2.5185028E+01
 1.5185751E+01  2.5266230E+01
 1.5197250E+01  2.5301664E+01
 1.5208751E+01  2.5290195E+01
 1.5220251E+01  2.5241983E+01
 1.5231750E+01  2.5119356E+01
 1.5243251E+01  2.4964161E+01
 1.5254751E+01  2.4874235E+01
 1.5266251E+01  2.4754112E+01
 1.5277751E+01  2.4723598E+01
 1.5289250E+01  2.4706253E+01
 1.5300751E+01  2.4719816E+01
 1.5312251E+01  2.4729544E+01
 1.5323750E+01  2.4679726E+01
 1.5335251E+01  2.4693819E+01
 1.5346751E+01  2.4709852E+01
 1.5358251E+01  2.4768755E+01
 1.5369751E+01  2.4794437E+01
 1.5381250E+01  2.4772795E+01
 1.5392751E+01  2.4741064E+01
 1.5404251E+01  2.4695772E+01
 1.5415751E+01  2.4691797E+01
 1.5427251E+01  2.4736870E+01
 1.5438751E+01  2.4769194E+01
 1.5450251E+01  2.4722485E+01
 1.5461751E+01  2.4663071E+01
 1.5473250E+01  2.4637054E+01
 1.5484751E+01  2.4629503E+01
 1.5496251E+01  2.4622728E+01
 1.5507751E+01  2.4638771E+01
 1.5519251E+01  2.4709185E+01
 1.5530751E+01  2.4721943E+01
 1.5542251E+01  2.4733587E+01
 1.5553751E+01  2.4683886E+01
 1.5565250E+01  2.4679518E+01
 1.5576751E+01  2.4647415E+01
 1.5588251E+01  2.4653118E+01
 1.5599751E+01  2.4647095E+01
 1.5611251E+01  2.4630751E+01
 1.5622751E+01  2.4603046E+01
 1.5634251E+01  2.4623564E+01
 1.5645751E+01  2.4667700E+01
 1.5657250E+01  2.4729757E+01
 1.5668751E+01  2.4783789E+01
 1.5680251E+01  2.4838631E+01
 1.5691751E+01  2.4867336E+01
 1.5703251E+01  2.4909304E+01
 1.5714751E+01  2.4892761E+01
 1.5726251E+01  2.4878088E+01
 1.5737751E+01  2.4820898E+01
 1.5749250E+01  2.4841778E+01
 1.5760751E+01  2.4869133E+01
 1.5772251E+01  2.4939224E+01
 1.5783751E+01  2.4903616E+01
 1.5795251E+01  2.4866062E+01
 1.5806751E+01  2.4797256E+01
 1.5818251E+01  2.4766151E+01
 1.5829751E+01  2.4709217E+01
 1.5841250E+01  2.4729242E+01
 1.5852751E+01  2.4778910E+01
 1.5864251E+01  2.4779999E+01
 1.5875751E+01  2.4756979E+01
 1.5887251E+01  2.4757711E+01
 1.5898750E+01  2.4732485E+01
 1.5910251E+01  2.4738089E+01
 1.5921751E+01  2.4724693E+01
 1.5933250E+01  2.4795414E+01
 1.5944751E+01  2.4795458E+01
 1.5956251E+01  2.4790657E+01
 1.5967751E+01  2.4766687E+01
 1.5979251E+01  2.4747753E+01
 1.5990750E+01  2.4787243E+01
 1.6002251E+01  2.4842123E+01
 1.6013750E+01  2.4907413E+01
 1.6025251E+01  2.4915319E+01
 1.6036751E+01  2.4875048E+01
 1.6048250E+01  2.4868240E+01
 1.6059752E+01  2.4933727E+01
 1.6071251E+01  2.4989576E+01
 1.6082750E+01  2.5063665E+01
 1.6094252E+01  2.5041185E+01
 1.6105751E+01  2.5116926E+01
 1.6117250E+01  2.5105850E+01
 1.6128750E+01  2.5160601E+01
 1.6140251E+01  2.5177866E+01
 1.6151751E+01  2.5221346E+01
 1.6163250E+01  2.5376190E+01
 1.6174751E+01  2.5380955E+01
 1.6186251E+01  2.6120895E+01
 1.6197750E+01  2.6140268E+01
 1.6209251E+01  2.7670916E+01
 1.6220751E+01  2.7665627E+01
 1.6232250E+01  2.9033665E+01
 1.6243752E+01  2.8847973E+01
 1.6255251E+01  2.9029827E+01
 1.6266750E+01  2.8661345E+01
 1.6278252E+01  2.7677780E+01
 1.6289751E+01  2.7346796E+01
 1.6301250E+01  2.6080582E+01
 1.6312750E+01  2.6054117E+01
 1.6324251E+01  2.5339272E+01
 1.6335751E+01  2.5374603E+01
 1.6347250E+01  2.5021482E+01
 1.6358751E+01  2.4980848E+01
 1.6370251E+01  2.4896902E+01
 1.6381750E+01  2.4926273E+01
 1.6393251E+01  2.5006718E+01
 1.6404751E+01  2.5023794E+01
 1.6416250E+01  2.5080610E+01
 1.6427752E+01  2.5030331E+01
 1.6439251E+01  2.5017971E+01
 1.6450750E+01  2.4922070E+01
 1.6462252E+01  2.4901640E+01
 1.6473751E+01  2.4837391E+01
 1.6485250E+01  2.4838057E+01
 1.6496750E+01  2.4798143E+01
 1.6508251E+01  2.4827850E+01
 1.6519751E+01  2.4862036E+01
 1.6531250E+01  2.4853703E+01
 1.6542751E+01  2.4898405E+01
 1.6554251E+01  2.4865452E+01
 1.6565750E+01  2.4896851E+01
 1.6577251E+01  2.4822950E+01
 1.6588751E+01  2.4822699E+01
 1.6600250E+01  2.4809076E+01
 1.6611752E+01  2.4850763E+01
 1.6623251E+01  2.4832895E+01
 1.6634750E+01  2.4837057E+01
 1.6646252E+01  2.4824217E+01
 1.6657751E+01  2.4802168E+01
 1.6669250E+01  2.4763525E+01
 1.6680750E+01  2.4763788E+01
 1.6692251E+01  2.4811842E+01
 1.6703751E+01  2.4781996E+01
 1.6715250E+01  2.4770784E+01
 1.6726751E+01  2.4742617E+01
 1.6738251E+01  2.4740675E+01
 1.6749750E+01  2.4764181E+01
 1.6761251E+01  2.4717588E+01
 1.6772751E+01  2.4730991E+01
 1.6784250E+01  2.4626923E+01
 1.6795752E+01  2.4616144E+01
 1.6807251E+01  2.4574043E+01
 1.6818750E+01  2.4546741E+01
 1.6830252E+01  2.4537081E+01
 1.6841751E+01  2.4522074E+01
 1.6853251E+01  2.4523178E+01
 1.6864750E+01  2.4563568E+01
 1.6876251E+01  2.4547188E+01
 1.6887751E+01  2.4535412E+01
 1.6899250E+01  2.4515139E+01
 1.6910751E+01  2.4553339E+01
 1.6922251E+01  2.4568504E+01
 1.6933750E+01  2.4548571E+01
 1.6945251E+01  2.4570171E+01
 1.6956751E+01  2.4508755E+01
 1.6968250E+01  2.4458998E+01
 1.6979752E+01  2.4422558E+01
 1.6991251E+01  2.4451612E+01
 1.7002750E+01  2.4477865E+01
 1.7014252E+01  2.4488441E+01
 1.7025751E+01  2.4515318E+01
 1.7037251E+01  2.4478281E+01
 1.7048750E+01  2.4383806E+01
 1.7060251E+01  2.4330351E+01
 1.7071751E+01  2.4303551E+01
 1.7083250E+01  2.4362400E+01
 1.7094751E+01  2.4427963E+01
 1.7106251E+01  2.4455992E+01
 1.7117750E+01  2.4447653E+01
 1.7129251E+01  2.4505777E+01
 1.7140751E+01  2.4534800E+01
 1.7152250E+01  2.4472843E+01
 1.7163752E+01  2.4331682E+01
 1.7175251E+01  2.4300011E+01
 1.7186750E+01  2.4268417E+01
 1.7198252E+01  2.4275576E+01
 1.7209751E+01  2.4270025E+01
 1.7221251E+01  2.4316074E+01
 1.7232750E+01  2.4343365E+01
 1.7244251E+01  2.4349386E+01
 1.7255751E+01  2.4291779E+01
 1.7267250E+01  2.4284359E+01
 1.7278751E+01  2.4241289E+01
 1.7290251E+01  2.4251818E+01
 1.7301750E+01  2.4238798E+01
 1.7313251E+01  2.4237387E+01
 1.7324751E+01  2.4234350E+01
 1.7336250E+01  2.4228605E+01
 1.7347752E+01  2.4218761E+01
 1.7359251E+01  2.4195736E+01
 1.7370750E+01  2.4197540E+01
 1.7382252E+01  2.4190048E+01
 1.7393751E+01  2.4196892E+01
 1.7405251E+01  2.4169416E+01
 1.7416750E+01  2.4144310E+01
 1.7428251E+01  2.4125782E+01
 1.7439751E+01  2.4072180E+01
 1.7451250E+01  2.4060463E+01
 1.7462751E+01  2.4044327E+01
 1.7474251E+01  2.4047157E+01
 1.7485750E+01  2.4058163E+01
 1.7497252E+01  2.4060904E+01
 1.7508751E+01  2.4084126E+01
 1.7520250E+01  2.4060654E+01
 1.7531752E+01  2.4075872E+01
 1.7543251E+01  2.4069162E+01
 1.7554750E+01  2.4055361E+01
 1.7566252E+01  2.4027044E+01
 1.7577751E+01  2.4023277E+01
 1.7589251E+01  2.4044294E+01
 1.7600750E+01  2.4078066E+01
 1.7612251E+01  2.4052761E+01
 1.7623751E+01  2.4055775E+01
 1.7635250E+01  2.4011354E+01
 1.7646751E+01  2.3965271E+01
 1.7658251E+01  2.3910652E+01
 1.7669750E+01  2.3946980E+01
 1.7681252E+01  2.3974834E+01
 1.7692751E+01  2.4030289E+01
 1.7704250E+01  2.3984701E+01
 1.7715752E+01  2.3955257E+01
 1.7727251E+01  2.3878996E+01
 1.7738750E+01  2.3970829E+01
 1.7750252E+01  2.4192047E+01
 1.7761751E+01  2.4503845E+01
 1.7773251E+01  2.4819643E+01
 1.7784750E+01  2.4966478E+01
 1.7796251E+01  2.4810181E+01
 1.7807751E+01  2.4366682E+01
 1.7819250E+01  2.4001434E+01
 1.7830751E+01  2.3888155E+01
 1.7842251E+01  2.3884392E+01
 1.7853750E+01  2.3889280E+01
 1.7865252E+01  2.3913397E+01
 1.7876751E+01  2.3927834E+01
 1.7888250E+01  2.3948391E+01
 1.7899752E+01  2.3955261E+01
 1.7911251E+01  2.3965860E+01
 1.7922750E+01  2.3939039E+01
 1.7934252E+01  2.3862413E+01
 1.7945751E+01  2.3823526E+01
 1.7957251E+01  2.3854620E+01
 1.7968750E+01  2.3944286E+01
 1.7980251E+01  2.3998589E+01
 1.7991751E+01  2.4017056E+01
 1.8003250E+01  2.4008326E+01
 1.8014751E+01  2.3940668E+01
 1.8026251E+01  2.3916956E+01
 1.8037750E+01  2.3879271E+01
 1.8049252E+01  2.3941431E+01
 1.8060751E+01  2.4021711E+01
 1.8072250E+01  2.4106266E+01
 1.8083752E+01  2.4192181E+01
 1.8095251E+01  2.4233398E+01
 1.8106750E+01  2.4232622E+01
 1.8118252E+01  2.4215660E+01
 1.8129751E+01  2.4175634E+01
 1.8141251E+01  2.4068134E+01
 1.8152750E+01  2.3973015E+01
 1.8164251E+01  2.3906067E+01
 1.8175751E+01  2.3863842E+01
 1.8187250E+01  2.3792763E+01
 1.8198751E+01  2.3795736E+01
 1.8210251E+01  2.3820551E+01
 1.8221750E+01  2.3805410E+01
 1.8233252E+01  2.3782413E+01
 1.8244751E+01  2.3770916E+01
 1.8256250E+01  2.3753532E+01
 1.8267752E+01  2.3742847E+01
 1.8279251E+01  2.3744211E+01
 1.8290751E+01  2.3770987E+01
 1.8302252E+01  2.3779089E+01
 1.8313751E+01  2.3738888E+01
 1.8325251E+01  2.3672379E+01
 1.8336750E+01  2.3629490E+01
 1.8348251E+01  2.3648031E+01
 1.8359751E+01  2.3705618E+01
 1.8371250E+01  2.3738678E+01
 1.8382751E+01  2.3774208E+01
 1.8394251E+01  2.3795258E+01
 1.8405750E+01  2.3808640E+01
 1.8417252E+01  2.3792814E+01
 1.8428751E+01  2.3816885E+01
 1.8440250E+01  2.3818756E+01
 1.8451752E+01  2.3809877E+01
 1.8463251E+01  2.3782091E+01
 1.8474751E+01  2.3763231E+01
 1.8486252E+01  2.3719429E+01
 1.8497751E+01  2.3669037E+01
 1.8509251E+01  2.3650995E+01
 1.8520750E+01  2.3654545E+01
 1.8532251E+01  2.3663536E+01
 1.8543751E+01  2.3659468E+01
 1.8555250E+01  2.3687386E+01
 1.8566751E+01  2.3706152E+01
 1.8578251E+01  2.3726137E+01
 1.8589750E+01  2.3719496E+01
 1.8601252E+01  2.3711386E+01
 1.8612751E+01  2.3719442E+01
 1.8624250E+01  2.3765709E+01
 1.8635752E+01  2.3811886E+01
 1.8647251E+01  2.3761946E+01
 1.8658751E+01  2.3677456E+01
 1.8670252E+01  2.3661127E+01
 1.8681751E+01  2.3665701E+01
 1.8693251E+01  2.3673737E+01
 1.8704750E+01  2.3659472E+01
 1.8716251E+01  2.3656202E+01
 1.8727751E+01  2.3630529E+01
 1.8739250E+01  2.3631947E+01
 1.8750751E+01  2.3627939E+01
 1.8762251E+01  2.3646400E+01
 1.8773750E+01  2.3577692E+01
 1.8785252E+01  2.3575607E+01
 1.8796751E+01  2.3575541E+01
 1.8808250E+01  2.3566141E+01
 1.8819752E+01  2.3542692E+01
 1.8831251E+01  2.3496254E+01
 1.8842751E+01  2.3520176E+01
 1.8854252E+01  2.3489414E+01
 1.8865751E+01  2.3491358E+01
 1.8877251E+01  2.3531275E+01
 1.8888750E+01  2.3580540E+01
 1.8900251E+01  2.3624893E+01
 1.8911751E+01  2.3632706E+01
 1.8923250E+01  2.3690872E+01
 1.8934752E+01  2.3727081E+01
 1.8946251E+01  2.3752119E+01
 1.8957750E+01  2.3736551E+01
 1.8969252E+01  2.3705725E+01
 1.8980751E+01  2.3683857E+01
 1.8992250E+01  2.3680141E+01
 1.9003752E+01  2.3678410E+01
 1.9015251E+01  2.3690550E+01
 1.9026751E+01  2.3736639E+01
 1.9038252E+01  2.3735889E+01
 1.9049751E+01  2.3722281E+01
 1.9061251E+01  2.3707592E+01
 1.9072750E+01  2.3681631E+01
 1.9084251E+01  2.3645893E+01
 1.9095751E+01  2.3594269E+01
 1.9107250E+01  2.3588631E+01
 1.9118752E+01  2.3570988E+01
 1.9130251E+01  2.3604139E+01
 1.9141750E+01  2.3634771E+01
 1.9153252E+01  2.3701977E+01
 1.9164751E+01  2.3714869E+01
 1.9176250E+01  2.3706903E+01
 1.9187752E+01  2.3672054E+01
 1.9199251E+01  2.3654852E+01
 1.9210751E+01  2.3668554E+01
 1.9222252E+01  2.3640278E+01
 1.9233751E+01  2.3617336E+01
 1.9245251E+01  2.3571997E+01
 1.9256750E+01  2.3612896E+01
 1.9268251E+01  2.3767836E+01
 1.9279751E+01  2.3939470E+01
 1.9291250E+01  2.4124439E+01
 1.9302752E+01  2.5029400E+01
 1.9314251E+01  2.5064713E+01
 1.9325750E+01  2.4799982E+01
 1.9337252E+01  2.3850924E+01
 1.9348751E+01  2.3845779E+01
 1.9360250E+01  2.3717287E+01
 1.9371752E+01  2.3745792E+01
 1.9383251E+01  2.3744383E+01
 1.9394751E+01  2.3795218E+01
 1.9406250E+01  2.3770864E+01
 1.9417751E+01  2.3802319E+01
 1.9429251E+01  2.3785032E+01
 1.9440750E+01  2.3776171E+01
 1.9452251E+01  2.3742096E+01
 1.9463751E+01  2.3734364E+01
 1.9475250E+01  2.3722933E+01
 1.9486752E+01  2.3705418E+01
 1.9498251E+01  2.3624723E+01
 1.9509750E+01  2.3637609E+01
 1.9521252E+01  2.3670071E+01
 1.9532751E+01  2.3723650E+01
 1.9544250E+01  2.3739592E+01
 1.9555752E+01  2.3742235E+01
 1.9567251E+01  2.3765213E+01
 1.9578751E+01  2.3753075E+01
 1.9590250E+01  2.3742546E+01
 1.9601751E+01  2.3692429E+01
 1.9613251E+01  2.3701019E+01
 1.9624750E+01  2.3710266E+01
 1.9636251E+01  2.3755241E+01
 1.9647751E+01  2.3843399E+01
 1.9659250E+01  2.3941973E+01
 1.9670752E+01  2.4019464E+01
 1.9682251E+01  2.4132900E+01
 1.9693750E+01  2.4247236E+01
 1.9705252E+01  2.4330801E+01
 1.9716751E+01  2.4364796E+01
 1.9728251E+01  2.4382238E+01
 1.9739752E+01  2.4328131E+01
 1.9751251E+01  2.4228226E+01
 1.9762751E+01  2.4143133E+01
 1.9774250E+01  2.4047459E+01
 1.9785751E+01  2.4027565E+01
 1.9797251E+01  2.4021549E+01
 1.9808750E+01  2.4122892E+01
 1.9820251E+01  2.4187834E+01
 1.9831751E+01  2.4463875E+01
 1.9843250E+01  2.4583143E+01
 1.9854752E+01  2.4679155E+01
 1.9866251E+01  2.4637024E+01
 1.9877750E+01  2.4590462E+01
 1.9889252E+01  2.4492764E+01
 1.9900751E+01  2.4355978E+01
 1.9912251E+01  2.4237576E+01
 1.9923752E+01  2.4067038E+01
 1.9935251E+01  2.3933882E+01
 1.9946751E+01  2.3861801E+01
 1.9958250E+01  2.3791862E+01
 1.9969751E+01  2.3818834E+01
 1.9981251E+01  2.3820007E+01
 1.9992750E+01  2.3848207E+01
 2.0004251E+01  2.3822033E+01
 2.0015751E+01  2.3809643E+01
 2.0027250E+01  2.3788677E+01
 2.0038752E+01  2.3788343E+01
 2.0050251E+01  2.3771240E+01
 2.0061750E+01  2.3777830E+01
 2.0073252E+01  2.3759598E+01
 2.0084751E+01  2.3755419E+01
 2.0096251E+01  2.3758284E+01
 2.0107752E+01  2.3771711E+01
 2.0119251E+01  2.3826733E+01
 2.0130751E+01  2.3846792E+01
 2.0142250E+01  2.3895151E+01
 2.0153751E+01  2.3911030E+01
 2.0165251E+01  2.3956858E+01
 2.0176750E+01  2.3961355E+01
 2.0188251E+01  2.3940647E+01
 2.0199751E+01  2.3876110E+01
 2.0211250E+01  2.3783871E+01
 2.0222752E+01  2.3737902E+01
 2.0234251E+01  2.3752594E+01
 2.0245750E+01  2.3781254E+01
 2.0257252E+01  2.3810261E+01
 2.0268751E+01  2.3789341E+01
 2.0280251E+01  2.3816746E+01
 2.0291752E+01  2.3832195E+01
 2.0303251E+01  2.3764435E+01
 2.0314751E+01  2.3751631E+01
 2.0326250E+01  2.3728636E+01
 2.0337751E+01  2.3735266E+01
 2.0349251E+01  2.3751577E+01
 2.0360750E+01  2.3791636E+01
 2.0372252E+01  2.3786558E+01
 2.0383751E+01  2.3743906E+01
 2.0395250E+01  2.3717590E+01
 2.0406752E+01  2.3739267E+01
 2.0418251E+01  2.3819330E+01
 2.0429750E+01  2.3903837E+01
 2.0441252E+01  2.3948072E+01
 2.0452751E+01  2.3935682E+01
 2.0464251E+01  2.3895391E+01
 2.0475752E+01  2.3818039E+01
 2.0487251E+01  2.3795233E+01
 2.0498751E+01  2.3835587E+01
 2.0510250E+01  2.3865059E+01
 2.0521751E+01  2.3863066E+01
 2.0533251E+01  2.3834953E+01
 2.0544750E+01  2.3843449E+01
 2.0556252E+01  2.3859955E+01
 2.0567751E+01  2.3893463E+01
 2.0579250E+01  2.3876160E+01
 2.0590752E+01  2.3889551E+01
 2.0602251E+01  2.3883650E+01
 2.0613750E+01  2.3921303E+01
 2.0625252E+01  2.3975473E+01
 2.0636751E+01  2.4040638E+01
 2.0648251E+01  2.4033346E+01
 2.0659752E+01  2.4002529E+01
 2.0671251E+01  2.4009176E+01
 2.0682751E+01  2.4022760E+01
 2.0694250E+01  2.4062935E+01
 2.0705751E+01  2.4117886E+01
 2.0717251E+01  2.4223059E+01
 2.0728750E+01  2.4288345E+01
 2.0740252E+01  2.4357227E+01
 2.0751751E+01  2.4381924E+01
 2.0763250E+01  2.4426353E+01
 2.0774752E+01  2.4417723E+01
 2.0786251E+01  2.4362823E+01
 2.0797750E+01  2.4290928E+01
 2.0809252E+01  2.4217245E+01
 2.0820751E+01  2.4119701E+01
 2.0832251E+01  2.4045027E+01
 2.0843752E+01  2.4038767E+01
 2.0855251E+01  2.4083508E+01
 2.0866751E+01  2.4087929E+01
 2.0878250E+01  2.4055962E+01
 2.0889751E+01  2.4032150E+01
 2.0901251E+01  2.4041245E+01
 2.0912750E+01  2.4073498E+01
 2.0924252E+01  2.4098438E+01
 2.0935751E+01  2.4066622E+01
 2.0947250E+01  2.4062956E+01
 2.0958752E+01  2.3990971E+01
 2.0970251E+01  2.3985647E+01
 2.0981750E+01  2.3954205E+01
 2.0993252E+01  2.3996326E+01
 2.1004751E+01  2.4009438E+01
 2.1016251E+01  2.3978271E+01
 2.1027752E+01  2.3955135E+01
 2.1039251E+01  2.3930098E+01
 2.1050751E+01  2.3904425E+01
 2.1062250E+01  2.3896605E+01
 2.1073751E+01  2.3941629E+01
 2.1085251E+01  2.4010412E+01
 2.1096750E+01  2.3959906E+01
 2.1108252E+01  2.3963297E+01
 2.1119751E+01  2.3953959E+01
 2.1131250E+01  2.3967951E+01
 2.1142752E+01  2.3949417E+01
 2.1154251E+01  2.3958776E+01
 2.1165751E+01  2.3966434E+01
 2.1177252E+01  2.3958149E+01
 2.1188751E+01  2.3911364E+01
 2.1200251E+01  2.3909119E+01
 2.1211752E+01  2.3944820E+01
 2.1223251E+01  2.3934526E+01
 2.1234751E+01  2.3926657E+01
 2.1246250E+01  2.3988781E+01
 2.1257751E+01  2.4058121E+01
 2.1269251E+01  2.4064632E+01
 2.1280750E+01  2.4064116E+01
 2.1292252E+01  2.4053194E+01
 2.1303751E+01  2.4022024E+01
 2.1315250E+01  2.3972679E+01
 2.1326752E+01  2.3988560E+01
 2.1338251E+01  2.3969778E+01
 2.1349751E+01  2.4031750E+01
 2.1361252E+01  2.4105885E+01
 2.1372751E+01  2.4204704E+01
 2.1384251E+01  2.4179426E+01
 2.1395752E+01  2.4205393E+01
 2.1407251E+01  2.4176867E+01
 2.1418751E+01  2.4211069E+01
 2.1430250E+01  2.4162523E+01
 2.1441751E+01  2.4110098E+01
 2.1453251E+01  2.4040039E+01
 2.1464750E+01  2.4028305E+01
 2.1476252E+01  2.4027746E+01
 2.1487751E+01  2.4087854E+01
 2.1499250E+01  2.4128853E+01
 2.1510752E+01  2.4168062E+01
 2.1522251E+01  2.4185978E+01
 2.1533751E+01  2.4192541E+01
 2.1545252E+01  2.4185579E+01
 2.1556751E+01  2.4174875E+01
 2.1568251E+01  2.4169289E+01
 2.1579752E+01  2.4213520E+01
 2.1591251E+01  2.4299028E+01
 2.1602751E+01  2.4335354E+01
 2.1614250E+01  2.4325979E+01
 2.1625751E+01  2.4304834E+01
 2.1637251E+01  2.4265076E+01
 2.1648750E+01  2.4214832E+01
 2.1660252E+01  2.4182224E+01
 2.1671751E+01  2.4129696E+01
 2.1683250E+01  2.4091822E+01
 2.1694752E+01  2.4090656E+01
 2.1706251E+01  2.4154392E+01
 2.1717751E+01  2.4188780E+01
 2.1729252E+01  2.4237101E+01
 2.1740751E+01  2.4246586E+01
 2.1752251E+01  2.4222452E+01
 2.1763752E+01  2.4207800E+01
 2.1775251E+01  2.4216923E+01
 2.1786751E+01  2.4245264E+01
 2.1798250E+01  2.4254721E+01
 2.1809752E+01  2.4284306E+01
 2.1821251E+01  2.4283134E+01
 2.1832750E+01  2.4277758E+01
 2.1844252E+01  2.4273504E+01
 2.1855751E+01  2.4304264E+01
 2.1867250E+01  2.4325279E+01
 2.1878752E+01  2.4357426E+01
 2.1890251E+01  2.4318863E+01
 2.1901751E+01  2.4290407E+01
 2.1913252E+01  2.4275377E+01
 2.1924751E+01  2.4271582E+01
 2.1936251E+01  2.4287518E+01
 2.1947752E+01  2.4297195E+01
 2.1959251E+01  2.4325031E+01
 2.1970751E+01  2.4354643E+01
 2.1982250E+01  2.4351688E+01
 2.1993752E+01  2.4398211E+01
 2.2005251E+01  2.4431671E+01
 2.2016750E+01  2.4500494E+01
 2.2028252E+01  2.4505789E+01
 2.2039751E+01  2.4495440E+01
 2.2051250E+01  2.4483471E+01
 2.2062752E+01  2.4489159E+01
 2.2074251E+01  2.4472988E+01
 2.2085751E+01  2.4422110E+01
 2.2097252E+01  2.4389381E+01
 2.2108751E+01  2.4394737E+01
 2.2120251E+01  2.4448088E+01
 2.2131752E+01  2.4429272E+01
 2.2143251E+01  2.4404320E+01
 2.2154751E+01  2.4352386E+01
 2.2166250E+01  2.4333294E+01
 2.2177752E+01  2.4312750E+01
 2.2189251E+01  2.4320663E+01
 2.2200750E+01  2.4372602E+01
 2.2212252E+01  2.4425215E+01
 2.2223751E+01  2.4472019E+01
 2.2235250E+01  2.4495491E+01
 2.2246752E+01  2.4546692E+01
 2.2258251E+01  2.4542759E+01
 2.2269751E+01  2.4505405E+01
 2.2281252E+01  2.4509571E+01
 2.2292751E+01  2.4561678E+01
 2.2304251E+01  2.4647408E+01
 2.2315752E+01  2.4673412E+01
 2.2327251E+01  2.4678259E+01
 2.2338751E+01  2.4667553E+01
 2.2350250E+01  2.4692343E+01
 2.2361752E+01  2.4675642E+01
 2.2373251E+01  2.4679138E+01
 2.2384750E+01  2.4609188E+01
 2.2396252E+01  2.4600700E+01
 2.2407751E+01  2.4538872E+01
 2.2419250E+01  2.4524977E+01
 2.2430752E+01  2.4560278E+01
 2.2442251E+01  2.4674662E+01
 2.2453751E+01  2.4790146E+01
 2.2465252E+01  2.4789242E+01
 2.2476751E+01  2.4764540E+01
 2.2488251E+01  2.4795292E+01
 2.2499752E+01  2.4838907E+01
 2.2511251E+01  2.4866964E+01
 2.2522751E+01  2.4883749E+01
 2.2534250E+01  2.4865814E+01
 2.2545752E+01  2.4872210E+01
 2.2557251E+01  2.4884998E+01
 2.2568750E+01  2.4862484E+01
 2.2580252E+01  2.4821070E+01
 2.2591751E+01  2.4823448E+01
 2.2603251E+01  2.4860155E+01
 2.2614752E+01  2.4904932E+01
 2.2626251E+01  2.4957952E+01
 2.2637751E+01  2.4949476E+01
 2.2649252E+01  2.4981007E+01
 2.2660751E+01  2.4990223E+01
 2.2672251E+01  2.5042622E+01
 2.2683752E+01  2.5108765E+01
 2.2695251E+01  2.5192381E+01
 2.2706751E+01  2.5216440E+01
 2.2718250E+01  2.5218376E+01
 2.2729752E+01  2.5233570E+01
 2.2741251E+01  2.5244524E+01
 2.2752750E+01  2.5280434E+01
 2.2764252E+01  2.5311523E+01
 2.2775751E+01  2.5321772E+01
 2.2787251E+01  2.5349422E+01
 2.2798752E+01  2.5430494E+01
 2.2810251E+01  2.5519842E+01
 2.2821751E+01  2.5565670E+01
 2.2833252E+01  2.5596375E+01
 2.2844751E+01  2.5608438E+01
 2.2856251E+01  2.5604282E+01
 2.2867750E+01  2.5614235E+01
 2.2879251E+01  2.5678661E+01
 2.2890751E+01  2.5786285E+01
 2.2902250E+01  2.5867615E+01
 2.2913752E+01  2.5984913E+01
 2.2925251E+01  2.6077122E+01
 2.2936750E+01  2.6093105E+01
 2.2948252E+01  2.6073912E+01
 2.2959751E+01  2.6020018E+01
 2.2971251E+01  2.6082626E+01
 2.2982752E+01  2.6133701E+01
 2.2994251E+01  2.6239492E+01
