F:\20151113_APS_34IDE\\Brian\Particle1\OCV\Data_0115.tif
2-Theta Angle (Degrees)
Intensity
       2000
 5.7500005E-03  0.0000000E+00
 1.7250001E-02  0.0000000E+00
 2.8750001E-02  0.0000000E+00
 4.0250003E-02  0.0000000E+00
 5.1750004E-02  0.0000000E+00
 6.3250005E-02  0.0000000E+00
 7.4750006E-02  0.0000000E+00
 8.6250007E-02  0.0000000E+00
 9.7750008E-02  0.0000000E+00
 1.0925001E-01  0.0000000E+00
 1.2075000E-01  0.0000000E+00
 1.3225001E-01  0.0000000E+00
 1.4375001E-01  0.0000000E+00
 1.5525001E-01  0.0000000E+00
 1.6675001E-01  0.0000000E+00
 1.7825001E-01  0.0000000E+00
 1.8975002E-01  0.0000000E+00
 2.0125002E-01  0.0000000E+00
 2.1275002E-01  0.0000000E+00
 2.2425000E-01  0.0000000E+00
 2.3575000E-01  0.0000000E+00
 2.4725001E-01  0.0000000E+00
 2.5875002E-01  0.0000000E+00
 2.7025002E-01  0.0000000E+00
 2.8175002E-01  0.0000000E+00
 2.9325002E-01  0.0000000E+00
 3.0475003E-01  0.0000000E+00
 3.1625003E-01  0.0000000E+00
 3.2775003E-01  0.0000000E+00
 3.3925003E-01  0.0000000E+00
 3.5075003E-01  0.0000000E+00
 3.6225003E-01  0.0000000E+00
 3.7375003E-01  0.0000000E+00
 3.8525003E-01  0.0000000E+00
 3.9675003E-01  0.0000000E+00
 4.0825003E-01  0.0000000E+00
 4.1975003E-01  0.0000000E+00
 4.3125004E-01  0.0000000E+00
 4.4275001E-01  0.0000000E+00
 4.5425001E-01  0.0000000E+00
 4.6575001E-01  0.0000000E+00
 4.7725001E-01  0.0000000E+00
 4.8875001E-01  0.0000000E+00
 5.0025004E-01  0.0000000E+00
 5.1175004E-01  0.0000000E+00
 5.2325004E-01  0.0000000E+00
 5.3475004E-01  0.0000000E+00
 5.4625005E-01  0.0000000E+00
 5.5775005E-01  0.0000000E+00
 5.6925005E-01  0.0000000E+00
 5.8075005E-01  0.0000000E+00
 5.9225005E-01  0.0000000E+00
 6.0375005E-01  0.0000000E+00
 6.1525005E-01  0.0000000E+00
 6.2675005E-01  0.0000000E+00
 6.3825005E-01  0.0000000E+00
 6.4975005E-01  0.0000000E+00
 6.6125005E-01  0.0000000E+00
 6.7275006E-01  0.0000000E+00
 6.8425006E-01  0.0000000E+00
 6.9575006E-01  0.0000000E+00
 7.0725006E-01  0.0000000E+00
 7.1875006E-01  0.0000000E+00
 7.3025006E-01  0.0000000E+00
 7.4175006E-01  0.0000000E+00
 7.5325006E-01  0.0000000E+00
 7.6475006E-01  0.0000000E+00
 7.7625006E-01  0.0000000E+00
 7.8775007E-01  0.0000000E+00
 7.9925007E-01  0.0000000E+00
 8.1075007E-01  0.0000000E+00
 8.2225007E-01  0.0000000E+00
 8.3375007E-01  0.0000000E+00
 8.4525007E-01  0.0000000E+00
 8.5675007E-01  0.0000000E+00
 8.6825007E-01  0.0000000E+00
 8.7975001E-01  0.0000000E+00
 8.9125001E-01  0.0000000E+00
 9.0275002E-01  0.0000000E+00
 9.1425002E-01  0.0000000E+00
 9.2575002E-01  0.0000000E+00
 9.3725002E-01  0.0000000E+00
 9.4875002E-01  0.0000000E+00
 9.6025002E-01  0.0000000E+00
 9.7175002E-01  0.0000000E+00
 9.8325002E-01  0.0000000E+00
 9.9475002E-01  0.0000000E+00
 1.0062500E+00  0.0000000E+00
 1.0177500E+00  0.0000000E+00
 1.0292500E+00  0.0000000E+00
 1.0407500E+00  0.0000000E+00
 1.0522500E+00  0.0000000E+00
 1.0637500E+00  0.0000000E+00
 1.0752500E+00  0.0000000E+00
 1.0867500E+00  0.0000000E+00
 1.0982500E+00  0.0000000E+00
 1.1097500E+00  0.0000000E+00
 1.1212500E+00  0.0000000E+00
 1.1327500E+00  0.0000000E+00
 1.1442500E+00  0.0000000E+00
 1.1557500E+00  0.0000000E+00
 1.1672500E+00  0.0000000E+00
 1.1787500E+00  0.0000000E+00
 1.1902500E+00  0.0000000E+00
 1.2017500E+00  0.0000000E+00
 1.2132500E+00  0.0000000E+00
 1.2247500E+00  0.0000000E+00
 1.2362500E+00  0.0000000E+00
 1.2477500E+00  0.0000000E+00
 1.2592500E+00  0.0000000E+00
 1.2707500E+00  0.0000000E+00
 1.2822500E+00  0.0000000E+00
 1.2937500E+00  0.0000000E+00
 1.3052500E+00  0.0000000E+00
 1.3167500E+00  0.0000000E+00
 1.3282501E+00  0.0000000E+00
 1.3397501E+00  0.0000000E+00
 1.3512501E+00  0.0000000E+00
 1.3627501E+00  0.0000000E+00
 1.3742501E+00  0.0000000E+00
 1.3857501E+00  0.0000000E+00
 1.3972501E+00  0.0000000E+00
 1.4087501E+00  0.0000000E+00
 1.4202501E+00  0.0000000E+00
 1.4317501E+00  0.0000000E+00
 1.4432501E+00  0.0000000E+00
 1.4547501E+00  0.0000000E+00
 1.4662501E+00  0.0000000E+00
 1.4777501E+00  0.0000000E+00
 1.4892501E+00  0.0000000E+00
 1.5007501E+00  0.0000000E+00
 1.5122501E+00  0.0000000E+00
 1.5237501E+00  0.0000000E+00
 1.5352501E+00  0.0000000E+00
 1.5467501E+00  0.0000000E+00
 1.5582501E+00  0.0000000E+00
 1.5697501E+00  0.0000000E+00
 1.5812501E+00  0.0000000E+00
 1.5927501E+00  0.0000000E+00
 1.6042501E+00  0.0000000E+00
 1.6157501E+00  0.0000000E+00
 1.6272501E+00  0.0000000E+00
 1.6387501E+00  0.0000000E+00
 1.6502501E+00  0.0000000E+00
 1.6617501E+00  0.0000000E+00
 1.6732501E+00  0.0000000E+00
 1.6847501E+00  0.0000000E+00
 1.6962501E+00  0.0000000E+00
 1.7077501E+00  0.0000000E+00
 1.7192501E+00  0.0000000E+00
 1.7307501E+00  0.0000000E+00
 1.7422501E+00  0.0000000E+00
 1.7537501E+00  0.0000000E+00
 1.7652501E+00  0.0000000E+00
 1.7767501E+00  0.0000000E+00
 1.7882501E+00  0.0000000E+00
 1.7997501E+00  0.0000000E+00
 1.8112501E+00  0.0000000E+00
 1.8227501E+00  0.0000000E+00
 1.8342501E+00  0.0000000E+00
 1.8457501E+00  0.0000000E+00
 1.8572501E+00  0.0000000E+00
 1.8687501E+00  0.0000000E+00
 1.8802501E+00  0.0000000E+00
 1.8917501E+00  0.0000000E+00
 1.9032501E+00  0.0000000E+00
 1.9147501E+00  0.0000000E+00
 1.9262501E+00  0.0000000E+00
 1.9377501E+00  0.0000000E+00
 1.9492501E+00  0.0000000E+00
 1.9607501E+00  0.0000000E+00
 1.9722501E+00  0.0000000E+00
 1.9837501E+00  0.0000000E+00
 1.9952501E+00  0.0000000E+00
 2.0067501E+00  0.0000000E+00
 2.0182500E+00  0.0000000E+00
 2.0297501E+00  0.0000000E+00
 2.0412500E+00  0.0000000E+00
 2.0527501E+00  0.0000000E+00
 2.0642500E+00  0.0000000E+00
 2.0757501E+00  0.0000000E+00
 2.0872500E+00  0.0000000E+00
 2.0987501E+00  0.0000000E+00
 2.1102500E+00  0.0000000E+00
 2.1217501E+00  0.0000000E+00
 2.1332500E+00  0.0000000E+00
 2.1447501E+00  0.0000000E+00
 2.1562500E+00  0.0000000E+00
 2.1677501E+00  0.0000000E+00
 2.1792500E+00  0.0000000E+00
 2.1907501E+00  0.0000000E+00
 2.2022500E+00  0.0000000E+00
 2.2137501E+00  0.0000000E+00
 2.2252500E+00  0.0000000E+00
 2.2367501E+00  0.0000000E+00
 2.2482500E+00  0.0000000E+00
 2.2597501E+00  0.0000000E+00
 2.2712500E+00  0.0000000E+00
 2.2827501E+00  0.0000000E+00
 2.2942500E+00  0.0000000E+00
 2.3057501E+00  0.0000000E+00
 2.3172500E+00  0.0000000E+00
 2.3287501E+00  0.0000000E+00
 2.3402500E+00  0.0000000E+00
 2.3517501E+00  0.0000000E+00
 2.3632500E+00  0.0000000E+00
 2.3747501E+00  0.0000000E+00
 2.3862500E+00  0.0000000E+00
 2.3977501E+00  0.0000000E+00
 2.4092500E+00  0.0000000E+00
 2.4207501E+00  0.0000000E+00
 2.4322500E+00  0.0000000E+00
 2.4437501E+00  0.0000000E+00
 2.4552500E+00  0.0000000E+00
 2.4667501E+00  0.0000000E+00
 2.4782500E+00  0.0000000E+00
 2.4897501E+00  0.0000000E+00
 2.5012500E+00  0.0000000E+00
 2.5127501E+00  0.0000000E+00
 2.5242500E+00  0.0000000E+00
 2.5357502E+00  0.0000000E+00
 2.5472500E+00  0.0000000E+00
 2.5587502E+00  0.0000000E+00
 2.5702500E+00  0.0000000E+00
 2.5817502E+00  0.0000000E+00
 2.5932500E+00  0.0000000E+00
 2.6047502E+00  0.0000000E+00
 2.6162500E+00  0.0000000E+00
 2.6277502E+00  0.0000000E+00
 2.6392500E+00  0.0000000E+00
 2.6507502E+00  0.0000000E+00
 2.6622500E+00  0.0000000E+00
 2.6737502E+00  0.0000000E+00
 2.6852500E+00  0.0000000E+00
 2.6967502E+00  0.0000000E+00
 2.7082500E+00  0.0000000E+00
 2.7197502E+00  0.0000000E+00
 2.7312500E+00  0.0000000E+00
 2.7427502E+00  0.0000000E+00
 2.7542500E+00  0.0000000E+00
 2.7657502E+00  0.0000000E+00
 2.7772501E+00  0.0000000E+00
 2.7887502E+00  0.0000000E+00
 2.8002501E+00  0.0000000E+00
 2.8117502E+00  0.0000000E+00
 2.8232501E+00  3.3743530E+01
 2.8347502E+00  3.1848660E+01
 2.8462501E+00  3.1305719E+01
 2.8577502E+00  3.1197172E+01
 2.8692501E+00  3.1547895E+01
 2.8807502E+00  3.2783096E+01
 2.8922501E+00  3.4061413E+01
 2.9037502E+00  3.5005093E+01
 2.9152501E+00  3.5876225E+01
 2.9267502E+00  3.6063911E+01
 2.9382501E+00  3.5965015E+01
 2.9497502E+00  3.5945602E+01
 2.9612501E+00  3.5293297E+01
 2.9727502E+00  3.5370232E+01
 2.9842501E+00  3.4984951E+01
 2.9957502E+00  3.5648258E+01
 3.0072501E+00  3.5688690E+01
 3.0187502E+00  3.5761238E+01
 3.0302501E+00  3.5653168E+01
 3.0417502E+00  3.5580116E+01
 3.0532501E+00  3.5273064E+01
 3.0647502E+00  3.5056290E+01
 3.0762501E+00  3.4860516E+01
 3.0877502E+00  3.4928913E+01
 3.0992501E+00  3.4861858E+01
 3.1107502E+00  3.4670052E+01
 3.1222501E+00  3.4774532E+01
 3.1337502E+00  3.4301476E+01
 3.1452501E+00  3.4157490E+01
 3.1567502E+00  3.3836159E+01
 3.1682501E+00  3.3788136E+01
 3.1797502E+00  3.3764420E+01
 3.1912501E+00  3.3715775E+01
 3.2027502E+00  3.3848068E+01
 3.2142501E+00  3.4143013E+01
 3.2257502E+00  3.4165413E+01
 3.2372501E+00  3.4346130E+01
 3.2487502E+00  3.4189133E+01
 3.2602501E+00  3.4335636E+01
 3.2717502E+00  3.4438053E+01
 3.2832501E+00  3.4525963E+01
 3.2947502E+00  3.4611893E+01
 3.3062501E+00  3.4927597E+01
 3.3177502E+00  3.4802124E+01
 3.3292501E+00  3.4726379E+01
 3.3407502E+00  3.4524475E+01
 3.3522501E+00  3.4599892E+01
 3.3637502E+00  3.4712440E+01
 3.3752501E+00  3.4687637E+01
 3.3867502E+00  3.4660519E+01
 3.3982501E+00  3.4514191E+01
 3.4097502E+00  3.4432873E+01
 3.4212501E+00  3.4290119E+01
 3.4327502E+00  3.4053524E+01
 3.4442501E+00  3.3772949E+01
 3.4557502E+00  3.3572716E+01
 3.4672501E+00  3.3577145E+01
 3.4787502E+00  3.3722446E+01
 3.4902501E+00  3.3977089E+01
 3.5017502E+00  3.3985458E+01
 3.5132501E+00  3.3989201E+01
 3.5247502E+00  3.3757389E+01
 3.5362501E+00  3.3798988E+01
 3.5477502E+00  3.3509586E+01
 3.5592501E+00  3.3665447E+01
 3.5707502E+00  3.3610287E+01
 3.5822501E+00  3.3618206E+01
 3.5937502E+00  3.3506447E+01
 3.6052501E+00  3.3355648E+01
 3.6167502E+00  3.3169178E+01
 3.6282501E+00  3.3044109E+01
 3.6397502E+00  3.2787880E+01
 3.6512501E+00  3.3002258E+01
 3.6627502E+00  3.2968319E+01
 3.6742501E+00  3.2893177E+01
 3.6857502E+00  3.2778011E+01
 3.6972501E+00  3.2566204E+01
 3.7087502E+00  3.2472275E+01
 3.7202501E+00  3.2241459E+01
 3.7317502E+00  3.2047253E+01
 3.7432501E+00  3.1988623E+01
 3.7547503E+00  3.2051018E+01
 3.7662501E+00  3.2089272E+01
 3.7777503E+00  3.2247635E+01
 3.7892501E+00  3.2033337E+01
 3.8007503E+00  3.1982506E+01
 3.8122501E+00  3.1829813E+01
 3.8237503E+00  3.1965580E+01
 3.8352501E+00  3.1954693E+01
 3.8467503E+00  3.1985336E+01
 3.8582501E+00  3.2115013E+01
 3.8697503E+00  3.2074295E+01
 3.8812501E+00  3.2128853E+01
 3.8927503E+00  3.1810452E+01
 3.9042501E+00  3.1672258E+01
 3.9157503E+00  3.1598783E+01
 3.9272501E+00  3.1618101E+01
 3.9387503E+00  3.1714247E+01
 3.9502501E+00  3.1833321E+01
 3.9617503E+00  3.1970848E+01
 3.9732502E+00  3.2069103E+01
 3.9847503E+00  3.2137867E+01
 3.9962502E+00  3.2179844E+01
 4.0077500E+00  3.2281971E+01
 4.0192504E+00  3.2287643E+01
 4.0307503E+00  3.2347706E+01
 4.0422502E+00  3.2329018E+01
 4.0537500E+00  3.2335018E+01
 4.0652504E+00  3.2297642E+01
 4.0767503E+00  3.2142124E+01
 4.0882502E+00  3.1987520E+01
 4.0997500E+00  3.1798765E+01
 4.1112504E+00  3.1756029E+01
 4.1227503E+00  3.1759043E+01
 4.1342502E+00  3.1855928E+01
 4.1457500E+00  3.1964090E+01
 4.1572504E+00  3.1848209E+01
 4.1687503E+00  3.1874828E+01
 4.1802502E+00  3.1668627E+01
 4.1917500E+00  3.1767065E+01
 4.2032504E+00  3.1794046E+01
 4.2147503E+00  3.1981272E+01
 4.2262502E+00  3.2006001E+01
 4.2377501E+00  3.1948225E+01
 4.2492504E+00  3.1830236E+01
 4.2607503E+00  3.1862293E+01
 4.2722502E+00  3.1801279E+01
 4.2837501E+00  3.1909391E+01
 4.2952504E+00  3.1868246E+01
 4.3067503E+00  3.1888836E+01
 4.3182502E+00  3.1758623E+01
 4.3297501E+00  3.1737240E+01
 4.3412504E+00  3.1747042E+01
 4.3527503E+00  3.1835299E+01
 4.3642502E+00  3.1942387E+01
 4.3757501E+00  3.2025829E+01
 4.3872504E+00  3.2176640E+01
 4.3987503E+00  3.2379242E+01
 4.4102502E+00  3.2691364E+01
 4.4217501E+00  3.2596416E+01
 4.4332504E+00  3.2501442E+01
 4.4447503E+00  3.2131096E+01
 4.4562502E+00  3.2030293E+01
 4.4677501E+00  3.2004639E+01
 4.4792504E+00  3.2040981E+01
 4.4907503E+00  3.1970638E+01
 4.5022502E+00  3.2046516E+01
 4.5137501E+00  3.1916483E+01
 4.5252504E+00  3.2055710E+01
 4.5367503E+00  3.2012051E+01
 4.5482502E+00  3.2085896E+01
 4.5597501E+00  3.2075165E+01
 4.5712504E+00  3.1994156E+01
 4.5827503E+00  3.2123161E+01
 4.5942502E+00  3.2272430E+01
 4.6057501E+00  3.2339687E+01
 4.6172504E+00  3.2291409E+01
 4.6287503E+00  3.2298615E+01
 4.6402502E+00  3.2366287E+01
 4.6517501E+00  3.2420815E+01
 4.6632504E+00  3.2372833E+01
 4.6747503E+00  3.2337505E+01
 4.6862502E+00  3.2335045E+01
 4.6977501E+00  3.2293121E+01
 4.7092505E+00  3.2345688E+01
 4.7207503E+00  3.2317589E+01
 4.7322502E+00  3.2362381E+01
 4.7437501E+00  3.2335171E+01
 4.7552505E+00  3.2393303E+01
 4.7667503E+00  3.2341698E+01
 4.7782502E+00  3.2337482E+01
 4.7897501E+00  3.2248802E+01
 4.8012505E+00  3.2155556E+01
 4.8127503E+00  3.2105064E+01
 4.8242502E+00  3.2075138E+01
 4.8357501E+00  3.2087376E+01
 4.8472505E+00  3.2166973E+01
 4.8587503E+00  3.2279709E+01
 4.8702502E+00  3.2391518E+01
 4.8817501E+00  3.2319622E+01
 4.8932505E+00  3.2304737E+01
 4.9047503E+00  3.2239841E+01
 4.9162502E+00  3.2318272E+01
 4.9277501E+00  3.2278934E+01
 4.9392505E+00  3.2271980E+01
 4.9507504E+00  3.2345848E+01
 4.9622502E+00  3.2285538E+01
 4.9737501E+00  3.2306602E+01
 4.9852505E+00  3.2328091E+01
 4.9967504E+00  3.2472145E+01
 5.0082502E+00  3.2643997E+01
 5.0197501E+00  3.2773548E+01
 5.0312505E+00  3.2808147E+01
 5.0427504E+00  3.2833736E+01
 5.0542502E+00  3.2761143E+01
 5.0657501E+00  3.2734589E+01
 5.0772505E+00  3.2730804E+01
 5.0887504E+00  3.2847183E+01
 5.1002502E+00  3.2959885E+01
 5.1117501E+00  3.3071953E+01
 5.1232505E+00  3.2940861E+01
 5.1347504E+00  3.3006104E+01
 5.1462502E+00  3.2919441E+01
 5.1577501E+00  3.2917267E+01
 5.1692505E+00  3.2973389E+01
 5.1807504E+00  3.3097572E+01
 5.1922503E+00  3.3244663E+01
 5.2037501E+00  3.3302803E+01
 5.2152505E+00  3.3361530E+01
 5.2267504E+00  3.3461166E+01
 5.2382503E+00  3.3553204E+01
 5.2497501E+00  3.3465199E+01
 5.2612505E+00  3.3426609E+01
 5.2727504E+00  3.3209957E+01
 5.2842503E+00  3.3275105E+01
 5.2957501E+00  3.3415657E+01
 5.3072500E+00  3.3493629E+01
 5.3187504E+00  3.3568645E+01
 5.3302503E+00  3.3508705E+01
 5.3417501E+00  3.3488098E+01
 5.3532500E+00  3.3402023E+01
 5.3647504E+00  3.3487530E+01
 5.3762503E+00  3.3617939E+01
 5.3877501E+00  3.3924587E+01
 5.3992500E+00  3.3949944E+01
 5.4107504E+00  3.4067612E+01
 5.4222503E+00  3.4016804E+01
 5.4337502E+00  3.4009312E+01
 5.4452500E+00  3.4066734E+01
 5.4567504E+00  3.4159744E+01
 5.4682503E+00  3.4171989E+01
 5.4797502E+00  3.4276123E+01
 5.4912500E+00  3.4225178E+01
 5.5027504E+00  3.4274456E+01
 5.5142503E+00  3.4427052E+01
 5.5257502E+00  3.4588505E+01
 5.5372500E+00  3.4823059E+01
 5.5487504E+00  3.4879475E+01
 5.5602503E+00  3.4919807E+01
 5.5717502E+00  3.4880238E+01
 5.5832500E+00  3.4805553E+01
 5.5947504E+00  3.4799580E+01
 5.6062503E+00  3.4862499E+01
 5.6177502E+00  3.4840755E+01
 5.6292500E+00  3.4764404E+01
 5.6407504E+00  3.4831001E+01
 5.6522503E+00  3.4821980E+01
 5.6637502E+00  3.4945477E+01
 5.6752501E+00  3.5101974E+01
 5.6867504E+00  3.5219959E+01
 5.6982503E+00  3.5497391E+01
 5.7097502E+00  3.5639214E+01
 5.7212501E+00  3.5705704E+01
 5.7327504E+00  3.5991409E+01
 5.7442503E+00  3.5858406E+01
 5.7557502E+00  3.5997517E+01
 5.7672501E+00  3.6116119E+01
 5.7787504E+00  3.5971188E+01
 5.7902503E+00  3.6247063E+01
 5.8017502E+00  3.6331600E+01
 5.8132501E+00  3.6397312E+01
 5.8247504E+00  3.7030495E+01
 5.8362503E+00  3.7054520E+01
 5.8477502E+00  3.7206055E+01
 5.8592501E+00  3.8249039E+01
 5.8707504E+00  3.8056404E+01
 5.8822503E+00  3.9049477E+01
 5.8937502E+00  4.0973904E+01
 5.9052501E+00  4.0997139E+01
 5.9167504E+00  4.9344337E+01
 5.9282503E+00  5.5553844E+01
 5.9397502E+00  5.6608269E+01
 5.9512501E+00  8.7569710E+01
 5.9627504E+00  9.1870514E+01
 5.9742503E+00  9.8091408E+01
 5.9857502E+00  1.3042136E+02
 5.9972501E+00  1.1525878E+02
 6.0087504E+00  1.1954295E+02
 6.0202503E+00  7.3425240E+01
 6.0317502E+00  6.6715691E+01
 6.0432501E+00  6.1653107E+01
 6.0547504E+00  4.3494968E+01
 6.0662503E+00  4.2351353E+01
 6.0777502E+00  4.1160259E+01
 6.0892501E+00  3.8810654E+01
 6.1007504E+00  3.8649281E+01
 6.1122503E+00  3.8279202E+01
 6.1237502E+00  3.7659992E+01
 6.1352501E+00  3.7799553E+01
 6.1467505E+00  3.7307201E+01
 6.1582503E+00  3.7312607E+01
 6.1697502E+00  3.7505863E+01
 6.1812501E+00  3.7249741E+01
 6.1927505E+00  3.7210594E+01
 6.2042503E+00  3.7284534E+01
 6.2157502E+00  3.7055439E+01
 6.2272501E+00  3.7133583E+01
 6.2387505E+00  3.6995792E+01
 6.2502503E+00  3.6864540E+01
 6.2617502E+00  3.6935505E+01
 6.2732501E+00  3.7052361E+01
 6.2847505E+00  3.7255817E+01
 6.2962503E+00  3.7339630E+01
 6.3077502E+00  3.7342606E+01
 6.3192501E+00  3.7346603E+01
 6.3307505E+00  3.7448128E+01
 6.3422503E+00  3.7438980E+01
 6.3537502E+00  3.7525047E+01
 6.3652501E+00  3.7642311E+01
 6.3767505E+00  3.7729248E+01
 6.3882504E+00  3.7823624E+01
 6.3997502E+00  3.7839405E+01
 6.4112501E+00  3.7912922E+01
 6.4227505E+00  3.8032665E+01
 6.4342504E+00  3.8058117E+01
 6.4457502E+00  3.8177402E+01
 6.4572501E+00  3.8235096E+01
 6.4687505E+00  3.8301479E+01
 6.4802504E+00  3.8343903E+01
 6.4917502E+00  3.8358566E+01
 6.5032501E+00  3.8461433E+01
 6.5147505E+00  3.8536949E+01
 6.5262504E+00  3.8534897E+01
 6.5377502E+00  3.8612103E+01
 6.5492501E+00  3.8546005E+01
 6.5607505E+00  3.8636028E+01
 6.5722504E+00  3.8659874E+01
 6.5837502E+00  3.8782265E+01
 6.5952501E+00  3.8774998E+01
 6.6067505E+00  3.8813164E+01
 6.6182504E+00  3.8822029E+01
 6.6297503E+00  3.8965164E+01
 6.6412501E+00  3.9053448E+01
 6.6527505E+00  3.9210609E+01
 6.6642504E+00  3.9372440E+01
 6.6757503E+00  3.9484833E+01
 6.6872501E+00  3.9543598E+01
 6.6987505E+00  3.9657444E+01
 6.7102504E+00  3.9779060E+01
 6.7217503E+00  3.9982525E+01
 6.7332501E+00  3.9960629E+01
 6.7447505E+00  3.9960876E+01
 6.7562504E+00  3.9941296E+01
 6.7677503E+00  3.9958443E+01
 6.7792501E+00  4.0079132E+01
 6.7907505E+00  4.0157150E+01
 6.8022504E+00  4.0430092E+01
 6.8137503E+00  4.0521458E+01
 6.8252501E+00  4.0704014E+01
 6.8367505E+00  4.0770123E+01
 6.8482504E+00  4.0847839E+01
 6.8597503E+00  4.0828762E+01
 6.8712502E+00  4.0867924E+01
 6.8827505E+00  4.1010155E+01
 6.8942504E+00  4.1135433E+01
 6.9057503E+00  4.1127079E+01
 6.9172502E+00  4.1081440E+01
 6.9287505E+00  4.1015327E+01
 6.9402504E+00  4.1076508E+01
 6.9517503E+00  4.1109100E+01
 6.9632502E+00  4.1151009E+01
 6.9747505E+00  4.1198265E+01
 6.9862504E+00  4.1204647E+01
 6.9977503E+00  4.1277088E+01
 7.0092502E+00  4.1381458E+01
 7.0207505E+00  4.1551235E+01
 7.0322504E+00  4.1693851E+01
 7.0437503E+00  4.1772671E+01
 7.0552502E+00  4.1966358E+01
 7.0667505E+00  4.2090599E+01
 7.0782504E+00  4.2143505E+01
 7.0897503E+00  4.2155975E+01
 7.1012502E+00  4.2128986E+01
 7.1127505E+00  4.2204758E+01
 7.1242504E+00  4.2157192E+01
 7.1357503E+00  4.2182064E+01
 7.1472502E+00  4.2151302E+01
 7.1587505E+00  4.2109398E+01
 7.1702504E+00  4.2085857E+01
 7.1817503E+00  4.2191463E+01
 7.1932502E+00  4.2277138E+01
 7.2047505E+00  4.2437374E+01
 7.2162504E+00  4.2505337E+01
 7.2277503E+00  4.2740139E+01
 7.2392502E+00  4.2813072E+01
 7.2507505E+00  4.2864639E+01
 7.2622504E+00  4.2718906E+01
 7.2737503E+00  4.2675175E+01
 7.2852502E+00  4.2547844E+01
 7.2967505E+00  4.2498184E+01
 7.3082504E+00  4.2540684E+01
 7.3197503E+00  4.2634075E+01
 7.3312502E+00  4.2822136E+01
 7.3427505E+00  4.2900784E+01
 7.3542504E+00  4.3025608E+01
 7.3657503E+00  4.3075886E+01
 7.3772502E+00  4.2994556E+01
 7.3887506E+00  4.2885574E+01
 7.4002504E+00  4.2789249E+01
 7.4117503E+00  4.2904083E+01
 7.4232502E+00  4.2977818E+01
 7.4347506E+00  4.3006233E+01
 7.4462504E+00  4.3087765E+01
 7.4577503E+00  4.3173286E+01
 7.4692502E+00  4.3236988E+01
 7.4807506E+00  4.3274792E+01
 7.4922504E+00  4.3306477E+01
 7.5037503E+00  4.3345215E+01
 7.5152502E+00  4.3351997E+01
 7.5267506E+00  4.3333420E+01
 7.5382504E+00  4.3316635E+01
 7.5497503E+00  4.3332844E+01
 7.5612502E+00  4.3374340E+01
 7.5727506E+00  4.3450356E+01
 7.5842505E+00  4.3506939E+01
 7.5957503E+00  4.3449314E+01
 7.6072502E+00  4.3473721E+01
 7.6187506E+00  4.3538387E+01
 7.6302505E+00  4.3626637E+01
 7.6417503E+00  4.3634018E+01
 7.6532502E+00  4.3629341E+01
 7.6647506E+00  4.3579933E+01
 7.6762505E+00  4.3582195E+01
 7.6877503E+00  4.3464123E+01
 7.6992502E+00  4.3412434E+01
 7.7107506E+00  4.3346306E+01
 7.7222505E+00  4.3339516E+01
 7.7337503E+00  4.3394333E+01
 7.7452502E+00  4.3353451E+01
 7.7567506E+00  4.3389881E+01
 7.7682505E+00  4.3336594E+01
 7.7797503E+00  4.3418617E+01
 7.7912502E+00  4.3349438E+01
 7.8027506E+00  4.3273182E+01
 7.8142505E+00  4.3167583E+01
 7.8257504E+00  4.3135830E+01
 7.8372502E+00  4.3108559E+01
 7.8487506E+00  4.3072765E+01
 7.8602505E+00  4.3012356E+01
 7.8717504E+00  4.2997757E+01
 7.8832502E+00  4.2891983E+01
 7.8947506E+00  4.2821838E+01
 7.9062505E+00  4.2733238E+01
 7.9177504E+00  4.2815163E+01
 7.9292502E+00  4.2694050E+01
 7.9407506E+00  4.2651814E+01
 7.9522505E+00  4.2420933E+01
 7.9637504E+00  4.2354649E+01
 7.9752502E+00  4.2317280E+01
 7.9867506E+00  4.2311790E+01
 7.9982505E+00  4.2321835E+01
 8.0097504E+00  4.2268398E+01
 8.0212507E+00  4.2229851E+01
 8.0327501E+00  4.2156544E+01
 8.0442505E+00  4.2039482E+01
 8.0557508E+00  4.1999100E+01
 8.0672503E+00  4.1974937E+01
 8.0787506E+00  4.1875179E+01
 8.0902500E+00  4.1804943E+01
 8.1017504E+00  4.1792156E+01
 8.1132507E+00  4.1841049E+01
 8.1247501E+00  4.1723625E+01
 8.1362505E+00  4.1566563E+01
 8.1477509E+00  4.1391411E+01
 8.1592503E+00  4.1337910E+01
 8.1707506E+00  4.1245979E+01
 8.1822500E+00  4.1070389E+01
 8.1937504E+00  4.0993828E+01
 8.2052507E+00  4.0838490E+01
 8.2167501E+00  4.0761383E+01
 8.2282505E+00  4.0618225E+01
 8.2397509E+00  4.0479233E+01
 8.2512503E+00  4.0393795E+01
 8.2627506E+00  4.0265049E+01
 8.2742500E+00  4.0113598E+01
 8.2857504E+00  3.9992683E+01
 8.2972507E+00  3.9812721E+01
 8.3087502E+00  3.9688889E+01
 8.3202505E+00  3.9530910E+01
 8.3317509E+00  3.9417904E+01
 8.3432503E+00  3.9338932E+01
 8.3547506E+00  3.9200123E+01
 8.3662500E+00  3.9071877E+01
 8.3777504E+00  3.8905922E+01
 8.3892508E+00  3.8691433E+01
 8.4007502E+00  3.8525047E+01
 8.4122505E+00  3.8416996E+01
 8.4237509E+00  3.8266670E+01
 8.4352503E+00  3.8041744E+01
 8.4467506E+00  3.7779373E+01
 8.4582500E+00  3.7609432E+01
 8.4697504E+00  3.7504059E+01
 8.4812508E+00  3.7320728E+01
 8.4927502E+00  3.7115551E+01
 8.5042505E+00  3.7011742E+01
 8.5157509E+00  3.6891777E+01
 8.5272503E+00  3.6796875E+01
 8.5387506E+00  3.6660255E+01
 8.5502501E+00  3.6445461E+01
 8.5617504E+00  3.6326267E+01
 8.5732508E+00  3.6106445E+01
 8.5847502E+00  3.5917667E+01
 8.5962505E+00  3.5633430E+01
 8.6077509E+00  3.5405643E+01
 8.6192503E+00  3.5246052E+01
 8.6307507E+00  3.5149685E+01
 8.6422501E+00  3.5066288E+01
 8.6537504E+00  3.4927879E+01
 8.6652508E+00  3.4848679E+01
 8.6767502E+00  3.4661037E+01
 8.6882505E+00  3.4568489E+01
 8.6997509E+00  3.4443550E+01
 8.7112503E+00  3.4275059E+01
 8.7227507E+00  3.4073288E+01
 8.7342501E+00  3.3831055E+01
 8.7457504E+00  3.3614296E+01
 8.7572508E+00  3.3498322E+01
 8.7687502E+00  3.3364681E+01
 8.7802505E+00  3.3229176E+01
 8.7917500E+00  3.3016922E+01
 8.8032503E+00  3.2807095E+01
 8.8147507E+00  3.2646549E+01
 8.8262501E+00  3.2483948E+01
 8.8377504E+00  3.2364853E+01
 8.8492508E+00  3.2276279E+01
 8.8607502E+00  3.2122822E+01
 8.8722506E+00  3.1934444E+01
 8.8837500E+00  3.1703655E+01
 8.8952503E+00  3.1501074E+01
 8.9067507E+00  3.1311798E+01
 8.9182501E+00  3.1138336E+01
 8.9297504E+00  3.0973589E+01
 8.9412508E+00  3.0801107E+01
 8.9527502E+00  3.0692070E+01
 8.9642506E+00  3.0603321E+01
 8.9757500E+00  3.0449732E+01
 8.9872503E+00  3.0275019E+01
 8.9987507E+00  3.0081762E+01
 9.0102501E+00  2.9901503E+01
 9.0217505E+00  2.9737257E+01
 9.0332508E+00  2.9650879E+01
 9.0447502E+00  2.9626371E+01
 9.0562506E+00  2.9548727E+01
 9.0677500E+00  2.9496374E+01
 9.0792503E+00  2.9401423E+01
 9.0907507E+00  2.9326193E+01
 9.1022501E+00  2.9173681E+01
 9.1137505E+00  2.9064583E+01
 9.1252508E+00  2.8959070E+01
 9.1367502E+00  2.8847313E+01
 9.1482506E+00  2.8737803E+01
 9.1597500E+00  2.8538097E+01
 9.1712503E+00  2.8398737E+01
 9.1827507E+00  2.8240780E+01
 9.1942501E+00  2.8102751E+01
 9.2057505E+00  2.7940777E+01
 9.2172508E+00  2.7881426E+01
 9.2287502E+00  2.7739252E+01
 9.2402506E+00  2.7655479E+01
 9.2517500E+00  2.7412466E+01
 9.2632504E+00  2.7324989E+01
 9.2747507E+00  2.7226570E+01
 9.2862501E+00  2.7159792E+01
 9.2977505E+00  2.7116491E+01
 9.3092508E+00  2.7021927E+01
 9.3207502E+00  2.6903624E+01
 9.3322506E+00  2.6859922E+01
 9.3437500E+00  2.6777840E+01
 9.3552504E+00  2.6812193E+01
 9.3667507E+00  2.6765549E+01
 9.3782501E+00  2.6957905E+01
 9.3897505E+00  2.7000296E+01
 9.4012508E+00  2.6918224E+01
 9.4127502E+00  2.6802116E+01
 9.4242506E+00  2.6680288E+01
 9.4357500E+00  2.6638683E+01
 9.4472504E+00  2.6474789E+01
 9.4587507E+00  2.6363010E+01
 9.4702501E+00  2.6272028E+01
 9.4817505E+00  2.6225183E+01
 9.4932508E+00  2.6126760E+01
 9.5047503E+00  2.6089067E+01
 9.5162506E+00  2.5961756E+01
 9.5277500E+00  2.5837137E+01
 9.5392504E+00  2.5793463E+01
 9.5507507E+00  2.5708941E+01
 9.5622501E+00  2.5682220E+01
 9.5737505E+00  2.5573406E+01
 9.5852509E+00  2.5485708E+01
 9.5967503E+00  2.5483791E+01
 9.6082506E+00  2.5456882E+01
 9.6197500E+00  2.5419321E+01
 9.6312504E+00  2.5344316E+01
 9.6427507E+00  2.5195114E+01
 9.6542501E+00  2.5145643E+01
 9.6657505E+00  2.5041828E+01
 9.6772509E+00  2.4941818E+01
 9.6887503E+00  2.4817223E+01
 9.7002506E+00  2.4727259E+01
 9.7117500E+00  2.4735909E+01
 9.7232504E+00  2.4700865E+01
 9.7347507E+00  2.4685869E+01
 9.7462502E+00  2.4682255E+01
 9.7577505E+00  2.4692694E+01
 9.7692509E+00  2.4636347E+01
 9.7807503E+00  2.4629791E+01
 9.7922506E+00  2.4636967E+01
 9.8037500E+00  2.4689032E+01
 9.8152504E+00  2.4658140E+01
 9.8267508E+00  2.4537933E+01
 9.8382502E+00  2.4495199E+01
 9.8497505E+00  2.4379044E+01
 9.8612509E+00  2.4333467E+01
 9.8727503E+00  2.4215925E+01
 9.8842506E+00  2.4150864E+01
 9.8957500E+00  2.4128717E+01
 9.9072504E+00  2.4136244E+01
 9.9187508E+00  2.4166000E+01
 9.9302502E+00  2.4183773E+01
 9.9417505E+00  2.4139837E+01
 9.9532509E+00  2.4095379E+01
 9.9647503E+00  2.4047314E+01
 9.9762506E+00  2.3994577E+01
 9.9877501E+00  2.3929308E+01
 9.9992504E+00  2.3838537E+01
 1.0010751E+01  2.3777998E+01
 1.0022250E+01  2.3780424E+01
 1.0033751E+01  2.3776184E+01
 1.0045251E+01  2.3812008E+01
 1.0056750E+01  2.3771921E+01
 1.0068251E+01  2.3779709E+01
 1.0079750E+01  2.3771736E+01
 1.0091250E+01  2.3784855E+01
 1.0102751E+01  2.3812256E+01
 1.0114250E+01  2.3834373E+01
 1.0125751E+01  2.3860121E+01
 1.0137251E+01  2.3830725E+01
 1.0148750E+01  2.3798389E+01
 1.0160251E+01  2.3765854E+01
 1.0171750E+01  2.3731691E+01
 1.0183250E+01  2.3695450E+01
 1.0194751E+01  2.3628756E+01
 1.0206250E+01  2.3562935E+01
 1.0217751E+01  2.3494196E+01
 1.0229251E+01  2.3388987E+01
 1.0240750E+01  2.3345390E+01
 1.0252251E+01  2.3264446E+01
 1.0263750E+01  2.3283012E+01
 1.0275250E+01  2.3244032E+01
 1.0286751E+01  2.3198372E+01
 1.0298250E+01  2.3178232E+01
 1.0309751E+01  2.3117443E+01
 1.0321251E+01  2.3081911E+01
 1.0332750E+01  2.3049992E+01
 1.0344251E+01  2.3056597E+01
 1.0355750E+01  2.3063971E+01
 1.0367250E+01  2.3020380E+01
 1.0378751E+01  2.2998072E+01
 1.0390250E+01  2.3012648E+01
 1.0401751E+01  2.3031761E+01
 1.0413251E+01  2.2999517E+01
 1.0424750E+01  2.2958754E+01
 1.0436251E+01  2.2936501E+01
 1.0447750E+01  2.2921183E+01
 1.0459250E+01  2.2889187E+01
 1.0470751E+01  2.2832987E+01
 1.0482250E+01  2.2849773E+01
 1.0493751E+01  2.2932995E+01
 1.0505251E+01  2.2946703E+01
 1.0516750E+01  2.3016752E+01
 1.0528251E+01  2.2898502E+01
 1.0539750E+01  2.2874388E+01
 1.0551250E+01  2.2788548E+01
 1.0562751E+01  2.2815111E+01
 1.0574250E+01  2.2771276E+01
 1.0585751E+01  2.2703796E+01
 1.0597251E+01  2.2662271E+01
 1.0608750E+01  2.2647596E+01
 1.0620251E+01  2.2633528E+01
 1.0631750E+01  2.2666618E+01
 1.0643250E+01  2.2667194E+01
 1.0654751E+01  2.2672932E+01
 1.0666250E+01  2.2663284E+01
 1.0677751E+01  2.2641268E+01
 1.0689251E+01  2.2587263E+01
 1.0700750E+01  2.2505707E+01
 1.0712251E+01  2.2518080E+01
 1.0723750E+01  2.2543308E+01
 1.0735250E+01  2.2556309E+01
 1.0746751E+01  2.2561035E+01
 1.0758250E+01  2.2514082E+01
 1.0769751E+01  2.2531952E+01
 1.0781251E+01  2.2518429E+01
 1.0792750E+01  2.2574606E+01
 1.0804251E+01  2.2550461E+01
 1.0815750E+01  2.2524927E+01
 1.0827250E+01  2.2473225E+01
 1.0838751E+01  2.2434338E+01
 1.0850250E+01  2.2402777E+01
 1.0861751E+01  2.2391968E+01
 1.0873251E+01  2.2362894E+01
 1.0884750E+01  2.2283831E+01
 1.0896251E+01  2.2263815E+01
 1.0907750E+01  2.2273048E+01
 1.0919250E+01  2.2309263E+01
 1.0930751E+01  2.2338619E+01
 1.0942250E+01  2.2320389E+01
 1.0953751E+01  2.2279562E+01
 1.0965251E+01  2.2196690E+01
 1.0976750E+01  2.2192188E+01
 1.0988251E+01  2.2188976E+01
 1.0999750E+01  2.2194296E+01
 1.1011250E+01  2.2173212E+01
 1.1022751E+01  2.2186956E+01
 1.1034250E+01  2.2201769E+01
 1.1045751E+01  2.2169270E+01
 1.1057251E+01  2.2148245E+01
 1.1068750E+01  2.2101566E+01
 1.1080251E+01  2.2122013E+01
 1.1091750E+01  2.2135019E+01
 1.1103251E+01  2.2196957E+01
 1.1114751E+01  2.2222630E+01
 1.1126250E+01  2.2227970E+01
 1.1137751E+01  2.2206964E+01
 1.1149251E+01  2.2196898E+01
 1.1160750E+01  2.2208763E+01
 1.1172251E+01  2.2191862E+01
 1.1183750E+01  2.2167654E+01
 1.1195251E+01  2.2120411E+01
 1.1206751E+01  2.2111479E+01
 1.1218250E+01  2.2084663E+01
 1.1229751E+01  2.2079134E+01
 1.1241251E+01  2.2048500E+01
 1.1252750E+01  2.2090687E+01
 1.1264251E+01  2.2065830E+01
 1.1275750E+01  2.2063873E+01
 1.1287251E+01  2.2043262E+01
 1.1298751E+01  2.2078243E+01
 1.1310250E+01  2.2167477E+01
 1.1321751E+01  2.2167515E+01
 1.1333251E+01  2.2193722E+01
 1.1344750E+01  2.2192200E+01
 1.1356251E+01  2.2248487E+01
 1.1367750E+01  2.2296434E+01
 1.1379251E+01  2.2300322E+01
 1.1390751E+01  2.2352774E+01
 1.1402250E+01  2.2459526E+01
 1.1413751E+01  2.2476736E+01
 1.1425251E+01  2.2472864E+01
 1.1436750E+01  2.2440126E+01
 1.1448251E+01  2.2474773E+01
 1.1459750E+01  2.2517548E+01
 1.1471251E+01  2.2575848E+01
 1.1482751E+01  2.2620333E+01
 1.1494250E+01  2.2766012E+01
 1.1505751E+01  2.3006569E+01
 1.1517251E+01  2.3275759E+01
 1.1528750E+01  2.4067554E+01
 1.1540251E+01  2.5074291E+01
 1.1551750E+01  2.6159510E+01
 1.1563251E+01  2.7964470E+01
 1.1574751E+01  2.9228008E+01
 1.1586250E+01  3.0634274E+01
 1.1597751E+01  3.2287048E+01
 1.1609251E+01  3.1713074E+01
 1.1620750E+01  3.2035366E+01
 1.1632251E+01  2.9085962E+01
 1.1643750E+01  2.8348083E+01
 1.1655251E+01  2.5878822E+01
 1.1666751E+01  2.4823317E+01
 1.1678250E+01  2.3676531E+01
 1.1689751E+01  2.3123865E+01
 1.1701251E+01  2.2722565E+01
 1.1712750E+01  2.2565041E+01
 1.1724251E+01  2.2445335E+01
 1.1735750E+01  2.2367865E+01
 1.1747251E+01  2.2331600E+01
 1.1758751E+01  2.2254410E+01
 1.1770250E+01  2.2178631E+01
 1.1781751E+01  2.2103069E+01
 1.1793251E+01  2.2088190E+01
 1.1804750E+01  2.2072010E+01
 1.1816251E+01  2.2134890E+01
 1.1827750E+01  2.2155411E+01
 1.1839251E+01  2.2216488E+01
 1.1850751E+01  2.2176506E+01
 1.1862250E+01  2.2198339E+01
 1.1873751E+01  2.2174232E+01
 1.1885251E+01  2.2232885E+01
 1.1896750E+01  2.2270691E+01
 1.1908251E+01  2.2354359E+01
 1.1919750E+01  2.2472729E+01
 1.1931251E+01  2.2527708E+01
 1.1942751E+01  2.2626526E+01
 1.1954250E+01  2.2727243E+01
 1.1965751E+01  2.2774275E+01
 1.1977251E+01  2.2848452E+01
 1.1988750E+01  2.2989672E+01
 1.2000251E+01  2.3044306E+01
 1.2011750E+01  2.3068558E+01
 1.2023251E+01  2.2944664E+01
 1.2034751E+01  2.2976812E+01
 1.2046250E+01  2.3169479E+01
 1.2057751E+01  2.3372744E+01
 1.2069251E+01  2.4223761E+01
 1.2080750E+01  2.5010490E+01
 1.2092251E+01  2.5706579E+01
 1.2103750E+01  2.6201574E+01
 1.2115251E+01  2.5863846E+01
 1.2126751E+01  2.5438553E+01
 1.2138250E+01  2.4484404E+01
 1.2149751E+01  2.3881752E+01
 1.2161251E+01  2.3323858E+01
 1.2172750E+01  2.2815477E+01
 1.2184251E+01  2.2608444E+01
 1.2195750E+01  2.2466305E+01
 1.2207251E+01  2.2356970E+01
 1.2218751E+01  2.2310152E+01
 1.2230250E+01  2.2267771E+01
 1.2241751E+01  2.2220837E+01
 1.2253251E+01  2.2182266E+01
 1.2264750E+01  2.2186966E+01
 1.2276251E+01  2.2213942E+01
 1.2287750E+01  2.2260614E+01
 1.2299251E+01  2.2298782E+01
 1.2310751E+01  2.2337946E+01
 1.2322250E+01  2.2371950E+01
 1.2333751E+01  2.2376997E+01
 1.2345250E+01  2.2309204E+01
 1.2356750E+01  2.2263367E+01
 1.2368251E+01  2.2241304E+01
 1.2379750E+01  2.2311739E+01
 1.2391251E+01  2.2337925E+01
 1.2402751E+01  2.2333475E+01
 1.2414250E+01  2.2333197E+01
 1.2425751E+01  2.2316153E+01
 1.2437250E+01  2.2317287E+01
 1.2448750E+01  2.2282923E+01
 1.2460251E+01  2.2225643E+01
 1.2471750E+01  2.2227779E+01
 1.2483251E+01  2.2229404E+01
 1.2494751E+01  2.2265806E+01
 1.2506250E+01  2.2278475E+01
 1.2517751E+01  2.2311556E+01
 1.2529250E+01  2.2330658E+01
 1.2540751E+01  2.2351583E+01
 1.2552251E+01  2.2343882E+01
 1.2563750E+01  2.2382692E+01
 1.2575251E+01  2.2323820E+01
 1.2586751E+01  2.2278610E+01
 1.2598250E+01  2.2186975E+01
 1.2609751E+01  2.2215536E+01
 1.2621250E+01  2.2250212E+01
 1.2632751E+01  2.2317600E+01
 1.2644251E+01  2.2345026E+01
 1.2655750E+01  2.2448156E+01
 1.2667251E+01  2.2498722E+01
 1.2678751E+01  2.2570753E+01
 1.2690250E+01  2.2572054E+01
 1.2701751E+01  2.2603607E+01
 1.2713250E+01  2.2644281E+01
 1.2724751E+01  2.2619108E+01
 1.2736251E+01  2.2659767E+01
 1.2747750E+01  2.2657494E+01
 1.2759251E+01  2.2685667E+01
 1.2770751E+01  2.2699139E+01
 1.2782250E+01  2.2773823E+01
 1.2793751E+01  2.2802954E+01
 1.2805250E+01  2.2875841E+01
 1.2816751E+01  2.2879427E+01
 1.2828251E+01  2.2939419E+01
 1.2839750E+01  2.2959116E+01
 1.2851251E+01  2.3020321E+01
 1.2862751E+01  2.3038687E+01
 1.2874250E+01  2.3048632E+01
 1.2885751E+01  2.3038284E+01
 1.2897250E+01  2.3093489E+01
 1.2908751E+01  2.3200649E+01
 1.2920251E+01  2.3290901E+01
 1.2931750E+01  2.3378620E+01
 1.2943251E+01  2.3385162E+01
 1.2954751E+01  2.3392220E+01
 1.2966250E+01  2.3434717E+01
 1.2977751E+01  2.3509836E+01
 1.2989250E+01  2.3602829E+01
 1.3000751E+01  2.3652376E+01
 1.3012251E+01  2.3663029E+01
 1.3023750E+01  2.3690662E+01
 1.3035251E+01  2.3738169E+01
 1.3046751E+01  2.3854319E+01
 1.3058250E+01  2.3940605E+01
 1.3069751E+01  2.3976316E+01
 1.3081250E+01  2.3991381E+01
 1.3092751E+01  2.4099003E+01
 1.3104251E+01  2.4310644E+01
 1.3115750E+01  2.4485914E+01
 1.3127251E+01  2.4629818E+01
 1.3138751E+01  2.4662914E+01
 1.3150250E+01  2.4792545E+01
 1.3161751E+01  2.4866400E+01
 1.3173250E+01  2.4971996E+01
 1.3184751E+01  2.5027481E+01
 1.3196251E+01  2.5139826E+01
 1.3207750E+01  2.5261892E+01
 1.3219251E+01  2.5388931E+01
 1.3230751E+01  2.5624100E+01
 1.3242250E+01  2.5862852E+01
 1.3253751E+01  2.6047417E+01
 1.3265250E+01  2.6107447E+01
 1.3276751E+01  2.6213938E+01
 1.3288251E+01  2.6309753E+01
 1.3299750E+01  2.6443630E+01
 1.3311251E+01  2.6548021E+01
 1.3322751E+01  2.6734175E+01
 1.3334250E+01  2.6928846E+01
 1.3345751E+01  2.7037298E+01
 1.3357250E+01  2.7188202E+01
 1.3368751E+01  2.7277115E+01
 1.3380251E+01  2.7482637E+01
 1.3391750E+01  2.7647173E+01
 1.3403251E+01  2.7818506E+01
 1.3414751E+01  2.7925352E+01
 1.3426250E+01  2.8005909E+01
 1.3437751E+01  2.8123980E+01
 1.3449250E+01  2.8255901E+01
 1.3460751E+01  2.8392956E+01
 1.3472251E+01  2.8550333E+01
 1.3483750E+01  2.8698393E+01
 1.3495251E+01  2.8811468E+01
 1.3506751E+01  2.8870564E+01
 1.3518250E+01  2.8933525E+01
 1.3529751E+01  2.8961950E+01
 1.3541250E+01  2.9046669E+01
 1.3552751E+01  2.9091213E+01
 1.3564251E+01  2.9194292E+01
 1.3575750E+01  2.9244720E+01
 1.3587251E+01  2.9314367E+01
 1.3598751E+01  2.9323908E+01
 1.3610250E+01  2.9325130E+01
 1.3621751E+01  2.9307751E+01
 1.3633250E+01  2.9288610E+01
 1.3644751E+01  2.9267647E+01
 1.3656251E+01  2.9202549E+01
 1.3667750E+01  2.9233194E+01
 1.3679251E+01  2.9268373E+01
 1.3690751E+01  2.9247482E+01
 1.3702250E+01  2.9166100E+01
 1.3713751E+01  2.9108356E+01
 1.3725250E+01  2.9125139E+01
 1.3736751E+01  2.9085110E+01
 1.3748251E+01  2.9056244E+01
 1.3759750E+01  2.9029615E+01
 1.3771251E+01  2.9033775E+01
 1.3782751E+01  2.9034582E+01
 1.3794250E+01  2.9017021E+01
 1.3805751E+01  2.9023649E+01
 1.3817250E+01  2.9029829E+01
 1.3828751E+01  2.9137684E+01
 1.3840251E+01  2.9297756E+01
 1.3851750E+01  2.9498699E+01
 1.3863251E+01  3.0189951E+01
 1.3874751E+01  3.0944593E+01
 1.3886250E+01  3.1977932E+01
 1.3897751E+01  3.5195232E+01
 1.3909250E+01  3.6474064E+01
 1.3920751E+01  4.0073204E+01
 1.3932251E+01  4.1970810E+01
 1.3943750E+01  4.2802067E+01
 1.3955251E+01  4.2614098E+01
 1.3966751E+01  4.0128529E+01
 1.3978251E+01  3.9288742E+01
 1.3989751E+01  3.6212635E+01
 1.4001250E+01  3.4257538E+01
 1.4012751E+01  3.2334618E+01
 1.4024251E+01  3.0510187E+01
 1.4035750E+01  2.9530535E+01
 1.4047251E+01  2.8700338E+01
 1.4058751E+01  2.8201550E+01
 1.4070251E+01  2.7878363E+01
 1.4081751E+01  2.7622084E+01
 1.4093250E+01  2.7414328E+01
 1.4104751E+01  2.7230038E+01
 1.4116251E+01  2.7105541E+01
 1.4127750E+01  2.7010275E+01
 1.4139251E+01  2.6960083E+01
 1.4150751E+01  2.6847801E+01
 1.4162251E+01  2.6740555E+01
 1.4173751E+01  2.6576744E+01
 1.4185250E+01  2.6477083E+01
 1.4196751E+01  2.6384642E+01
 1.4208251E+01  2.6288061E+01
 1.4219750E+01  2.6176889E+01
 1.4231251E+01  2.6065718E+01
 1.4242751E+01  2.6000366E+01
 1.4254251E+01  2.5966835E+01
 1.4265751E+01  2.5976204E+01
 1.4277250E+01  2.5935959E+01
 1.4288751E+01  2.5915108E+01
 1.4300251E+01  2.5847731E+01
 1.4311750E+01  2.5834925E+01
 1.4323251E+01  2.5763647E+01
 1.4334751E+01  2.5743580E+01
 1.4346251E+01  2.5717688E+01
 1.4357751E+01  2.5679264E+01
 1.4369250E+01  2.5607914E+01
 1.4380751E+01  2.5536949E+01
 1.4392251E+01  2.5529686E+01
 1.4403750E+01  2.5516621E+01
 1.4415251E+01  2.5535921E+01
 1.4426751E+01  2.5495190E+01
 1.4438251E+01  2.5474566E+01
 1.4449751E+01  2.5396837E+01
 1.4461250E+01  2.5312620E+01
 1.4472751E+01  2.5263773E+01
 1.4484251E+01  2.5269892E+01
 1.4495750E+01  2.5283197E+01
 1.4507251E+01  2.5270451E+01
 1.4518751E+01  2.5248631E+01
 1.4530251E+01  2.5239681E+01
 1.4541751E+01  2.5222502E+01
 1.4553250E+01  2.5221050E+01
 1.4564751E+01  2.5213404E+01
 1.4576251E+01  2.5175827E+01
 1.4587750E+01  2.5173777E+01
 1.4599251E+01  2.5176422E+01
 1.4610751E+01  2.5239033E+01
 1.4622251E+01  2.5216564E+01
 1.4633751E+01  2.5138695E+01
 1.4645250E+01  2.5038820E+01
 1.4656751E+01  2.4922951E+01
 1.4668251E+01  2.4848660E+01
 1.4679750E+01  2.4810665E+01
 1.4691251E+01  2.4867689E+01
 1.4702751E+01  2.4909971E+01
 1.4714251E+01  2.4844366E+01
 1.4725751E+01  2.4750851E+01
 1.4737250E+01  2.4660898E+01
 1.4748751E+01  2.4607311E+01
 1.4760251E+01  2.4573195E+01
 1.4771750E+01  2.4578808E+01
 1.4783251E+01  2.4556433E+01
 1.4794751E+01  2.4489178E+01
 1.4806251E+01  2.4428627E+01
 1.4817751E+01  2.4422415E+01
 1.4829250E+01  2.4461067E+01
 1.4840751E+01  2.4558060E+01
 1.4852251E+01  2.4601336E+01
 1.4863750E+01  2.4581274E+01
 1.4875251E+01  2.4496712E+01
 1.4886751E+01  2.4472187E+01
 1.4898251E+01  2.4526756E+01
 1.4909751E+01  2.4549603E+01
 1.4921250E+01  2.4535925E+01
 1.4932751E+01  2.4450300E+01
 1.4944251E+01  2.4417707E+01
 1.4955750E+01  2.4362507E+01
 1.4967251E+01  2.4354927E+01
 1.4978751E+01  2.4372303E+01
 1.4990251E+01  2.4381208E+01
 1.5001751E+01  2.4356554E+01
 1.5013250E+01  2.4370487E+01
 1.5024751E+01  2.4386517E+01
 1.5036251E+01  2.4438028E+01
 1.5047750E+01  2.4416769E+01
 1.5059251E+01  2.4487486E+01
 1.5070751E+01  2.4467045E+01
 1.5082251E+01  2.4457973E+01
 1.5093751E+01  2.4409153E+01
 1.5105250E+01  2.4472342E+01
 1.5116751E+01  2.4526024E+01
 1.5128251E+01  2.4662960E+01
 1.5139750E+01  2.4817045E+01
 1.5151251E+01  2.5064903E+01
 1.5162751E+01  2.5274494E+01
 1.5174251E+01  2.5478022E+01
 1.5185751E+01  2.5541492E+01
 1.5197250E+01  2.5607822E+01
 1.5208751E+01  2.5544327E+01
 1.5220251E+01  2.5474642E+01
 1.5231750E+01  2.5215456E+01
 1.5243251E+01  2.4984598E+01
 1.5254751E+01  2.4771490E+01
 1.5266251E+01  2.4524958E+01
 1.5277751E+01  2.4374645E+01
 1.5289250E+01  2.4303736E+01
 1.5300751E+01  2.4353062E+01
 1.5312251E+01  2.4349829E+01
 1.5323750E+01  2.4277140E+01
 1.5335251E+01  2.4222265E+01
 1.5346751E+01  2.4172617E+01
 1.5358251E+01  2.4201084E+01
 1.5369751E+01  2.4207018E+01
 1.5381250E+01  2.4190247E+01
 1.5392751E+01  2.4193743E+01
 1.5404251E+01  2.4149542E+01
 1.5415751E+01  2.4104820E+01
 1.5427251E+01  2.4058681E+01
 1.5438751E+01  2.4099400E+01
 1.5450251E+01  2.4137552E+01
 1.5461751E+01  2.4197054E+01
 1.5473250E+01  2.4246216E+01
 1.5484751E+01  2.4273272E+01
 1.5496251E+01  2.4239954E+01
 1.5507751E+01  2.4161711E+01
 1.5519251E+01  2.4102808E+01
 1.5530751E+01  2.4032112E+01
 1.5542251E+01  2.4024200E+01
 1.5553751E+01  2.4042475E+01
 1.5565250E+01  2.4137154E+01
 1.5576751E+01  2.4162374E+01
 1.5588251E+01  2.4212343E+01
 1.5599751E+01  2.4176222E+01
 1.5611251E+01  2.4203716E+01
 1.5622751E+01  2.4129385E+01
 1.5634251E+01  2.4166870E+01
 1.5645751E+01  2.4175896E+01
 1.5657250E+01  2.4225973E+01
 1.5668751E+01  2.4234682E+01
 1.5680251E+01  2.4273874E+01
 1.5691751E+01  2.4277073E+01
 1.5703251E+01  2.4269039E+01
 1.5714751E+01  2.4293882E+01
 1.5726251E+01  2.4313105E+01
 1.5737751E+01  2.4292944E+01
 1.5749250E+01  2.4255568E+01
 1.5760751E+01  2.4289518E+01
 1.5772251E+01  2.4310366E+01
 1.5783751E+01  2.4320873E+01
 1.5795251E+01  2.4279585E+01
 1.5806751E+01  2.4263567E+01
 1.5818251E+01  2.4195303E+01
 1.5829751E+01  2.4155161E+01
 1.5841250E+01  2.4150196E+01
 1.5852751E+01  2.4241444E+01
 1.5864251E+01  2.4252733E+01
 1.5875751E+01  2.4264511E+01
 1.5887251E+01  2.4220421E+01
 1.5898750E+01  2.4250122E+01
 1.5910251E+01  2.4271378E+01
 1.5921751E+01  2.4267397E+01
 1.5933250E+01  2.4271141E+01
 1.5944751E+01  2.4230467E+01
 1.5956251E+01  2.4185266E+01
 1.5967751E+01  2.4160997E+01
 1.5979251E+01  2.4163836E+01
 1.5990750E+01  2.4250561E+01
 1.6002251E+01  2.4267269E+01
 1.6013750E+01  2.4334366E+01
 1.6025251E+01  2.4379591E+01
 1.6036751E+01  2.4450504E+01
 1.6048250E+01  2.4469259E+01
 1.6059752E+01  2.4455383E+01
 1.6071251E+01  2.4407698E+01
 1.6082750E+01  2.4424074E+01
 1.6094252E+01  2.4437840E+01
 1.6105751E+01  2.4527655E+01
 1.6117250E+01  2.4526751E+01
 1.6128750E+01  2.4515284E+01
 1.6140251E+01  2.4485331E+01
 1.6151751E+01  2.4494450E+01
 1.6163250E+01  2.4553696E+01
 1.6174751E+01  2.4496273E+01
 1.6186251E+01  2.4654036E+01
 1.6197750E+01  2.4606661E+01
 1.6209251E+01  2.5034191E+01
 1.6220751E+01  2.5023943E+01
 1.6232250E+01  2.5545284E+01
 1.6243752E+01  2.5755507E+01
 1.6255251E+01  2.6133276E+01
 1.6266750E+01  2.6300539E+01
 1.6278252E+01  2.5935186E+01
 1.6289751E+01  2.5950785E+01
 1.6301250E+01  2.5255384E+01
 1.6312750E+01  2.5298700E+01
 1.6324251E+01  2.4767778E+01
 1.6335751E+01  2.4778530E+01
 1.6347250E+01  2.4518099E+01
 1.6358751E+01  2.4450794E+01
 1.6370251E+01  2.4402571E+01
 1.6381750E+01  2.4423903E+01
 1.6393251E+01  2.4536354E+01
 1.6404751E+01  2.4685081E+01
 1.6416250E+01  2.4808395E+01
 1.6427752E+01  2.4757910E+01
 1.6439251E+01  2.4629801E+01
 1.6450750E+01  2.4460331E+01
 1.6462252E+01  2.4340893E+01
 1.6473751E+01  2.4262407E+01
 1.6485250E+01  2.4252737E+01
 1.6496750E+01  2.4254694E+01
 1.6508251E+01  2.4224249E+01
 1.6519751E+01  2.4237841E+01
 1.6531250E+01  2.4239359E+01
 1.6542751E+01  2.4265543E+01
 1.6554251E+01  2.4248425E+01
 1.6565750E+01  2.4263628E+01
 1.6577251E+01  2.4225063E+01
 1.6588751E+01  2.4197931E+01
 1.6600250E+01  2.4238020E+01
 1.6611752E+01  2.4258514E+01
 1.6623251E+01  2.4252296E+01
 1.6634750E+01  2.4183987E+01
 1.6646252E+01  2.4150440E+01
 1.6657751E+01  2.4132004E+01
 1.6669250E+01  2.4140429E+01
 1.6680750E+01  2.4166492E+01
 1.6692251E+01  2.4171803E+01
 1.6703751E+01  2.4151854E+01
 1.6715250E+01  2.4114626E+01
 1.6726751E+01  2.4049721E+01
 1.6738251E+01  2.4044073E+01
 1.6749750E+01  2.4028303E+01
 1.6761251E+01  2.4050587E+01
 1.6772751E+01  2.4045109E+01
 1.6784250E+01  2.4065933E+01
 1.6795752E+01  2.4121185E+01
 1.6807251E+01  2.4139227E+01
 1.6818750E+01  2.4103436E+01
 1.6830252E+01  2.4041948E+01
 1.6841751E+01  2.4023317E+01
 1.6853251E+01  2.3989862E+01
 1.6864750E+01  2.4079285E+01
 1.6876251E+01  2.4117020E+01
 1.6887751E+01  2.4125597E+01
 1.6899250E+01  2.4063084E+01
 1.6910751E+01  2.4000401E+01
 1.6922251E+01  2.3968969E+01
 1.6933750E+01  2.3913683E+01
 1.6945251E+01  2.3938133E+01
 1.6956751E+01  2.3899290E+01
 1.6968250E+01  2.3892389E+01
 1.6979752E+01  2.3906721E+01
 1.6991251E+01  2.3916761E+01
 1.7002750E+01  2.3902843E+01
 1.7014252E+01  2.3915997E+01
 1.7025751E+01  2.3947493E+01
 1.7037251E+01  2.3961655E+01
 1.7048750E+01  2.3890099E+01
 1.7060251E+01  2.3825447E+01
 1.7071751E+01  2.3789022E+01
 1.7083250E+01  2.3782467E+01
 1.7094751E+01  2.3732729E+01
 1.7106251E+01  2.3740835E+01
 1.7117750E+01  2.3744944E+01
 1.7129251E+01  2.3785110E+01
 1.7140751E+01  2.3807205E+01
 1.7152250E+01  2.3810013E+01
 1.7163752E+01  2.3826986E+01
 1.7175251E+01  2.3837803E+01
 1.7186750E+01  2.3862669E+01
 1.7198252E+01  2.3882399E+01
 1.7209751E+01  2.3915228E+01
 1.7221251E+01  2.3959267E+01
 1.7232750E+01  2.3971392E+01
 1.7244251E+01  2.3957788E+01
 1.7255751E+01  2.3928797E+01
 1.7267250E+01  2.3854446E+01
 1.7278751E+01  2.3806080E+01
 1.7290251E+01  2.3824654E+01
 1.7301750E+01  2.3897432E+01
 1.7313251E+01  2.3942629E+01
 1.7324751E+01  2.3966267E+01
 1.7336250E+01  2.3939857E+01
 1.7347752E+01  2.3880268E+01
 1.7359251E+01  2.3804060E+01
 1.7370750E+01  2.3758814E+01
 1.7382252E+01  2.3693369E+01
 1.7393751E+01  2.3635359E+01
 1.7405251E+01  2.3596796E+01
 1.7416750E+01  2.3622967E+01
 1.7428251E+01  2.3637199E+01
 1.7439751E+01  2.3678432E+01
 1.7451250E+01  2.3684296E+01
 1.7462751E+01  2.3714783E+01
 1.7474251E+01  2.3695606E+01
 1.7485750E+01  2.3719034E+01
 1.7497252E+01  2.3706915E+01
 1.7508751E+01  2.3634472E+01
 1.7520250E+01  2.3554144E+01
 1.7531752E+01  2.3509056E+01
 1.7543251E+01  2.3523472E+01
 1.7554750E+01  2.3510035E+01
 1.7566252E+01  2.3533974E+01
 1.7577751E+01  2.3560942E+01
 1.7589251E+01  2.3571012E+01
 1.7600750E+01  2.3568796E+01
 1.7612251E+01  2.3556448E+01
 1.7623751E+01  2.3542236E+01
 1.7635250E+01  2.3457497E+01
 1.7646751E+01  2.3419346E+01
 1.7658251E+01  2.3387466E+01
 1.7669750E+01  2.3426769E+01
 1.7681252E+01  2.3465673E+01
 1.7692751E+01  2.3549370E+01
 1.7704250E+01  2.3555077E+01
 1.7715752E+01  2.3508364E+01
 1.7727251E+01  2.3450796E+01
 1.7738750E+01  2.3460196E+01
 1.7750252E+01  2.3533411E+01
 1.7761751E+01  2.3581095E+01
 1.7773251E+01  2.3645483E+01
 1.7784750E+01  2.3629196E+01
 1.7796251E+01  2.3653114E+01
 1.7807751E+01  2.3583378E+01
 1.7819250E+01  2.3541737E+01
 1.7830751E+01  2.3486448E+01
 1.7842251E+01  2.3487696E+01
 1.7853750E+01  2.3493753E+01
 1.7865252E+01  2.3476679E+01
 1.7876751E+01  2.3487808E+01
 1.7888250E+01  2.3450907E+01
 1.7899752E+01  2.3449738E+01
 1.7911251E+01  2.3456749E+01
 1.7922750E+01  2.3531231E+01
 1.7934252E+01  2.3555595E+01
 1.7945751E+01  2.3591711E+01
 1.7957251E+01  2.3677227E+01
 1.7968750E+01  2.3771154E+01
 1.7980251E+01  2.3933289E+01
 1.7991751E+01  2.4011292E+01
 1.8003250E+01  2.4161800E+01
 1.8014751E+01  2.4239267E+01
 1.8026251E+01  2.4374601E+01
 1.8037750E+01  2.4574499E+01
 1.8049252E+01  2.4856358E+01
 1.8060751E+01  2.5430466E+01
 1.8072250E+01  2.6007006E+01
 1.8083752E+01  2.6899561E+01
 1.8095251E+01  2.7835934E+01
 1.8106750E+01  2.8544537E+01
 1.8118252E+01  2.8786043E+01
 1.8129751E+01  2.8708475E+01
 1.8141251E+01  2.8138683E+01
 1.8152750E+01  2.7271851E+01
 1.8164251E+01  2.6227211E+01
 1.8175751E+01  2.5316416E+01
 1.8187250E+01  2.4662298E+01
 1.8198751E+01  2.4238234E+01
 1.8210251E+01  2.3987507E+01
 1.8221750E+01  2.3787849E+01
 1.8233252E+01  2.3643705E+01
 1.8244751E+01  2.3544291E+01
 1.8256250E+01  2.3432039E+01
 1.8267752E+01  2.3414558E+01
 1.8279251E+01  2.3407902E+01
 1.8290751E+01  2.3394802E+01
 1.8302252E+01  2.3339363E+01
 1.8313751E+01  2.3274221E+01
 1.8325251E+01  2.3238977E+01
 1.8336750E+01  2.3253277E+01
 1.8348251E+01  2.3319178E+01
 1.8359751E+01  2.3415014E+01
 1.8371250E+01  2.3400328E+01
 1.8382751E+01  2.3400925E+01
 1.8394251E+01  2.3353413E+01
 1.8405750E+01  2.3397163E+01
 1.8417252E+01  2.3348633E+01
 1.8428751E+01  2.3288336E+01
 1.8440250E+01  2.3234158E+01
 1.8451752E+01  2.3171839E+01
 1.8463251E+01  2.3175119E+01
 1.8474751E+01  2.3181841E+01
 1.8486252E+01  2.3229097E+01
 1.8497751E+01  2.3239775E+01
 1.8509251E+01  2.3292437E+01
 1.8520750E+01  2.3289490E+01
 1.8532251E+01  2.3249449E+01
 1.8543751E+01  2.3175503E+01
 1.8555250E+01  2.3184662E+01
 1.8566751E+01  2.3171371E+01
 1.8578251E+01  2.3223204E+01
 1.8589750E+01  2.3228546E+01
 1.8601252E+01  2.3263252E+01
 1.8612751E+01  2.3206394E+01
 1.8624250E+01  2.3200678E+01
 1.8635752E+01  2.3232958E+01
 1.8647251E+01  2.3236359E+01
 1.8658751E+01  2.3183964E+01
 1.8670252E+01  2.3151493E+01
 1.8681751E+01  2.3159147E+01
 1.8693251E+01  2.3171137E+01
 1.8704750E+01  2.3192194E+01
 1.8716251E+01  2.3198917E+01
 1.8727751E+01  2.3174536E+01
 1.8739250E+01  2.3129566E+01
 1.8750751E+01  2.3095623E+01
 1.8762251E+01  2.3091066E+01
 1.8773750E+01  2.3075787E+01
 1.8785252E+01  2.3091219E+01
 1.8796751E+01  2.3137701E+01
 1.8808250E+01  2.3151587E+01
 1.8819752E+01  2.3182495E+01
 1.8831251E+01  2.3135988E+01
 1.8842751E+01  2.3129774E+01
 1.8854252E+01  2.3090237E+01
 1.8865751E+01  2.3112051E+01
 1.8877251E+01  2.3129560E+01
 1.8888750E+01  2.3183750E+01
 1.8900251E+01  2.3219681E+01
 1.8911751E+01  2.3225492E+01
 1.8923250E+01  2.3227556E+01
 1.8934752E+01  2.3254745E+01
 1.8946251E+01  2.3258989E+01
 1.8957750E+01  2.3234978E+01
 1.8969252E+01  2.3182144E+01
 1.8980751E+01  2.3154411E+01
 1.8992250E+01  2.3134495E+01
 1.9003752E+01  2.3112734E+01
 1.9015251E+01  2.3178122E+01
 1.9026751E+01  2.3216284E+01
 1.9038252E+01  2.3259144E+01
 1.9049751E+01  2.3256403E+01
 1.9061251E+01  2.3266127E+01
 1.9072750E+01  2.3290703E+01
 1.9084251E+01  2.3309383E+01
 1.9095751E+01  2.3318920E+01
 1.9107250E+01  2.3310844E+01
 1.9118752E+01  2.3342237E+01
 1.9130251E+01  2.3449564E+01
 1.9141750E+01  2.3495739E+01
 1.9153252E+01  2.3564692E+01
 1.9164751E+01  2.3488977E+01
 1.9176250E+01  2.3434834E+01
 1.9187752E+01  2.3364395E+01
 1.9199251E+01  2.3304245E+01
 1.9210751E+01  2.3273829E+01
 1.9222252E+01  2.3224775E+01
 1.9233751E+01  2.3226427E+01
 1.9245251E+01  2.3223923E+01
 1.9256750E+01  2.3242798E+01
 1.9268251E+01  2.3262119E+01
 1.9279751E+01  2.3190639E+01
 1.9291250E+01  2.3194178E+01
 1.9302752E+01  2.3191088E+01
 1.9314251E+01  2.3263582E+01
 1.9325750E+01  2.3295244E+01
 1.9337252E+01  2.3380005E+01
 1.9348751E+01  2.3427771E+01
 1.9360250E+01  2.3464504E+01
 1.9371752E+01  2.3458614E+01
 1.9383251E+01  2.3464952E+01
 1.9394751E+01  2.3489161E+01
 1.9406250E+01  2.3568676E+01
 1.9417751E+01  2.3611782E+01
 1.9429251E+01  2.3636423E+01
 1.9440750E+01  2.3540741E+01
 1.9452251E+01  2.3436243E+01
 1.9463751E+01  2.3360203E+01
 1.9475250E+01  2.3395561E+01
 1.9486752E+01  2.3443657E+01
 1.9498251E+01  2.3530476E+01
 1.9509750E+01  2.3593750E+01
 1.9521252E+01  2.3654482E+01
 1.9532751E+01  2.3653194E+01
 1.9544250E+01  2.3641319E+01
 1.9555752E+01  2.3580359E+01
 1.9567251E+01  2.3561182E+01
 1.9578751E+01  2.3567286E+01
 1.9590250E+01  2.3600071E+01
 1.9601751E+01  2.3645750E+01
 1.9613251E+01  2.3691628E+01
 1.9624750E+01  2.3798714E+01
 1.9636251E+01  2.3961964E+01
 1.9647751E+01  2.4179878E+01
 1.9659250E+01  2.4473663E+01
 1.9670752E+01  2.4987007E+01
 1.9682251E+01  2.5480621E+01
 1.9693750E+01  2.6366220E+01
 1.9705252E+01  2.6996159E+01
 1.9716751E+01  2.7513315E+01
 1.9728251E+01  2.7694090E+01
 1.9739752E+01  2.7525389E+01
 1.9751251E+01  2.7474674E+01
 1.9762751E+01  2.6887829E+01
 1.9774250E+01  2.6364956E+01
 1.9785751E+01  2.5811565E+01
 1.9797251E+01  2.5515167E+01
 1.9808750E+01  2.5532263E+01
 1.9820251E+01  2.5705296E+01
 1.9831751E+01  2.6195314E+01
 1.9843250E+01  2.6722244E+01
 1.9854752E+01  2.7295481E+01
 1.9866251E+01  2.7827242E+01
 1.9877750E+01  2.7967245E+01
 1.9889252E+01  2.7755814E+01
 1.9900751E+01  2.7088921E+01
 1.9912251E+01  2.6325207E+01
 1.9923752E+01  2.5450651E+01
 1.9935251E+01  2.4715841E+01
 1.9946751E+01  2.4260479E+01
 1.9958250E+01  2.3948553E+01
 1.9969751E+01  2.3822449E+01
 1.9981251E+01  2.3678640E+01
 1.9992750E+01  2.3631504E+01
 2.0004251E+01  2.3630474E+01
 2.0015751E+01  2.3645676E+01
 2.0027250E+01  2.3642700E+01
 2.0038752E+01  2.3627472E+01
 2.0050251E+01  2.3613272E+01
 2.0061750E+01  2.3570187E+01
 2.0073252E+01  2.3518522E+01
 2.0084751E+01  2.3484295E+01
 2.0096251E+01  2.3494793E+01
 2.0107752E+01  2.3478678E+01
 2.0119251E+01  2.3488590E+01
 2.0130751E+01  2.3452095E+01
 2.0142250E+01  2.3427156E+01
 2.0153751E+01  2.3447222E+01
 2.0165251E+01  2.3459829E+01
 2.0176750E+01  2.3494761E+01
 2.0188251E+01  2.3457678E+01
 2.0199751E+01  2.3421131E+01
 2.0211250E+01  2.3351372E+01
 2.0222752E+01  2.3334568E+01
 2.0234251E+01  2.3316242E+01
 2.0245750E+01  2.3336256E+01
 2.0257252E+01  2.3310680E+01
 2.0268751E+01  2.3301250E+01
 2.0280251E+01  2.3297356E+01
 2.0291752E+01  2.3351006E+01
 2.0303251E+01  2.3381243E+01
 2.0314751E+01  2.3403166E+01
 2.0326250E+01  2.3400047E+01
 2.0337751E+01  2.3396296E+01
 2.0349251E+01  2.3412924E+01
 2.0360750E+01  2.3422342E+01
 2.0372252E+01  2.3421841E+01
 2.0383751E+01  2.3360607E+01
 2.0395250E+01  2.3379202E+01
 2.0406752E+01  2.3389299E+01
 2.0418251E+01  2.3443521E+01
 2.0429750E+01  2.3489162E+01
 2.0441252E+01  2.3480982E+01
 2.0452751E+01  2.3451406E+01
 2.0464251E+01  2.3399084E+01
 2.0475752E+01  2.3443933E+01
 2.0487251E+01  2.3448410E+01
 2.0498751E+01  2.3504164E+01
 2.0510250E+01  2.3511642E+01
 2.0521751E+01  2.3478241E+01
 2.0533251E+01  2.3425453E+01
 2.0544750E+01  2.3416780E+01
 2.0556252E+01  2.3479305E+01
 2.0567751E+01  2.3526644E+01
 2.0579250E+01  2.3569029E+01
 2.0590752E+01  2.3613150E+01
 2.0602251E+01  2.3663414E+01
 2.0613750E+01  2.3720425E+01
 2.0625252E+01  2.3763189E+01
 2.0636751E+01  2.3795643E+01
 2.0648251E+01  2.3893400E+01
 2.0659752E+01  2.3990633E+01
 2.0671251E+01  2.4157530E+01
 2.0682751E+01  2.4430689E+01
 2.0694250E+01  2.4924847E+01
 2.0705751E+01  2.5572041E+01
 2.0717251E+01  2.6360977E+01
 2.0728750E+01  2.6967106E+01
 2.0740252E+01  2.7126776E+01
 2.0751751E+01  2.6779091E+01
 2.0763250E+01  2.6250578E+01
 2.0774752E+01  2.5710997E+01
 2.0786251E+01  2.5223726E+01
 2.0797750E+01  2.4850195E+01
 2.0809252E+01  2.4562342E+01
 2.0820751E+01  2.4310614E+01
 2.0832251E+01  2.4086100E+01
 2.0843752E+01  2.3894100E+01
 2.0855251E+01  2.3765036E+01
 2.0866751E+01  2.3707788E+01
 2.0878250E+01  2.3670214E+01
 2.0889751E+01  2.3665186E+01
 2.0901251E+01  2.3681782E+01
 2.0912750E+01  2.3712173E+01
 2.0924252E+01  2.3744511E+01
 2.0935751E+01  2.3740816E+01
 2.0947250E+01  2.3710718E+01
 2.0958752E+01  2.3613443E+01
 2.0970251E+01  2.3569881E+01
 2.0981750E+01  2.3550362E+01
 2.0993252E+01  2.3580374E+01
 2.1004751E+01  2.3610659E+01
 2.1016251E+01  2.3630133E+01
 2.1027752E+01  2.3630774E+01
 2.1039251E+01  2.3593891E+01
 2.1050751E+01  2.3577883E+01
 2.1062250E+01  2.3591192E+01
 2.1073751E+01  2.3629278E+01
 2.1085251E+01  2.3622082E+01
 2.1096750E+01  2.3597719E+01
 2.1108252E+01  2.3590342E+01
 2.1119751E+01  2.3625092E+01
 2.1131250E+01  2.3656296E+01
 2.1142752E+01  2.3646158E+01
 2.1154251E+01  2.3588039E+01
 2.1165751E+01  2.3560743E+01
 2.1177252E+01  2.3585987E+01
 2.1188751E+01  2.3608940E+01
 2.1200251E+01  2.3618528E+01
 2.1211752E+01  2.3643583E+01
 2.1223251E+01  2.3638596E+01
 2.1234751E+01  2.3640190E+01
 2.1246250E+01  2.3671070E+01
 2.1257751E+01  2.3712065E+01
 2.1269251E+01  2.3691580E+01
 2.1280750E+01  2.3681677E+01
 2.1292252E+01  2.3650900E+01
 2.1303751E+01  2.3575434E+01
 2.1315250E+01  2.3536770E+01
 2.1326752E+01  2.3566011E+01
 2.1338251E+01  2.3576698E+01
 2.1349751E+01  2.3548439E+01
 2.1361252E+01  2.3578302E+01
 2.1372751E+01  2.3617100E+01
 2.1384251E+01  2.3640507E+01
 2.1395752E+01  2.3597309E+01
 2.1407251E+01  2.3600084E+01
 2.1418751E+01  2.3571592E+01
 2.1430250E+01  2.3611254E+01
 2.1441751E+01  2.3594017E+01
 2.1453251E+01  2.3593256E+01
 2.1464750E+01  2.3602486E+01
 2.1476252E+01  2.3596977E+01
 2.1487751E+01  2.3683449E+01
 2.1499250E+01  2.3728386E+01
 2.1510752E+01  2.3816391E+01
 2.1522251E+01  2.3807072E+01
 2.1533751E+01  2.3785234E+01
 2.1545252E+01  2.3756451E+01
 2.1556751E+01  2.3725540E+01
 2.1568251E+01  2.3734968E+01
 2.1579752E+01  2.3745125E+01
 2.1591251E+01  2.3730211E+01
 2.1602751E+01  2.3705931E+01
 2.1614250E+01  2.3698910E+01
 2.1625751E+01  2.3720026E+01
 2.1637251E+01  2.3752243E+01
 2.1648750E+01  2.3769955E+01
 2.1660252E+01  2.3788691E+01
 2.1671751E+01  2.3792667E+01
 2.1683250E+01  2.3808573E+01
 2.1694752E+01  2.3789225E+01
 2.1706251E+01  2.3750456E+01
 2.1717751E+01  2.3749537E+01
 2.1729252E+01  2.3743505E+01
 2.1740751E+01  2.3738663E+01
 2.1752251E+01  2.3704794E+01
 2.1763752E+01  2.3679213E+01
 2.1775251E+01  2.3740356E+01
 2.1786751E+01  2.3790577E+01
 2.1798250E+01  2.3864491E+01
 2.1809752E+01  2.3871473E+01
 2.1821251E+01  2.3889036E+01
 2.1832750E+01  2.3879307E+01
 2.1844252E+01  2.3885464E+01
 2.1855751E+01  2.3926777E+01
 2.1867250E+01  2.3955093E+01
 2.1878752E+01  2.3988842E+01
 2.1890251E+01  2.3919113E+01
 2.1901751E+01  2.3911732E+01
 2.1913252E+01  2.3861820E+01
 2.1924751E+01  2.3848845E+01
 2.1936251E+01  2.3820614E+01
 2.1947752E+01  2.3795691E+01
 2.1959251E+01  2.3789223E+01
 2.1970751E+01  2.3807724E+01
 2.1982250E+01  2.3810141E+01
 2.1993752E+01  2.3865326E+01
 2.2005251E+01  2.3909189E+01
 2.2016750E+01  2.3980919E+01
 2.2028252E+01  2.4030926E+01
 2.2039751E+01  2.4029419E+01
 2.2051250E+01  2.4098503E+01
 2.2062752E+01  2.4080086E+01
 2.2074251E+01  2.4050575E+01
 2.2085751E+01  2.4017660E+01
 2.2097252E+01  2.3969843E+01
 2.2108751E+01  2.4024784E+01
 2.2120251E+01  2.4050123E+01
 2.2131752E+01  2.4063862E+01
 2.2143251E+01  2.4030237E+01
 2.2154751E+01  2.4001724E+01
 2.2166250E+01  2.3992941E+01
 2.2177752E+01  2.3969976E+01
 2.2189251E+01  2.3965855E+01
 2.2200750E+01  2.3979647E+01
 2.2212252E+01  2.4005468E+01
 2.2223751E+01  2.4028404E+01
 2.2235250E+01  2.4053555E+01
 2.2246752E+01  2.4099615E+01
 2.2258251E+01  2.4092865E+01
 2.2269751E+01  2.4081497E+01
 2.2281252E+01  2.4086958E+01
 2.2292751E+01  2.4121056E+01
 2.2304251E+01  2.4199619E+01
 2.2315752E+01  2.4221529E+01
 2.2327251E+01  2.4232218E+01
 2.2338751E+01  2.4220739E+01
 2.2350250E+01  2.4230774E+01
 2.2361752E+01  2.4250925E+01
 2.2373251E+01  2.4256054E+01
 2.2384750E+01  2.4246778E+01
 2.2396252E+01  2.4231258E+01
 2.2407751E+01  2.4224226E+01
 2.2419250E+01  2.4230801E+01
 2.2430752E+01  2.4237099E+01
 2.2442251E+01  2.4306719E+01
 2.2453751E+01  2.4371275E+01
 2.2465252E+01  2.4394796E+01
 2.2476751E+01  2.4387337E+01
 2.2488251E+01  2.4390825E+01
 2.2499752E+01  2.4413340E+01
 2.2511251E+01  2.4457952E+01
 2.2522751E+01  2.4481779E+01
 2.2534250E+01  2.4484331E+01
 2.2545752E+01  2.4496037E+01
 2.2557251E+01  2.4486534E+01
 2.2568750E+01  2.4466301E+01
 2.2580252E+01  2.4533592E+01
 2.2591751E+01  2.4574642E+01
 2.2603251E+01  2.4569141E+01
 2.2614752E+01  2.4561419E+01
 2.2626251E+01  2.4629616E+01
 2.2637751E+01  2.4666431E+01
 2.2649252E+01  2.4645187E+01
 2.2660751E+01  2.4584476E+01
 2.2672251E+01  2.4603561E+01
 2.2683752E+01  2.4655539E+01
 2.2695251E+01  2.4738258E+01
 2.2706751E+01  2.4770287E+01
 2.2718250E+01  2.4815102E+01
 2.2729752E+01  2.4836142E+01
 2.2741251E+01  2.4850584E+01
 2.2752750E+01  2.4883062E+01
 2.2764252E+01  2.4946348E+01
 2.2775751E+01  2.4999540E+01
 2.2787251E+01  2.5000179E+01
 2.2798752E+01  2.5074856E+01
 2.2810251E+01  2.5148407E+01
 2.2821751E+01  2.5158504E+01
 2.2833252E+01  2.5163912E+01
 2.2844751E+01  2.5212347E+01
 2.2856251E+01  2.5231674E+01
 2.2867750E+01  2.5260727E+01
 2.2879251E+01  2.5303467E+01
 2.2890751E+01  2.5350132E+01
 2.2902250E+01  2.5391891E+01
 2.2913752E+01  2.5494095E+01
 2.2925251E+01  2.5583044E+01
 2.2936750E+01  2.5661562E+01
 2.2948252E+01  2.5748343E+01
 2.2959751E+01  2.5834661E+01
 2.2971251E+01  2.6027992E+01
 2.2982752E+01  2.6188074E+01
 2.2994251E+01  2.6306736E+01
