F:\20151113_APS_34IDE\\Brian\Particle1\OCV\Data_0078.tif
2-Theta Angle (Degrees)
Intensity
       2000
 5.7500005E-03  0.0000000E+00
 1.7250001E-02  0.0000000E+00
 2.8750001E-02  0.0000000E+00
 4.0250003E-02  0.0000000E+00
 5.1750004E-02  0.0000000E+00
 6.3250005E-02  0.0000000E+00
 7.4750006E-02  0.0000000E+00
 8.6250007E-02  0.0000000E+00
 9.7750008E-02  0.0000000E+00
 1.0925001E-01  0.0000000E+00
 1.2075000E-01  0.0000000E+00
 1.3225001E-01  0.0000000E+00
 1.4375001E-01  0.0000000E+00
 1.5525001E-01  0.0000000E+00
 1.6675001E-01  0.0000000E+00
 1.7825001E-01  0.0000000E+00
 1.8975002E-01  0.0000000E+00
 2.0125002E-01  0.0000000E+00
 2.1275002E-01  0.0000000E+00
 2.2425000E-01  0.0000000E+00
 2.3575000E-01  0.0000000E+00
 2.4725001E-01  0.0000000E+00
 2.5875002E-01  0.0000000E+00
 2.7025002E-01  0.0000000E+00
 2.8175002E-01  0.0000000E+00
 2.9325002E-01  0.0000000E+00
 3.0475003E-01  0.0000000E+00
 3.1625003E-01  0.0000000E+00
 3.2775003E-01  0.0000000E+00
 3.3925003E-01  0.0000000E+00
 3.5075003E-01  0.0000000E+00
 3.6225003E-01  0.0000000E+00
 3.7375003E-01  0.0000000E+00
 3.8525003E-01  0.0000000E+00
 3.9675003E-01  0.0000000E+00
 4.0825003E-01  0.0000000E+00
 4.1975003E-01  0.0000000E+00
 4.3125004E-01  0.0000000E+00
 4.4275001E-01  0.0000000E+00
 4.5425001E-01  0.0000000E+00
 4.6575001E-01  0.0000000E+00
 4.7725001E-01  0.0000000E+00
 4.8875001E-01  0.0000000E+00
 5.0025004E-01  0.0000000E+00
 5.1175004E-01  0.0000000E+00
 5.2325004E-01  0.0000000E+00
 5.3475004E-01  0.0000000E+00
 5.4625005E-01  0.0000000E+00
 5.5775005E-01  0.0000000E+00
 5.6925005E-01  0.0000000E+00
 5.8075005E-01  0.0000000E+00
 5.9225005E-01  0.0000000E+00
 6.0375005E-01  0.0000000E+00
 6.1525005E-01  0.0000000E+00
 6.2675005E-01  0.0000000E+00
 6.3825005E-01  0.0000000E+00
 6.4975005E-01  0.0000000E+00
 6.6125005E-01  0.0000000E+00
 6.7275006E-01  0.0000000E+00
 6.8425006E-01  0.0000000E+00
 6.9575006E-01  0.0000000E+00
 7.0725006E-01  0.0000000E+00
 7.1875006E-01  0.0000000E+00
 7.3025006E-01  0.0000000E+00
 7.4175006E-01  0.0000000E+00
 7.5325006E-01  0.0000000E+00
 7.6475006E-01  0.0000000E+00
 7.7625006E-01  0.0000000E+00
 7.8775007E-01  0.0000000E+00
 7.9925007E-01  0.0000000E+00
 8.1075007E-01  0.0000000E+00
 8.2225007E-01  0.0000000E+00
 8.3375007E-01  0.0000000E+00
 8.4525007E-01  0.0000000E+00
 8.5675007E-01  0.0000000E+00
 8.6825007E-01  0.0000000E+00
 8.7975001E-01  0.0000000E+00
 8.9125001E-01  0.0000000E+00
 9.0275002E-01  0.0000000E+00
 9.1425002E-01  0.0000000E+00
 9.2575002E-01  0.0000000E+00
 9.3725002E-01  0.0000000E+00
 9.4875002E-01  0.0000000E+00
 9.6025002E-01  0.0000000E+00
 9.7175002E-01  0.0000000E+00
 9.8325002E-01  0.0000000E+00
 9.9475002E-01  0.0000000E+00
 1.0062500E+00  0.0000000E+00
 1.0177500E+00  0.0000000E+00
 1.0292500E+00  0.0000000E+00
 1.0407500E+00  0.0000000E+00
 1.0522500E+00  0.0000000E+00
 1.0637500E+00  0.0000000E+00
 1.0752500E+00  0.0000000E+00
 1.0867500E+00  0.0000000E+00
 1.0982500E+00  0.0000000E+00
 1.1097500E+00  0.0000000E+00
 1.1212500E+00  0.0000000E+00
 1.1327500E+00  0.0000000E+00
 1.1442500E+00  0.0000000E+00
 1.1557500E+00  0.0000000E+00
 1.1672500E+00  0.0000000E+00
 1.1787500E+00  0.0000000E+00
 1.1902500E+00  0.0000000E+00
 1.2017500E+00  0.0000000E+00
 1.2132500E+00  0.0000000E+00
 1.2247500E+00  0.0000000E+00
 1.2362500E+00  0.0000000E+00
 1.2477500E+00  0.0000000E+00
 1.2592500E+00  0.0000000E+00
 1.2707500E+00  0.0000000E+00
 1.2822500E+00  0.0000000E+00
 1.2937500E+00  0.0000000E+00
 1.3052500E+00  0.0000000E+00
 1.3167500E+00  0.0000000E+00
 1.3282501E+00  0.0000000E+00
 1.3397501E+00  0.0000000E+00
 1.3512501E+00  0.0000000E+00
 1.3627501E+00  0.0000000E+00
 1.3742501E+00  0.0000000E+00
 1.3857501E+00  0.0000000E+00
 1.3972501E+00  0.0000000E+00
 1.4087501E+00  0.0000000E+00
 1.4202501E+00  0.0000000E+00
 1.4317501E+00  0.0000000E+00
 1.4432501E+00  0.0000000E+00
 1.4547501E+00  0.0000000E+00
 1.4662501E+00  0.0000000E+00
 1.4777501E+00  0.0000000E+00
 1.4892501E+00  0.0000000E+00
 1.5007501E+00  0.0000000E+00
 1.5122501E+00  0.0000000E+00
 1.5237501E+00  0.0000000E+00
 1.5352501E+00  0.0000000E+00
 1.5467501E+00  0.0000000E+00
 1.5582501E+00  0.0000000E+00
 1.5697501E+00  0.0000000E+00
 1.5812501E+00  0.0000000E+00
 1.5927501E+00  0.0000000E+00
 1.6042501E+00  0.0000000E+00
 1.6157501E+00  0.0000000E+00
 1.6272501E+00  0.0000000E+00
 1.6387501E+00  0.0000000E+00
 1.6502501E+00  0.0000000E+00
 1.6617501E+00  0.0000000E+00
 1.6732501E+00  0.0000000E+00
 1.6847501E+00  0.0000000E+00
 1.6962501E+00  0.0000000E+00
 1.7077501E+00  0.0000000E+00
 1.7192501E+00  0.0000000E+00
 1.7307501E+00  0.0000000E+00
 1.7422501E+00  0.0000000E+00
 1.7537501E+00  0.0000000E+00
 1.7652501E+00  0.0000000E+00
 1.7767501E+00  0.0000000E+00
 1.7882501E+00  0.0000000E+00
 1.7997501E+00  0.0000000E+00
 1.8112501E+00  0.0000000E+00
 1.8227501E+00  0.0000000E+00
 1.8342501E+00  0.0000000E+00
 1.8457501E+00  0.0000000E+00
 1.8572501E+00  0.0000000E+00
 1.8687501E+00  0.0000000E+00
 1.8802501E+00  0.0000000E+00
 1.8917501E+00  0.0000000E+00
 1.9032501E+00  0.0000000E+00
 1.9147501E+00  0.0000000E+00
 1.9262501E+00  0.0000000E+00
 1.9377501E+00  0.0000000E+00
 1.9492501E+00  0.0000000E+00
 1.9607501E+00  0.0000000E+00
 1.9722501E+00  0.0000000E+00
 1.9837501E+00  0.0000000E+00
 1.9952501E+00  0.0000000E+00
 2.0067501E+00  0.0000000E+00
 2.0182500E+00  0.0000000E+00
 2.0297501E+00  0.0000000E+00
 2.0412500E+00  0.0000000E+00
 2.0527501E+00  0.0000000E+00
 2.0642500E+00  0.0000000E+00
 2.0757501E+00  0.0000000E+00
 2.0872500E+00  0.0000000E+00
 2.0987501E+00  0.0000000E+00
 2.1102500E+00  0.0000000E+00
 2.1217501E+00  0.0000000E+00
 2.1332500E+00  0.0000000E+00
 2.1447501E+00  0.0000000E+00
 2.1562500E+00  0.0000000E+00
 2.1677501E+00  0.0000000E+00
 2.1792500E+00  0.0000000E+00
 2.1907501E+00  0.0000000E+00
 2.2022500E+00  0.0000000E+00
 2.2137501E+00  0.0000000E+00
 2.2252500E+00  0.0000000E+00
 2.2367501E+00  0.0000000E+00
 2.2482500E+00  0.0000000E+00
 2.2597501E+00  0.0000000E+00
 2.2712500E+00  0.0000000E+00
 2.2827501E+00  0.0000000E+00
 2.2942500E+00  0.0000000E+00
 2.3057501E+00  0.0000000E+00
 2.3172500E+00  0.0000000E+00
 2.3287501E+00  0.0000000E+00
 2.3402500E+00  0.0000000E+00
 2.3517501E+00  0.0000000E+00
 2.3632500E+00  0.0000000E+00
 2.3747501E+00  0.0000000E+00
 2.3862500E+00  0.0000000E+00
 2.3977501E+00  0.0000000E+00
 2.4092500E+00  0.0000000E+00
 2.4207501E+00  0.0000000E+00
 2.4322500E+00  0.0000000E+00
 2.4437501E+00  0.0000000E+00
 2.4552500E+00  0.0000000E+00
 2.4667501E+00  0.0000000E+00
 2.4782500E+00  0.0000000E+00
 2.4897501E+00  0.0000000E+00
 2.5012500E+00  0.0000000E+00
 2.5127501E+00  0.0000000E+00
 2.5242500E+00  0.0000000E+00
 2.5357502E+00  0.0000000E+00
 2.5472500E+00  0.0000000E+00
 2.5587502E+00  0.0000000E+00
 2.5702500E+00  0.0000000E+00
 2.5817502E+00  0.0000000E+00
 2.5932500E+00  0.0000000E+00
 2.6047502E+00  0.0000000E+00
 2.6162500E+00  0.0000000E+00
 2.6277502E+00  0.0000000E+00
 2.6392500E+00  0.0000000E+00
 2.6507502E+00  0.0000000E+00
 2.6622500E+00  0.0000000E+00
 2.6737502E+00  0.0000000E+00
 2.6852500E+00  0.0000000E+00
 2.6967502E+00  0.0000000E+00
 2.7082500E+00  0.0000000E+00
 2.7197502E+00  0.0000000E+00
 2.7312500E+00  0.0000000E+00
 2.7427502E+00  0.0000000E+00
 2.7542500E+00  0.0000000E+00
 2.7657502E+00  0.0000000E+00
 2.7772501E+00  0.0000000E+00
 2.7887502E+00  0.0000000E+00
 2.8002501E+00  0.0000000E+00
 2.8117502E+00  0.0000000E+00
 2.8232501E+00  3.2671478E+01
 2.8347502E+00  3.5390568E+01
 2.8462501E+00  3.5393238E+01
 2.8577502E+00  3.5501911E+01
 2.8692501E+00  3.5064766E+01
 2.8807502E+00  3.5082138E+01
 2.8922501E+00  3.5234138E+01
 2.9037502E+00  3.5778694E+01
 2.9152501E+00  3.6018028E+01
 2.9267502E+00  3.6041645E+01
 2.9382501E+00  3.5816372E+01
 2.9497502E+00  3.5808662E+01
 2.9612501E+00  3.5925938E+01
 2.9727502E+00  3.6188576E+01
 2.9842501E+00  3.5659092E+01
 2.9957502E+00  3.5761585E+01
 3.0072501E+00  3.5651730E+01
 3.0187502E+00  3.5973774E+01
 3.0302501E+00  3.5962303E+01
 3.0417502E+00  3.6045704E+01
 3.0532501E+00  3.5852669E+01
 3.0647502E+00  3.5525349E+01
 3.0762501E+00  3.5589214E+01
 3.0877502E+00  3.5527687E+01
 3.0992501E+00  3.5787090E+01
 3.1107502E+00  3.5430801E+01
 3.1222501E+00  3.5388317E+01
 3.1337502E+00  3.5153858E+01
 3.1452501E+00  3.5216316E+01
 3.1567502E+00  3.5297237E+01
 3.1682501E+00  3.5435677E+01
 3.1797502E+00  3.5534988E+01
 3.1912501E+00  3.5413593E+01
 3.2027502E+00  3.5554932E+01
 3.2142501E+00  3.5770390E+01
 3.2257502E+00  3.5840576E+01
 3.2372501E+00  3.5698765E+01
 3.2487502E+00  3.5095631E+01
 3.2602501E+00  3.4735046E+01
 3.2717502E+00  3.4297970E+01
 3.2832501E+00  3.3994125E+01
 3.2947502E+00  3.3964287E+01
 3.3062501E+00  3.3904213E+01
 3.3177502E+00  3.4243008E+01
 3.3292501E+00  3.4291531E+01
 3.3407502E+00  3.4738518E+01
 3.3522501E+00  3.5050816E+01
 3.3637502E+00  3.5239330E+01
 3.3752501E+00  3.5537109E+01
 3.3867502E+00  3.5314762E+01
 3.3982501E+00  3.5399963E+01
 3.4097502E+00  3.5009834E+01
 3.4212501E+00  3.4730419E+01
 3.4327502E+00  3.4349888E+01
 3.4442501E+00  3.4040348E+01
 3.4557502E+00  3.4085049E+01
 3.4672501E+00  3.3973515E+01
 3.4787502E+00  3.3974995E+01
 3.4902501E+00  3.4042568E+01
 3.5017502E+00  3.3769993E+01
 3.5132501E+00  3.3786854E+01
 3.5247502E+00  3.3435722E+01
 3.5362501E+00  3.3389515E+01
 3.5477502E+00  3.3307880E+01
 3.5592501E+00  3.3234268E+01
 3.5707502E+00  3.3095932E+01
 3.5822501E+00  3.3229839E+01
 3.5937502E+00  3.3303574E+01
 3.6052501E+00  3.3483921E+01
 3.6167502E+00  3.3733532E+01
 3.6282501E+00  3.4000179E+01
 3.6397502E+00  3.4203545E+01
 3.6512501E+00  3.4124966E+01
 3.6627502E+00  3.4079433E+01
 3.6742501E+00  3.3887966E+01
 3.6857502E+00  3.3604820E+01
 3.6972501E+00  3.3228062E+01
 3.7087502E+00  3.2895519E+01
 3.7202501E+00  3.2640144E+01
 3.7317502E+00  3.2716492E+01
 3.7432501E+00  3.2909874E+01
 3.7547503E+00  3.3112289E+01
 3.7662501E+00  3.3110119E+01
 3.7777503E+00  3.3085716E+01
 3.7892501E+00  3.3024982E+01
 3.8007503E+00  3.2977467E+01
 3.8122501E+00  3.3209053E+01
 3.8237503E+00  3.3377884E+01
 3.8352501E+00  3.3397968E+01
 3.8467503E+00  3.3287666E+01
 3.8582501E+00  3.3166664E+01
 3.8697503E+00  3.3204067E+01
 3.8812501E+00  3.3040970E+01
 3.8927503E+00  3.2744083E+01
 3.9042501E+00  3.2512539E+01
 3.9157503E+00  3.2340034E+01
 3.9272501E+00  3.2320267E+01
 3.9387503E+00  3.2393215E+01
 3.9502501E+00  3.2329712E+01
 3.9617503E+00  3.2616871E+01
 3.9732502E+00  3.2736366E+01
 3.9847503E+00  3.2818317E+01
 3.9962502E+00  3.3048267E+01
 4.0077500E+00  3.2838833E+01
 4.0192504E+00  3.2834896E+01
 4.0307503E+00  3.2292564E+01
 4.0422502E+00  3.2098515E+01
 4.0537500E+00  3.2100655E+01
 4.0652504E+00  3.2034748E+01
 4.0767503E+00  3.2031158E+01
 4.0882502E+00  3.2056377E+01
 4.0997500E+00  3.2213318E+01
 4.1112504E+00  3.2364376E+01
 4.1227503E+00  3.2415188E+01
 4.1342502E+00  3.2441631E+01
 4.1457500E+00  3.2566231E+01
 4.1572504E+00  3.2493164E+01
 4.1687503E+00  3.2436035E+01
 4.1802502E+00  3.2206059E+01
 4.1917500E+00  3.2170097E+01
 4.2032504E+00  3.2272110E+01
 4.2147503E+00  3.2283974E+01
 4.2262502E+00  3.2320614E+01
 4.2377501E+00  3.2228474E+01
 4.2492504E+00  3.2140541E+01
 4.2607503E+00  3.2178612E+01
 4.2722502E+00  3.2112186E+01
 4.2837501E+00  3.2187103E+01
 4.2952504E+00  3.2246643E+01
 4.3067503E+00  3.2250114E+01
 4.3182502E+00  3.2308548E+01
 4.3297501E+00  3.2428501E+01
 4.3412504E+00  3.2468048E+01
 4.3527503E+00  3.2507946E+01
 4.3642502E+00  3.2582447E+01
 4.3757501E+00  3.2608753E+01
 4.3872504E+00  3.2679127E+01
 4.3987503E+00  3.2661922E+01
 4.4102502E+00  3.2618835E+01
 4.4217501E+00  3.2607288E+01
 4.4332504E+00  3.2487980E+01
 4.4447503E+00  3.2328819E+01
 4.4562502E+00  3.2300274E+01
 4.4677501E+00  3.2426952E+01
 4.4792504E+00  3.2629230E+01
 4.4907503E+00  3.2666595E+01
 4.5022502E+00  3.2682976E+01
 4.5137501E+00  3.2574734E+01
 4.5252504E+00  3.2574833E+01
 4.5367503E+00  3.2510944E+01
 4.5482502E+00  3.2527473E+01
 4.5597501E+00  3.2620949E+01
 4.5712504E+00  3.2742252E+01
 4.5827503E+00  3.2848717E+01
 4.5942502E+00  3.2942074E+01
 4.6057501E+00  3.3011513E+01
 4.6172504E+00  3.3069729E+01
 4.6287503E+00  3.3062820E+01
 4.6402502E+00  3.2937885E+01
 4.6517501E+00  3.3059017E+01
 4.6632504E+00  3.3103519E+01
 4.6747503E+00  3.3250614E+01
 4.6862502E+00  3.3255402E+01
 4.6977501E+00  3.3430443E+01
 4.7092505E+00  3.3549587E+01
 4.7207503E+00  3.3547630E+01
 4.7322502E+00  3.3333694E+01
 4.7437501E+00  3.3174469E+01
 4.7552505E+00  3.2867668E+01
 4.7667503E+00  3.2946224E+01
 4.7782502E+00  3.2829994E+01
 4.7897501E+00  3.2911774E+01
 4.8012505E+00  3.2745571E+01
 4.8127503E+00  3.2754047E+01
 4.8242502E+00  3.2730503E+01
 4.8357501E+00  3.2886784E+01
 4.8472505E+00  3.2806351E+01
 4.8587503E+00  3.2982910E+01
 4.8702502E+00  3.2872768E+01
 4.8817501E+00  3.2896297E+01
 4.8932505E+00  3.2860752E+01
 4.9047503E+00  3.2874477E+01
 4.9162502E+00  3.3027840E+01
 4.9277501E+00  3.2990322E+01
 4.9392505E+00  3.3042648E+01
 4.9507504E+00  3.2891930E+01
 4.9622502E+00  3.2910885E+01
 4.9737501E+00  3.2889835E+01
 4.9852505E+00  3.3020916E+01
 4.9967504E+00  3.3000607E+01
 5.0082502E+00  3.3122726E+01
 5.0197501E+00  3.3126419E+01
 5.0312505E+00  3.3314442E+01
 5.0427504E+00  3.3234894E+01
 5.0542502E+00  3.3248802E+01
 5.0657501E+00  3.3155739E+01
 5.0772505E+00  3.3188400E+01
 5.0887504E+00  3.3336731E+01
 5.1002502E+00  3.3420219E+01
 5.1117501E+00  3.3506645E+01
 5.1232505E+00  3.3578159E+01
 5.1347504E+00  3.3669250E+01
 5.1462502E+00  3.3884396E+01
 5.1577501E+00  3.3931034E+01
 5.1692505E+00  3.4012474E+01
 5.1807504E+00  3.3994705E+01
 5.1922503E+00  3.4023911E+01
 5.2037501E+00  3.4043976E+01
 5.2152505E+00  3.4071270E+01
 5.2267504E+00  3.4075745E+01
 5.2382503E+00  3.4075729E+01
 5.2497501E+00  3.4005360E+01
 5.2612505E+00  3.3974384E+01
 5.2727504E+00  3.3952156E+01
 5.2842503E+00  3.4009346E+01
 5.2957501E+00  3.4079262E+01
 5.3072500E+00  3.4144756E+01
 5.3187504E+00  3.4220516E+01
 5.3302503E+00  3.4195770E+01
 5.3417501E+00  3.4208633E+01
 5.3532500E+00  3.4175373E+01
 5.3647504E+00  3.4232746E+01
 5.3762503E+00  3.4313786E+01
 5.3877501E+00  3.4476162E+01
 5.3992500E+00  3.4589455E+01
 5.4107504E+00  3.4694126E+01
 5.4222503E+00  3.4630947E+01
 5.4337502E+00  3.4488544E+01
 5.4452500E+00  3.4503540E+01
 5.4567504E+00  3.4574669E+01
 5.4682503E+00  3.4714256E+01
 5.4797502E+00  3.4750645E+01
 5.4912500E+00  3.4678925E+01
 5.5027504E+00  3.4737991E+01
 5.5142503E+00  3.4796677E+01
 5.5257502E+00  3.4918228E+01
 5.5372500E+00  3.5085018E+01
 5.5487504E+00  3.5212280E+01
 5.5602503E+00  3.5395466E+01
 5.5717502E+00  3.5417946E+01
 5.5832500E+00  3.5378609E+01
 5.5947504E+00  3.5330704E+01
 5.6062503E+00  3.5340473E+01
 5.6177502E+00  3.5336529E+01
 5.6292500E+00  3.5318031E+01
 5.6407504E+00  3.5336514E+01
 5.6522503E+00  3.5389275E+01
 5.6637502E+00  3.5559269E+01
 5.6752501E+00  3.5688225E+01
 5.6867504E+00  3.5760548E+01
 5.6982503E+00  3.5856853E+01
 5.7097502E+00  3.5875240E+01
 5.7212501E+00  3.6025463E+01
 5.7327504E+00  3.6006981E+01
 5.7442503E+00  3.6048351E+01
 5.7557502E+00  3.6138840E+01
 5.7672501E+00  3.6199829E+01
 5.7787504E+00  3.6272453E+01
 5.7902503E+00  3.6429565E+01
 5.8017502E+00  3.6510010E+01
 5.8132501E+00  3.6587807E+01
 5.8247504E+00  3.6692848E+01
 5.8362503E+00  3.6772930E+01
 5.8477502E+00  3.6913345E+01
 5.8592501E+00  3.7029945E+01
 5.8707504E+00  3.7059368E+01
 5.8822503E+00  3.7408142E+01
 5.8937502E+00  3.8035488E+01
 5.9052501E+00  3.8702557E+01
 5.9167504E+00  4.1065937E+01
 5.9282503E+00  4.3236099E+01
 5.9397502E+00  4.7172119E+01
 5.9512501E+00  5.7665825E+01
 5.9627504E+00  6.4125641E+01
 5.9742503E+00  7.3132378E+01
 5.9857502E+00  8.0725449E+01
 5.9972501E+00  8.1372963E+01
 6.0087504E+00  7.8712563E+01
 6.0202503E+00  6.4065422E+01
 6.0317502E+00  5.5971142E+01
 6.0432501E+00  4.8007385E+01
 6.0547504E+00  4.3013779E+01
 6.0662503E+00  4.0674557E+01
 6.0777502E+00  3.9147507E+01
 6.0892501E+00  3.8451519E+01
 6.1007504E+00  3.8251671E+01
 6.1122503E+00  3.7914379E+01
 6.1237502E+00  3.7675865E+01
 6.1352501E+00  3.7491821E+01
 6.1467505E+00  3.7375957E+01
 6.1582503E+00  3.7340084E+01
 6.1697502E+00  3.7459373E+01
 6.1812501E+00  3.7556149E+01
 6.1927505E+00  3.7607006E+01
 6.2042503E+00  3.7640308E+01
 6.2157502E+00  3.7623428E+01
 6.2272501E+00  3.7658310E+01
 6.2387505E+00  3.7645409E+01
 6.2502503E+00  3.7530949E+01
 6.2617502E+00  3.7585583E+01
 6.2732501E+00  3.7651089E+01
 6.2847505E+00  3.7746250E+01
 6.2962503E+00  3.7834679E+01
 6.3077502E+00  3.7875782E+01
 6.3192501E+00  3.7978909E+01
 6.3307505E+00  3.8043720E+01
 6.3422503E+00  3.8150433E+01
 6.3537502E+00  3.8234905E+01
 6.3652501E+00  3.8287220E+01
 6.3767505E+00  3.8279346E+01
 6.3882504E+00  3.8277004E+01
 6.3997502E+00  3.8247616E+01
 6.4112501E+00  3.8214169E+01
 6.4227505E+00  3.8184528E+01
 6.4342504E+00  3.8204929E+01
 6.4457502E+00  3.8280548E+01
 6.4572501E+00  3.8387859E+01
 6.4687505E+00  3.8573589E+01
 6.4802504E+00  3.8685020E+01
 6.4917502E+00  3.8880760E+01
 6.5032501E+00  3.9019287E+01
 6.5147505E+00  3.9221710E+01
 6.5262504E+00  3.9330311E+01
 6.5377502E+00  3.9440311E+01
 6.5492501E+00  3.9479736E+01
 6.5607505E+00  3.9529388E+01
 6.5722504E+00  3.9560535E+01
 6.5837502E+00  3.9668686E+01
 6.5952501E+00  3.9703053E+01
 6.6067505E+00  3.9805309E+01
 6.6182504E+00  3.9885891E+01
 6.6297503E+00  3.9963551E+01
 6.6412501E+00  4.0059921E+01
 6.6527505E+00  4.0102318E+01
 6.6642504E+00  4.0297855E+01
 6.6757503E+00  4.0310802E+01
 6.6872501E+00  4.0367085E+01
 6.6987505E+00  4.0388439E+01
 6.7102504E+00  4.0519199E+01
 6.7217503E+00  4.0633732E+01
 6.7332501E+00  4.0755810E+01
 6.7447505E+00  4.0912014E+01
 6.7562504E+00  4.1054913E+01
 6.7677503E+00  4.1196827E+01
 6.7792501E+00  4.1261299E+01
 6.7907505E+00  4.1337105E+01
 6.8022504E+00  4.1385365E+01
 6.8137503E+00  4.1485775E+01
 6.8252501E+00  4.1496571E+01
 6.8367505E+00  4.1547863E+01
 6.8482504E+00  4.1726780E+01
 6.8597503E+00  4.1883495E+01
 6.8712502E+00  4.2091351E+01
 6.8827505E+00  4.2102722E+01
 6.8942504E+00  4.2158749E+01
 6.9057503E+00  4.2179596E+01
 6.9172502E+00  4.2195488E+01
 6.9287505E+00  4.2117599E+01
 6.9402504E+00  4.1989933E+01
 6.9517503E+00  4.1962875E+01
 6.9632502E+00  4.2058311E+01
 6.9747505E+00  4.2310066E+01
 6.9862504E+00  4.2467793E+01
 6.9977503E+00  4.2641361E+01
 7.0092502E+00  4.2707619E+01
 7.0207505E+00  4.2805225E+01
 7.0322504E+00  4.2882954E+01
 7.0437503E+00  4.2941864E+01
 7.0552502E+00  4.2945206E+01
 7.0667505E+00  4.2884640E+01
 7.0782504E+00  4.2864758E+01
 7.0897503E+00  4.2903015E+01
 7.1012502E+00  4.3032143E+01
 7.1127505E+00  4.3232418E+01
 7.1242504E+00  4.3346432E+01
 7.1357503E+00  4.3426563E+01
 7.1472502E+00  4.3479095E+01
 7.1587505E+00  4.3447731E+01
 7.1702504E+00  4.3496849E+01
 7.1817503E+00  4.3475327E+01
 7.1932502E+00  4.3630203E+01
 7.2047505E+00  4.3689510E+01
 7.2162504E+00  4.3790077E+01
 7.2277503E+00  4.3772297E+01
 7.2392502E+00  4.3752876E+01
 7.2507505E+00  4.3711243E+01
 7.2622504E+00  4.3588787E+01
 7.2737503E+00  4.3437168E+01
 7.2852502E+00  4.3281109E+01
 7.2967505E+00  4.3206661E+01
 7.3082504E+00  4.3287193E+01
 7.3197503E+00  4.3496441E+01
 7.3312502E+00  4.3657536E+01
 7.3427505E+00  4.3787045E+01
 7.3542504E+00  4.3801266E+01
 7.3657503E+00  4.3913044E+01
 7.3772502E+00  4.4013683E+01
 7.3887506E+00  4.4156166E+01
 7.4002504E+00  4.4235294E+01
 7.4117503E+00  4.4309319E+01
 7.4232502E+00  4.4241577E+01
 7.4347506E+00  4.4105537E+01
 7.4462504E+00  4.4075050E+01
 7.4577503E+00  4.4152241E+01
 7.4692502E+00  4.4326061E+01
 7.4807506E+00  4.4512394E+01
 7.4922504E+00  4.4528927E+01
 7.5037503E+00  4.4566151E+01
 7.5152502E+00  4.4452095E+01
 7.5267506E+00  4.4457409E+01
 7.5382504E+00  4.4471554E+01
 7.5497503E+00  4.4464035E+01
 7.5612502E+00  4.4530239E+01
 7.5727506E+00  4.4496971E+01
 7.5842505E+00  4.4499287E+01
 7.5957503E+00  4.4440765E+01
 7.6072502E+00  4.4532204E+01
 7.6187506E+00  4.4577076E+01
 7.6302505E+00  4.4693577E+01
 7.6417503E+00  4.4664391E+01
 7.6532502E+00  4.4651318E+01
 7.6647506E+00  4.4549145E+01
 7.6762505E+00  4.4439274E+01
 7.6877503E+00  4.4288036E+01
 7.6992502E+00  4.4293209E+01
 7.7107506E+00  4.4332470E+01
 7.7222505E+00  4.4465672E+01
 7.7337503E+00  4.4484020E+01
 7.7452502E+00  4.4515518E+01
 7.7567506E+00  4.4529560E+01
 7.7682505E+00  4.4573151E+01
 7.7797503E+00  4.4626949E+01
 7.7912502E+00  4.4695023E+01
 7.8027506E+00  4.4738289E+01
 7.8142505E+00  4.4672081E+01
 7.8257504E+00  4.4649403E+01
 7.8372502E+00  4.4517067E+01
 7.8487506E+00  4.4477551E+01
 7.8602505E+00  4.4362690E+01
 7.8717504E+00  4.4187771E+01
 7.8832502E+00  4.4047020E+01
 7.8947506E+00  4.3980743E+01
 7.9062505E+00  4.3963223E+01
 7.9177504E+00  4.3994892E+01
 7.9292502E+00  4.3972382E+01
 7.9407506E+00  4.3966530E+01
 7.9522505E+00  4.3839966E+01
 7.9637504E+00  4.3682976E+01
 7.9752502E+00  4.3542358E+01
 7.9867506E+00  4.3499939E+01
 7.9982505E+00  4.3375690E+01
 8.0097504E+00  4.3262260E+01
 8.0212507E+00  4.3129627E+01
 8.0327501E+00  4.3048725E+01
 8.0442505E+00  4.3058281E+01
 8.0557508E+00  4.3032528E+01
 8.0672503E+00  4.3001228E+01
 8.0787506E+00  4.2998390E+01
 8.0902500E+00  4.3030159E+01
 8.1017504E+00  4.3134270E+01
 8.1132507E+00  4.3120853E+01
 8.1247501E+00  4.3074894E+01
 8.1362505E+00  4.3006229E+01
 8.1477509E+00  4.2907604E+01
 8.1592503E+00  4.2718178E+01
 8.1707506E+00  4.2507099E+01
 8.1822500E+00  4.2294762E+01
 8.1937504E+00  4.2163124E+01
 8.2052507E+00  4.2019886E+01
 8.2167501E+00  4.1883724E+01
 8.2282505E+00  4.1726559E+01
 8.2397509E+00  4.1581249E+01
 8.2512503E+00  4.1443214E+01
 8.2627506E+00  4.1327347E+01
 8.2742500E+00  4.1227119E+01
 8.2857504E+00  4.1075279E+01
 8.2972507E+00  4.1015488E+01
 8.3087502E+00  4.0871853E+01
 8.3202505E+00  4.0809551E+01
 8.3317509E+00  4.0644783E+01
 8.3432503E+00  4.0592796E+01
 8.3547506E+00  4.0489040E+01
 8.3662500E+00  4.0402588E+01
 8.3777504E+00  4.0174324E+01
 8.3892508E+00  3.9919781E+01
 8.4007502E+00  3.9564922E+01
 8.4122505E+00  3.9316021E+01
 8.4237509E+00  3.9086987E+01
 8.4352503E+00  3.8886971E+01
 8.4467506E+00  3.8709740E+01
 8.4582500E+00  3.8552948E+01
 8.4697504E+00  3.8398201E+01
 8.4812508E+00  3.8230778E+01
 8.4927502E+00  3.8025173E+01
 8.5042505E+00  3.7904854E+01
 8.5157509E+00  3.7798779E+01
 8.5272503E+00  3.7690720E+01
 8.5387506E+00  3.7654671E+01
 8.5502501E+00  3.7494568E+01
 8.5617504E+00  3.7344364E+01
 8.5732508E+00  3.7146198E+01
 8.5847502E+00  3.6956951E+01
 8.5962505E+00  3.6689571E+01
 8.6077509E+00  3.6459583E+01
 8.6192503E+00  3.6251656E+01
 8.6307507E+00  3.6172081E+01
 8.6422501E+00  3.6021194E+01
 8.6537504E+00  3.5819897E+01
 8.6652508E+00  3.5661469E+01
 8.6767502E+00  3.5452862E+01
 8.6882505E+00  3.5262417E+01
 8.6997509E+00  3.5119160E+01
 8.7112503E+00  3.4935612E+01
 8.7227507E+00  3.4804455E+01
 8.7342501E+00  3.4577503E+01
 8.7457504E+00  3.4369537E+01
 8.7572508E+00  3.4188324E+01
 8.7687502E+00  3.4024017E+01
 8.7802505E+00  3.3843842E+01
 8.7917500E+00  3.3727390E+01
 8.8032503E+00  3.3500080E+01
 8.8147507E+00  3.3361343E+01
 8.8262501E+00  3.3220524E+01
 8.8377504E+00  3.3107048E+01
 8.8492508E+00  3.2934277E+01
 8.8607502E+00  3.2754593E+01
 8.8722506E+00  3.2565811E+01
 8.8837500E+00  3.2438110E+01
 8.8952503E+00  3.2213974E+01
 8.9067507E+00  3.2067764E+01
 8.9182501E+00  3.1869684E+01
 8.9297504E+00  3.1720173E+01
 8.9412508E+00  3.1549252E+01
 8.9527502E+00  3.1470922E+01
 8.9642506E+00  3.1339500E+01
 8.9757500E+00  3.1251171E+01
 8.9872503E+00  3.1068335E+01
 8.9987507E+00  3.0869236E+01
 9.0102501E+00  3.0687334E+01
 9.0217505E+00  3.0556982E+01
 9.0332508E+00  3.0480978E+01
 9.0447502E+00  3.0357880E+01
 9.0562506E+00  3.0227278E+01
 9.0677500E+00  3.0134180E+01
 9.0792503E+00  3.0054953E+01
 9.0907507E+00  2.9929317E+01
 9.1022501E+00  2.9763742E+01
 9.1137505E+00  2.9576586E+01
 9.1252508E+00  2.9425879E+01
 9.1367502E+00  2.9352987E+01
 9.1482506E+00  2.9247963E+01
 9.1597500E+00  2.9108400E+01
 9.1712503E+00  2.8942657E+01
 9.1827507E+00  2.8785633E+01
 9.1942501E+00  2.8716860E+01
 9.2057505E+00  2.8587498E+01
 9.2172508E+00  2.8556774E+01
 9.2287502E+00  2.8479931E+01
 9.2402506E+00  2.8397581E+01
 9.2517500E+00  2.8359493E+01
 9.2632504E+00  2.8274881E+01
 9.2747507E+00  2.8238520E+01
 9.2862501E+00  2.8140881E+01
 9.2977505E+00  2.8051992E+01
 9.3092508E+00  2.7922295E+01
 9.3207502E+00  2.7718855E+01
 9.3322506E+00  2.7602354E+01
 9.3437500E+00  2.7433207E+01
 9.3552504E+00  2.7383226E+01
 9.3667507E+00  2.7297678E+01
 9.3782501E+00  2.7271667E+01
 9.3897505E+00  2.7205238E+01
 9.4012508E+00  2.7162016E+01
 9.4127502E+00  2.7154261E+01
 9.4242506E+00  2.7146351E+01
 9.4357500E+00  2.7027197E+01
 9.4472504E+00  2.6900455E+01
 9.4587507E+00  2.6747446E+01
 9.4702501E+00  2.6676533E+01
 9.4817505E+00  2.6590685E+01
 9.4932508E+00  2.6499147E+01
 9.5047503E+00  2.6442326E+01
 9.5162506E+00  2.6358606E+01
 9.5277500E+00  2.6282839E+01
 9.5392504E+00  2.6135242E+01
 9.5507507E+00  2.6021143E+01
 9.5622501E+00  2.5996893E+01
 9.5737505E+00  2.5897753E+01
 9.5852509E+00  2.5817078E+01
 9.5967503E+00  2.5769407E+01
 9.6082506E+00  2.5792675E+01
 9.6197500E+00  2.5814968E+01
 9.6312504E+00  2.5747797E+01
 9.6427507E+00  2.5660704E+01
 9.6542501E+00  2.5589783E+01
 9.6657505E+00  2.5532892E+01
 9.6772509E+00  2.5495062E+01
 9.6887503E+00  2.5426722E+01
 9.7002506E+00  2.5325195E+01
 9.7117500E+00  2.5250071E+01
 9.7232504E+00  2.5199295E+01
 9.7347507E+00  2.5195524E+01
 9.7462502E+00  2.5162594E+01
 9.7577505E+00  2.5091106E+01
 9.7692509E+00  2.5030210E+01
 9.7807503E+00  2.4976744E+01
 9.7922506E+00  2.4974567E+01
 9.8037500E+00  2.4965120E+01
 9.8152504E+00  2.4949575E+01
 9.8267508E+00  2.4943777E+01
 9.8382502E+00  2.4875446E+01
 9.8497505E+00  2.4802387E+01
 9.8612509E+00  2.4722475E+01
 9.8727503E+00  2.4690634E+01
 9.8842506E+00  2.4668694E+01
 9.8957500E+00  2.4695581E+01
 9.9072504E+00  2.4674622E+01
 9.9187508E+00  2.4671253E+01
 9.9302502E+00  2.4610060E+01
 9.9417505E+00  2.4510715E+01
 9.9532509E+00  2.4382061E+01
 9.9647503E+00  2.4297918E+01
 9.9762506E+00  2.4269512E+01
 9.9877501E+00  2.4290295E+01
 9.9992504E+00  2.4334949E+01
 1.0010751E+01  2.4295414E+01
 1.0022250E+01  2.4292322E+01
 1.0033751E+01  2.4253401E+01
 1.0045251E+01  2.4298128E+01
 1.0056750E+01  2.4293127E+01
 1.0068251E+01  2.4270779E+01
 1.0079750E+01  2.4211222E+01
 1.0091250E+01  2.4126469E+01
 1.0102751E+01  2.4009563E+01
 1.0114250E+01  2.3978634E+01
 1.0125751E+01  2.3944550E+01
 1.0137251E+01  2.3904856E+01
 1.0148750E+01  2.3948751E+01
 1.0160251E+01  2.4017097E+01
 1.0171750E+01  2.4021927E+01
 1.0183250E+01  2.3964037E+01
 1.0194751E+01  2.3883146E+01
 1.0206250E+01  2.3899961E+01
 1.0217751E+01  2.3821808E+01
 1.0229251E+01  2.3781389E+01
 1.0240750E+01  2.3711952E+01
 1.0252251E+01  2.3660585E+01
 1.0263750E+01  2.3622662E+01
 1.0275250E+01  2.3604361E+01
 1.0286751E+01  2.3614946E+01
 1.0298250E+01  2.3630430E+01
 1.0309751E+01  2.3603552E+01
 1.0321251E+01  2.3609928E+01
 1.0332750E+01  2.3581753E+01
 1.0344251E+01  2.3603956E+01
 1.0355750E+01  2.3520691E+01
 1.0367250E+01  2.3490477E+01
 1.0378751E+01  2.3446896E+01
 1.0390250E+01  2.3500055E+01
 1.0401751E+01  2.3478203E+01
 1.0413251E+01  2.3443380E+01
 1.0424750E+01  2.3411980E+01
 1.0436251E+01  2.3348911E+01
 1.0447750E+01  2.3307894E+01
 1.0459250E+01  2.3264574E+01
 1.0470751E+01  2.3232420E+01
 1.0482250E+01  2.3185682E+01
 1.0493751E+01  2.3133413E+01
 1.0505251E+01  2.3120052E+01
 1.0516750E+01  2.3137152E+01
 1.0528251E+01  2.3094404E+01
 1.0539750E+01  2.3065636E+01
 1.0551250E+01  2.3081656E+01
 1.0562751E+01  2.3130512E+01
 1.0574250E+01  2.3155354E+01
 1.0585751E+01  2.3171524E+01
 1.0597251E+01  2.3142857E+01
 1.0608750E+01  2.3171665E+01
 1.0620251E+01  2.3144373E+01
 1.0631750E+01  2.3183588E+01
 1.0643250E+01  2.3155931E+01
 1.0654751E+01  2.3168562E+01
 1.0666250E+01  2.3126879E+01
 1.0677751E+01  2.3109556E+01
 1.0689251E+01  2.3089861E+01
 1.0700750E+01  2.3089821E+01
 1.0712251E+01  2.3072840E+01
 1.0723750E+01  2.2995684E+01
 1.0735250E+01  2.2914997E+01
 1.0746751E+01  2.2844009E+01
 1.0758250E+01  2.2822300E+01
 1.0769751E+01  2.2802700E+01
 1.0781251E+01  2.2841463E+01
 1.0792750E+01  2.2877886E+01
 1.0804251E+01  2.2929710E+01
 1.0815750E+01  2.2940845E+01
 1.0827250E+01  2.2910585E+01
 1.0838751E+01  2.2871387E+01
 1.0850250E+01  2.2824898E+01
 1.0861751E+01  2.2794598E+01
 1.0873251E+01  2.2845253E+01
 1.0884750E+01  2.2849876E+01
 1.0896251E+01  2.2863398E+01
 1.0907750E+01  2.2839928E+01
 1.0919250E+01  2.2813873E+01
 1.0930751E+01  2.2807680E+01
 1.0942250E+01  2.2749899E+01
 1.0953751E+01  2.2781616E+01
 1.0965251E+01  2.2737186E+01
 1.0976750E+01  2.2784086E+01
 1.0988251E+01  2.2714615E+01
 1.0999750E+01  2.2717962E+01
 1.1011250E+01  2.2617695E+01
 1.1022751E+01  2.2607639E+01
 1.1034250E+01  2.2588713E+01
 1.1045751E+01  2.2543324E+01
 1.1057251E+01  2.2522888E+01
 1.1068750E+01  2.2529341E+01
 1.1080251E+01  2.2551868E+01
 1.1091750E+01  2.2541012E+01
 1.1103251E+01  2.2543152E+01
 1.1114751E+01  2.2583517E+01
 1.1126250E+01  2.2634119E+01
 1.1137751E+01  2.2625916E+01
 1.1149251E+01  2.2642862E+01
 1.1160750E+01  2.2633886E+01
 1.1172251E+01  2.2646318E+01
 1.1183750E+01  2.2602934E+01
 1.1195251E+01  2.2592863E+01
 1.1206751E+01  2.2525326E+01
 1.1218250E+01  2.2524996E+01
 1.1229751E+01  2.2431860E+01
 1.1241251E+01  2.2454571E+01
 1.1252750E+01  2.2414768E+01
 1.1264251E+01  2.2461575E+01
 1.1275750E+01  2.2476749E+01
 1.1287251E+01  2.2488066E+01
 1.1298751E+01  2.2560562E+01
 1.1310250E+01  2.2604946E+01
 1.1321751E+01  2.2661268E+01
 1.1333251E+01  2.2661058E+01
 1.1344750E+01  2.2744104E+01
 1.1356251E+01  2.2797428E+01
 1.1367750E+01  2.2877178E+01
 1.1379251E+01  2.2840124E+01
 1.1390751E+01  2.2850231E+01
 1.1402250E+01  2.2891460E+01
 1.1413751E+01  2.2892889E+01
 1.1425251E+01  2.2937006E+01
 1.1436750E+01  2.2946680E+01
 1.1448251E+01  2.3041866E+01
 1.1459750E+01  2.3115135E+01
 1.1471251E+01  2.3206259E+01
 1.1482751E+01  2.3248734E+01
 1.1494250E+01  2.3391396E+01
 1.1505751E+01  2.3497875E+01
 1.1517251E+01  2.3972715E+01
 1.1528750E+01  2.4977613E+01
 1.1540251E+01  2.6381302E+01
 1.1551750E+01  2.9500820E+01
 1.1563251E+01  3.2507557E+01
 1.1574751E+01  3.5936161E+01
 1.1586250E+01  4.0042931E+01
 1.1597751E+01  4.0882366E+01
 1.1609251E+01  4.1131878E+01
 1.1620750E+01  3.7477779E+01
 1.1632251E+01  3.4601074E+01
 1.1643750E+01  3.0762226E+01
 1.1655251E+01  2.7388144E+01
 1.1666751E+01  2.5532207E+01
 1.1678250E+01  2.4245842E+01
 1.1689751E+01  2.3592848E+01
 1.1701251E+01  2.3309204E+01
 1.1712750E+01  2.3116224E+01
 1.1724251E+01  2.3027098E+01
 1.1735750E+01  2.2968325E+01
 1.1747251E+01  2.2920296E+01
 1.1758751E+01  2.2894735E+01
 1.1770250E+01  2.2798586E+01
 1.1781751E+01  2.2722912E+01
 1.1793251E+01  2.2684284E+01
 1.1804750E+01  2.2680880E+01
 1.1816251E+01  2.2729094E+01
 1.1827750E+01  2.2766264E+01
 1.1839251E+01  2.2851027E+01
 1.1850751E+01  2.2803907E+01
 1.1862250E+01  2.2833319E+01
 1.1873751E+01  2.2791094E+01
 1.1885251E+01  2.2854893E+01
 1.1896750E+01  2.2881735E+01
 1.1908251E+01  2.2977989E+01
 1.1919750E+01  2.3105881E+01
 1.1931251E+01  2.3214096E+01
 1.1942751E+01  2.3421516E+01
 1.1954250E+01  2.3675335E+01
 1.1965751E+01  2.3891947E+01
 1.1977251E+01  2.4046741E+01
 1.1988750E+01  2.4024975E+01
 1.2000251E+01  2.3915459E+01
 1.2011750E+01  2.3619635E+01
 1.2023251E+01  2.3402821E+01
 1.2034751E+01  2.3306406E+01
 1.2046250E+01  2.3347544E+01
 1.2057751E+01  2.3392517E+01
 1.2069251E+01  2.3576551E+01
 1.2080750E+01  2.3795403E+01
 1.2092251E+01  2.4004684E+01
 1.2103750E+01  2.4015991E+01
 1.2115251E+01  2.3938543E+01
 1.2126751E+01  2.3789051E+01
 1.2138250E+01  2.3552483E+01
 1.2149751E+01  2.3293737E+01
 1.2161251E+01  2.3066650E+01
 1.2172750E+01  2.2904112E+01
 1.2184251E+01  2.2826225E+01
 1.2195750E+01  2.2743692E+01
 1.2207251E+01  2.2674210E+01
 1.2218751E+01  2.2585039E+01
 1.2230250E+01  2.2535473E+01
 1.2241751E+01  2.2546417E+01
 1.2253251E+01  2.2557510E+01
 1.2264750E+01  2.2542780E+01
 1.2276251E+01  2.2502607E+01
 1.2287750E+01  2.2503769E+01
 1.2299251E+01  2.2551947E+01
 1.2310751E+01  2.2581738E+01
 1.2322250E+01  2.2561174E+01
 1.2333751E+01  2.2572901E+01
 1.2345250E+01  2.2546642E+01
 1.2356750E+01  2.2538639E+01
 1.2368251E+01  2.2480230E+01
 1.2379750E+01  2.2488487E+01
 1.2391251E+01  2.2519068E+01
 1.2402751E+01  2.2587383E+01
 1.2414250E+01  2.2616207E+01
 1.2425751E+01  2.2595007E+01
 1.2437250E+01  2.2613947E+01
 1.2448750E+01  2.2644409E+01
 1.2460251E+01  2.2671759E+01
 1.2471750E+01  2.2677088E+01
 1.2483251E+01  2.2693909E+01
 1.2494751E+01  2.2706236E+01
 1.2506250E+01  2.2684084E+01
 1.2517751E+01  2.2677618E+01
 1.2529250E+01  2.2763460E+01
 1.2540751E+01  2.2780630E+01
 1.2552251E+01  2.2802595E+01
 1.2563750E+01  2.2771084E+01
 1.2575251E+01  2.2803024E+01
 1.2586751E+01  2.2817631E+01
 1.2598250E+01  2.2857523E+01
 1.2609751E+01  2.2899345E+01
 1.2621250E+01  2.2945265E+01
 1.2632751E+01  2.2976168E+01
 1.2644251E+01  2.2933825E+01
 1.2655750E+01  2.2888569E+01
 1.2667251E+01  2.2860855E+01
 1.2678751E+01  2.2844965E+01
 1.2690250E+01  2.2840359E+01
 1.2701751E+01  2.2855461E+01
 1.2713250E+01  2.2941885E+01
 1.2724751E+01  2.2976261E+01
 1.2736251E+01  2.3029215E+01
 1.2747750E+01  2.3045208E+01
 1.2759251E+01  2.3147217E+01
 1.2770751E+01  2.3160637E+01
 1.2782250E+01  2.3240698E+01
 1.2793751E+01  2.3193651E+01
 1.2805250E+01  2.3247265E+01
 1.2816751E+01  2.3270561E+01
 1.2828251E+01  2.3353119E+01
 1.2839750E+01  2.3368580E+01
 1.2851251E+01  2.3378197E+01
 1.2862751E+01  2.3369999E+01
 1.2874250E+01  2.3406290E+01
 1.2885751E+01  2.3442636E+01
 1.2897250E+01  2.3438429E+01
 1.2908751E+01  2.3478033E+01
 1.2920251E+01  2.3552086E+01
 1.2931750E+01  2.3698940E+01
 1.2943251E+01  2.3748793E+01
 1.2954751E+01  2.3810856E+01
 1.2966250E+01  2.3848656E+01
 1.2977751E+01  2.3915369E+01
 1.2989250E+01  2.3921318E+01
 1.3000751E+01  2.3973598E+01
 1.3012251E+01  2.4024849E+01
 1.3023750E+01  2.4086275E+01
 1.3035251E+01  2.4196980E+01
 1.3046751E+01  2.4313267E+01
 1.3058250E+01  2.4450304E+01
 1.3069751E+01  2.4545610E+01
 1.3081250E+01  2.4631134E+01
 1.3092751E+01  2.4734392E+01
 1.3104251E+01  2.4865105E+01
 1.3115750E+01  2.4979309E+01
 1.3127251E+01  2.5088547E+01
 1.3138751E+01  2.5121956E+01
 1.3150250E+01  2.5256765E+01
 1.3161751E+01  2.5359171E+01
 1.3173250E+01  2.5517570E+01
 1.3184751E+01  2.5581463E+01
 1.3196251E+01  2.5691969E+01
 1.3207750E+01  2.5849339E+01
 1.3219251E+01  2.6037014E+01
 1.3230751E+01  2.6233789E+01
 1.3242250E+01  2.6341640E+01
 1.3253751E+01  2.6465490E+01
 1.3265250E+01  2.6633165E+01
 1.3276751E+01  2.6793350E+01
 1.3288251E+01  2.6930174E+01
 1.3299750E+01  2.7040579E+01
 1.3311251E+01  2.7143766E+01
 1.3322751E+01  2.7270538E+01
 1.3334250E+01  2.7431786E+01
 1.3345751E+01  2.7570715E+01
 1.3357250E+01  2.7714802E+01
 1.3368751E+01  2.7860611E+01
 1.3380251E+01  2.8043570E+01
 1.3391750E+01  2.8200006E+01
 1.3403251E+01  2.8331400E+01
 1.3414751E+01  2.8469456E+01
 1.3426250E+01  2.8591150E+01
 1.3437751E+01  2.8686495E+01
 1.3449250E+01  2.8790989E+01
 1.3460751E+01  2.8921978E+01
 1.3472251E+01  2.9079762E+01
 1.3483750E+01  2.9247608E+01
 1.3495251E+01  2.9338654E+01
 1.3506751E+01  2.9417339E+01
 1.3518250E+01  2.9457083E+01
 1.3529751E+01  2.9526690E+01
 1.3541250E+01  2.9612980E+01
 1.3552751E+01  2.9718220E+01
 1.3564251E+01  2.9811487E+01
 1.3575750E+01  2.9917295E+01
 1.3587251E+01  2.9947840E+01
 1.3598751E+01  2.9973663E+01
 1.3610250E+01  2.9915304E+01
 1.3621751E+01  2.9930117E+01
 1.3633250E+01  2.9884588E+01
 1.3644751E+01  2.9829165E+01
 1.3656251E+01  2.9835615E+01
 1.3667750E+01  2.9888054E+01
 1.3679251E+01  2.9890844E+01
 1.3690751E+01  2.9848019E+01
 1.3702250E+01  2.9806576E+01
 1.3713751E+01  2.9754286E+01
 1.3725250E+01  2.9713140E+01
 1.3736751E+01  2.9678705E+01
 1.3748251E+01  2.9661816E+01
 1.3759750E+01  2.9663122E+01
 1.3771251E+01  2.9576189E+01
 1.3782751E+01  2.9562090E+01
 1.3794250E+01  2.9493437E+01
 1.3805751E+01  2.9525431E+01
 1.3817250E+01  2.9592493E+01
 1.3828751E+01  2.9653511E+01
 1.3840251E+01  2.9700857E+01
 1.3851750E+01  2.9800726E+01
 1.3863251E+01  2.9984171E+01
 1.3874751E+01  3.0330837E+01
 1.3886250E+01  3.0792389E+01
 1.3897751E+01  3.1617208E+01
 1.3909250E+01  3.2898106E+01
 1.3920751E+01  3.4428307E+01
 1.3932251E+01  3.6359234E+01
 1.3943750E+01  3.8053497E+01
 1.3955251E+01  3.8914879E+01
 1.3966751E+01  3.9773071E+01
 1.3978251E+01  3.8289173E+01
 1.3989751E+01  3.7714386E+01
 1.4001250E+01  3.4819206E+01
 1.4012751E+01  3.3605446E+01
 1.4024251E+01  3.1219475E+01
 1.4035750E+01  3.0217972E+01
 1.4047251E+01  2.9093763E+01
 1.4058751E+01  2.8586033E+01
 1.4070251E+01  2.8228127E+01
 1.4081751E+01  2.7995687E+01
 1.4093250E+01  2.7781754E+01
 1.4104751E+01  2.7614302E+01
 1.4116251E+01  2.7531139E+01
 1.4127750E+01  2.7490240E+01
 1.4139251E+01  2.7397297E+01
 1.4150751E+01  2.7330097E+01
 1.4162251E+01  2.7247328E+01
 1.4173751E+01  2.7168934E+01
 1.4185250E+01  2.7064327E+01
 1.4196751E+01  2.6969057E+01
 1.4208251E+01  2.6922108E+01
 1.4219750E+01  2.6846098E+01
 1.4231251E+01  2.6762634E+01
 1.4242751E+01  2.6661547E+01
 1.4254251E+01  2.6541607E+01
 1.4265751E+01  2.6525040E+01
 1.4277250E+01  2.6410154E+01
 1.4288751E+01  2.6376419E+01
 1.4300251E+01  2.6283024E+01
 1.4311750E+01  2.6308764E+01
 1.4323251E+01  2.6251659E+01
 1.4334751E+01  2.6219654E+01
 1.4346251E+01  2.6203241E+01
 1.4357751E+01  2.6212442E+01
 1.4369250E+01  2.6243612E+01
 1.4380751E+01  2.6198170E+01
 1.4392251E+01  2.6169064E+01
 1.4403750E+01  2.6055128E+01
 1.4415251E+01  2.6011127E+01
 1.4426751E+01  2.5912346E+01
 1.4438251E+01  2.5881788E+01
 1.4449751E+01  2.5828922E+01
 1.4461250E+01  2.5733040E+01
 1.4472751E+01  2.5655489E+01
 1.4484251E+01  2.5606070E+01
 1.4495750E+01  2.5611364E+01
 1.4507251E+01  2.5618792E+01
 1.4518751E+01  2.5568676E+01
 1.4530251E+01  2.5583469E+01
 1.4541751E+01  2.5555153E+01
 1.4553250E+01  2.5582129E+01
 1.4564751E+01  2.5575144E+01
 1.4576251E+01  2.5609268E+01
 1.4587750E+01  2.5599758E+01
 1.4599251E+01  2.5509527E+01
 1.4610751E+01  2.5404945E+01
 1.4622251E+01  2.5333672E+01
 1.4633751E+01  2.5359919E+01
 1.4645250E+01  2.5370316E+01
 1.4656751E+01  2.5368258E+01
 1.4668251E+01  2.5325525E+01
 1.4679750E+01  2.5331045E+01
 1.4691251E+01  2.5350256E+01
 1.4702751E+01  2.5350956E+01
 1.4714251E+01  2.5358416E+01
 1.4725751E+01  2.5348198E+01
 1.4737250E+01  2.5330376E+01
 1.4748751E+01  2.5273018E+01
 1.4760251E+01  2.5233789E+01
 1.4771750E+01  2.5226028E+01
 1.4783251E+01  2.5192595E+01
 1.4794751E+01  2.5101494E+01
 1.4806251E+01  2.5022577E+01
 1.4817751E+01  2.4927673E+01
 1.4829250E+01  2.4947300E+01
 1.4840751E+01  2.4955139E+01
 1.4852251E+01  2.4959673E+01
 1.4863750E+01  2.4939636E+01
 1.4875251E+01  2.4842955E+01
 1.4886751E+01  2.4828350E+01
 1.4898251E+01  2.4861687E+01
 1.4909751E+01  2.4944923E+01
 1.4921250E+01  2.4998692E+01
 1.4932751E+01  2.5000099E+01
 1.4944251E+01  2.4948202E+01
 1.4955750E+01  2.4891064E+01
 1.4967251E+01  2.4838770E+01
 1.4978751E+01  2.4857321E+01
 1.4990251E+01  2.4865459E+01
 1.5001751E+01  2.4870375E+01
 1.5013250E+01  2.4909246E+01
 1.5024751E+01  2.4933407E+01
 1.5036251E+01  2.4921797E+01
 1.5047750E+01  2.4856100E+01
 1.5059251E+01  2.4863720E+01
 1.5070751E+01  2.4865427E+01
 1.5082251E+01  2.4926207E+01
 1.5093751E+01  2.4927044E+01
 1.5105250E+01  2.4988939E+01
 1.5116751E+01  2.5035776E+01
 1.5128251E+01  2.5075899E+01
 1.5139750E+01  2.5210205E+01
 1.5151251E+01  2.5512386E+01
 1.5162751E+01  2.6075157E+01
 1.5174251E+01  2.6515120E+01
 1.5185751E+01  2.7121876E+01
 1.5197250E+01  2.7406780E+01
 1.5208751E+01  2.7555820E+01
 1.5220251E+01  2.7215260E+01
 1.5231750E+01  2.6778868E+01
 1.5243251E+01  2.6284431E+01
 1.5254751E+01  2.5783134E+01
 1.5266251E+01  2.5328241E+01
 1.5277751E+01  2.5063715E+01
 1.5289250E+01  2.4867762E+01
 1.5300751E+01  2.4766432E+01
 1.5312251E+01  2.4679380E+01
 1.5323750E+01  2.4584023E+01
 1.5335251E+01  2.4607567E+01
 1.5346751E+01  2.4571911E+01
 1.5358251E+01  2.4595743E+01
 1.5369751E+01  2.4571898E+01
 1.5381250E+01  2.4612825E+01
 1.5392751E+01  2.4627499E+01
 1.5404251E+01  2.4616554E+01
 1.5415751E+01  2.4605179E+01
 1.5427251E+01  2.4592411E+01
 1.5438751E+01  2.4572535E+01
 1.5450251E+01  2.4587683E+01
 1.5461751E+01  2.4632597E+01
 1.5473250E+01  2.4629786E+01
 1.5484751E+01  2.4621935E+01
 1.5496251E+01  2.4593760E+01
 1.5507751E+01  2.4630917E+01
 1.5519251E+01  2.4613237E+01
 1.5530751E+01  2.4569014E+01
 1.5542251E+01  2.4532526E+01
 1.5553751E+01  2.4520531E+01
 1.5565250E+01  2.4560087E+01
 1.5576751E+01  2.4573183E+01
 1.5588251E+01  2.4650045E+01
 1.5599751E+01  2.4636858E+01
 1.5611251E+01  2.4646955E+01
 1.5622751E+01  2.4594234E+01
 1.5634251E+01  2.4591448E+01
 1.5645751E+01  2.4586678E+01
 1.5657250E+01  2.4573387E+01
 1.5668751E+01  2.4599991E+01
 1.5680251E+01  2.4656002E+01
 1.5691751E+01  2.4727730E+01
 1.5703251E+01  2.4764637E+01
 1.5714751E+01  2.4819611E+01
 1.5726251E+01  2.4823822E+01
 1.5737751E+01  2.4783764E+01
 1.5749250E+01  2.4725962E+01
 1.5760751E+01  2.4714899E+01
 1.5772251E+01  2.4757843E+01
 1.5783751E+01  2.4747698E+01
 1.5795251E+01  2.4754993E+01
 1.5806751E+01  2.4789446E+01
 1.5818251E+01  2.4828039E+01
 1.5829751E+01  2.4791229E+01
 1.5841250E+01  2.4746056E+01
 1.5852751E+01  2.4741945E+01
 1.5864251E+01  2.4740837E+01
 1.5875751E+01  2.4730839E+01
 1.5887251E+01  2.4678095E+01
 1.5898750E+01  2.4636959E+01
 1.5910251E+01  2.4574736E+01
 1.5921751E+01  2.4568108E+01
 1.5933250E+01  2.4561321E+01
 1.5944751E+01  2.4554398E+01
 1.5956251E+01  2.4625359E+01
 1.5967751E+01  2.4677933E+01
 1.5979251E+01  2.4740528E+01
 1.5990750E+01  2.4785866E+01
 1.6002251E+01  2.4834909E+01
 1.6013750E+01  2.4821800E+01
 1.6025251E+01  2.4846272E+01
 1.6036751E+01  2.4892616E+01
 1.6048250E+01  2.4962545E+01
 1.6059752E+01  2.5002705E+01
 1.6071251E+01  2.4948956E+01
 1.6082750E+01  2.4981150E+01
 1.6094252E+01  2.4882526E+01
 1.6105751E+01  2.4986940E+01
 1.6117250E+01  2.5004969E+01
 1.6128750E+01  2.5120150E+01
 1.6140251E+01  2.5186171E+01
 1.6151751E+01  2.5197304E+01
 1.6163250E+01  2.5426270E+01
 1.6174751E+01  2.5396376E+01
 1.6186251E+01  2.6299471E+01
 1.6197750E+01  2.6189386E+01
 1.6209251E+01  2.8050488E+01
 1.6220751E+01  2.7828930E+01
 1.6232250E+01  2.9471424E+01
 1.6243752E+01  2.9098104E+01
 1.6255251E+01  2.9434614E+01
 1.6266750E+01  2.8943777E+01
 1.6278252E+01  2.7945635E+01
 1.6289751E+01  2.7529139E+01
 1.6301250E+01  2.6180582E+01
 1.6312750E+01  2.6061705E+01
 1.6324251E+01  2.5264719E+01
 1.6335751E+01  2.5303890E+01
 1.6347250E+01  2.4964291E+01
 1.6358751E+01  2.4943075E+01
 1.6370251E+01  2.4837034E+01
 1.6381750E+01  2.4863699E+01
 1.6393251E+01  2.4882458E+01
 1.6404751E+01  2.4881777E+01
 1.6416250E+01  2.4926609E+01
 1.6427752E+01  2.4875071E+01
 1.6439251E+01  2.4854736E+01
 1.6450750E+01  2.4833300E+01
 1.6462252E+01  2.4825121E+01
 1.6473751E+01  2.4831087E+01
 1.6485250E+01  2.4753473E+01
 1.6496750E+01  2.4776682E+01
 1.6508251E+01  2.4694231E+01
 1.6519751E+01  2.4720776E+01
 1.6531250E+01  2.4667191E+01
 1.6542751E+01  2.4730463E+01
 1.6554251E+01  2.4688814E+01
 1.6565750E+01  2.4688641E+01
 1.6577251E+01  2.4662430E+01
 1.6588751E+01  2.4674162E+01
 1.6600250E+01  2.4736998E+01
 1.6611752E+01  2.4729052E+01
 1.6623251E+01  2.4709183E+01
 1.6634750E+01  2.4645416E+01
 1.6646252E+01  2.4637835E+01
 1.6657751E+01  2.4647133E+01
 1.6669250E+01  2.4669956E+01
 1.6680750E+01  2.4662264E+01
 1.6692251E+01  2.4664846E+01
 1.6703751E+01  2.4648314E+01
 1.6715250E+01  2.4655851E+01
 1.6726751E+01  2.4624844E+01
 1.6738251E+01  2.4640480E+01
 1.6749750E+01  2.4627811E+01
 1.6761251E+01  2.4552353E+01
 1.6772751E+01  2.4525784E+01
 1.6784250E+01  2.4485117E+01
 1.6795752E+01  2.4486704E+01
 1.6807251E+01  2.4472973E+01
 1.6818750E+01  2.4445780E+01
 1.6830252E+01  2.4421961E+01
 1.6841751E+01  2.4402092E+01
 1.6853251E+01  2.4466776E+01
 1.6864750E+01  2.4528456E+01
 1.6876251E+01  2.4564545E+01
 1.6887751E+01  2.4586418E+01
 1.6899250E+01  2.4610050E+01
 1.6910751E+01  2.4583685E+01
 1.6922251E+01  2.4556070E+01
 1.6933750E+01  2.4526754E+01
 1.6945251E+01  2.4521620E+01
 1.6956751E+01  2.4460705E+01
 1.6968250E+01  2.4435986E+01
 1.6979752E+01  2.4432152E+01
 1.6991251E+01  2.4442686E+01
 1.7002750E+01  2.4395317E+01
 1.7014252E+01  2.4359968E+01
 1.7025751E+01  2.4345749E+01
 1.7037251E+01  2.4302864E+01
 1.7048750E+01  2.4314552E+01
 1.7060251E+01  2.4314133E+01
 1.7071751E+01  2.4371099E+01
 1.7083250E+01  2.4366461E+01
 1.7094751E+01  2.4378397E+01
 1.7106251E+01  2.4352480E+01
 1.7117750E+01  2.4338850E+01
 1.7129251E+01  2.4332397E+01
 1.7140751E+01  2.4373051E+01
 1.7152250E+01  2.4335955E+01
 1.7163752E+01  2.4355608E+01
 1.7175251E+01  2.4330719E+01
 1.7186750E+01  2.4328976E+01
 1.7198252E+01  2.4314089E+01
 1.7209751E+01  2.4327734E+01
 1.7221251E+01  2.4286697E+01
 1.7232750E+01  2.4262636E+01
 1.7244251E+01  2.4224442E+01
 1.7255751E+01  2.4200499E+01
 1.7267250E+01  2.4157862E+01
 1.7278751E+01  2.4190413E+01
 1.7290251E+01  2.4205814E+01
 1.7301750E+01  2.4242085E+01
 1.7313251E+01  2.4232895E+01
 1.7324751E+01  2.4260645E+01
 1.7336250E+01  2.4227524E+01
 1.7347752E+01  2.4202211E+01
 1.7359251E+01  2.4178816E+01
 1.7370750E+01  2.4104948E+01
 1.7382252E+01  2.4069567E+01
 1.7393751E+01  2.3973259E+01
 1.7405251E+01  2.3962946E+01
 1.7416750E+01  2.3965555E+01
 1.7428251E+01  2.4039587E+01
 1.7439751E+01  2.4049967E+01
 1.7451250E+01  2.4047132E+01
 1.7462751E+01  2.4026966E+01
 1.7474251E+01  2.4062834E+01
 1.7485750E+01  2.4048843E+01
 1.7497252E+01  2.4052885E+01
 1.7508751E+01  2.4006170E+01
 1.7520250E+01  2.4019438E+01
 1.7531752E+01  2.4025478E+01
 1.7543251E+01  2.4074072E+01
 1.7554750E+01  2.4065304E+01
 1.7566252E+01  2.4074890E+01
 1.7577751E+01  2.4039255E+01
 1.7589251E+01  2.3968374E+01
 1.7600750E+01  2.3937445E+01
 1.7612251E+01  2.3993191E+01
 1.7623751E+01  2.4093376E+01
 1.7635250E+01  2.4091391E+01
 1.7646751E+01  2.4065334E+01
 1.7658251E+01  2.3979652E+01
 1.7669750E+01  2.3939468E+01
 1.7681252E+01  2.3911608E+01
 1.7692751E+01  2.3931921E+01
 1.7704250E+01  2.3928318E+01
 1.7715752E+01  2.3967518E+01
 1.7727251E+01  2.3962099E+01
 1.7738750E+01  2.3971006E+01
 1.7750252E+01  2.3928970E+01
 1.7761751E+01  2.3922680E+01
 1.7773251E+01  2.3947990E+01
 1.7784750E+01  2.3951853E+01
 1.7796251E+01  2.3999638E+01
 1.7807751E+01  2.3986977E+01
 1.7819250E+01  2.3991026E+01
 1.7830751E+01  2.4001436E+01
 1.7842251E+01  2.4020926E+01
 1.7853750E+01  2.3980473E+01
 1.7865252E+01  2.3939060E+01
 1.7876751E+01  2.3918447E+01
 1.7888250E+01  2.3910255E+01
 1.7899752E+01  2.3887915E+01
 1.7911251E+01  2.3933571E+01
 1.7922750E+01  2.3940664E+01
 1.7934252E+01  2.3926487E+01
 1.7945751E+01  2.3930197E+01
 1.7957251E+01  2.3973047E+01
 1.7968750E+01  2.4010839E+01
 1.7980251E+01  2.4091604E+01
 1.7991751E+01  2.4187914E+01
 1.8003250E+01  2.4289526E+01
 1.8014751E+01  2.4366053E+01
 1.8026251E+01  2.4497147E+01
 1.8037750E+01  2.4622246E+01
 1.8049252E+01  2.4859344E+01
 1.8060751E+01  2.5227039E+01
 1.8072250E+01  2.5579435E+01
 1.8083752E+01  2.6042671E+01
 1.8095251E+01  2.6555639E+01
 1.8106750E+01  2.6791111E+01
 1.8118252E+01  2.6955572E+01
 1.8129751E+01  2.6684736E+01
 1.8141251E+01  2.6424885E+01
 1.8152750E+01  2.5765902E+01
 1.8164251E+01  2.5327372E+01
 1.8175751E+01  2.4890696E+01
 1.8187250E+01  2.4493546E+01
 1.8198751E+01  2.4292622E+01
 1.8210251E+01  2.4125425E+01
 1.8221750E+01  2.4027086E+01
 1.8233252E+01  2.3939346E+01
 1.8244751E+01  2.3889555E+01
 1.8256250E+01  2.3887407E+01
 1.8267752E+01  2.3844851E+01
 1.8279251E+01  2.3833969E+01
 1.8290751E+01  2.3834867E+01
 1.8302252E+01  2.3824646E+01
 1.8313751E+01  2.3762407E+01
 1.8325251E+01  2.3703346E+01
 1.8336750E+01  2.3698992E+01
 1.8348251E+01  2.3753012E+01
 1.8359751E+01  2.3792459E+01
 1.8371250E+01  2.3792562E+01
 1.8382751E+01  2.3752890E+01
 1.8394251E+01  2.3752108E+01
 1.8405750E+01  2.3765530E+01
 1.8417252E+01  2.3738865E+01
 1.8428751E+01  2.3730295E+01
 1.8440250E+01  2.3734795E+01
 1.8451752E+01  2.3739658E+01
 1.8463251E+01  2.3706961E+01
 1.8474751E+01  2.3716228E+01
 1.8486252E+01  2.3678701E+01
 1.8497751E+01  2.3695749E+01
 1.8509251E+01  2.3631729E+01
 1.8520750E+01  2.3611691E+01
 1.8532251E+01  2.3572899E+01
 1.8543751E+01  2.3585272E+01
 1.8555250E+01  2.3626591E+01
 1.8566751E+01  2.3612434E+01
 1.8578251E+01  2.3625746E+01
 1.8589750E+01  2.3619745E+01
 1.8601252E+01  2.3651310E+01
 1.8612751E+01  2.3646170E+01
 1.8624250E+01  2.3652792E+01
 1.8635752E+01  2.3676554E+01
 1.8647251E+01  2.3627031E+01
 1.8658751E+01  2.3567137E+01
 1.8670252E+01  2.3524958E+01
 1.8681751E+01  2.3531881E+01
 1.8693251E+01  2.3537502E+01
 1.8704750E+01  2.3551628E+01
 1.8716251E+01  2.3506090E+01
 1.8727751E+01  2.3490952E+01
 1.8739250E+01  2.3454361E+01
 1.8750751E+01  2.3491512E+01
 1.8762251E+01  2.3508703E+01
 1.8773750E+01  2.3505804E+01
 1.8785252E+01  2.3516085E+01
 1.8796751E+01  2.3537428E+01
 1.8808250E+01  2.3535961E+01
 1.8819752E+01  2.3589718E+01
 1.8831251E+01  2.3604704E+01
 1.8842751E+01  2.3645266E+01
 1.8854252E+01  2.3597334E+01
 1.8865751E+01  2.3539368E+01
 1.8877251E+01  2.3470072E+01
 1.8888750E+01  2.3398222E+01
 1.8900251E+01  2.3383575E+01
 1.8911751E+01  2.3372551E+01
 1.8923250E+01  2.3444876E+01
 1.8934752E+01  2.3545681E+01
 1.8946251E+01  2.3663881E+01
 1.8957750E+01  2.3683279E+01
 1.8969252E+01  2.3625086E+01
 1.8980751E+01  2.3540596E+01
 1.8992250E+01  2.3504086E+01
 1.9003752E+01  2.3521374E+01
 1.9015251E+01  2.3525248E+01
 1.9026751E+01  2.3568497E+01
 1.9038252E+01  2.3564852E+01
 1.9049751E+01  2.3603481E+01
 1.9061251E+01  2.3638702E+01
 1.9072750E+01  2.3702530E+01
 1.9084251E+01  2.3708187E+01
 1.9095751E+01  2.3712206E+01
 1.9107250E+01  2.3689852E+01
 1.9118752E+01  2.3629099E+01
 1.9130251E+01  2.3606409E+01
 1.9141750E+01  2.3573166E+01
 1.9153252E+01  2.3566881E+01
 1.9164751E+01  2.3527323E+01
 1.9176250E+01  2.3538286E+01
 1.9187752E+01  2.3524681E+01
 1.9199251E+01  2.3543674E+01
 1.9210751E+01  2.3591162E+01
 1.9222252E+01  2.3588797E+01
 1.9233751E+01  2.3601429E+01
 1.9245251E+01  2.3603142E+01
 1.9256750E+01  2.3693708E+01
 1.9268251E+01  2.3722639E+01
 1.9279751E+01  2.3715689E+01
 1.9291250E+01  2.3691238E+01
 1.9302752E+01  2.3667265E+01
 1.9314251E+01  2.3667101E+01
 1.9325750E+01  2.3670189E+01
 1.9337252E+01  2.3686773E+01
 1.9348751E+01  2.3679367E+01
 1.9360250E+01  2.3644634E+01
 1.9371752E+01  2.3648245E+01
 1.9383251E+01  2.3658762E+01
 1.9394751E+01  2.3697739E+01
 1.9406250E+01  2.3685503E+01
 1.9417751E+01  2.3690559E+01
 1.9429251E+01  2.3713854E+01
 1.9440750E+01  2.3735989E+01
 1.9452251E+01  2.3758568E+01
 1.9463751E+01  2.3745487E+01
 1.9475250E+01  2.3740925E+01
 1.9486752E+01  2.3702765E+01
 1.9498251E+01  2.3733685E+01
 1.9509750E+01  2.3811409E+01
 1.9521252E+01  2.3881014E+01
 1.9532751E+01  2.3918327E+01
 1.9544250E+01  2.3948654E+01
 1.9555752E+01  2.3918993E+01
 1.9567251E+01  2.3921064E+01
 1.9578751E+01  2.3952097E+01
 1.9590250E+01  2.4028948E+01
 1.9601751E+01  2.4037815E+01
 1.9613251E+01  2.4165850E+01
 1.9624750E+01  2.4262470E+01
 1.9636251E+01  2.4429960E+01
 1.9647751E+01  2.4595619E+01
 1.9659250E+01  2.4912230E+01
 1.9670752E+01  2.5281889E+01
 1.9682251E+01  2.5818390E+01
 1.9693750E+01  2.6509815E+01
 1.9705252E+01  2.7031645E+01
 1.9716751E+01  2.7698864E+01
 1.9728251E+01  2.7659010E+01
 1.9739752E+01  2.7838686E+01
 1.9751251E+01  2.7169949E+01
 1.9762751E+01  2.6816666E+01
 1.9774250E+01  2.6266584E+01
 1.9785751E+01  2.5828049E+01
 1.9797251E+01  2.5714054E+01
 1.9808750E+01  2.5844076E+01
 1.9820251E+01  2.6118862E+01
 1.9831751E+01  2.6756443E+01
 1.9843250E+01  2.7389482E+01
 1.9854752E+01  2.7814541E+01
 1.9866251E+01  2.8495008E+01
 1.9877750E+01  2.8530844E+01
 1.9889252E+01  2.8075081E+01
 1.9900751E+01  2.7003746E+01
 1.9912251E+01  2.6166664E+01
 1.9923752E+01  2.5402298E+01
 1.9935251E+01  2.4845406E+01
 1.9946751E+01  2.4538801E+01
 1.9958250E+01  2.4354126E+01
 1.9969751E+01  2.4221548E+01
 1.9981251E+01  2.4104303E+01
 1.9992750E+01  2.4054514E+01
 2.0004251E+01  2.4033377E+01
 2.0015751E+01  2.4006838E+01
 2.0027250E+01  2.3974768E+01
 2.0038752E+01  2.3958567E+01
 2.0050251E+01  2.3953033E+01
 2.0061750E+01  2.3913631E+01
 2.0073252E+01  2.3863508E+01
 2.0084751E+01  2.3802681E+01
 2.0096251E+01  2.3762945E+01
 2.0107752E+01  2.3793690E+01
 2.0119251E+01  2.3852520E+01
 2.0130751E+01  2.3888807E+01
 2.0142250E+01  2.3873684E+01
 2.0153751E+01  2.3859062E+01
 2.0165251E+01  2.3839867E+01
 2.0176750E+01  2.3840519E+01
 2.0188251E+01  2.3822294E+01
 2.0199751E+01  2.3829998E+01
 2.0211250E+01  2.3812134E+01
 2.0222752E+01  2.3832550E+01
 2.0234251E+01  2.3813816E+01
 2.0245750E+01  2.3805182E+01
 2.0257252E+01  2.3802731E+01
 2.0268751E+01  2.3827194E+01
 2.0280251E+01  2.3858536E+01
 2.0291752E+01  2.3844349E+01
 2.0303251E+01  2.3800114E+01
 2.0314751E+01  2.3752939E+01
 2.0326250E+01  2.3756552E+01
 2.0337751E+01  2.3782482E+01
 2.0349251E+01  2.3800560E+01
 2.0360750E+01  2.3799973E+01
 2.0372252E+01  2.3837286E+01
 2.0383751E+01  2.3872074E+01
 2.0395250E+01  2.3917637E+01
 2.0406752E+01  2.3945810E+01
 2.0418251E+01  2.3981192E+01
 2.0429750E+01  2.3944397E+01
 2.0441252E+01  2.3935438E+01
 2.0452751E+01  2.3947720E+01
 2.0464251E+01  2.3950167E+01
 2.0475752E+01  2.3939827E+01
 2.0487251E+01  2.3913862E+01
 2.0498751E+01  2.3966040E+01
 2.0510250E+01  2.3884342E+01
 2.0521751E+01  2.3830805E+01
 2.0533251E+01  2.3794348E+01
 2.0544750E+01  2.3875721E+01
 2.0556252E+01  2.3965405E+01
 2.0567751E+01  2.3988352E+01
 2.0579250E+01  2.4023827E+01
 2.0590752E+01  2.4056574E+01
 2.0602251E+01  2.4080091E+01
 2.0613750E+01  2.4078823E+01
 2.0625252E+01  2.4112791E+01
 2.0636751E+01  2.4183201E+01
 2.0648251E+01  2.4185740E+01
 2.0659752E+01  2.4258081E+01
 2.0671251E+01  2.4356899E+01
 2.0682751E+01  2.4619173E+01
 2.0694250E+01  2.5086054E+01
 2.0705751E+01  2.5456705E+01
 2.0717251E+01  2.6732286E+01
 2.0728750E+01  2.7335712E+01
 2.0740252E+01  2.8397789E+01
 2.0751751E+01  2.8914051E+01
 2.0763250E+01  2.9286570E+01
 2.0774752E+01  2.9025557E+01
 2.0786251E+01  2.8194298E+01
 2.0797750E+01  2.7604826E+01
 2.0809252E+01  2.6414564E+01
 2.0820751E+01  2.5691662E+01
 2.0832251E+01  2.5075661E+01
 2.0843752E+01  2.4667974E+01
 2.0855251E+01  2.4496361E+01
 2.0866751E+01  2.4337021E+01
 2.0878250E+01  2.4287235E+01
 2.0889751E+01  2.4205790E+01
 2.0901251E+01  2.4146389E+01
 2.0912750E+01  2.4112513E+01
 2.0924252E+01  2.4084656E+01
 2.0935751E+01  2.4085161E+01
 2.0947250E+01  2.4072155E+01
 2.0958752E+01  2.4038860E+01
 2.0970251E+01  2.4066156E+01
 2.0981750E+01  2.4086109E+01
 2.0993252E+01  2.4100973E+01
 2.1004751E+01  2.4105610E+01
 2.1016251E+01  2.4084471E+01
 2.1027752E+01  2.4057554E+01
 2.1039251E+01  2.4041105E+01
 2.1050751E+01  2.4018520E+01
 2.1062250E+01  2.4020153E+01
 2.1073751E+01  2.4079054E+01
 2.1085251E+01  2.4103493E+01
 2.1096750E+01  2.4069834E+01
 2.1108252E+01  2.4040546E+01
 2.1119751E+01  2.4074190E+01
 2.1131250E+01  2.4108999E+01
 2.1142752E+01  2.4089903E+01
 2.1154251E+01  2.4011200E+01
 2.1165751E+01  2.3968588E+01
 2.1177252E+01  2.3943523E+01
 2.1188751E+01  2.4004856E+01
 2.1200251E+01  2.4006489E+01
 2.1211752E+01  2.4029076E+01
 2.1223251E+01  2.3981060E+01
 2.1234751E+01  2.3974545E+01
 2.1246250E+01  2.3962950E+01
 2.1257751E+01  2.3970806E+01
 2.1269251E+01  2.3970587E+01
 2.1280750E+01  2.4016510E+01
 2.1292252E+01  2.4051805E+01
 2.1303751E+01  2.4027264E+01
 2.1315250E+01  2.3968639E+01
 2.1326752E+01  2.3972601E+01
 2.1338251E+01  2.3977480E+01
 2.1349751E+01  2.4003504E+01
 2.1361252E+01  2.4039047E+01
 2.1372751E+01  2.4106461E+01
 2.1384251E+01  2.4099016E+01
 2.1395752E+01  2.4121260E+01
 2.1407251E+01  2.4092937E+01
 2.1418751E+01  2.4058092E+01
 2.1430250E+01  2.3998592E+01
 2.1441751E+01  2.3969309E+01
 2.1453251E+01  2.4001982E+01
 2.1464750E+01  2.4032753E+01
 2.1476252E+01  2.4038378E+01
 2.1487751E+01  2.4073975E+01
 2.1499250E+01  2.4101301E+01
 2.1510752E+01  2.4099400E+01
 2.1522251E+01  2.4095306E+01
 2.1533751E+01  2.4109020E+01
 2.1545252E+01  2.4110542E+01
 2.1556751E+01  2.4083641E+01
 2.1568251E+01  2.4082541E+01
 2.1579752E+01  2.4087311E+01
 2.1591251E+01  2.4161139E+01
 2.1602751E+01  2.4236685E+01
 2.1614250E+01  2.4267601E+01
 2.1625751E+01  2.4240808E+01
 2.1637251E+01  2.4195765E+01
 2.1648750E+01  2.4192236E+01
 2.1660252E+01  2.4142061E+01
 2.1671751E+01  2.4174665E+01
 2.1683250E+01  2.4167036E+01
 2.1694752E+01  2.4153772E+01
 2.1706251E+01  2.4139795E+01
 2.1717751E+01  2.4169529E+01
 2.1729252E+01  2.4220383E+01
 2.1740751E+01  2.4218386E+01
 2.1752251E+01  2.4241371E+01
 2.1763752E+01  2.4256226E+01
 2.1775251E+01  2.4270954E+01
 2.1786751E+01  2.4309143E+01
 2.1798250E+01  2.4300489E+01
 2.1809752E+01  2.4288942E+01
 2.1821251E+01  2.4297523E+01
 2.1832750E+01  2.4266989E+01
 2.1844252E+01  2.4282240E+01
 2.1855751E+01  2.4297392E+01
 2.1867250E+01  2.4302889E+01
 2.1878752E+01  2.4247183E+01
 2.1890251E+01  2.4215824E+01
 2.1901751E+01  2.4237911E+01
 2.1913252E+01  2.4280046E+01
 2.1924751E+01  2.4302649E+01
 2.1936251E+01  2.4313848E+01
 2.1947752E+01  2.4319916E+01
 2.1959251E+01  2.4330667E+01
 2.1970751E+01  2.4394768E+01
 2.1982250E+01  2.4489193E+01
 2.1993752E+01  2.4466690E+01
 2.2005251E+01  2.4382162E+01
 2.2016750E+01  2.4347235E+01
 2.2028252E+01  2.4420519E+01
 2.2039751E+01  2.4440405E+01
 2.2051250E+01  2.4444229E+01
 2.2062752E+01  2.4398632E+01
 2.2074251E+01  2.4398565E+01
 2.2085751E+01  2.4415909E+01
 2.2097252E+01  2.4471313E+01
 2.2108751E+01  2.4474136E+01
 2.2120251E+01  2.4487532E+01
 2.2131752E+01  2.4456081E+01
 2.2143251E+01  2.4455973E+01
 2.2154751E+01  2.4438309E+01
 2.2166250E+01  2.4452253E+01
 2.2177752E+01  2.4423252E+01
 2.2189251E+01  2.4431015E+01
 2.2200750E+01  2.4437550E+01
 2.2212252E+01  2.4454117E+01
 2.2223751E+01  2.4490755E+01
 2.2235250E+01  2.4456232E+01
 2.2246752E+01  2.4480795E+01
 2.2258251E+01  2.4472681E+01
 2.2269751E+01  2.4445072E+01
 2.2281252E+01  2.4404211E+01
 2.2292751E+01  2.4404898E+01
 2.2304251E+01  2.4450586E+01
 2.2315752E+01  2.4518003E+01
 2.2327251E+01  2.4559732E+01
 2.2338751E+01  2.4564138E+01
 2.2350250E+01  2.4571949E+01
 2.2361752E+01  2.4601841E+01
 2.2373251E+01  2.4584925E+01
 2.2384750E+01  2.4571615E+01
 2.2396252E+01  2.4600006E+01
 2.2407751E+01  2.4591228E+01
 2.2419250E+01  2.4594509E+01
 2.2430752E+01  2.4627087E+01
 2.2442251E+01  2.4675936E+01
 2.2453751E+01  2.4714745E+01
 2.2465252E+01  2.4721931E+01
 2.2476751E+01  2.4698471E+01
 2.2488251E+01  2.4710274E+01
 2.2499752E+01  2.4752567E+01
 2.2511251E+01  2.4821671E+01
 2.2522751E+01  2.4873274E+01
 2.2534250E+01  2.4931639E+01
 2.2545752E+01  2.4947832E+01
 2.2557251E+01  2.4914610E+01
 2.2568750E+01  2.4870829E+01
 2.2580252E+01  2.4932137E+01
 2.2591751E+01  2.4995771E+01
 2.2603251E+01  2.5018122E+01
 2.2614752E+01  2.5015318E+01
 2.2626251E+01  2.5069784E+01
 2.2637751E+01  2.5070679E+01
 2.2649252E+01  2.5109604E+01
 2.2660751E+01  2.5110886E+01
 2.2672251E+01  2.5144106E+01
 2.2683752E+01  2.5182686E+01
 2.2695251E+01  2.5249043E+01
 2.2706751E+01  2.5239073E+01
 2.2718250E+01  2.5258080E+01
 2.2729752E+01  2.5283033E+01
 2.2741251E+01  2.5333490E+01
 2.2752750E+01  2.5352758E+01
 2.2764252E+01  2.5379139E+01
 2.2775751E+01  2.5418415E+01
 2.2787251E+01  2.5401155E+01
 2.2798752E+01  2.5432646E+01
 2.2810251E+01  2.5456850E+01
 2.2821751E+01  2.5465565E+01
 2.2833252E+01  2.5516083E+01
 2.2844751E+01  2.5557669E+01
 2.2856251E+01  2.5593719E+01
 2.2867750E+01  2.5649151E+01
 2.2879251E+01  2.5682362E+01
 2.2890751E+01  2.5727139E+01
 2.2902250E+01  2.5752726E+01
 2.2913752E+01  2.5880594E+01
 2.2925251E+01  2.5975449E+01
 2.2936750E+01  2.6025757E+01
 2.2948252E+01  2.6046198E+01
 2.2959751E+01  2.6054972E+01
 2.2971251E+01  2.6189003E+01
 2.2982752E+01  2.6343357E+01
 2.2994251E+01  2.6482925E+01
