F:\20151113_APS_34IDE\\Brian\Particle1\OCV\Data_0128.tif
2-Theta Angle (Degrees)
Intensity
       2000
 5.7500005E-03  0.0000000E+00
 1.7250001E-02  0.0000000E+00
 2.8750001E-02  0.0000000E+00
 4.0250003E-02  0.0000000E+00
 5.1750004E-02  0.0000000E+00
 6.3250005E-02  0.0000000E+00
 7.4750006E-02  0.0000000E+00
 8.6250007E-02  0.0000000E+00
 9.7750008E-02  0.0000000E+00
 1.0925001E-01  0.0000000E+00
 1.2075000E-01  0.0000000E+00
 1.3225001E-01  0.0000000E+00
 1.4375001E-01  0.0000000E+00
 1.5525001E-01  0.0000000E+00
 1.6675001E-01  0.0000000E+00
 1.7825001E-01  0.0000000E+00
 1.8975002E-01  0.0000000E+00
 2.0125002E-01  0.0000000E+00
 2.1275002E-01  0.0000000E+00
 2.2425000E-01  0.0000000E+00
 2.3575000E-01  0.0000000E+00
 2.4725001E-01  0.0000000E+00
 2.5875002E-01  0.0000000E+00
 2.7025002E-01  0.0000000E+00
 2.8175002E-01  0.0000000E+00
 2.9325002E-01  0.0000000E+00
 3.0475003E-01  0.0000000E+00
 3.1625003E-01  0.0000000E+00
 3.2775003E-01  0.0000000E+00
 3.3925003E-01  0.0000000E+00
 3.5075003E-01  0.0000000E+00
 3.6225003E-01  0.0000000E+00
 3.7375003E-01  0.0000000E+00
 3.8525003E-01  0.0000000E+00
 3.9675003E-01  0.0000000E+00
 4.0825003E-01  0.0000000E+00
 4.1975003E-01  0.0000000E+00
 4.3125004E-01  0.0000000E+00
 4.4275001E-01  0.0000000E+00
 4.5425001E-01  0.0000000E+00
 4.6575001E-01  0.0000000E+00
 4.7725001E-01  0.0000000E+00
 4.8875001E-01  0.0000000E+00
 5.0025004E-01  0.0000000E+00
 5.1175004E-01  0.0000000E+00
 5.2325004E-01  0.0000000E+00
 5.3475004E-01  0.0000000E+00
 5.4625005E-01  0.0000000E+00
 5.5775005E-01  0.0000000E+00
 5.6925005E-01  0.0000000E+00
 5.8075005E-01  0.0000000E+00
 5.9225005E-01  0.0000000E+00
 6.0375005E-01  0.0000000E+00
 6.1525005E-01  0.0000000E+00
 6.2675005E-01  0.0000000E+00
 6.3825005E-01  0.0000000E+00
 6.4975005E-01  0.0000000E+00
 6.6125005E-01  0.0000000E+00
 6.7275006E-01  0.0000000E+00
 6.8425006E-01  0.0000000E+00
 6.9575006E-01  0.0000000E+00
 7.0725006E-01  0.0000000E+00
 7.1875006E-01  0.0000000E+00
 7.3025006E-01  0.0000000E+00
 7.4175006E-01  0.0000000E+00
 7.5325006E-01  0.0000000E+00
 7.6475006E-01  0.0000000E+00
 7.7625006E-01  0.0000000E+00
 7.8775007E-01  0.0000000E+00
 7.9925007E-01  0.0000000E+00
 8.1075007E-01  0.0000000E+00
 8.2225007E-01  0.0000000E+00
 8.3375007E-01  0.0000000E+00
 8.4525007E-01  0.0000000E+00
 8.5675007E-01  0.0000000E+00
 8.6825007E-01  0.0000000E+00
 8.7975001E-01  0.0000000E+00
 8.9125001E-01  0.0000000E+00
 9.0275002E-01  0.0000000E+00
 9.1425002E-01  0.0000000E+00
 9.2575002E-01  0.0000000E+00
 9.3725002E-01  0.0000000E+00
 9.4875002E-01  0.0000000E+00
 9.6025002E-01  0.0000000E+00
 9.7175002E-01  0.0000000E+00
 9.8325002E-01  0.0000000E+00
 9.9475002E-01  0.0000000E+00
 1.0062500E+00  0.0000000E+00
 1.0177500E+00  0.0000000E+00
 1.0292500E+00  0.0000000E+00
 1.0407500E+00  0.0000000E+00
 1.0522500E+00  0.0000000E+00
 1.0637500E+00  0.0000000E+00
 1.0752500E+00  0.0000000E+00
 1.0867500E+00  0.0000000E+00
 1.0982500E+00  0.0000000E+00
 1.1097500E+00  0.0000000E+00
 1.1212500E+00  0.0000000E+00
 1.1327500E+00  0.0000000E+00
 1.1442500E+00  0.0000000E+00
 1.1557500E+00  0.0000000E+00
 1.1672500E+00  0.0000000E+00
 1.1787500E+00  0.0000000E+00
 1.1902500E+00  0.0000000E+00
 1.2017500E+00  0.0000000E+00
 1.2132500E+00  0.0000000E+00
 1.2247500E+00  0.0000000E+00
 1.2362500E+00  0.0000000E+00
 1.2477500E+00  0.0000000E+00
 1.2592500E+00  0.0000000E+00
 1.2707500E+00  0.0000000E+00
 1.2822500E+00  0.0000000E+00
 1.2937500E+00  0.0000000E+00
 1.3052500E+00  0.0000000E+00
 1.3167500E+00  0.0000000E+00
 1.3282501E+00  0.0000000E+00
 1.3397501E+00  0.0000000E+00
 1.3512501E+00  0.0000000E+00
 1.3627501E+00  0.0000000E+00
 1.3742501E+00  0.0000000E+00
 1.3857501E+00  0.0000000E+00
 1.3972501E+00  0.0000000E+00
 1.4087501E+00  0.0000000E+00
 1.4202501E+00  0.0000000E+00
 1.4317501E+00  0.0000000E+00
 1.4432501E+00  0.0000000E+00
 1.4547501E+00  0.0000000E+00
 1.4662501E+00  0.0000000E+00
 1.4777501E+00  0.0000000E+00
 1.4892501E+00  0.0000000E+00
 1.5007501E+00  0.0000000E+00
 1.5122501E+00  0.0000000E+00
 1.5237501E+00  0.0000000E+00
 1.5352501E+00  0.0000000E+00
 1.5467501E+00  0.0000000E+00
 1.5582501E+00  0.0000000E+00
 1.5697501E+00  0.0000000E+00
 1.5812501E+00  0.0000000E+00
 1.5927501E+00  0.0000000E+00
 1.6042501E+00  0.0000000E+00
 1.6157501E+00  0.0000000E+00
 1.6272501E+00  0.0000000E+00
 1.6387501E+00  0.0000000E+00
 1.6502501E+00  0.0000000E+00
 1.6617501E+00  0.0000000E+00
 1.6732501E+00  0.0000000E+00
 1.6847501E+00  0.0000000E+00
 1.6962501E+00  0.0000000E+00
 1.7077501E+00  0.0000000E+00
 1.7192501E+00  0.0000000E+00
 1.7307501E+00  0.0000000E+00
 1.7422501E+00  0.0000000E+00
 1.7537501E+00  0.0000000E+00
 1.7652501E+00  0.0000000E+00
 1.7767501E+00  0.0000000E+00
 1.7882501E+00  0.0000000E+00
 1.7997501E+00  0.0000000E+00
 1.8112501E+00  0.0000000E+00
 1.8227501E+00  0.0000000E+00
 1.8342501E+00  0.0000000E+00
 1.8457501E+00  0.0000000E+00
 1.8572501E+00  0.0000000E+00
 1.8687501E+00  0.0000000E+00
 1.8802501E+00  0.0000000E+00
 1.8917501E+00  0.0000000E+00
 1.9032501E+00  0.0000000E+00
 1.9147501E+00  0.0000000E+00
 1.9262501E+00  0.0000000E+00
 1.9377501E+00  0.0000000E+00
 1.9492501E+00  0.0000000E+00
 1.9607501E+00  0.0000000E+00
 1.9722501E+00  0.0000000E+00
 1.9837501E+00  0.0000000E+00
 1.9952501E+00  0.0000000E+00
 2.0067501E+00  0.0000000E+00
 2.0182500E+00  0.0000000E+00
 2.0297501E+00  0.0000000E+00
 2.0412500E+00  0.0000000E+00
 2.0527501E+00  0.0000000E+00
 2.0642500E+00  0.0000000E+00
 2.0757501E+00  0.0000000E+00
 2.0872500E+00  0.0000000E+00
 2.0987501E+00  0.0000000E+00
 2.1102500E+00  0.0000000E+00
 2.1217501E+00  0.0000000E+00
 2.1332500E+00  0.0000000E+00
 2.1447501E+00  0.0000000E+00
 2.1562500E+00  0.0000000E+00
 2.1677501E+00  0.0000000E+00
 2.1792500E+00  0.0000000E+00
 2.1907501E+00  0.0000000E+00
 2.2022500E+00  0.0000000E+00
 2.2137501E+00  0.0000000E+00
 2.2252500E+00  0.0000000E+00
 2.2367501E+00  0.0000000E+00
 2.2482500E+00  0.0000000E+00
 2.2597501E+00  0.0000000E+00
 2.2712500E+00  0.0000000E+00
 2.2827501E+00  0.0000000E+00
 2.2942500E+00  0.0000000E+00
 2.3057501E+00  0.0000000E+00
 2.3172500E+00  0.0000000E+00
 2.3287501E+00  0.0000000E+00
 2.3402500E+00  0.0000000E+00
 2.3517501E+00  0.0000000E+00
 2.3632500E+00  0.0000000E+00
 2.3747501E+00  0.0000000E+00
 2.3862500E+00  0.0000000E+00
 2.3977501E+00  0.0000000E+00
 2.4092500E+00  0.0000000E+00
 2.4207501E+00  0.0000000E+00
 2.4322500E+00  0.0000000E+00
 2.4437501E+00  0.0000000E+00
 2.4552500E+00  0.0000000E+00
 2.4667501E+00  0.0000000E+00
 2.4782500E+00  0.0000000E+00
 2.4897501E+00  0.0000000E+00
 2.5012500E+00  0.0000000E+00
 2.5127501E+00  0.0000000E+00
 2.5242500E+00  0.0000000E+00
 2.5357502E+00  0.0000000E+00
 2.5472500E+00  0.0000000E+00
 2.5587502E+00  0.0000000E+00
 2.5702500E+00  0.0000000E+00
 2.5817502E+00  0.0000000E+00
 2.5932500E+00  0.0000000E+00
 2.6047502E+00  0.0000000E+00
 2.6162500E+00  0.0000000E+00
 2.6277502E+00  0.0000000E+00
 2.6392500E+00  0.0000000E+00
 2.6507502E+00  0.0000000E+00
 2.6622500E+00  0.0000000E+00
 2.6737502E+00  0.0000000E+00
 2.6852500E+00  0.0000000E+00
 2.6967502E+00  0.0000000E+00
 2.7082500E+00  0.0000000E+00
 2.7197502E+00  0.0000000E+00
 2.7312500E+00  0.0000000E+00
 2.7427502E+00  0.0000000E+00
 2.7542500E+00  0.0000000E+00
 2.7657502E+00  0.0000000E+00
 2.7772501E+00  0.0000000E+00
 2.7887502E+00  0.0000000E+00
 2.8002501E+00  0.0000000E+00
 2.8117502E+00  0.0000000E+00
 2.8232501E+00  3.5744068E+01
 2.8347502E+00  3.2394596E+01
 2.8462501E+00  3.2564789E+01
 2.8577502E+00  3.2769424E+01
 2.8692501E+00  3.3224178E+01
 2.8807502E+00  3.3717152E+01
 2.8922501E+00  3.4184696E+01
 2.9037502E+00  3.5030148E+01
 2.9152501E+00  3.5541103E+01
 2.9267502E+00  3.5502560E+01
 2.9382501E+00  3.5327831E+01
 2.9497502E+00  3.5008850E+01
 2.9612501E+00  3.5284100E+01
 2.9727502E+00  3.5097569E+01
 2.9842501E+00  3.5081074E+01
 2.9957502E+00  3.4828026E+01
 3.0072501E+00  3.5166176E+01
 3.0187502E+00  3.5454765E+01
 3.0302501E+00  3.5607609E+01
 3.0417502E+00  3.5565842E+01
 3.0532501E+00  3.5372757E+01
 3.0647502E+00  3.5291965E+01
 3.0762501E+00  3.5297058E+01
 3.0877502E+00  3.5196373E+01
 3.0992501E+00  3.5046070E+01
 3.1107502E+00  3.4743546E+01
 3.1222501E+00  3.4333088E+01
 3.1337502E+00  3.4596134E+01
 3.1452501E+00  3.4555454E+01
 3.1567502E+00  3.5062984E+01
 3.1682501E+00  3.5016987E+01
 3.1797502E+00  3.5102303E+01
 3.1912501E+00  3.4836983E+01
 3.2027502E+00  3.5091778E+01
 3.2142501E+00  3.5202805E+01
 3.2257502E+00  3.5703094E+01
 3.2372501E+00  3.5504425E+01
 3.2487502E+00  3.5574139E+01
 3.2602501E+00  3.5295658E+01
 3.2717502E+00  3.4974140E+01
 3.2832501E+00  3.4571705E+01
 3.2947502E+00  3.4399937E+01
 3.3062501E+00  3.4171539E+01
 3.3177502E+00  3.4105972E+01
 3.3292501E+00  3.4036850E+01
 3.3407502E+00  3.3855991E+01
 3.3522501E+00  3.3962341E+01
 3.3637502E+00  3.3691078E+01
 3.3752501E+00  3.3943096E+01
 3.3867502E+00  3.3824364E+01
 3.3982501E+00  3.4043926E+01
 3.4097502E+00  3.4155285E+01
 3.4212501E+00  3.4392139E+01
 3.4327502E+00  3.4545143E+01
 3.4442501E+00  3.4405243E+01
 3.4557502E+00  3.4430408E+01
 3.4672501E+00  3.4375267E+01
 3.4787502E+00  3.4483158E+01
 3.4902501E+00  3.4417400E+01
 3.5017502E+00  3.4295700E+01
 3.5132501E+00  3.3986721E+01
 3.5247502E+00  3.3682228E+01
 3.5362501E+00  3.3559780E+01
 3.5477502E+00  3.3521339E+01
 3.5592501E+00  3.3439854E+01
 3.5707502E+00  3.3167484E+01
 3.5822501E+00  3.2889130E+01
 3.5937502E+00  3.2564442E+01
 3.6052501E+00  3.2335213E+01
 3.6167502E+00  3.2221447E+01
 3.6282501E+00  3.2389652E+01
 3.6397502E+00  3.2502144E+01
 3.6512501E+00  3.2735336E+01
 3.6627502E+00  3.2753426E+01
 3.6742501E+00  3.2605434E+01
 3.6857502E+00  3.2511013E+01
 3.6972501E+00  3.2433334E+01
 3.7087502E+00  3.2189297E+01
 3.7202501E+00  3.2041939E+01
 3.7317502E+00  3.1957081E+01
 3.7432501E+00  3.2343201E+01
 3.7547503E+00  3.2662720E+01
 3.7662501E+00  3.3054127E+01
 3.7777503E+00  3.3387955E+01
 3.7892501E+00  3.3288578E+01
 3.8007503E+00  3.3005390E+01
 3.8122501E+00  3.2858513E+01
 3.8237503E+00  3.2793713E+01
 3.8352501E+00  3.2943211E+01
 3.8467503E+00  3.2783733E+01
 3.8582501E+00  3.2724625E+01
 3.8697503E+00  3.2823917E+01
 3.8812501E+00  3.2909698E+01
 3.8927503E+00  3.2974422E+01
 3.9042501E+00  3.2824963E+01
 3.9157503E+00  3.2650730E+01
 3.9272501E+00  3.2549831E+01
 3.9387503E+00  3.2395912E+01
 3.9502501E+00  3.2445873E+01
 3.9617503E+00  3.2512466E+01
 3.9732502E+00  3.2644398E+01
 3.9847503E+00  3.2611790E+01
 3.9962502E+00  3.2632813E+01
 4.0077500E+00  3.2597408E+01
 4.0192504E+00  3.2451126E+01
 4.0307503E+00  3.2217804E+01
 4.0422502E+00  3.2170444E+01
 4.0537500E+00  3.2184429E+01
 4.0652504E+00  3.2372082E+01
 4.0767503E+00  3.2339855E+01
 4.0882502E+00  3.2345741E+01
 4.0997500E+00  3.2283447E+01
 4.1112504E+00  3.2244152E+01
 4.1227503E+00  3.2209053E+01
 4.1342502E+00  3.2271561E+01
 4.1457500E+00  3.2286446E+01
 4.1572504E+00  3.2231598E+01
 4.1687503E+00  3.2092564E+01
 4.1802502E+00  3.1967730E+01
 4.1917500E+00  3.1964344E+01
 4.2032504E+00  3.2009392E+01
 4.2147503E+00  3.1997713E+01
 4.2262502E+00  3.2089878E+01
 4.2377501E+00  3.2130009E+01
 4.2492504E+00  3.2127701E+01
 4.2607503E+00  3.2163280E+01
 4.2722502E+00  3.2205418E+01
 4.2837501E+00  3.2241680E+01
 4.2952504E+00  3.2411034E+01
 4.3067503E+00  3.2416939E+01
 4.3182502E+00  3.2513412E+01
 4.3297501E+00  3.2393898E+01
 4.3412504E+00  3.2223415E+01
 4.3527503E+00  3.2138069E+01
 4.3642502E+00  3.2032772E+01
 4.3757501E+00  3.2036804E+01
 4.3872504E+00  3.2057392E+01
 4.3987503E+00  3.2060364E+01
 4.4102502E+00  3.2192677E+01
 4.4217501E+00  3.2228004E+01
 4.4332504E+00  3.2342903E+01
 4.4447503E+00  3.2327221E+01
 4.4562502E+00  3.2281815E+01
 4.4677501E+00  3.2165977E+01
 4.4792504E+00  3.2096195E+01
 4.4907503E+00  3.1964457E+01
 4.5022502E+00  3.2022266E+01
 4.5137501E+00  3.1970663E+01
 4.5252504E+00  3.2109802E+01
 4.5367503E+00  3.2299274E+01
 4.5482502E+00  3.2501953E+01
 4.5597501E+00  3.2736107E+01
 4.5712504E+00  3.2866783E+01
 4.5827503E+00  3.2929550E+01
 4.5942502E+00  3.2877224E+01
 4.6057501E+00  3.2775124E+01
 4.6172504E+00  3.2590179E+01
 4.6287503E+00  3.2420578E+01
 4.6402502E+00  3.2307266E+01
 4.6517501E+00  3.2260773E+01
 4.6632504E+00  3.2369816E+01
 4.6747503E+00  3.2344555E+01
 4.6862502E+00  3.2391075E+01
 4.6977501E+00  3.2497612E+01
 4.7092505E+00  3.2668919E+01
 4.7207503E+00  3.2715923E+01
 4.7322502E+00  3.2551411E+01
 4.7437501E+00  3.2377209E+01
 4.7552505E+00  3.2332142E+01
 4.7667503E+00  3.2442410E+01
 4.7782502E+00  3.2698578E+01
 4.7897501E+00  3.2751419E+01
 4.8012505E+00  3.2793255E+01
 4.8127503E+00  3.2675114E+01
 4.8242502E+00  3.2593922E+01
 4.8357501E+00  3.2450844E+01
 4.8472505E+00  3.2297829E+01
 4.8587503E+00  3.2362804E+01
 4.8702502E+00  3.2338924E+01
 4.8817501E+00  3.2456600E+01
 4.8932505E+00  3.2414341E+01
 4.9047503E+00  3.2594662E+01
 4.9162502E+00  3.2700275E+01
 4.9277501E+00  3.2738426E+01
 4.9392505E+00  3.2802059E+01
 4.9507504E+00  3.2798531E+01
 4.9622502E+00  3.2847023E+01
 4.9737501E+00  3.2859463E+01
 4.9852505E+00  3.2799152E+01
 4.9967504E+00  3.2775208E+01
 5.0082502E+00  3.2695862E+01
 5.0197501E+00  3.2669968E+01
 5.0312505E+00  3.2644230E+01
 5.0427504E+00  3.2814419E+01
 5.0542502E+00  3.2928753E+01
 5.0657501E+00  3.3079803E+01
 5.0772505E+00  3.3183949E+01
 5.0887504E+00  3.3299854E+01
 5.1002502E+00  3.3367188E+01
 5.1117501E+00  3.3404785E+01
 5.1232505E+00  3.3415234E+01
 5.1347504E+00  3.3560352E+01
 5.1462502E+00  3.3612926E+01
 5.1577501E+00  3.3633980E+01
 5.1692505E+00  3.3629951E+01
 5.1807504E+00  3.3569149E+01
 5.1922503E+00  3.3547340E+01
 5.2037501E+00  3.3459682E+01
 5.2152505E+00  3.3457436E+01
 5.2267504E+00  3.3365547E+01
 5.2382503E+00  3.3417290E+01
 5.2497501E+00  3.3405273E+01
 5.2612505E+00  3.3490948E+01
 5.2727504E+00  3.3696339E+01
 5.2842503E+00  3.3815487E+01
 5.2957501E+00  3.4037922E+01
 5.3072500E+00  3.4075062E+01
 5.3187504E+00  3.4253059E+01
 5.3302503E+00  3.4281288E+01
 5.3417501E+00  3.4201145E+01
 5.3532500E+00  3.4037266E+01
 5.3647504E+00  3.3956047E+01
 5.3762503E+00  3.4030346E+01
 5.3877501E+00  3.4088795E+01
 5.3992500E+00  3.4224060E+01
 5.4107504E+00  3.4252819E+01
 5.4222503E+00  3.4232079E+01
 5.4337502E+00  3.4120800E+01
 5.4452500E+00  3.4050022E+01
 5.4567504E+00  3.4131264E+01
 5.4682503E+00  3.4243721E+01
 5.4797502E+00  3.4325520E+01
 5.4912500E+00  3.4325787E+01
 5.5027504E+00  3.4364899E+01
 5.5142503E+00  3.4442463E+01
 5.5257502E+00  3.4664482E+01
 5.5372500E+00  3.4681190E+01
 5.5487504E+00  3.4765232E+01
 5.5602503E+00  3.4760578E+01
 5.5717502E+00  3.4807117E+01
 5.5832500E+00  3.4879044E+01
 5.5947504E+00  3.4989044E+01
 5.6062503E+00  3.5062450E+01
 5.6177502E+00  3.5098095E+01
 5.6292500E+00  3.5100807E+01
 5.6407504E+00  3.5182831E+01
 5.6522503E+00  3.5228848E+01
 5.6637502E+00  3.5411430E+01
 5.6752501E+00  3.5545361E+01
 5.6867504E+00  3.5670963E+01
 5.6982503E+00  3.5604767E+01
 5.7097502E+00  3.5562206E+01
 5.7212501E+00  3.5469776E+01
 5.7327504E+00  3.5478886E+01
 5.7442503E+00  3.5490765E+01
 5.7557502E+00  3.5524803E+01
 5.7672501E+00  3.5527393E+01
 5.7787504E+00  3.5445995E+01
 5.7902503E+00  3.5569641E+01
 5.8017502E+00  3.5553890E+01
 5.8132501E+00  3.5647923E+01
 5.8247504E+00  3.5705666E+01
 5.8362503E+00  3.5812527E+01
 5.8477502E+00  3.5867146E+01
 5.8592501E+00  3.5726925E+01
 5.8707504E+00  3.5769161E+01
 5.8822503E+00  3.5821247E+01
 5.8937502E+00  3.6046196E+01
 5.9052501E+00  3.6134914E+01
 5.9167504E+00  3.6294041E+01
 5.9282503E+00  3.6728359E+01
 5.9397502E+00  3.7341660E+01
 5.9512501E+00  3.8751995E+01
 5.9627504E+00  3.9539009E+01
 5.9742503E+00  4.1295910E+01
 5.9857502E+00  4.1415020E+01
 5.9972501E+00  4.2366665E+01
 6.0087504E+00  4.1214394E+01
 6.0202503E+00  4.0634014E+01
 6.0317502E+00  3.9000462E+01
 6.0432501E+00  3.8264149E+01
 6.0547504E+00  3.7226730E+01
 6.0662503E+00  3.6909142E+01
 6.0777502E+00  3.6507252E+01
 6.0892501E+00  3.6514324E+01
 6.1007504E+00  3.6498730E+01
 6.1122503E+00  3.6513748E+01
 6.1237502E+00  3.6582561E+01
 6.1352501E+00  3.6613308E+01
 6.1467505E+00  3.6711063E+01
 6.1582503E+00  3.6812477E+01
 6.1697502E+00  3.6918156E+01
 6.1812501E+00  3.7002560E+01
 6.1927505E+00  3.7063450E+01
 6.2042503E+00  3.7118382E+01
 6.2157502E+00  3.7272663E+01
 6.2272501E+00  3.7463287E+01
 6.2387505E+00  3.7515633E+01
 6.2502503E+00  3.7511520E+01
 6.2617502E+00  3.7434639E+01
 6.2732501E+00  3.7494331E+01
 6.2847505E+00  3.7531963E+01
 6.2962503E+00  3.7584469E+01
 6.3077502E+00  3.7515823E+01
 6.3192501E+00  3.7509125E+01
 6.3307505E+00  3.7570358E+01
 6.3422503E+00  3.7627953E+01
 6.3537502E+00  3.7743542E+01
 6.3652501E+00  3.7792946E+01
 6.3767505E+00  3.7910686E+01
 6.3882504E+00  3.8016048E+01
 6.3997502E+00  3.8092354E+01
 6.4112501E+00  3.8278915E+01
 6.4227505E+00  3.8315876E+01
 6.4342504E+00  3.8336178E+01
 6.4457502E+00  3.8351021E+01
 6.4572501E+00  3.8403648E+01
 6.4687505E+00  3.8513580E+01
 6.4802504E+00  3.8593636E+01
 6.4917502E+00  3.8728874E+01
 6.5032501E+00  3.8875591E+01
 6.5147505E+00  3.9019646E+01
 6.5262504E+00  3.9053879E+01
 6.5377502E+00  3.9175568E+01
 6.5492501E+00  3.9138268E+01
 6.5607505E+00  3.9157990E+01
 6.5722504E+00  3.9176514E+01
 6.5837502E+00  3.9224705E+01
 6.5952501E+00  3.9282688E+01
 6.6067505E+00  3.9286221E+01
 6.6182504E+00  3.9354710E+01
 6.6297503E+00  3.9554890E+01
 6.6412501E+00  3.9712757E+01
 6.6527505E+00  3.9883816E+01
 6.6642504E+00  4.0051327E+01
 6.6757503E+00  4.0147438E+01
 6.6872501E+00  4.0147320E+01
 6.6987505E+00  4.0094814E+01
 6.7102504E+00  4.0114326E+01
 6.7217503E+00  4.0224091E+01
 6.7332501E+00  4.0378876E+01
 6.7447505E+00  4.0513603E+01
 6.7562504E+00  4.0659573E+01
 6.7677503E+00  4.0705090E+01
 6.7792501E+00  4.0719898E+01
 6.7907505E+00  4.0796822E+01
 6.8022504E+00  4.0888092E+01
 6.8137503E+00  4.1048214E+01
 6.8252501E+00  4.1087654E+01
 6.8367505E+00  4.1150326E+01
 6.8482504E+00  4.1154209E+01
 6.8597503E+00  4.1285194E+01
 6.8712502E+00  4.1372921E+01
 6.8827505E+00  4.1526291E+01
 6.8942504E+00  4.1566650E+01
 6.9057503E+00  4.1528416E+01
 6.9172502E+00  4.1541668E+01
 6.9287505E+00  4.1537621E+01
 6.9402504E+00  4.1729603E+01
 6.9517503E+00  4.1792007E+01
 6.9632502E+00  4.1917496E+01
 6.9747505E+00  4.2030880E+01
 6.9862504E+00  4.2177979E+01
 6.9977503E+00  4.2233307E+01
 7.0092502E+00  4.2236832E+01
 7.0207505E+00  4.2235626E+01
 7.0322504E+00  4.2272636E+01
 7.0437503E+00  4.2261700E+01
 7.0552502E+00  4.2220295E+01
 7.0667505E+00  4.2186413E+01
 7.0782504E+00  4.2167854E+01
 7.0897503E+00  4.2232540E+01
 7.1012502E+00  4.2369705E+01
 7.1127505E+00  4.2546169E+01
 7.1242504E+00  4.2678066E+01
 7.1357503E+00  4.2742065E+01
 7.1472502E+00  4.2777538E+01
 7.1587505E+00  4.2832333E+01
 7.1702504E+00  4.2830391E+01
 7.1817503E+00  4.2873699E+01
 7.1932502E+00  4.2946392E+01
 7.2047505E+00  4.3080120E+01
 7.2162504E+00  4.3176319E+01
 7.2277503E+00  4.3250053E+01
 7.2392502E+00  4.3378620E+01
 7.2507505E+00  4.3419716E+01
 7.2622504E+00  4.3611767E+01
 7.2737503E+00  4.3653366E+01
 7.2852502E+00  4.3719730E+01
 7.2967505E+00  4.3645424E+01
 7.3082504E+00  4.3597931E+01
 7.3197503E+00  4.3629467E+01
 7.3312502E+00  4.3533337E+01
 7.3427505E+00  4.3540230E+01
 7.3542504E+00  4.3555180E+01
 7.3657503E+00  4.3622093E+01
 7.3772502E+00  4.3702305E+01
 7.3887506E+00  4.3753593E+01
 7.4002504E+00  4.3843323E+01
 7.4117503E+00  4.4057526E+01
 7.4232502E+00  4.4158390E+01
 7.4347506E+00  4.4243877E+01
 7.4462504E+00  4.4246525E+01
 7.4577503E+00  4.4167305E+01
 7.4692502E+00  4.4166306E+01
 7.4807506E+00  4.4135277E+01
 7.4922504E+00  4.4186058E+01
 7.5037503E+00  4.4212479E+01
 7.5152502E+00  4.4208454E+01
 7.5267506E+00  4.4220947E+01
 7.5382504E+00  4.4288105E+01
 7.5497503E+00  4.4283718E+01
 7.5612502E+00  4.4427845E+01
 7.5727506E+00  4.4475761E+01
 7.5842505E+00  4.4563549E+01
 7.5957503E+00  4.4559120E+01
 7.6072502E+00  4.4502918E+01
 7.6187506E+00  4.4444458E+01
 7.6302505E+00  4.4488834E+01
 7.6417503E+00  4.4521397E+01
 7.6532502E+00  4.4534515E+01
 7.6647506E+00  4.4517265E+01
 7.6762505E+00  4.4465572E+01
 7.6877503E+00  4.4419296E+01
 7.6992502E+00  4.4330109E+01
 7.7107506E+00  4.4379536E+01
 7.7222505E+00  4.4407394E+01
 7.7337503E+00  4.4401165E+01
 7.7452502E+00  4.4326786E+01
 7.7567506E+00  4.4236797E+01
 7.7682505E+00  4.4234337E+01
 7.7797503E+00  4.4188023E+01
 7.7912502E+00  4.4226948E+01
 7.8027506E+00  4.4170841E+01
 7.8142505E+00  4.4005619E+01
 7.8257504E+00  4.3910721E+01
 7.8372502E+00  4.3840096E+01
 7.8487506E+00  4.3949833E+01
 7.8602505E+00  4.3996990E+01
 7.8717504E+00  4.4054169E+01
 7.8832502E+00  4.4124016E+01
 7.8947506E+00  4.4102615E+01
 7.9062505E+00  4.4055538E+01
 7.9177504E+00  4.4160641E+01
 7.9292502E+00  4.4228676E+01
 7.9407506E+00  4.4263401E+01
 7.9522505E+00  4.4079247E+01
 7.9637504E+00  4.3884052E+01
 7.9752502E+00  4.3646912E+01
 7.9867506E+00  4.3502357E+01
 7.9982505E+00  4.3384403E+01
 8.0097504E+00  4.3305782E+01
 8.0212507E+00  4.3280380E+01
 8.0327501E+00  4.3245556E+01
 8.0442505E+00  4.3302475E+01
 8.0557508E+00  4.3182949E+01
 8.0672503E+00  4.3017509E+01
 8.0787506E+00  4.2927120E+01
 8.0902500E+00  4.2890110E+01
 8.1017504E+00  4.2988869E+01
 8.1132507E+00  4.2940636E+01
 8.1247501E+00  4.2765026E+01
 8.1362505E+00  4.2635666E+01
 8.1477509E+00  4.2545204E+01
 8.1592503E+00  4.2567009E+01
 8.1707506E+00  4.2551422E+01
 8.1822500E+00  4.2387703E+01
 8.1937504E+00  4.2306320E+01
 8.2052507E+00  4.2094032E+01
 8.2167501E+00  4.1927280E+01
 8.2282505E+00  4.1743107E+01
 8.2397509E+00  4.1599930E+01
 8.2512503E+00  4.1525120E+01
 8.2627506E+00  4.1444275E+01
 8.2742500E+00  4.1354000E+01
 8.2857504E+00  4.1179905E+01
 8.2972507E+00  4.0913261E+01
 8.3087502E+00  4.0626541E+01
 8.3202505E+00  4.0436157E+01
 8.3317509E+00  4.0243683E+01
 8.3432503E+00  4.0246246E+01
 8.3547506E+00  4.0192142E+01
 8.3662500E+00  4.0248116E+01
 8.3777504E+00  4.0040653E+01
 8.3892508E+00  3.9910892E+01
 8.4007502E+00  3.9681885E+01
 8.4122505E+00  3.9439072E+01
 8.4237509E+00  3.9242355E+01
 8.4352503E+00  3.9016689E+01
 8.4467506E+00  3.8932713E+01
 8.4582500E+00  3.8726624E+01
 8.4697504E+00  3.8615871E+01
 8.4812508E+00  3.8431057E+01
 8.4927502E+00  3.8352112E+01
 8.5042505E+00  3.8112759E+01
 8.5157509E+00  3.7951992E+01
 8.5272503E+00  3.7700577E+01
 8.5387506E+00  3.7502930E+01
 8.5502501E+00  3.7287273E+01
 8.5617504E+00  3.7116566E+01
 8.5732508E+00  3.7040916E+01
 8.5847502E+00  3.6905258E+01
 8.5962505E+00  3.6750866E+01
 8.6077509E+00  3.6540611E+01
 8.6192503E+00  3.6439953E+01
 8.6307507E+00  3.6258251E+01
 8.6422501E+00  3.6105595E+01
 8.6537504E+00  3.5818695E+01
 8.6652508E+00  3.5578739E+01
 8.6767502E+00  3.5354488E+01
 8.6882505E+00  3.5182312E+01
 8.6997509E+00  3.5086353E+01
 8.7112503E+00  3.4894657E+01
 8.7227507E+00  3.4738426E+01
 8.7342501E+00  3.4473293E+01
 8.7457504E+00  3.4316727E+01
 8.7572508E+00  3.4091076E+01
 8.7687502E+00  3.3974182E+01
 8.7802505E+00  3.3799675E+01
 8.7917500E+00  3.3603001E+01
 8.8032503E+00  3.3435909E+01
 8.8147507E+00  3.3245625E+01
 8.8262501E+00  3.3101131E+01
 8.8377504E+00  3.2932491E+01
 8.8492508E+00  3.2742344E+01
 8.8607502E+00  3.2610771E+01
 8.8722506E+00  3.2442249E+01
 8.8837500E+00  3.2326839E+01
 8.8952503E+00  3.2189697E+01
 8.9067507E+00  3.2099419E+01
 8.9182501E+00  3.1933584E+01
 8.9297504E+00  3.1717411E+01
 8.9412508E+00  3.1492445E+01
 8.9527502E+00  3.1312057E+01
 8.9642506E+00  3.1173359E+01
 8.9757500E+00  3.0992748E+01
 8.9872503E+00  3.0814129E+01
 8.9987507E+00  3.0567848E+01
 9.0102501E+00  3.0362579E+01
 9.0217505E+00  3.0237509E+01
 9.0332508E+00  3.0187620E+01
 9.0447502E+00  3.0138391E+01
 9.0562506E+00  3.0096411E+01
 9.0677500E+00  3.0062469E+01
 9.0792503E+00  2.9978073E+01
 9.0907507E+00  2.9826551E+01
 9.1022501E+00  2.9633881E+01
 9.1137505E+00  2.9477224E+01
 9.1252508E+00  2.9343800E+01
 9.1367502E+00  2.9232513E+01
 9.1482506E+00  2.9157787E+01
 9.1597500E+00  2.9061321E+01
 9.1712503E+00  2.8967485E+01
 9.1827507E+00  2.8879522E+01
 9.1942501E+00  2.8825609E+01
 9.2057505E+00  2.8716696E+01
 9.2172508E+00  2.8675640E+01
 9.2287502E+00  2.8510893E+01
 9.2402506E+00  2.8326626E+01
 9.2517500E+00  2.8141663E+01
 9.2632504E+00  2.8037273E+01
 9.2747507E+00  2.7969770E+01
 9.2862501E+00  2.7874224E+01
 9.2977505E+00  2.7700600E+01
 9.3092508E+00  2.7581373E+01
 9.3207502E+00  2.7379866E+01
 9.3322506E+00  2.7254927E+01
 9.3437500E+00  2.7159674E+01
 9.3552504E+00  2.7144302E+01
 9.3667507E+00  2.7112661E+01
 9.3782501E+00  2.7093805E+01
 9.3897505E+00  2.7035177E+01
 9.4012508E+00  2.6985634E+01
 9.4127502E+00  2.6889994E+01
 9.4242506E+00  2.6737694E+01
 9.4357500E+00  2.6622658E+01
 9.4472504E+00  2.6507130E+01
 9.4587507E+00  2.6481346E+01
 9.4702501E+00  2.6495440E+01
 9.4817505E+00  2.6484928E+01
 9.4932508E+00  2.6464769E+01
 9.5047503E+00  2.6384094E+01
 9.5162506E+00  2.6289284E+01
 9.5277500E+00  2.6219074E+01
 9.5392504E+00  2.6120701E+01
 9.5507507E+00  2.6032122E+01
 9.5622501E+00  2.5933504E+01
 9.5737505E+00  2.5845705E+01
 9.5852509E+00  2.5840343E+01
 9.5967503E+00  2.5923889E+01
 9.6082506E+00  2.5888926E+01
 9.6197500E+00  2.5889179E+01
 9.6312504E+00  2.5753326E+01
 9.6427507E+00  2.5672976E+01
 9.6542501E+00  2.5598349E+01
 9.6657505E+00  2.5494711E+01
 9.6772509E+00  2.5445660E+01
 9.6887503E+00  2.5349239E+01
 9.7002506E+00  2.5337309E+01
 9.7117500E+00  2.5345242E+01
 9.7232504E+00  2.5305813E+01
 9.7347507E+00  2.5291435E+01
 9.7462502E+00  2.5191729E+01
 9.7577505E+00  2.5125420E+01
 9.7692509E+00  2.5026756E+01
 9.7807503E+00  2.5014261E+01
 9.7922506E+00  2.4941652E+01
 9.8037500E+00  2.4890902E+01
 9.8152504E+00  2.4852892E+01
 9.8267508E+00  2.4881878E+01
 9.8382502E+00  2.4850851E+01
 9.8497505E+00  2.4816343E+01
 9.8612509E+00  2.4766546E+01
 9.8727503E+00  2.4721737E+01
 9.8842506E+00  2.4618752E+01
 9.8957500E+00  2.4595875E+01
 9.9072504E+00  2.4577274E+01
 9.9187508E+00  2.4602684E+01
 9.9302502E+00  2.4557320E+01
 9.9417505E+00  2.4498606E+01
 9.9532509E+00  2.4449638E+01
 9.9647503E+00  2.4369595E+01
 9.9762506E+00  2.4371843E+01
 9.9877501E+00  2.4283211E+01
 9.9992504E+00  2.4281996E+01
 1.0010751E+01  2.4170198E+01
 1.0022250E+01  2.4180147E+01
 1.0033751E+01  2.4157198E+01
 1.0045251E+01  2.4175558E+01
 1.0056750E+01  2.4170822E+01
 1.0068251E+01  2.4160280E+01
 1.0079750E+01  2.4118118E+01
 1.0091250E+01  2.4052414E+01
 1.0102751E+01  2.3975130E+01
 1.0114250E+01  2.3859514E+01
 1.0125751E+01  2.3810938E+01
 1.0137251E+01  2.3735502E+01
 1.0148750E+01  2.3768797E+01
 1.0160251E+01  2.3846514E+01
 1.0171750E+01  2.3841507E+01
 1.0183250E+01  2.3866623E+01
 1.0194751E+01  2.3760616E+01
 1.0206250E+01  2.3805822E+01
 1.0217751E+01  2.3787033E+01
 1.0229251E+01  2.3783215E+01
 1.0240750E+01  2.3703991E+01
 1.0252251E+01  2.3685112E+01
 1.0263750E+01  2.3623074E+01
 1.0275250E+01  2.3638933E+01
 1.0286751E+01  2.3617172E+01
 1.0298250E+01  2.3641525E+01
 1.0309751E+01  2.3602526E+01
 1.0321251E+01  2.3533686E+01
 1.0332750E+01  2.3487656E+01
 1.0344251E+01  2.3468250E+01
 1.0355750E+01  2.3458166E+01
 1.0367250E+01  2.3419018E+01
 1.0378751E+01  2.3338848E+01
 1.0390250E+01  2.3391273E+01
 1.0401751E+01  2.3396578E+01
 1.0413251E+01  2.3418913E+01
 1.0424750E+01  2.3355070E+01
 1.0436251E+01  2.3341400E+01
 1.0447750E+01  2.3299295E+01
 1.0459250E+01  2.3297108E+01
 1.0470751E+01  2.3260897E+01
 1.0482250E+01  2.3258070E+01
 1.0493751E+01  2.3215729E+01
 1.0505251E+01  2.3175585E+01
 1.0516750E+01  2.3191845E+01
 1.0528251E+01  2.3124620E+01
 1.0539750E+01  2.3064758E+01
 1.0551250E+01  2.2957302E+01
 1.0562751E+01  2.2967535E+01
 1.0574250E+01  2.2944332E+01
 1.0585751E+01  2.2912895E+01
 1.0597251E+01  2.2862583E+01
 1.0608750E+01  2.2832497E+01
 1.0620251E+01  2.2852528E+01
 1.0631750E+01  2.2830578E+01
 1.0643250E+01  2.2836397E+01
 1.0654751E+01  2.2855282E+01
 1.0666250E+01  2.2885620E+01
 1.0677751E+01  2.2900751E+01
 1.0689251E+01  2.2868778E+01
 1.0700750E+01  2.2818468E+01
 1.0712251E+01  2.2751387E+01
 1.0723750E+01  2.2727961E+01
 1.0735250E+01  2.2693979E+01
 1.0746751E+01  2.2725060E+01
 1.0758250E+01  2.2747419E+01
 1.0769751E+01  2.2794748E+01
 1.0781251E+01  2.2853413E+01
 1.0792750E+01  2.2862810E+01
 1.0804251E+01  2.2876762E+01
 1.0815750E+01  2.2848198E+01
 1.0827250E+01  2.2844833E+01
 1.0838751E+01  2.2821175E+01
 1.0850250E+01  2.2764179E+01
 1.0861751E+01  2.2669619E+01
 1.0873251E+01  2.2602457E+01
 1.0884750E+01  2.2519627E+01
 1.0896251E+01  2.2492277E+01
 1.0907750E+01  2.2496885E+01
 1.0919250E+01  2.2531609E+01
 1.0930751E+01  2.2610256E+01
 1.0942250E+01  2.2629528E+01
 1.0953751E+01  2.2669264E+01
 1.0965251E+01  2.2655415E+01
 1.0976750E+01  2.2656773E+01
 1.0988251E+01  2.2639009E+01
 1.0999750E+01  2.2598469E+01
 1.1011250E+01  2.2545450E+01
 1.1022751E+01  2.2543875E+01
 1.1034250E+01  2.2530849E+01
 1.1045751E+01  2.2512527E+01
 1.1057251E+01  2.2454779E+01
 1.1068750E+01  2.2402998E+01
 1.1080251E+01  2.2403086E+01
 1.1091750E+01  2.2414490E+01
 1.1103251E+01  2.2432938E+01
 1.1114751E+01  2.2461681E+01
 1.1126250E+01  2.2444845E+01
 1.1137751E+01  2.2465466E+01
 1.1149251E+01  2.2436766E+01
 1.1160750E+01  2.2428127E+01
 1.1172251E+01  2.2405184E+01
 1.1183750E+01  2.2389830E+01
 1.1195251E+01  2.2396910E+01
 1.1206751E+01  2.2364164E+01
 1.1218250E+01  2.2337420E+01
 1.1229751E+01  2.2249046E+01
 1.1241251E+01  2.2236147E+01
 1.1252750E+01  2.2255270E+01
 1.1264251E+01  2.2274151E+01
 1.1275750E+01  2.2280312E+01
 1.1287251E+01  2.2264116E+01
 1.1298751E+01  2.2296076E+01
 1.1310250E+01  2.2399538E+01
 1.1321751E+01  2.2451921E+01
 1.1333251E+01  2.2514902E+01
 1.1344750E+01  2.2498192E+01
 1.1356251E+01  2.2463396E+01
 1.1367750E+01  2.2441620E+01
 1.1379251E+01  2.2418673E+01
 1.1390751E+01  2.2419666E+01
 1.1402250E+01  2.2533451E+01
 1.1413751E+01  2.2554741E+01
 1.1425251E+01  2.2602091E+01
 1.1436750E+01  2.2544655E+01
 1.1448251E+01  2.2553499E+01
 1.1459750E+01  2.2533268E+01
 1.1471251E+01  2.2503502E+01
 1.1482751E+01  2.2465752E+01
 1.1494250E+01  2.2473316E+01
 1.1505751E+01  2.2434324E+01
 1.1517251E+01  2.2484301E+01
 1.1528750E+01  2.2550327E+01
 1.1540251E+01  2.2630030E+01
 1.1551750E+01  2.2788992E+01
 1.1563251E+01  2.2967024E+01
 1.1574751E+01  2.3161911E+01
 1.1586250E+01  2.3293661E+01
 1.1597751E+01  2.3356041E+01
 1.1609251E+01  2.3314182E+01
 1.1620750E+01  2.3194855E+01
 1.1632251E+01  2.3022825E+01
 1.1643750E+01  2.2845402E+01
 1.1655251E+01  2.2700405E+01
 1.1666751E+01  2.2540571E+01
 1.1678250E+01  2.2504139E+01
 1.1689751E+01  2.2368464E+01
 1.1701251E+01  2.2326893E+01
 1.1712750E+01  2.2264286E+01
 1.1724251E+01  2.2252562E+01
 1.1735750E+01  2.2298746E+01
 1.1747251E+01  2.2303986E+01
 1.1758751E+01  2.2349327E+01
 1.1770250E+01  2.2258228E+01
 1.1781751E+01  2.2249737E+01
 1.1793251E+01  2.2211317E+01
 1.1804750E+01  2.2275043E+01
 1.1816251E+01  2.2307655E+01
 1.1827750E+01  2.2300030E+01
 1.1839251E+01  2.2259605E+01
 1.1850751E+01  2.2171198E+01
 1.1862250E+01  2.2183466E+01
 1.1873751E+01  2.2230827E+01
 1.1885251E+01  2.2313520E+01
 1.1896750E+01  2.2351534E+01
 1.1908251E+01  2.2373734E+01
 1.1919750E+01  2.2440647E+01
 1.1931251E+01  2.2568361E+01
 1.1942751E+01  2.2708187E+01
 1.1954250E+01  2.2903017E+01
 1.1965751E+01  2.3007301E+01
 1.1977251E+01  2.3146877E+01
 1.1988750E+01  2.3157679E+01
 1.2000251E+01  2.3102932E+01
 1.2011750E+01  2.2998873E+01
 1.2023251E+01  2.2905622E+01
 1.2034751E+01  2.2891550E+01
 1.2046250E+01  2.2838715E+01
 1.2057751E+01  2.2843153E+01
 1.2069251E+01  2.2864481E+01
 1.2080750E+01  2.2979261E+01
 1.2092251E+01  2.2976624E+01
 1.2103750E+01  2.3017130E+01
 1.2115251E+01  2.2907928E+01
 1.2126751E+01  2.2914330E+01
 1.2138250E+01  2.2821842E+01
 1.2149751E+01  2.2726782E+01
 1.2161251E+01  2.2581566E+01
 1.2172750E+01  2.2469954E+01
 1.2184251E+01  2.2385386E+01
 1.2195750E+01  2.2360027E+01
 1.2207251E+01  2.2329283E+01
 1.2218751E+01  2.2356272E+01
 1.2230250E+01  2.2338079E+01
 1.2241751E+01  2.2329687E+01
 1.2253251E+01  2.2312447E+01
 1.2264750E+01  2.2323240E+01
 1.2276251E+01  2.2326824E+01
 1.2287750E+01  2.2360586E+01
 1.2299251E+01  2.2376202E+01
 1.2310751E+01  2.2437685E+01
 1.2322250E+01  2.2436594E+01
 1.2333751E+01  2.2474136E+01
 1.2345250E+01  2.2451511E+01
 1.2356750E+01  2.2464985E+01
 1.2368251E+01  2.2366880E+01
 1.2379750E+01  2.2325117E+01
 1.2391251E+01  2.2276848E+01
 1.2402751E+01  2.2332838E+01
 1.2414250E+01  2.2330336E+01
 1.2425751E+01  2.2386080E+01
 1.2437250E+01  2.2465073E+01
 1.2448750E+01  2.2475830E+01
 1.2460251E+01  2.2445494E+01
 1.2471750E+01  2.2353914E+01
 1.2483251E+01  2.2393320E+01
 1.2494751E+01  2.2407747E+01
 1.2506250E+01  2.2463964E+01
 1.2517751E+01  2.2490934E+01
 1.2529250E+01  2.2545521E+01
 1.2540751E+01  2.2600691E+01
 1.2552251E+01  2.2642900E+01
 1.2563750E+01  2.2646528E+01
 1.2575251E+01  2.2661694E+01
 1.2586751E+01  2.2643488E+01
 1.2598250E+01  2.2650311E+01
 1.2609751E+01  2.2630487E+01
 1.2621250E+01  2.2641308E+01
 1.2632751E+01  2.2648714E+01
 1.2644251E+01  2.2594063E+01
 1.2655750E+01  2.2601543E+01
 1.2667251E+01  2.2619455E+01
 1.2678751E+01  2.2670025E+01
 1.2690250E+01  2.2665663E+01
 1.2701751E+01  2.2687138E+01
 1.2713250E+01  2.2747475E+01
 1.2724751E+01  2.2814100E+01
 1.2736251E+01  2.2836281E+01
 1.2747750E+01  2.2866220E+01
 1.2759251E+01  2.2904852E+01
 1.2770751E+01  2.3005934E+01
 1.2782250E+01  2.3064243E+01
 1.2793751E+01  2.3117472E+01
 1.2805250E+01  2.3136990E+01
 1.2816751E+01  2.3182287E+01
 1.2828251E+01  2.3231144E+01
 1.2839750E+01  2.3301682E+01
 1.2851251E+01  2.3389551E+01
 1.2862751E+01  2.3386225E+01
 1.2874250E+01  2.3425280E+01
 1.2885751E+01  2.3391134E+01
 1.2897250E+01  2.3401031E+01
 1.2908751E+01  2.3436714E+01
 1.2920251E+01  2.3469233E+01
 1.2931750E+01  2.3560635E+01
 1.2943251E+01  2.3546688E+01
 1.2954751E+01  2.3572590E+01
 1.2966250E+01  2.3612417E+01
 1.2977751E+01  2.3668882E+01
 1.2989250E+01  2.3754255E+01
 1.3000751E+01  2.3792250E+01
 1.3012251E+01  2.3865631E+01
 1.3023750E+01  2.3937244E+01
 1.3035251E+01  2.4012442E+01
 1.3046751E+01  2.4015848E+01
 1.3058250E+01  2.4088072E+01
 1.3069751E+01  2.4158579E+01
 1.3081250E+01  2.4348351E+01
 1.3092751E+01  2.4466703E+01
 1.3104251E+01  2.4624344E+01
 1.3115750E+01  2.4769680E+01
 1.3127251E+01  2.4864864E+01
 1.3138751E+01  2.4980394E+01
 1.3150250E+01  2.5071806E+01
 1.3161751E+01  2.5204205E+01
 1.3173250E+01  2.5313152E+01
 1.3184751E+01  2.5384008E+01
 1.3196251E+01  2.5484854E+01
 1.3207750E+01  2.5623941E+01
 1.3219251E+01  2.5791128E+01
 1.3230751E+01  2.5999779E+01
 1.3242250E+01  2.6183277E+01
 1.3253751E+01  2.6322289E+01
 1.3265250E+01  2.6442945E+01
 1.3276751E+01  2.6575865E+01
 1.3288251E+01  2.6756287E+01
 1.3299750E+01  2.6924339E+01
 1.3311251E+01  2.7026447E+01
 1.3322751E+01  2.7155033E+01
 1.3334250E+01  2.7286493E+01
 1.3345751E+01  2.7463556E+01
 1.3357250E+01  2.7639812E+01
 1.3368751E+01  2.7770454E+01
 1.3380251E+01  2.7921490E+01
 1.3391750E+01  2.8005070E+01
 1.3403251E+01  2.8157686E+01
 1.3414751E+01  2.8243731E+01
 1.3426250E+01  2.8359409E+01
 1.3437751E+01  2.8481153E+01
 1.3449250E+01  2.8620642E+01
 1.3460751E+01  2.8770990E+01
 1.3472251E+01  2.8873507E+01
 1.3483750E+01  2.8962944E+01
 1.3495251E+01  2.9076126E+01
 1.3506751E+01  2.9093710E+01
 1.3518250E+01  2.9131262E+01
 1.3529751E+01  2.9118399E+01
 1.3541250E+01  2.9211140E+01
 1.3552751E+01  2.9284306E+01
 1.3564251E+01  2.9332636E+01
 1.3575750E+01  2.9393457E+01
 1.3587251E+01  2.9402246E+01
 1.3598751E+01  2.9477858E+01
 1.3610250E+01  2.9483406E+01
 1.3621751E+01  2.9481308E+01
 1.3633250E+01  2.9462894E+01
 1.3644751E+01  2.9434488E+01
 1.3656251E+01  2.9453468E+01
 1.3667750E+01  2.9496273E+01
 1.3679251E+01  2.9498592E+01
 1.3690751E+01  2.9508709E+01
 1.3702250E+01  2.9424389E+01
 1.3713751E+01  2.9429398E+01
 1.3725250E+01  2.9367840E+01
 1.3736751E+01  2.9357346E+01
 1.3748251E+01  2.9251928E+01
 1.3759750E+01  2.9157328E+01
 1.3771251E+01  2.9120993E+01
 1.3782751E+01  2.9063953E+01
 1.3794250E+01  2.9051851E+01
 1.3805751E+01  2.8978697E+01
 1.3817250E+01  2.8993303E+01
 1.3828751E+01  2.8951721E+01
 1.3840251E+01  2.8916552E+01
 1.3851750E+01  2.8921824E+01
 1.3863251E+01  2.8952328E+01
 1.3874751E+01  2.9000441E+01
 1.3886250E+01  2.9082201E+01
 1.3897751E+01  2.9308733E+01
 1.3909250E+01  2.9664845E+01
 1.3920751E+01  3.0194965E+01
 1.3932251E+01  3.0645155E+01
 1.3943750E+01  3.0996563E+01
 1.3955251E+01  3.1210859E+01
 1.3966751E+01  3.1063557E+01
 1.3978251E+01  3.0862244E+01
 1.3989751E+01  3.0242680E+01
 1.4001250E+01  2.9807112E+01
 1.4012751E+01  2.9036842E+01
 1.4024251E+01  2.8524715E+01
 1.4035750E+01  2.8066790E+01
 1.4047251E+01  2.7800447E+01
 1.4058751E+01  2.7577589E+01
 1.4070251E+01  2.7443995E+01
 1.4081751E+01  2.7298792E+01
 1.4093250E+01  2.7172802E+01
 1.4104751E+01  2.7073862E+01
 1.4116251E+01  2.7016712E+01
 1.4127750E+01  2.6997355E+01
 1.4139251E+01  2.6983511E+01
 1.4150751E+01  2.6922171E+01
 1.4162251E+01  2.6870358E+01
 1.4173751E+01  2.6836462E+01
 1.4185250E+01  2.6834742E+01
 1.4196751E+01  2.6799187E+01
 1.4208251E+01  2.6692619E+01
 1.4219750E+01  2.6626305E+01
 1.4231251E+01  2.6490211E+01
 1.4242751E+01  2.6419271E+01
 1.4254251E+01  2.6363840E+01
 1.4265751E+01  2.6339272E+01
 1.4277250E+01  2.6263527E+01
 1.4288751E+01  2.6156116E+01
 1.4300251E+01  2.6066011E+01
 1.4311750E+01  2.6035248E+01
 1.4323251E+01  2.5952583E+01
 1.4334751E+01  2.5959833E+01
 1.4346251E+01  2.5874184E+01
 1.4357751E+01  2.5918112E+01
 1.4369250E+01  2.5922642E+01
 1.4380751E+01  2.5930935E+01
 1.4392251E+01  2.5866024E+01
 1.4403750E+01  2.5779182E+01
 1.4415251E+01  2.5791479E+01
 1.4426751E+01  2.5769762E+01
 1.4438251E+01  2.5815039E+01
 1.4449751E+01  2.5775976E+01
 1.4461250E+01  2.5730909E+01
 1.4472751E+01  2.5670103E+01
 1.4484251E+01  2.5623686E+01
 1.4495750E+01  2.5585032E+01
 1.4507251E+01  2.5566086E+01
 1.4518751E+01  2.5578003E+01
 1.4530251E+01  2.5604788E+01
 1.4541751E+01  2.5578739E+01
 1.4553250E+01  2.5569096E+01
 1.4564751E+01  2.5505829E+01
 1.4576251E+01  2.5436783E+01
 1.4587750E+01  2.5334162E+01
 1.4599251E+01  2.5280294E+01
 1.4610751E+01  2.5295214E+01
 1.4622251E+01  2.5294683E+01
 1.4633751E+01  2.5322355E+01
 1.4645250E+01  2.5286112E+01
 1.4656751E+01  2.5251093E+01
 1.4668251E+01  2.5180611E+01
 1.4679750E+01  2.5153189E+01
 1.4691251E+01  2.5142244E+01
 1.4702751E+01  2.5141468E+01
 1.4714251E+01  2.5090134E+01
 1.4725751E+01  2.5055809E+01
 1.4737250E+01  2.5002356E+01
 1.4748751E+01  2.4991766E+01
 1.4760251E+01  2.4972849E+01
 1.4771750E+01  2.4980696E+01
 1.4783251E+01  2.4953266E+01
 1.4794751E+01  2.4964169E+01
 1.4806251E+01  2.4881557E+01
 1.4817751E+01  2.4834787E+01
 1.4829250E+01  2.4752251E+01
 1.4840751E+01  2.4746386E+01
 1.4852251E+01  2.4725746E+01
 1.4863750E+01  2.4748465E+01
 1.4875251E+01  2.4741713E+01
 1.4886751E+01  2.4703074E+01
 1.4898251E+01  2.4671967E+01
 1.4909751E+01  2.4673862E+01
 1.4921250E+01  2.4659729E+01
 1.4932751E+01  2.4667522E+01
 1.4944251E+01  2.4675850E+01
 1.4955750E+01  2.4718283E+01
 1.4967251E+01  2.4723721E+01
 1.4978751E+01  2.4726080E+01
 1.4990251E+01  2.4723368E+01
 1.5001751E+01  2.4725935E+01
 1.5013250E+01  2.4742331E+01
 1.5024751E+01  2.4789860E+01
 1.5036251E+01  2.4782902E+01
 1.5047750E+01  2.4757818E+01
 1.5059251E+01  2.4722805E+01
 1.5070751E+01  2.4742903E+01
 1.5082251E+01  2.4699379E+01
 1.5093751E+01  2.4692059E+01
 1.5105250E+01  2.4640020E+01
 1.5116751E+01  2.4640381E+01
 1.5128251E+01  2.4615952E+01
 1.5139750E+01  2.4686031E+01
 1.5151251E+01  2.4804932E+01
 1.5162751E+01  2.4889538E+01
 1.5174251E+01  2.4987587E+01
 1.5185751E+01  2.5030270E+01
 1.5197250E+01  2.5028437E+01
 1.5208751E+01  2.4981886E+01
 1.5220251E+01  2.4929312E+01
 1.5231750E+01  2.4843449E+01
 1.5243251E+01  2.4675493E+01
 1.5254751E+01  2.4594448E+01
 1.5266251E+01  2.4519918E+01
 1.5277751E+01  2.4516298E+01
 1.5289250E+01  2.4462564E+01
 1.5300751E+01  2.4402807E+01
 1.5312251E+01  2.4366528E+01
 1.5323750E+01  2.4319162E+01
 1.5335251E+01  2.4347504E+01
 1.5346751E+01  2.4301958E+01
 1.5358251E+01  2.4333321E+01
 1.5369751E+01  2.4293575E+01
 1.5381250E+01  2.4338192E+01
 1.5392751E+01  2.4278353E+01
 1.5404251E+01  2.4338814E+01
 1.5415751E+01  2.4291994E+01
 1.5427251E+01  2.4323952E+01
 1.5438751E+01  2.4283398E+01
 1.5450251E+01  2.4275423E+01
 1.5461751E+01  2.4254234E+01
 1.5473250E+01  2.4299311E+01
 1.5484751E+01  2.4325987E+01
 1.5496251E+01  2.4354626E+01
 1.5507751E+01  2.4335880E+01
 1.5519251E+01  2.4353649E+01
 1.5530751E+01  2.4331280E+01
 1.5542251E+01  2.4291180E+01
 1.5553751E+01  2.4275490E+01
 1.5565250E+01  2.4325785E+01
 1.5576751E+01  2.4360037E+01
 1.5588251E+01  2.4368969E+01
 1.5599751E+01  2.4303288E+01
 1.5611251E+01  2.4310488E+01
 1.5622751E+01  2.4302969E+01
 1.5634251E+01  2.4329634E+01
 1.5645751E+01  2.4327625E+01
 1.5657250E+01  2.4322704E+01
 1.5668751E+01  2.4307289E+01
 1.5680251E+01  2.4282290E+01
 1.5691751E+01  2.4308201E+01
 1.5703251E+01  2.4343723E+01
 1.5714751E+01  2.4344433E+01
 1.5726251E+01  2.4376488E+01
 1.5737751E+01  2.4345455E+01
 1.5749250E+01  2.4320429E+01
 1.5760751E+01  2.4308189E+01
 1.5772251E+01  2.4350187E+01
 1.5783751E+01  2.4381531E+01
 1.5795251E+01  2.4367529E+01
 1.5806751E+01  2.4403782E+01
 1.5818251E+01  2.4425238E+01
 1.5829751E+01  2.4429550E+01
 1.5841250E+01  2.4417740E+01
 1.5852751E+01  2.4420219E+01
 1.5864251E+01  2.4370186E+01
 1.5875751E+01  2.4361271E+01
 1.5887251E+01  2.4380138E+01
 1.5898750E+01  2.4381231E+01
 1.5910251E+01  2.4386572E+01
 1.5921751E+01  2.4323505E+01
 1.5933250E+01  2.4379654E+01
 1.5944751E+01  2.4314869E+01
 1.5956251E+01  2.4347105E+01
 1.5967751E+01  2.4354639E+01
 1.5979251E+01  2.4434217E+01
 1.5990750E+01  2.4522602E+01
 1.6002251E+01  2.4536295E+01
 1.6013750E+01  2.4571964E+01
 1.6025251E+01  2.4559427E+01
 1.6036751E+01  2.4610708E+01
 1.6048250E+01  2.4590616E+01
 1.6059752E+01  2.4611687E+01
 1.6071251E+01  2.4577589E+01
 1.6082750E+01  2.4575598E+01
 1.6094252E+01  2.4578947E+01
 1.6105751E+01  2.4632725E+01
 1.6117250E+01  2.4685194E+01
 1.6128750E+01  2.4648020E+01
 1.6140251E+01  2.4680630E+01
 1.6151751E+01  2.4656145E+01
 1.6163250E+01  2.4776331E+01
 1.6174751E+01  2.4742409E+01
 1.6186251E+01  2.4920721E+01
 1.6197750E+01  2.4854216E+01
 1.6209251E+01  2.5137375E+01
 1.6220751E+01  2.5078636E+01
 1.6232250E+01  2.5411142E+01
 1.6243752E+01  2.5487865E+01
 1.6255251E+01  2.5686174E+01
 1.6266750E+01  2.5794750E+01
 1.6278252E+01  2.5568634E+01
 1.6289751E+01  2.5601664E+01
 1.6301250E+01  2.5046940E+01
 1.6312750E+01  2.5052496E+01
 1.6324251E+01  2.4630341E+01
 1.6335751E+01  2.4676529E+01
 1.6347250E+01  2.4509827E+01
 1.6358751E+01  2.4554935E+01
 1.6370251E+01  2.4507090E+01
 1.6381750E+01  2.4507935E+01
 1.6393251E+01  2.4505074E+01
 1.6404751E+01  2.4448399E+01
 1.6416250E+01  2.4457294E+01
 1.6427752E+01  2.4462107E+01
 1.6439251E+01  2.4551161E+01
 1.6450750E+01  2.4537584E+01
 1.6462252E+01  2.4547369E+01
 1.6473751E+01  2.4531015E+01
 1.6485250E+01  2.4572382E+01
 1.6496750E+01  2.4549810E+01
 1.6508251E+01  2.4519411E+01
 1.6519751E+01  2.4479362E+01
 1.6531250E+01  2.4410280E+01
 1.6542751E+01  2.4433617E+01
 1.6554251E+01  2.4418755E+01
 1.6565750E+01  2.4496037E+01
 1.6577251E+01  2.4499767E+01
 1.6588751E+01  2.4560406E+01
 1.6600250E+01  2.4542418E+01
 1.6611752E+01  2.4538433E+01
 1.6623251E+01  2.4463194E+01
 1.6634750E+01  2.4450804E+01
 1.6646252E+01  2.4415674E+01
 1.6657751E+01  2.4427668E+01
 1.6669250E+01  2.4457170E+01
 1.6680750E+01  2.4430643E+01
 1.6692251E+01  2.4438080E+01
 1.6703751E+01  2.4364582E+01
 1.6715250E+01  2.4413689E+01
 1.6726751E+01  2.4361992E+01
 1.6738251E+01  2.4385941E+01
 1.6749750E+01  2.4341402E+01
 1.6761251E+01  2.4355602E+01
 1.6772751E+01  2.4361332E+01
 1.6784250E+01  2.4358690E+01
 1.6795752E+01  2.4377253E+01
 1.6807251E+01  2.4405027E+01
 1.6818750E+01  2.4373209E+01
 1.6830252E+01  2.4330254E+01
 1.6841751E+01  2.4231823E+01
 1.6853251E+01  2.4187963E+01
 1.6864750E+01  2.4136356E+01
 1.6876251E+01  2.4100117E+01
 1.6887751E+01  2.4089846E+01
 1.6899250E+01  2.4080896E+01
 1.6910751E+01  2.4110924E+01
 1.6922251E+01  2.4191917E+01
 1.6933750E+01  2.4204893E+01
 1.6945251E+01  2.4267538E+01
 1.6956751E+01  2.4254456E+01
 1.6968250E+01  2.4253948E+01
 1.6979752E+01  2.4197264E+01
 1.6991251E+01  2.4116077E+01
 1.7002750E+01  2.4080450E+01
 1.7014252E+01  2.4041687E+01
 1.7025751E+01  2.4058596E+01
 1.7037251E+01  2.4049334E+01
 1.7048750E+01  2.4031401E+01
 1.7060251E+01  2.4017998E+01
 1.7071751E+01  2.4038074E+01
 1.7083250E+01  2.4068556E+01
 1.7094751E+01  2.4033129E+01
 1.7106251E+01  2.3995680E+01
 1.7117750E+01  2.3958126E+01
 1.7129251E+01  2.4026026E+01
 1.7140751E+01  2.4044830E+01
 1.7152250E+01  2.4074854E+01
 1.7163752E+01  2.4051804E+01
 1.7175251E+01  2.4048527E+01
 1.7186750E+01  2.4079645E+01
 1.7198252E+01  2.4102575E+01
 1.7209751E+01  2.4136923E+01
 1.7221251E+01  2.4109182E+01
 1.7232750E+01  2.4060980E+01
 1.7244251E+01  2.4004524E+01
 1.7255751E+01  2.3945919E+01
 1.7267250E+01  2.3919752E+01
 1.7278751E+01  2.3925238E+01
 1.7290251E+01  2.3920162E+01
 1.7301750E+01  2.3944221E+01
 1.7313251E+01  2.3933901E+01
 1.7324751E+01  2.3937275E+01
 1.7336250E+01  2.3884472E+01
 1.7347752E+01  2.3856573E+01
 1.7359251E+01  2.3830643E+01
 1.7370750E+01  2.3831411E+01
 1.7382252E+01  2.3861164E+01
 1.7393751E+01  2.3885651E+01
 1.7405251E+01  2.3893988E+01
 1.7416750E+01  2.3868332E+01
 1.7428251E+01  2.3820137E+01
 1.7439751E+01  2.3813522E+01
 1.7451250E+01  2.3829647E+01
 1.7462751E+01  2.3895258E+01
 1.7474251E+01  2.3886179E+01
 1.7485750E+01  2.3845236E+01
 1.7497252E+01  2.3820473E+01
 1.7508751E+01  2.3815151E+01
 1.7520250E+01  2.3810659E+01
 1.7531752E+01  2.3786224E+01
 1.7543251E+01  2.3799904E+01
 1.7554750E+01  2.3777092E+01
 1.7566252E+01  2.3767742E+01
 1.7577751E+01  2.3737568E+01
 1.7589251E+01  2.3688652E+01
 1.7600750E+01  2.3675070E+01
 1.7612251E+01  2.3650408E+01
 1.7623751E+01  2.3680258E+01
 1.7635250E+01  2.3638968E+01
 1.7646751E+01  2.3605080E+01
 1.7658251E+01  2.3543324E+01
 1.7669750E+01  2.3542126E+01
 1.7681252E+01  2.3591917E+01
 1.7692751E+01  2.3624020E+01
 1.7704250E+01  2.3614048E+01
 1.7715752E+01  2.3595448E+01
 1.7727251E+01  2.3571854E+01
 1.7738750E+01  2.3505413E+01
 1.7750252E+01  2.3455276E+01
 1.7761751E+01  2.3441187E+01
 1.7773251E+01  2.3465689E+01
 1.7784750E+01  2.3450592E+01
 1.7796251E+01  2.3463556E+01
 1.7807751E+01  2.3479246E+01
 1.7819250E+01  2.3518158E+01
 1.7830751E+01  2.3514528E+01
 1.7842251E+01  2.3556749E+01
 1.7853750E+01  2.3580276E+01
 1.7865252E+01  2.3606981E+01
 1.7876751E+01  2.3596596E+01
 1.7888250E+01  2.3577156E+01
 1.7899752E+01  2.3590462E+01
 1.7911251E+01  2.3626894E+01
 1.7922750E+01  2.3633171E+01
 1.7934252E+01  2.3560894E+01
 1.7945751E+01  2.3497934E+01
 1.7957251E+01  2.3455372E+01
 1.7968750E+01  2.3439919E+01
 1.7980251E+01  2.3431841E+01
 1.7991751E+01  2.3445415E+01
 1.8003250E+01  2.3491795E+01
 1.8014751E+01  2.3519638E+01
 1.8026251E+01  2.3564884E+01
 1.8037750E+01  2.3603693E+01
 1.8049252E+01  2.3662081E+01
 1.8060751E+01  2.3692053E+01
 1.8072250E+01  2.3711418E+01
 1.8083752E+01  2.3786652E+01
 1.8095251E+01  2.3831272E+01
 1.8106750E+01  2.3818827E+01
 1.8118252E+01  2.3720425E+01
 1.8129751E+01  2.3649868E+01
 1.8141251E+01  2.3573631E+01
 1.8152750E+01  2.3538261E+01
 1.8164251E+01  2.3508516E+01
 1.8175751E+01  2.3473579E+01
 1.8187250E+01  2.3444468E+01
 1.8198751E+01  2.3430534E+01
 1.8210251E+01  2.3476145E+01
 1.8221750E+01  2.3482702E+01
 1.8233252E+01  2.3480810E+01
 1.8244751E+01  2.3439901E+01
 1.8256250E+01  2.3429970E+01
 1.8267752E+01  2.3423256E+01
 1.8279251E+01  2.3435648E+01
 1.8290751E+01  2.3448978E+01
 1.8302252E+01  2.3439762E+01
 1.8313751E+01  2.3437225E+01
 1.8325251E+01  2.3445377E+01
 1.8336750E+01  2.3434198E+01
 1.8348251E+01  2.3433668E+01
 1.8359751E+01  2.3444096E+01
 1.8371250E+01  2.3458788E+01
 1.8382751E+01  2.3480598E+01
 1.8394251E+01  2.3508564E+01
 1.8405750E+01  2.3539614E+01
 1.8417252E+01  2.3505159E+01
 1.8428751E+01  2.3453093E+01
 1.8440250E+01  2.3395435E+01
 1.8451752E+01  2.3347054E+01
 1.8463251E+01  2.3350786E+01
 1.8474751E+01  2.3362843E+01
 1.8486252E+01  2.3402817E+01
 1.8497751E+01  2.3454275E+01
 1.8509251E+01  2.3489201E+01
 1.8520750E+01  2.3440874E+01
 1.8532251E+01  2.3329935E+01
 1.8543751E+01  2.3247793E+01
 1.8555250E+01  2.3292906E+01
 1.8566751E+01  2.3353548E+01
 1.8578251E+01  2.3389940E+01
 1.8589750E+01  2.3402060E+01
 1.8601252E+01  2.3408014E+01
 1.8612751E+01  2.3358185E+01
 1.8624250E+01  2.3290316E+01
 1.8635752E+01  2.3254606E+01
 1.8647251E+01  2.3247952E+01
 1.8658751E+01  2.3235937E+01
 1.8670252E+01  2.3271925E+01
 1.8681751E+01  2.3315235E+01
 1.8693251E+01  2.3330959E+01
 1.8704750E+01  2.3332361E+01
 1.8716251E+01  2.3281061E+01
 1.8727751E+01  2.3302450E+01
 1.8739250E+01  2.3287088E+01
 1.8750751E+01  2.3328671E+01
 1.8762251E+01  2.3335171E+01
 1.8773750E+01  2.3355780E+01
 1.8785252E+01  2.3359055E+01
 1.8796751E+01  2.3369787E+01
 1.8808250E+01  2.3343262E+01
 1.8819752E+01  2.3335583E+01
 1.8831251E+01  2.3285408E+01
 1.8842751E+01  2.3262732E+01
 1.8854252E+01  2.3250370E+01
 1.8865751E+01  2.3212362E+01
 1.8877251E+01  2.3185883E+01
 1.8888750E+01  2.3185368E+01
 1.8900251E+01  2.3227283E+01
 1.8911751E+01  2.3281822E+01
 1.8923250E+01  2.3332111E+01
 1.8934752E+01  2.3396116E+01
 1.8946251E+01  2.3410700E+01
 1.8957750E+01  2.3377501E+01
 1.8969252E+01  2.3336895E+01
 1.8980751E+01  2.3289000E+01
 1.8992250E+01  2.3285126E+01
 1.9003752E+01  2.3218464E+01
 1.9015251E+01  2.3239305E+01
 1.9026751E+01  2.3230923E+01
 1.9038252E+01  2.3251738E+01
 1.9049751E+01  2.3256243E+01
 1.9061251E+01  2.3284256E+01
 1.9072750E+01  2.3281351E+01
 1.9084251E+01  2.3243778E+01
 1.9095751E+01  2.3235708E+01
 1.9107250E+01  2.3249632E+01
 1.9118752E+01  2.3239670E+01
 1.9130251E+01  2.3271620E+01
 1.9141750E+01  2.3286339E+01
 1.9153252E+01  2.3333342E+01
 1.9164751E+01  2.3306738E+01
 1.9176250E+01  2.3327230E+01
 1.9187752E+01  2.3336246E+01
 1.9199251E+01  2.3389036E+01
 1.9210751E+01  2.3395037E+01
 1.9222252E+01  2.3346899E+01
 1.9233751E+01  2.3279421E+01
 1.9245251E+01  2.3225044E+01
 1.9256750E+01  2.3195122E+01
 1.9268251E+01  2.3199415E+01
 1.9279751E+01  2.3203592E+01
 1.9291250E+01  2.3238907E+01
 1.9302752E+01  2.3249346E+01
 1.9314251E+01  2.3229296E+01
 1.9325750E+01  2.3219728E+01
 1.9337252E+01  2.3221251E+01
 1.9348751E+01  2.3207531E+01
 1.9360250E+01  2.3177843E+01
 1.9371752E+01  2.3170652E+01
 1.9383251E+01  2.3156330E+01
 1.9394751E+01  2.3199226E+01
 1.9406250E+01  2.3198065E+01
 1.9417751E+01  2.3229605E+01
 1.9429251E+01  2.3204456E+01
 1.9440750E+01  2.3260433E+01
 1.9452251E+01  2.3280983E+01
 1.9463751E+01  2.3342733E+01
 1.9475250E+01  2.3357649E+01
 1.9486752E+01  2.3372232E+01
 1.9498251E+01  2.3322060E+01
 1.9509750E+01  2.3277761E+01
 1.9521252E+01  2.3293634E+01
 1.9532751E+01  2.3308054E+01
 1.9544250E+01  2.3343145E+01
 1.9555752E+01  2.3326393E+01
 1.9567251E+01  2.3347853E+01
 1.9578751E+01  2.3350800E+01
 1.9590250E+01  2.3339333E+01
 1.9601751E+01  2.3368795E+01
 1.9613251E+01  2.3462570E+01
 1.9624750E+01  2.3522524E+01
 1.9636251E+01  2.3562977E+01
 1.9647751E+01  2.3590992E+01
 1.9659250E+01  2.3718750E+01
 1.9670752E+01  2.3868576E+01
 1.9682251E+01  2.3995756E+01
 1.9693750E+01  2.4133003E+01
 1.9705252E+01  2.4256203E+01
 1.9716751E+01  2.4346210E+01
 1.9728251E+01  2.4281256E+01
 1.9739752E+01  2.4186159E+01
 1.9751251E+01  2.4127256E+01
 1.9762751E+01  2.4031614E+01
 1.9774250E+01  2.3952766E+01
 1.9785751E+01  2.3896114E+01
 1.9797251E+01  2.3916216E+01
 1.9808750E+01  2.3949352E+01
 1.9820251E+01  2.4068493E+01
 1.9831751E+01  2.4193565E+01
 1.9843250E+01  2.4252447E+01
 1.9854752E+01  2.4257284E+01
 1.9866251E+01  2.4178381E+01
 1.9877750E+01  2.4117178E+01
 1.9889252E+01  2.4021358E+01
 1.9900751E+01  2.3956379E+01
 1.9912251E+01  2.3873741E+01
 1.9923752E+01  2.3803415E+01
 1.9935251E+01  2.3694735E+01
 1.9946751E+01  2.3617659E+01
 1.9958250E+01  2.3542030E+01
 1.9969751E+01  2.3564579E+01
 1.9981251E+01  2.3513287E+01
 1.9992750E+01  2.3495022E+01
 2.0004251E+01  2.3490414E+01
 2.0015751E+01  2.3467192E+01
 2.0027250E+01  2.3439312E+01
 2.0038752E+01  2.3420343E+01
 2.0050251E+01  2.3474890E+01
 2.0061750E+01  2.3490797E+01
 2.0073252E+01  2.3515005E+01
 2.0084751E+01  2.3515608E+01
 2.0096251E+01  2.3534752E+01
 2.0107752E+01  2.3562147E+01
 2.0119251E+01  2.3607452E+01
 2.0130751E+01  2.3610174E+01
 2.0142250E+01  2.3562881E+01
 2.0153751E+01  2.3507471E+01
 2.0165251E+01  2.3457546E+01
 2.0176750E+01  2.3457798E+01
 2.0188251E+01  2.3415026E+01
 2.0199751E+01  2.3381136E+01
 2.0211250E+01  2.3393761E+01
 2.0222752E+01  2.3449598E+01
 2.0234251E+01  2.3560457E+01
 2.0245750E+01  2.3602625E+01
 2.0257252E+01  2.3589272E+01
 2.0268751E+01  2.3522385E+01
 2.0280251E+01  2.3480446E+01
 2.0291752E+01  2.3410620E+01
 2.0303251E+01  2.3354635E+01
 2.0314751E+01  2.3359188E+01
 2.0326250E+01  2.3377649E+01
 2.0337751E+01  2.3367241E+01
 2.0349251E+01  2.3344494E+01
 2.0360750E+01  2.3351574E+01
 2.0372252E+01  2.3364914E+01
 2.0383751E+01  2.3356104E+01
 2.0395250E+01  2.3364977E+01
 2.0406752E+01  2.3390198E+01
 2.0418251E+01  2.3446245E+01
 2.0429750E+01  2.3490528E+01
 2.0441252E+01  2.3485331E+01
 2.0452751E+01  2.3483160E+01
 2.0464251E+01  2.3483257E+01
 2.0475752E+01  2.3515604E+01
 2.0487251E+01  2.3522785E+01
 2.0498751E+01  2.3484453E+01
 2.0510250E+01  2.3433281E+01
 2.0521751E+01  2.3438120E+01
 2.0533251E+01  2.3480936E+01
 2.0544750E+01  2.3542423E+01
 2.0556252E+01  2.3617422E+01
 2.0567751E+01  2.3634024E+01
 2.0579250E+01  2.3637314E+01
 2.0590752E+01  2.3612375E+01
 2.0602251E+01  2.3620224E+01
 2.0613750E+01  2.3605331E+01
 2.0625252E+01  2.3577011E+01
 2.0636751E+01  2.3620449E+01
 2.0648251E+01  2.3612328E+01
 2.0659752E+01  2.3677172E+01
 2.0671251E+01  2.3691479E+01
 2.0682751E+01  2.3795643E+01
 2.0694250E+01  2.3856474E+01
 2.0705751E+01  2.4011351E+01
 2.0717251E+01  2.4111408E+01
 2.0728750E+01  2.4218460E+01
 2.0740252E+01  2.4336309E+01
 2.0751751E+01  2.4382853E+01
 2.0763250E+01  2.4392879E+01
 2.0774752E+01  2.4330746E+01
 2.0786251E+01  2.4310827E+01
 2.0797750E+01  2.4213472E+01
 2.0809252E+01  2.4034569E+01
 2.0820751E+01  2.3851902E+01
 2.0832251E+01  2.3711637E+01
 2.0843752E+01  2.3672384E+01
 2.0855251E+01  2.3645521E+01
 2.0866751E+01  2.3617861E+01
 2.0878250E+01  2.3600609E+01
 2.0889751E+01  2.3573608E+01
 2.0901251E+01  2.3599867E+01
 2.0912750E+01  2.3654045E+01
 2.0924252E+01  2.3727798E+01
 2.0935751E+01  2.3734650E+01
 2.0947250E+01  2.3800142E+01
 2.0958752E+01  2.3785650E+01
 2.0970251E+01  2.3760445E+01
 2.0981750E+01  2.3699221E+01
 2.0993252E+01  2.3704073E+01
 2.1004751E+01  2.3691925E+01
 2.1016251E+01  2.3682020E+01
 2.1027752E+01  2.3650578E+01
 2.1039251E+01  2.3657978E+01
 2.1050751E+01  2.3660000E+01
 2.1062250E+01  2.3672358E+01
 2.1073751E+01  2.3660498E+01
 2.1085251E+01  2.3648924E+01
 2.1096750E+01  2.3625578E+01
 2.1108252E+01  2.3668709E+01
 2.1119751E+01  2.3695019E+01
 2.1131250E+01  2.3733166E+01
 2.1142752E+01  2.3727272E+01
 2.1154251E+01  2.3690115E+01
 2.1165751E+01  2.3708481E+01
 2.1177252E+01  2.3727152E+01
 2.1188751E+01  2.3753199E+01
 2.1200251E+01  2.3736593E+01
 2.1211752E+01  2.3790150E+01
 2.1223251E+01  2.3768888E+01
 2.1234751E+01  2.3764595E+01
 2.1246250E+01  2.3754160E+01
 2.1257751E+01  2.3776747E+01
 2.1269251E+01  2.3731810E+01
 2.1280750E+01  2.3714190E+01
 2.1292252E+01  2.3662678E+01
 2.1303751E+01  2.3625868E+01
 2.1315250E+01  2.3548496E+01
 2.1326752E+01  2.3572220E+01
 2.1338251E+01  2.3609474E+01
 2.1349751E+01  2.3640219E+01
 2.1361252E+01  2.3654562E+01
 2.1372751E+01  2.3682053E+01
 2.1384251E+01  2.3661884E+01
 2.1395752E+01  2.3679859E+01
 2.1407251E+01  2.3652777E+01
 2.1418751E+01  2.3667492E+01
 2.1430250E+01  2.3666756E+01
 2.1441751E+01  2.3668474E+01
 2.1453251E+01  2.3658161E+01
 2.1464750E+01  2.3679049E+01
 2.1476252E+01  2.3699413E+01
 2.1487751E+01  2.3707899E+01
 2.1499250E+01  2.3689548E+01
 2.1510752E+01  2.3663729E+01
 2.1522251E+01  2.3676498E+01
 2.1533751E+01  2.3736546E+01
 2.1545252E+01  2.3754770E+01
 2.1556751E+01  2.3757694E+01
 2.1568251E+01  2.3754860E+01
 2.1579752E+01  2.3762920E+01
 2.1591251E+01  2.3762173E+01
 2.1602751E+01  2.3795097E+01
 2.1614250E+01  2.3773705E+01
 2.1625751E+01  2.3741085E+01
 2.1637251E+01  2.3696573E+01
 2.1648750E+01  2.3703432E+01
 2.1660252E+01  2.3765017E+01
 2.1671751E+01  2.3804026E+01
 2.1683250E+01  2.3813858E+01
 2.1694752E+01  2.3802195E+01
 2.1706251E+01  2.3797857E+01
 2.1717751E+01  2.3827909E+01
 2.1729252E+01  2.3807552E+01
 2.1740751E+01  2.3828362E+01
 2.1752251E+01  2.3812735E+01
 2.1763752E+01  2.3829517E+01
 2.1775251E+01  2.3807688E+01
 2.1786751E+01  2.3847540E+01
 2.1798250E+01  2.3931833E+01
 2.1809752E+01  2.3965181E+01
 2.1821251E+01  2.3948282E+01
 2.1832750E+01  2.3944427E+01
 2.1844252E+01  2.3968803E+01
 2.1855751E+01  2.4039026E+01
 2.1867250E+01  2.4040295E+01
 2.1878752E+01  2.4054375E+01
 2.1890251E+01  2.3999035E+01
 2.1901751E+01  2.4021595E+01
 2.1913252E+01  2.4002981E+01
 2.1924751E+01  2.3998484E+01
 2.1936251E+01  2.3979872E+01
 2.1947752E+01  2.3996698E+01
 2.1959251E+01  2.4005867E+01
 2.1970751E+01  2.3969322E+01
 2.1982250E+01  2.3918959E+01
 2.1993752E+01  2.3884323E+01
 2.2005251E+01  2.3860901E+01
 2.2016750E+01  2.3924717E+01
 2.2028252E+01  2.3983171E+01
 2.2039751E+01  2.4027025E+01
 2.2051250E+01  2.4010342E+01
 2.2062752E+01  2.3962946E+01
 2.2074251E+01  2.3996574E+01
 2.2085751E+01  2.4059401E+01
 2.2097252E+01  2.4109680E+01
 2.2108751E+01  2.4151613E+01
 2.2120251E+01  2.4211317E+01
 2.2131752E+01  2.4215933E+01
 2.2143251E+01  2.4168909E+01
 2.2154751E+01  2.4148611E+01
 2.2166250E+01  2.4187210E+01
 2.2177752E+01  2.4135326E+01
 2.2189251E+01  2.4117170E+01
 2.2200750E+01  2.4115318E+01
 2.2212252E+01  2.4140478E+01
 2.2223751E+01  2.4156443E+01
 2.2235250E+01  2.4163162E+01
 2.2246752E+01  2.4223354E+01
 2.2258251E+01  2.4254047E+01
 2.2269751E+01  2.4241520E+01
 2.2281252E+01  2.4239933E+01
 2.2292751E+01  2.4208027E+01
 2.2304251E+01  2.4209324E+01
 2.2315752E+01  2.4244616E+01
 2.2327251E+01  2.4268679E+01
 2.2338751E+01  2.4290302E+01
 2.2350250E+01  2.4316471E+01
 2.2361752E+01  2.4356743E+01
 2.2373251E+01  2.4370361E+01
 2.2384750E+01  2.4324379E+01
 2.2396252E+01  2.4320992E+01
 2.2407751E+01  2.4342363E+01
 2.2419250E+01  2.4373758E+01
 2.2430752E+01  2.4395630E+01
 2.2442251E+01  2.4397877E+01
 2.2453751E+01  2.4425014E+01
 2.2465252E+01  2.4379572E+01
 2.2476751E+01  2.4433228E+01
 2.2488251E+01  2.4462008E+01
 2.2499752E+01  2.4550249E+01
 2.2511251E+01  2.4565308E+01
 2.2522751E+01  2.4600779E+01
 2.2534250E+01  2.4555635E+01
 2.2545752E+01  2.4522671E+01
 2.2557251E+01  2.4498093E+01
 2.2568750E+01  2.4531273E+01
 2.2580252E+01  2.4586742E+01
 2.2591751E+01  2.4646858E+01
 2.2603251E+01  2.4675646E+01
 2.2614752E+01  2.4675606E+01
 2.2626251E+01  2.4688808E+01
 2.2637751E+01  2.4691578E+01
 2.2649252E+01  2.4723555E+01
 2.2660751E+01  2.4751692E+01
 2.2672251E+01  2.4818813E+01
 2.2683752E+01  2.4822252E+01
 2.2695251E+01  2.4850149E+01
 2.2706751E+01  2.4831486E+01
 2.2718250E+01  2.4880808E+01
 2.2729752E+01  2.4899187E+01
 2.2741251E+01  2.4950411E+01
 2.2752750E+01  2.4994789E+01
 2.2764252E+01  2.5028589E+01
 2.2775751E+01  2.5052660E+01
 2.2787251E+01  2.5034575E+01
 2.2798752E+01  2.5053345E+01
 2.2810251E+01  2.5111574E+01
 2.2821751E+01  2.5175247E+01
 2.2833252E+01  2.5223040E+01
 2.2844751E+01  2.5200766E+01
 2.2856251E+01  2.5194029E+01
 2.2867750E+01  2.5218632E+01
 2.2879251E+01  2.5261894E+01
 2.2890751E+01  2.5342663E+01
 2.2902250E+01  2.5354124E+01
 2.2913752E+01  2.5460297E+01
 2.2925251E+01  2.5537342E+01
 2.2936750E+01  2.5614500E+01
 2.2948252E+01  2.5644096E+01
 2.2959751E+01  2.5700781E+01
 2.2971251E+01  2.5799711E+01
 2.2982752E+01  2.5896149E+01
 2.2994251E+01  2.5996134E+01
