F:\20151113_APS_34IDE\\Brian\Particle1\OCV\Data_0114.tif
2-Theta Angle (Degrees)
Intensity
       2000
 5.7500005E-03  0.0000000E+00
 1.7250001E-02  0.0000000E+00
 2.8750001E-02  0.0000000E+00
 4.0250003E-02  0.0000000E+00
 5.1750004E-02  0.0000000E+00
 6.3250005E-02  0.0000000E+00
 7.4750006E-02  0.0000000E+00
 8.6250007E-02  0.0000000E+00
 9.7750008E-02  0.0000000E+00
 1.0925001E-01  0.0000000E+00
 1.2075000E-01  0.0000000E+00
 1.3225001E-01  0.0000000E+00
 1.4375001E-01  0.0000000E+00
 1.5525001E-01  0.0000000E+00
 1.6675001E-01  0.0000000E+00
 1.7825001E-01  0.0000000E+00
 1.8975002E-01  0.0000000E+00
 2.0125002E-01  0.0000000E+00
 2.1275002E-01  0.0000000E+00
 2.2425000E-01  0.0000000E+00
 2.3575000E-01  0.0000000E+00
 2.4725001E-01  0.0000000E+00
 2.5875002E-01  0.0000000E+00
 2.7025002E-01  0.0000000E+00
 2.8175002E-01  0.0000000E+00
 2.9325002E-01  0.0000000E+00
 3.0475003E-01  0.0000000E+00
 3.1625003E-01  0.0000000E+00
 3.2775003E-01  0.0000000E+00
 3.3925003E-01  0.0000000E+00
 3.5075003E-01  0.0000000E+00
 3.6225003E-01  0.0000000E+00
 3.7375003E-01  0.0000000E+00
 3.8525003E-01  0.0000000E+00
 3.9675003E-01  0.0000000E+00
 4.0825003E-01  0.0000000E+00
 4.1975003E-01  0.0000000E+00
 4.3125004E-01  0.0000000E+00
 4.4275001E-01  0.0000000E+00
 4.5425001E-01  0.0000000E+00
 4.6575001E-01  0.0000000E+00
 4.7725001E-01  0.0000000E+00
 4.8875001E-01  0.0000000E+00
 5.0025004E-01  0.0000000E+00
 5.1175004E-01  0.0000000E+00
 5.2325004E-01  0.0000000E+00
 5.3475004E-01  0.0000000E+00
 5.4625005E-01  0.0000000E+00
 5.5775005E-01  0.0000000E+00
 5.6925005E-01  0.0000000E+00
 5.8075005E-01  0.0000000E+00
 5.9225005E-01  0.0000000E+00
 6.0375005E-01  0.0000000E+00
 6.1525005E-01  0.0000000E+00
 6.2675005E-01  0.0000000E+00
 6.3825005E-01  0.0000000E+00
 6.4975005E-01  0.0000000E+00
 6.6125005E-01  0.0000000E+00
 6.7275006E-01  0.0000000E+00
 6.8425006E-01  0.0000000E+00
 6.9575006E-01  0.0000000E+00
 7.0725006E-01  0.0000000E+00
 7.1875006E-01  0.0000000E+00
 7.3025006E-01  0.0000000E+00
 7.4175006E-01  0.0000000E+00
 7.5325006E-01  0.0000000E+00
 7.6475006E-01  0.0000000E+00
 7.7625006E-01  0.0000000E+00
 7.8775007E-01  0.0000000E+00
 7.9925007E-01  0.0000000E+00
 8.1075007E-01  0.0000000E+00
 8.2225007E-01  0.0000000E+00
 8.3375007E-01  0.0000000E+00
 8.4525007E-01  0.0000000E+00
 8.5675007E-01  0.0000000E+00
 8.6825007E-01  0.0000000E+00
 8.7975001E-01  0.0000000E+00
 8.9125001E-01  0.0000000E+00
 9.0275002E-01  0.0000000E+00
 9.1425002E-01  0.0000000E+00
 9.2575002E-01  0.0000000E+00
 9.3725002E-01  0.0000000E+00
 9.4875002E-01  0.0000000E+00
 9.6025002E-01  0.0000000E+00
 9.7175002E-01  0.0000000E+00
 9.8325002E-01  0.0000000E+00
 9.9475002E-01  0.0000000E+00
 1.0062500E+00  0.0000000E+00
 1.0177500E+00  0.0000000E+00
 1.0292500E+00  0.0000000E+00
 1.0407500E+00  0.0000000E+00
 1.0522500E+00  0.0000000E+00
 1.0637500E+00  0.0000000E+00
 1.0752500E+00  0.0000000E+00
 1.0867500E+00  0.0000000E+00
 1.0982500E+00  0.0000000E+00
 1.1097500E+00  0.0000000E+00
 1.1212500E+00  0.0000000E+00
 1.1327500E+00  0.0000000E+00
 1.1442500E+00  0.0000000E+00
 1.1557500E+00  0.0000000E+00
 1.1672500E+00  0.0000000E+00
 1.1787500E+00  0.0000000E+00
 1.1902500E+00  0.0000000E+00
 1.2017500E+00  0.0000000E+00
 1.2132500E+00  0.0000000E+00
 1.2247500E+00  0.0000000E+00
 1.2362500E+00  0.0000000E+00
 1.2477500E+00  0.0000000E+00
 1.2592500E+00  0.0000000E+00
 1.2707500E+00  0.0000000E+00
 1.2822500E+00  0.0000000E+00
 1.2937500E+00  0.0000000E+00
 1.3052500E+00  0.0000000E+00
 1.3167500E+00  0.0000000E+00
 1.3282501E+00  0.0000000E+00
 1.3397501E+00  0.0000000E+00
 1.3512501E+00  0.0000000E+00
 1.3627501E+00  0.0000000E+00
 1.3742501E+00  0.0000000E+00
 1.3857501E+00  0.0000000E+00
 1.3972501E+00  0.0000000E+00
 1.4087501E+00  0.0000000E+00
 1.4202501E+00  0.0000000E+00
 1.4317501E+00  0.0000000E+00
 1.4432501E+00  0.0000000E+00
 1.4547501E+00  0.0000000E+00
 1.4662501E+00  0.0000000E+00
 1.4777501E+00  0.0000000E+00
 1.4892501E+00  0.0000000E+00
 1.5007501E+00  0.0000000E+00
 1.5122501E+00  0.0000000E+00
 1.5237501E+00  0.0000000E+00
 1.5352501E+00  0.0000000E+00
 1.5467501E+00  0.0000000E+00
 1.5582501E+00  0.0000000E+00
 1.5697501E+00  0.0000000E+00
 1.5812501E+00  0.0000000E+00
 1.5927501E+00  0.0000000E+00
 1.6042501E+00  0.0000000E+00
 1.6157501E+00  0.0000000E+00
 1.6272501E+00  0.0000000E+00
 1.6387501E+00  0.0000000E+00
 1.6502501E+00  0.0000000E+00
 1.6617501E+00  0.0000000E+00
 1.6732501E+00  0.0000000E+00
 1.6847501E+00  0.0000000E+00
 1.6962501E+00  0.0000000E+00
 1.7077501E+00  0.0000000E+00
 1.7192501E+00  0.0000000E+00
 1.7307501E+00  0.0000000E+00
 1.7422501E+00  0.0000000E+00
 1.7537501E+00  0.0000000E+00
 1.7652501E+00  0.0000000E+00
 1.7767501E+00  0.0000000E+00
 1.7882501E+00  0.0000000E+00
 1.7997501E+00  0.0000000E+00
 1.8112501E+00  0.0000000E+00
 1.8227501E+00  0.0000000E+00
 1.8342501E+00  0.0000000E+00
 1.8457501E+00  0.0000000E+00
 1.8572501E+00  0.0000000E+00
 1.8687501E+00  0.0000000E+00
 1.8802501E+00  0.0000000E+00
 1.8917501E+00  0.0000000E+00
 1.9032501E+00  0.0000000E+00
 1.9147501E+00  0.0000000E+00
 1.9262501E+00  0.0000000E+00
 1.9377501E+00  0.0000000E+00
 1.9492501E+00  0.0000000E+00
 1.9607501E+00  0.0000000E+00
 1.9722501E+00  0.0000000E+00
 1.9837501E+00  0.0000000E+00
 1.9952501E+00  0.0000000E+00
 2.0067501E+00  0.0000000E+00
 2.0182500E+00  0.0000000E+00
 2.0297501E+00  0.0000000E+00
 2.0412500E+00  0.0000000E+00
 2.0527501E+00  0.0000000E+00
 2.0642500E+00  0.0000000E+00
 2.0757501E+00  0.0000000E+00
 2.0872500E+00  0.0000000E+00
 2.0987501E+00  0.0000000E+00
 2.1102500E+00  0.0000000E+00
 2.1217501E+00  0.0000000E+00
 2.1332500E+00  0.0000000E+00
 2.1447501E+00  0.0000000E+00
 2.1562500E+00  0.0000000E+00
 2.1677501E+00  0.0000000E+00
 2.1792500E+00  0.0000000E+00
 2.1907501E+00  0.0000000E+00
 2.2022500E+00  0.0000000E+00
 2.2137501E+00  0.0000000E+00
 2.2252500E+00  0.0000000E+00
 2.2367501E+00  0.0000000E+00
 2.2482500E+00  0.0000000E+00
 2.2597501E+00  0.0000000E+00
 2.2712500E+00  0.0000000E+00
 2.2827501E+00  0.0000000E+00
 2.2942500E+00  0.0000000E+00
 2.3057501E+00  0.0000000E+00
 2.3172500E+00  0.0000000E+00
 2.3287501E+00  0.0000000E+00
 2.3402500E+00  0.0000000E+00
 2.3517501E+00  0.0000000E+00
 2.3632500E+00  0.0000000E+00
 2.3747501E+00  0.0000000E+00
 2.3862500E+00  0.0000000E+00
 2.3977501E+00  0.0000000E+00
 2.4092500E+00  0.0000000E+00
 2.4207501E+00  0.0000000E+00
 2.4322500E+00  0.0000000E+00
 2.4437501E+00  0.0000000E+00
 2.4552500E+00  0.0000000E+00
 2.4667501E+00  0.0000000E+00
 2.4782500E+00  0.0000000E+00
 2.4897501E+00  0.0000000E+00
 2.5012500E+00  0.0000000E+00
 2.5127501E+00  0.0000000E+00
 2.5242500E+00  0.0000000E+00
 2.5357502E+00  0.0000000E+00
 2.5472500E+00  0.0000000E+00
 2.5587502E+00  0.0000000E+00
 2.5702500E+00  0.0000000E+00
 2.5817502E+00  0.0000000E+00
 2.5932500E+00  0.0000000E+00
 2.6047502E+00  0.0000000E+00
 2.6162500E+00  0.0000000E+00
 2.6277502E+00  0.0000000E+00
 2.6392500E+00  0.0000000E+00
 2.6507502E+00  0.0000000E+00
 2.6622500E+00  0.0000000E+00
 2.6737502E+00  0.0000000E+00
 2.6852500E+00  0.0000000E+00
 2.6967502E+00  0.0000000E+00
 2.7082500E+00  0.0000000E+00
 2.7197502E+00  0.0000000E+00
 2.7312500E+00  0.0000000E+00
 2.7427502E+00  0.0000000E+00
 2.7542500E+00  0.0000000E+00
 2.7657502E+00  0.0000000E+00
 2.7772501E+00  0.0000000E+00
 2.7887502E+00  0.0000000E+00
 2.8002501E+00  0.0000000E+00
 2.8117502E+00  0.0000000E+00
 2.8232501E+00  3.6641987E+01
 2.8347502E+00  3.4664459E+01
 2.8462501E+00  3.4798664E+01
 2.8577502E+00  3.5129658E+01
 2.8692501E+00  3.5695320E+01
 2.8807502E+00  3.5803528E+01
 2.8922501E+00  3.5372017E+01
 2.9037502E+00  3.5368706E+01
 2.9152501E+00  3.5593105E+01
 2.9267502E+00  3.5875694E+01
 2.9382501E+00  3.5684559E+01
 2.9497502E+00  3.5389229E+01
 2.9612501E+00  3.4630093E+01
 2.9727502E+00  3.4203762E+01
 2.9842501E+00  3.3782196E+01
 2.9957502E+00  3.3945774E+01
 3.0072501E+00  3.4120613E+01
 3.0187502E+00  3.4435284E+01
 3.0302501E+00  3.4741543E+01
 3.0417502E+00  3.5066582E+01
 3.0532501E+00  3.5026653E+01
 3.0647502E+00  3.5209400E+01
 3.0762501E+00  3.4982655E+01
 3.0877502E+00  3.4853512E+01
 3.0992501E+00  3.4580231E+01
 3.1107502E+00  3.4651825E+01
 3.1222501E+00  3.4381054E+01
 3.1337502E+00  3.4335239E+01
 3.1452501E+00  3.4249210E+01
 3.1567502E+00  3.4638725E+01
 3.1682501E+00  3.4842918E+01
 3.1797502E+00  3.5025272E+01
 3.1912501E+00  3.5325691E+01
 3.2027502E+00  3.5594959E+01
 3.2142501E+00  3.5758583E+01
 3.2257502E+00  3.5714642E+01
 3.2372501E+00  3.5924156E+01
 3.2487502E+00  3.5603165E+01
 3.2602501E+00  3.5632118E+01
 3.2717502E+00  3.4853584E+01
 3.2832501E+00  3.4868481E+01
 3.2947502E+00  3.4584824E+01
 3.3062501E+00  3.4864559E+01
 3.3177502E+00  3.4997456E+01
 3.3292501E+00  3.4935596E+01
 3.3407502E+00  3.4696205E+01
 3.3522501E+00  3.4344261E+01
 3.3637502E+00  3.4099052E+01
 3.3752501E+00  3.4027752E+01
 3.3867502E+00  3.3870708E+01
 3.3982501E+00  3.3629410E+01
 3.4097502E+00  3.3624859E+01
 3.4212501E+00  3.3558479E+01
 3.4327502E+00  3.3730091E+01
 3.4442501E+00  3.3725761E+01
 3.4557502E+00  3.3810368E+01
 3.4672501E+00  3.3918800E+01
 3.4787502E+00  3.3906475E+01
 3.4902501E+00  3.3934177E+01
 3.5017502E+00  3.3859783E+01
 3.5132501E+00  3.3658051E+01
 3.5247502E+00  3.3607975E+01
 3.5362501E+00  3.3148472E+01
 3.5477502E+00  3.3241390E+01
 3.5592501E+00  3.3096581E+01
 3.5707502E+00  3.3193455E+01
 3.5822501E+00  3.3010719E+01
 3.5937502E+00  3.2847519E+01
 3.6052501E+00  3.2678658E+01
 3.6167502E+00  3.2699120E+01
 3.6282501E+00  3.2856709E+01
 3.6397502E+00  3.2944180E+01
 3.6512501E+00  3.2804268E+01
 3.6627502E+00  3.2603710E+01
 3.6742501E+00  3.2514217E+01
 3.6857502E+00  3.2616695E+01
 3.6972501E+00  3.2640202E+01
 3.7087502E+00  3.2431755E+01
 3.7202501E+00  3.2272667E+01
 3.7317502E+00  3.2368397E+01
 3.7432501E+00  3.2476170E+01
 3.7547503E+00  3.2731941E+01
 3.7662501E+00  3.2568512E+01
 3.7777503E+00  3.2592152E+01
 3.7892501E+00  3.2426022E+01
 3.8007503E+00  3.2080940E+01
 3.8122501E+00  3.2073917E+01
 3.8237503E+00  3.1986139E+01
 3.8352501E+00  3.2002098E+01
 3.8467503E+00  3.2037914E+01
 3.8582501E+00  3.1968914E+01
 3.8697503E+00  3.2001011E+01
 3.8812501E+00  3.1979603E+01
 3.8927503E+00  3.1875378E+01
 3.9042501E+00  3.1981020E+01
 3.9157503E+00  3.2015026E+01
 3.9272501E+00  3.2210163E+01
 3.9387503E+00  3.2436272E+01
 3.9502501E+00  3.2570663E+01
 3.9617503E+00  3.2536156E+01
 3.9732502E+00  3.2558708E+01
 3.9847503E+00  3.2747776E+01
 3.9962502E+00  3.2854229E+01
 4.0077500E+00  3.2732372E+01
 4.0192504E+00  3.2461411E+01
 4.0307503E+00  3.2327797E+01
 4.0422502E+00  3.2221600E+01
 4.0537500E+00  3.2216732E+01
 4.0652504E+00  3.2346859E+01
 4.0767503E+00  3.2456936E+01
 4.0882502E+00  3.2615284E+01
 4.0997500E+00  3.2544205E+01
 4.1112504E+00  3.2740505E+01
 4.1227503E+00  3.2488071E+01
 4.1342502E+00  3.2441196E+01
 4.1457500E+00  3.2451576E+01
 4.1572504E+00  3.2445560E+01
 4.1687503E+00  3.2390656E+01
 4.1802502E+00  3.2051369E+01
 4.1917500E+00  3.1926924E+01
 4.2032504E+00  3.1696878E+01
 4.2147503E+00  3.1715668E+01
 4.2262502E+00  3.1714260E+01
 4.2377501E+00  3.1880733E+01
 4.2492504E+00  3.1887438E+01
 4.2607503E+00  3.1900385E+01
 4.2722502E+00  3.1902706E+01
 4.2837501E+00  3.1946945E+01
 4.2952504E+00  3.2093746E+01
 4.3067503E+00  3.2121632E+01
 4.3182502E+00  3.2096901E+01
 4.3297501E+00  3.1980930E+01
 4.3412504E+00  3.2010654E+01
 4.3527503E+00  3.1932281E+01
 4.3642502E+00  3.1948933E+01
 4.3757501E+00  3.2014248E+01
 4.3872504E+00  3.2057682E+01
 4.3987503E+00  3.2105824E+01
 4.4102502E+00  3.2160393E+01
 4.4217501E+00  3.2263020E+01
 4.4332504E+00  3.2206272E+01
 4.4447503E+00  3.2049301E+01
 4.4562502E+00  3.2006187E+01
 4.4677501E+00  3.2143456E+01
 4.4792504E+00  3.2382927E+01
 4.4907503E+00  3.2454163E+01
 4.5022502E+00  3.2467537E+01
 4.5137501E+00  3.2307842E+01
 4.5252504E+00  3.2293667E+01
 4.5367503E+00  3.2221996E+01
 4.5482502E+00  3.2290325E+01
 4.5597501E+00  3.2224865E+01
 4.5712504E+00  3.2201332E+01
 4.5827503E+00  3.2210709E+01
 4.5942502E+00  3.2268696E+01
 4.6057501E+00  3.2340805E+01
 4.6172504E+00  3.2307312E+01
 4.6287503E+00  3.2388191E+01
 4.6402502E+00  3.2474297E+01
 4.6517501E+00  3.2703957E+01
 4.6632504E+00  3.2831314E+01
 4.6747503E+00  3.2908085E+01
 4.6862502E+00  3.2799473E+01
 4.6977501E+00  3.2806721E+01
 4.7092505E+00  3.2727787E+01
 4.7207503E+00  3.2538040E+01
 4.7322502E+00  3.2209599E+01
 4.7437501E+00  3.2064789E+01
 4.7552505E+00  3.2153530E+01
 4.7667503E+00  3.2248569E+01
 4.7782502E+00  3.2388916E+01
 4.7897501E+00  3.2453743E+01
 4.8012505E+00  3.2494808E+01
 4.8127503E+00  3.2434299E+01
 4.8242502E+00  3.2359028E+01
 4.8357501E+00  3.2379482E+01
 4.8472505E+00  3.2353050E+01
 4.8587503E+00  3.2357796E+01
 4.8702502E+00  3.2347050E+01
 4.8817501E+00  3.2409618E+01
 4.8932505E+00  3.2630882E+01
 4.9047503E+00  3.2610519E+01
 4.9162502E+00  3.2739822E+01
 4.9277501E+00  3.2586472E+01
 4.9392505E+00  3.2604385E+01
 4.9507504E+00  3.2492188E+01
 4.9622502E+00  3.2414360E+01
 4.9737501E+00  3.2408188E+01
 4.9852505E+00  3.2441364E+01
 4.9967504E+00  3.2518867E+01
 5.0082502E+00  3.2762295E+01
 5.0197501E+00  3.2916801E+01
 5.0312505E+00  3.3166283E+01
 5.0427504E+00  3.3256245E+01
 5.0542502E+00  3.3292213E+01
 5.0657501E+00  3.3252632E+01
 5.0772505E+00  3.3082813E+01
 5.0887504E+00  3.3024349E+01
 5.1002502E+00  3.3015678E+01
 5.1117501E+00  3.3033123E+01
 5.1232505E+00  3.3091381E+01
 5.1347504E+00  3.3186771E+01
 5.1462502E+00  3.3210369E+01
 5.1577501E+00  3.3183792E+01
 5.1692505E+00  3.3087654E+01
 5.1807504E+00  3.3160343E+01
 5.1922503E+00  3.3175888E+01
 5.2037501E+00  3.3261791E+01
 5.2152505E+00  3.3234550E+01
 5.2267504E+00  3.3272701E+01
 5.2382503E+00  3.3212074E+01
 5.2497501E+00  3.3144573E+01
 5.2612505E+00  3.3121078E+01
 5.2727504E+00  3.3129238E+01
 5.2842503E+00  3.3235741E+01
 5.2957501E+00  3.3319126E+01
 5.3072500E+00  3.3340939E+01
 5.3187504E+00  3.3442768E+01
 5.3302503E+00  3.3504261E+01
 5.3417501E+00  3.3509304E+01
 5.3532500E+00  3.3450104E+01
 5.3647504E+00  3.3457882E+01
 5.3762503E+00  3.3612083E+01
 5.3877501E+00  3.3804131E+01
 5.3992500E+00  3.3811298E+01
 5.4107504E+00  3.3828186E+01
 5.4222503E+00  3.3867195E+01
 5.4337502E+00  3.3838192E+01
 5.4452500E+00  3.4056679E+01
 5.4567504E+00  3.4164654E+01
 5.4682503E+00  3.4439037E+01
 5.4797502E+00  3.4413456E+01
 5.4912500E+00  3.4350338E+01
 5.5027504E+00  3.4205704E+01
 5.5142503E+00  3.4209797E+01
 5.5257502E+00  3.4330166E+01
 5.5372500E+00  3.4416046E+01
 5.5487504E+00  3.4425259E+01
 5.5602503E+00  3.4412197E+01
 5.5717502E+00  3.4439171E+01
 5.5832500E+00  3.4490917E+01
 5.5947504E+00  3.4600983E+01
 5.6062503E+00  3.4719864E+01
 5.6177502E+00  3.4823639E+01
 5.6292500E+00  3.4775600E+01
 5.6407504E+00  3.4747559E+01
 5.6522503E+00  3.4764427E+01
 5.6637502E+00  3.4828831E+01
 5.6752501E+00  3.4962860E+01
 5.6867504E+00  3.5037060E+01
 5.6982503E+00  3.5070450E+01
 5.7097502E+00  3.5068748E+01
 5.7212501E+00  3.5218929E+01
 5.7327504E+00  3.5262238E+01
 5.7442503E+00  3.5361767E+01
 5.7557502E+00  3.5354065E+01
 5.7672501E+00  3.5387230E+01
 5.7787504E+00  3.5442173E+01
 5.7902503E+00  3.5406132E+01
 5.8017502E+00  3.5537624E+01
 5.8132501E+00  3.5505486E+01
 5.8247504E+00  3.5702080E+01
 5.8362503E+00  3.5821552E+01
 5.8477502E+00  3.5871582E+01
 5.8592501E+00  3.6032063E+01
 5.8707504E+00  3.6005928E+01
 5.8822503E+00  3.6219887E+01
 5.8937502E+00  3.6579533E+01
 5.9052501E+00  3.6756191E+01
 5.9167504E+00  3.7969601E+01
 5.9282503E+00  3.8965443E+01
 5.9397502E+00  4.0143139E+01
 5.9512501E+00  4.5265484E+01
 5.9627504E+00  4.7198856E+01
 5.9742503E+00  4.9641052E+01
 5.9857502E+00  5.2138550E+01
 5.9972501E+00  5.1190521E+01
 6.0087504E+00  5.1516922E+01
 6.0202503E+00  4.6308701E+01
 6.0317502E+00  4.4435329E+01
 6.0432501E+00  4.2033970E+01
 6.0547504E+00  3.9299263E+01
 6.0662503E+00  3.8329460E+01
 6.0777502E+00  3.7410866E+01
 6.0892501E+00  3.6972984E+01
 6.1007504E+00  3.6734764E+01
 6.1122503E+00  3.6610683E+01
 6.1237502E+00  3.6446640E+01
 6.1352501E+00  3.6328251E+01
 6.1467505E+00  3.6216694E+01
 6.1582503E+00  3.6313309E+01
 6.1697502E+00  3.6348404E+01
 6.1812501E+00  3.6419868E+01
 6.1927505E+00  3.6465649E+01
 6.2042503E+00  3.6536102E+01
 6.2157502E+00  3.6626461E+01
 6.2272501E+00  3.6636562E+01
 6.2387505E+00  3.6652645E+01
 6.2502503E+00  3.6766907E+01
 6.2617502E+00  3.6836040E+01
 6.2732501E+00  3.7008797E+01
 6.2847505E+00  3.7067760E+01
 6.2962503E+00  3.7145897E+01
 6.3077502E+00  3.7131393E+01
 6.3192501E+00  3.7121342E+01
 6.3307505E+00  3.7206360E+01
 6.3422503E+00  3.7414188E+01
 6.3537502E+00  3.7528419E+01
 6.3652501E+00  3.7685268E+01
 6.3767505E+00  3.7695843E+01
 6.3882504E+00  3.7881565E+01
 6.3997502E+00  3.7874908E+01
 6.4112501E+00  3.8046371E+01
 6.4227505E+00  3.8052673E+01
 6.4342504E+00  3.8168556E+01
 6.4457502E+00  3.8152073E+01
 6.4572501E+00  3.8184986E+01
 6.4687505E+00  3.8249435E+01
 6.4802504E+00  3.8284718E+01
 6.4917502E+00  3.8340652E+01
 6.5032501E+00  3.8469448E+01
 6.5147505E+00  3.8567654E+01
 6.5262504E+00  3.8637924E+01
 6.5377502E+00  3.8601372E+01
 6.5492501E+00  3.8627838E+01
 6.5607505E+00  3.8610226E+01
 6.5722504E+00  3.8656574E+01
 6.5837502E+00  3.8631672E+01
 6.5952501E+00  3.8688915E+01
 6.6067505E+00  3.8820080E+01
 6.6182504E+00  3.8978767E+01
 6.6297503E+00  3.9220665E+01
 6.6412501E+00  3.9380314E+01
 6.6527505E+00  3.9566204E+01
 6.6642504E+00  3.9737106E+01
 6.6757503E+00  3.9738922E+01
 6.6872501E+00  3.9794945E+01
 6.6987505E+00  3.9721649E+01
 6.7102504E+00  3.9792034E+01
 6.7217503E+00  3.9845284E+01
 6.7332501E+00  3.9925755E+01
 6.7447505E+00  4.0046795E+01
 6.7562504E+00  4.0252075E+01
 6.7677503E+00  4.0282532E+01
 6.7792501E+00  4.0351318E+01
 6.7907505E+00  4.0262188E+01
 6.8022504E+00  4.0341541E+01
 6.8137503E+00  4.0506405E+01
 6.8252501E+00  4.0723957E+01
 6.8367505E+00  4.1028137E+01
 6.8482504E+00  4.1161369E+01
 6.8597503E+00  4.1264854E+01
 6.8712502E+00  4.1204807E+01
 6.8827505E+00  4.1280849E+01
 6.8942504E+00  4.1293133E+01
 6.9057503E+00  4.1438080E+01
 6.9172502E+00  4.1476944E+01
 6.9287505E+00  4.1483208E+01
 6.9402504E+00  4.1447533E+01
 6.9517503E+00  4.1447849E+01
 6.9632502E+00  4.1468544E+01
 6.9747505E+00  4.1590805E+01
 6.9862504E+00  4.1636578E+01
 6.9977503E+00  4.1684906E+01
 7.0092502E+00  4.1670803E+01
 7.0207505E+00  4.1643616E+01
 7.0322504E+00  4.1711380E+01
 7.0437503E+00  4.1792648E+01
 7.0552502E+00  4.1840141E+01
 7.0667505E+00  4.1897263E+01
 7.0782504E+00  4.1919487E+01
 7.0897503E+00  4.2046356E+01
 7.1012502E+00  4.2160656E+01
 7.1127505E+00  4.2322929E+01
 7.1242504E+00  4.2518665E+01
 7.1357503E+00  4.2600559E+01
 7.1472502E+00  4.2585835E+01
 7.1587505E+00  4.2554363E+01
 7.1702504E+00  4.2570770E+01
 7.1817503E+00  4.2663620E+01
 7.1932502E+00  4.2824127E+01
 7.2047505E+00  4.2904186E+01
 7.2162504E+00  4.3028984E+01
 7.2277503E+00  4.3025459E+01
 7.2392502E+00  4.3042400E+01
 7.2507505E+00  4.3043972E+01
 7.2622504E+00  4.3060188E+01
 7.2737503E+00  4.3157253E+01
 7.2852502E+00  4.3099239E+01
 7.2967505E+00  4.3147381E+01
 7.3082504E+00  4.3113987E+01
 7.3197503E+00  4.3213539E+01
 7.3312502E+00  4.3155621E+01
 7.3427505E+00  4.3100769E+01
 7.3542504E+00  4.3065975E+01
 7.3657503E+00  4.3026073E+01
 7.3772502E+00  4.3041561E+01
 7.3887506E+00  4.3064350E+01
 7.4002504E+00  4.3208923E+01
 7.4117503E+00  4.3309120E+01
 7.4232502E+00  4.3412727E+01
 7.4347506E+00  4.3471348E+01
 7.4462504E+00  4.3597206E+01
 7.4577503E+00  4.3614716E+01
 7.4692502E+00  4.3574215E+01
 7.4807506E+00  4.3501507E+01
 7.4922504E+00  4.3462780E+01
 7.5037503E+00  4.3428017E+01
 7.5152502E+00  4.3454285E+01
 7.5267506E+00  4.3493893E+01
 7.5382504E+00  4.3501690E+01
 7.5497503E+00  4.3550323E+01
 7.5612502E+00  4.3589760E+01
 7.5727506E+00  4.3650101E+01
 7.5842505E+00  4.3592541E+01
 7.5957503E+00  4.3606632E+01
 7.6072502E+00  4.3614388E+01
 7.6187506E+00  4.3769722E+01
 7.6302505E+00  4.3729927E+01
 7.6417503E+00  4.3802246E+01
 7.6532502E+00  4.3685318E+01
 7.6647506E+00  4.3676472E+01
 7.6762505E+00  4.3662292E+01
 7.6877503E+00  4.3723732E+01
 7.6992502E+00  4.3719204E+01
 7.7107506E+00  4.3759468E+01
 7.7222505E+00  4.3783619E+01
 7.7337503E+00  4.3738178E+01
 7.7452502E+00  4.3687721E+01
 7.7567506E+00  4.3480400E+01
 7.7682505E+00  4.3461449E+01
 7.7797503E+00  4.3362324E+01
 7.7912502E+00  4.3368771E+01
 7.8027506E+00  4.3305454E+01
 7.8142505E+00  4.3202087E+01
 7.8257504E+00  4.3208363E+01
 7.8372502E+00  4.3166275E+01
 7.8487506E+00  4.3229931E+01
 7.8602505E+00  4.3263176E+01
 7.8717504E+00  4.3251385E+01
 7.8832502E+00  4.3204277E+01
 7.8947506E+00  4.3146313E+01
 7.9062505E+00  4.3258682E+01
 7.9177504E+00  4.3315788E+01
 7.9292502E+00  4.3294708E+01
 7.9407506E+00  4.3207405E+01
 7.9522505E+00  4.3128269E+01
 7.9637504E+00  4.3034725E+01
 7.9752502E+00  4.2935650E+01
 7.9867506E+00  4.2881874E+01
 7.9982505E+00  4.2796139E+01
 8.0097504E+00  4.2755608E+01
 8.0212507E+00  4.2580322E+01
 8.0327501E+00  4.2590992E+01
 8.0442505E+00  4.2613869E+01
 8.0557508E+00  4.2619678E+01
 8.0672503E+00  4.2540401E+01
 8.0787506E+00  4.2342499E+01
 8.0902500E+00  4.2264332E+01
 8.1017504E+00  4.2110165E+01
 8.1132507E+00  4.1940735E+01
 8.1247501E+00  4.1707741E+01
 8.1362505E+00  4.1530376E+01
 8.1477509E+00  4.1424885E+01
 8.1592503E+00  4.1393532E+01
 8.1707506E+00  4.1241562E+01
 8.1822500E+00  4.1108845E+01
 8.1937504E+00  4.0983170E+01
 8.2052507E+00  4.0919769E+01
 8.2167501E+00  4.0833912E+01
 8.2282505E+00  4.0706200E+01
 8.2397509E+00  4.0653900E+01
 8.2512503E+00  4.0626785E+01
 8.2627506E+00  4.0503113E+01
 8.2742500E+00  4.0434605E+01
 8.2857504E+00  4.0251129E+01
 8.2972507E+00  4.0177292E+01
 8.3087502E+00  3.9989544E+01
 8.3202505E+00  3.9854816E+01
 8.3317509E+00  3.9734375E+01
 8.3432503E+00  3.9558708E+01
 8.3547506E+00  3.9353539E+01
 8.3662500E+00  3.9309093E+01
 8.3777504E+00  3.9162529E+01
 8.3892508E+00  3.9085663E+01
 8.4007502E+00  3.8905148E+01
 8.4122505E+00  3.8792740E+01
 8.4237509E+00  3.8727692E+01
 8.4352503E+00  3.8537769E+01
 8.4467506E+00  3.8374344E+01
 8.4582500E+00  3.8190552E+01
 8.4697504E+00  3.7987049E+01
 8.4812508E+00  3.7782997E+01
 8.4927502E+00  3.7468380E+01
 8.5042505E+00  3.7286686E+01
 8.5157509E+00  3.7068474E+01
 8.5272503E+00  3.6906059E+01
 8.5387506E+00  3.6753258E+01
 8.5502501E+00  3.6599144E+01
 8.5617504E+00  3.6475590E+01
 8.5732508E+00  3.6262791E+01
 8.5847502E+00  3.5985279E+01
 8.5962505E+00  3.5812923E+01
 8.6077509E+00  3.5672836E+01
 8.6192503E+00  3.5597382E+01
 8.6307507E+00  3.5502666E+01
 8.6422501E+00  3.5398983E+01
 8.6537504E+00  3.5208939E+01
 8.6652508E+00  3.4994537E+01
 8.6767502E+00  3.4728512E+01
 8.6882505E+00  3.4606709E+01
 8.6997509E+00  3.4508698E+01
 8.7112503E+00  3.4338085E+01
 8.7227507E+00  3.4172199E+01
 8.7342501E+00  3.3979492E+01
 8.7457504E+00  3.3734024E+01
 8.7572508E+00  3.3561146E+01
 8.7687502E+00  3.3379871E+01
 8.7802505E+00  3.3357552E+01
 8.7917500E+00  3.3251160E+01
 8.8032503E+00  3.3122314E+01
 8.8147507E+00  3.2985058E+01
 8.8262501E+00  3.2854252E+01
 8.8377504E+00  3.2725296E+01
 8.8492508E+00  3.2566647E+01
 8.8607502E+00  3.2409737E+01
 8.8722506E+00  3.2297112E+01
 8.8837500E+00  3.2104828E+01
 8.8952503E+00  3.1944859E+01
 8.9067507E+00  3.1711102E+01
 8.9182501E+00  3.1532711E+01
 8.9297504E+00  3.1335848E+01
 8.9412508E+00  3.1121185E+01
 8.9527502E+00  3.0999149E+01
 8.9642506E+00  3.0818136E+01
 8.9757500E+00  3.0658653E+01
 8.9872503E+00  3.0530807E+01
 8.9987507E+00  3.0377893E+01
 9.0102501E+00  3.0296267E+01
 9.0217505E+00  3.0176756E+01
 9.0332508E+00  3.0053659E+01
 9.0447502E+00  2.9933401E+01
 9.0562506E+00  2.9772404E+01
 9.0677500E+00  2.9739632E+01
 9.0792503E+00  2.9632650E+01
 9.0907507E+00  2.9512442E+01
 9.1022501E+00  2.9340883E+01
 9.1137505E+00  2.9266369E+01
 9.1252508E+00  2.9145432E+01
 9.1367502E+00  2.9032265E+01
 9.1482506E+00  2.8967854E+01
 9.1597500E+00  2.8942827E+01
 9.1712503E+00  2.8847956E+01
 9.1827507E+00  2.8737799E+01
 9.1942501E+00  2.8569210E+01
 9.2057505E+00  2.8423000E+01
 9.2172508E+00  2.8243101E+01
 9.2287502E+00  2.8043219E+01
 9.2402506E+00  2.7953526E+01
 9.2517500E+00  2.7808672E+01
 9.2632504E+00  2.7751085E+01
 9.2747507E+00  2.7682791E+01
 9.2862501E+00  2.7590536E+01
 9.2977505E+00  2.7489325E+01
 9.3092508E+00  2.7297132E+01
 9.3207502E+00  2.7169563E+01
 9.3322506E+00  2.7071165E+01
 9.3437500E+00  2.6974743E+01
 9.3552504E+00  2.6966156E+01
 9.3667507E+00  2.6924232E+01
 9.3782501E+00  2.6891102E+01
 9.3897505E+00  2.6837759E+01
 9.4012508E+00  2.6819157E+01
 9.4127502E+00  2.6760429E+01
 9.4242506E+00  2.6710226E+01
 9.4357500E+00  2.6558142E+01
 9.4472504E+00  2.6504286E+01
 9.4587507E+00  2.6413637E+01
 9.4702501E+00  2.6366745E+01
 9.4817505E+00  2.6329588E+01
 9.4932508E+00  2.6259085E+01
 9.5047503E+00  2.6178469E+01
 9.5162506E+00  2.6086060E+01
 9.5277500E+00  2.6043396E+01
 9.5392504E+00  2.6015810E+01
 9.5507507E+00  2.6006275E+01
 9.5622501E+00  2.5933353E+01
 9.5737505E+00  2.5829870E+01
 9.5852509E+00  2.5656679E+01
 9.5967503E+00  2.5563019E+01
 9.6082506E+00  2.5461664E+01
 9.6197500E+00  2.5426292E+01
 9.6312504E+00  2.5370071E+01
 9.6427507E+00  2.5302267E+01
 9.6542501E+00  2.5215103E+01
 9.6657505E+00  2.5122904E+01
 9.6772509E+00  2.5110329E+01
 9.6887503E+00  2.5056177E+01
 9.7002506E+00  2.4991680E+01
 9.7117500E+00  2.4917410E+01
 9.7232504E+00  2.4875292E+01
 9.7347507E+00  2.4802233E+01
 9.7462502E+00  2.4747168E+01
 9.7577505E+00  2.4643505E+01
 9.7692509E+00  2.4594254E+01
 9.7807503E+00  2.4578339E+01
 9.7922506E+00  2.4556328E+01
 9.8037500E+00  2.4579132E+01
 9.8152504E+00  2.4524622E+01
 9.8267508E+00  2.4505213E+01
 9.8382502E+00  2.4482264E+01
 9.8497505E+00  2.4450794E+01
 9.8612509E+00  2.4371908E+01
 9.8727503E+00  2.4303768E+01
 9.8842506E+00  2.4246284E+01
 9.8957500E+00  2.4231934E+01
 9.9072504E+00  2.4138784E+01
 9.9187508E+00  2.4113346E+01
 9.9302502E+00  2.4080074E+01
 9.9417505E+00  2.4044348E+01
 9.9532509E+00  2.4012661E+01
 9.9647503E+00  2.4033922E+01
 9.9762506E+00  2.4101250E+01
 9.9877501E+00  2.4040083E+01
 9.9992504E+00  2.4033688E+01
 1.0010751E+01  2.3943342E+01
 1.0022250E+01  2.3964991E+01
 1.0033751E+01  2.3930515E+01
 1.0045251E+01  2.3882362E+01
 1.0056750E+01  2.3839674E+01
 1.0068251E+01  2.3800568E+01
 1.0079750E+01  2.3766424E+01
 1.0091250E+01  2.3762691E+01
 1.0102751E+01  2.3746626E+01
 1.0114250E+01  2.3747831E+01
 1.0125751E+01  2.3735424E+01
 1.0137251E+01  2.3689760E+01
 1.0148750E+01  2.3709976E+01
 1.0160251E+01  2.3726908E+01
 1.0171750E+01  2.3691088E+01
 1.0183250E+01  2.3709370E+01
 1.0194751E+01  2.3682257E+01
 1.0206250E+01  2.3680960E+01
 1.0217751E+01  2.3679867E+01
 1.0229251E+01  2.3599691E+01
 1.0240750E+01  2.3579241E+01
 1.0252251E+01  2.3488913E+01
 1.0263750E+01  2.3432930E+01
 1.0275250E+01  2.3383881E+01
 1.0286751E+01  2.3350002E+01
 1.0298250E+01  2.3320221E+01
 1.0309751E+01  2.3291513E+01
 1.0321251E+01  2.3225567E+01
 1.0332750E+01  2.3192486E+01
 1.0344251E+01  2.3142607E+01
 1.0355750E+01  2.3150362E+01
 1.0367250E+01  2.3142225E+01
 1.0378751E+01  2.3188467E+01
 1.0390250E+01  2.3212248E+01
 1.0401751E+01  2.3245260E+01
 1.0413251E+01  2.3224199E+01
 1.0424750E+01  2.3156557E+01
 1.0436251E+01  2.3094946E+01
 1.0447750E+01  2.3030945E+01
 1.0459250E+01  2.3014351E+01
 1.0470751E+01  2.2982914E+01
 1.0482250E+01  2.2995773E+01
 1.0493751E+01  2.2997059E+01
 1.0505251E+01  2.2972374E+01
 1.0516750E+01  2.2950127E+01
 1.0528251E+01  2.2887142E+01
 1.0539750E+01  2.2854406E+01
 1.0551250E+01  2.2783430E+01
 1.0562751E+01  2.2796242E+01
 1.0574250E+01  2.2770151E+01
 1.0585751E+01  2.2809145E+01
 1.0597251E+01  2.2763664E+01
 1.0608750E+01  2.2764280E+01
 1.0620251E+01  2.2753513E+01
 1.0631750E+01  2.2795300E+01
 1.0643250E+01  2.2856337E+01
 1.0654751E+01  2.2908298E+01
 1.0666250E+01  2.2915337E+01
 1.0677751E+01  2.2874126E+01
 1.0689251E+01  2.2792839E+01
 1.0700750E+01  2.2711662E+01
 1.0712251E+01  2.2647314E+01
 1.0723750E+01  2.2643076E+01
 1.0735250E+01  2.2644333E+01
 1.0746751E+01  2.2706198E+01
 1.0758250E+01  2.2645376E+01
 1.0769751E+01  2.2639999E+01
 1.0781251E+01  2.2599735E+01
 1.0792750E+01  2.2596674E+01
 1.0804251E+01  2.2584799E+01
 1.0815750E+01  2.2567253E+01
 1.0827250E+01  2.2583609E+01
 1.0838751E+01  2.2548645E+01
 1.0850250E+01  2.2530737E+01
 1.0861751E+01  2.2472958E+01
 1.0873251E+01  2.2465584E+01
 1.0884750E+01  2.2404469E+01
 1.0896251E+01  2.2386087E+01
 1.0907750E+01  2.2376335E+01
 1.0919250E+01  2.2391211E+01
 1.0930751E+01  2.2408886E+01
 1.0942250E+01  2.2417395E+01
 1.0953751E+01  2.2439722E+01
 1.0965251E+01  2.2448059E+01
 1.0976750E+01  2.2535503E+01
 1.0988251E+01  2.2550205E+01
 1.0999750E+01  2.2566956E+01
 1.1011250E+01  2.2502039E+01
 1.1022751E+01  2.2492325E+01
 1.1034250E+01  2.2419376E+01
 1.1045751E+01  2.2438408E+01
 1.1057251E+01  2.2411020E+01
 1.1068750E+01  2.2509686E+01
 1.1080251E+01  2.2468082E+01
 1.1091750E+01  2.2461441E+01
 1.1103251E+01  2.2387720E+01
 1.1114751E+01  2.2314976E+01
 1.1126250E+01  2.2282358E+01
 1.1137751E+01  2.2229664E+01
 1.1149251E+01  2.2242998E+01
 1.1160750E+01  2.2234100E+01
 1.1172251E+01  2.2265572E+01
 1.1183750E+01  2.2220446E+01
 1.1195251E+01  2.2210798E+01
 1.1206751E+01  2.2236311E+01
 1.1218250E+01  2.2285360E+01
 1.1229751E+01  2.2314651E+01
 1.1241251E+01  2.2276863E+01
 1.1252750E+01  2.2289965E+01
 1.1264251E+01  2.2238775E+01
 1.1275750E+01  2.2201693E+01
 1.1287251E+01  2.2164583E+01
 1.1298751E+01  2.2208845E+01
 1.1310250E+01  2.2293385E+01
 1.1321751E+01  2.2365414E+01
 1.1333251E+01  2.2376127E+01
 1.1344750E+01  2.2386484E+01
 1.1356251E+01  2.2384481E+01
 1.1367750E+01  2.2468678E+01
 1.1379251E+01  2.2477268E+01
 1.1390751E+01  2.2481483E+01
 1.1402250E+01  2.2517982E+01
 1.1413751E+01  2.2504667E+01
 1.1425251E+01  2.2546822E+01
 1.1436750E+01  2.2547874E+01
 1.1448251E+01  2.2600048E+01
 1.1459750E+01  2.2661137E+01
 1.1471251E+01  2.2656378E+01
 1.1482751E+01  2.2724028E+01
 1.1494250E+01  2.2742443E+01
 1.1505751E+01  2.2837255E+01
 1.1517251E+01  2.3035097E+01
 1.1528750E+01  2.3451971E+01
 1.1540251E+01  2.4116781E+01
 1.1551750E+01  2.5232346E+01
 1.1563251E+01  2.6793089E+01
 1.1574751E+01  2.8655218E+01
 1.1586250E+01  3.0703571E+01
 1.1597751E+01  3.1591026E+01
 1.1609251E+01  3.1494711E+01
 1.1620750E+01  2.9834948E+01
 1.1632251E+01  2.8134638E+01
 1.1643750E+01  2.6292444E+01
 1.1655251E+01  2.4933235E+01
 1.1666751E+01  2.3883614E+01
 1.1678250E+01  2.3261341E+01
 1.1689751E+01  2.2890980E+01
 1.1701251E+01  2.2677891E+01
 1.1712750E+01  2.2585094E+01
 1.1724251E+01  2.2473141E+01
 1.1735750E+01  2.2421494E+01
 1.1747251E+01  2.2305794E+01
 1.1758751E+01  2.2292004E+01
 1.1770250E+01  2.2217674E+01
 1.1781751E+01  2.2278435E+01
 1.1793251E+01  2.2310720E+01
 1.1804750E+01  2.2404758E+01
 1.1816251E+01  2.2393915E+01
 1.1827750E+01  2.2351229E+01
 1.1839251E+01  2.2361528E+01
 1.1850751E+01  2.2345150E+01
 1.1862250E+01  2.2387211E+01
 1.1873751E+01  2.2363075E+01
 1.1885251E+01  2.2343773E+01
 1.1896750E+01  2.2389479E+01
 1.1908251E+01  2.2393793E+01
 1.1919750E+01  2.2507519E+01
 1.1931251E+01  2.2613449E+01
 1.1942751E+01  2.2689552E+01
 1.1954250E+01  2.2840048E+01
 1.1965751E+01  2.2910229E+01
 1.1977251E+01  2.2946569E+01
 1.1988750E+01  2.3003225E+01
 1.2000251E+01  2.2916323E+01
 1.2011750E+01  2.2973022E+01
 1.2023251E+01  2.2862087E+01
 1.2034751E+01  2.2916533E+01
 1.2046250E+01  2.2985199E+01
 1.2057751E+01  2.3326672E+01
 1.2069251E+01  2.3681767E+01
 1.2080750E+01  2.4332033E+01
 1.2092251E+01  2.4782475E+01
 1.2103750E+01  2.5576117E+01
 1.2115251E+01  2.5726923E+01
 1.2126751E+01  2.5839130E+01
 1.2138250E+01  2.5213959E+01
 1.2149751E+01  2.4611132E+01
 1.2161251E+01  2.3741470E+01
 1.2172750E+01  2.3131746E+01
 1.2184251E+01  2.2744492E+01
 1.2195750E+01  2.2581789E+01
 1.2207251E+01  2.2473122E+01
 1.2218751E+01  2.2417711E+01
 1.2230250E+01  2.2390272E+01
 1.2241751E+01  2.2387274E+01
 1.2253251E+01  2.2374506E+01
 1.2264750E+01  2.2396242E+01
 1.2276251E+01  2.2375099E+01
 1.2287750E+01  2.2408636E+01
 1.2299251E+01  2.2408798E+01
 1.2310751E+01  2.2452503E+01
 1.2322250E+01  2.2398369E+01
 1.2333751E+01  2.2399601E+01
 1.2345250E+01  2.2401005E+01
 1.2356750E+01  2.2421253E+01
 1.2368251E+01  2.2389996E+01
 1.2379750E+01  2.2362867E+01
 1.2391251E+01  2.2379280E+01
 1.2402751E+01  2.2357203E+01
 1.2414250E+01  2.2380423E+01
 1.2425751E+01  2.2386827E+01
 1.2437250E+01  2.2425245E+01
 1.2448750E+01  2.2464352E+01
 1.2460251E+01  2.2493101E+01
 1.2471750E+01  2.2503559E+01
 1.2483251E+01  2.2495518E+01
 1.2494751E+01  2.2470179E+01
 1.2506250E+01  2.2398453E+01
 1.2517751E+01  2.2362698E+01
 1.2529250E+01  2.2392313E+01
 1.2540751E+01  2.2452206E+01
 1.2552251E+01  2.2473269E+01
 1.2563750E+01  2.2452459E+01
 1.2575251E+01  2.2482544E+01
 1.2586751E+01  2.2512573E+01
 1.2598250E+01  2.2577303E+01
 1.2609751E+01  2.2631649E+01
 1.2621250E+01  2.2672768E+01
 1.2632751E+01  2.2719322E+01
 1.2644251E+01  2.2718739E+01
 1.2655750E+01  2.2717592E+01
 1.2667251E+01  2.2721786E+01
 1.2678751E+01  2.2723469E+01
 1.2690250E+01  2.2689169E+01
 1.2701751E+01  2.2668566E+01
 1.2713250E+01  2.2724035E+01
 1.2724751E+01  2.2731497E+01
 1.2736251E+01  2.2747927E+01
 1.2747750E+01  2.2723463E+01
 1.2759251E+01  2.2726311E+01
 1.2770751E+01  2.2734425E+01
 1.2782250E+01  2.2864084E+01
 1.2793751E+01  2.2938028E+01
 1.2805250E+01  2.3037048E+01
 1.2816751E+01  2.3010536E+01
 1.2828251E+01  2.3036127E+01
 1.2839750E+01  2.2985432E+01
 1.2851251E+01  2.2991322E+01
 1.2862751E+01  2.3071775E+01
 1.2874250E+01  2.3086111E+01
 1.2885751E+01  2.3095505E+01
 1.2897250E+01  2.3101082E+01
 1.2908751E+01  2.3187559E+01
 1.2920251E+01  2.3255554E+01
 1.2931750E+01  2.3340885E+01
 1.2943251E+01  2.3366970E+01
 1.2954751E+01  2.3400412E+01
 1.2966250E+01  2.3438759E+01
 1.2977751E+01  2.3546484E+01
 1.2989250E+01  2.3605637E+01
 1.3000751E+01  2.3679131E+01
 1.3012251E+01  2.3772432E+01
 1.3023750E+01  2.3906080E+01
 1.3035251E+01  2.3972761E+01
 1.3046751E+01  2.4039249E+01
 1.3058250E+01  2.4073685E+01
 1.3069751E+01  2.4118671E+01
 1.3081250E+01  2.4102947E+01
 1.3092751E+01  2.4174280E+01
 1.3104251E+01  2.4305119E+01
 1.3115750E+01  2.4507544E+01
 1.3127251E+01  2.4649532E+01
 1.3138751E+01  2.4742863E+01
 1.3150250E+01  2.4882254E+01
 1.3161751E+01  2.5019564E+01
 1.3173250E+01  2.5189852E+01
 1.3184751E+01  2.5336029E+01
 1.3196251E+01  2.5449276E+01
 1.3207750E+01  2.5570286E+01
 1.3219251E+01  2.5647907E+01
 1.3230751E+01  2.5861101E+01
 1.3242250E+01  2.5995995E+01
 1.3253751E+01  2.6098307E+01
 1.3265250E+01  2.6127825E+01
 1.3276751E+01  2.6268610E+01
 1.3288251E+01  2.6375675E+01
 1.3299750E+01  2.6543932E+01
 1.3311251E+01  2.6630743E+01
 1.3322751E+01  2.6814402E+01
 1.3334250E+01  2.6925610E+01
 1.3345751E+01  2.7089123E+01
 1.3357250E+01  2.7240583E+01
 1.3368751E+01  2.7375814E+01
 1.3380251E+01  2.7519634E+01
 1.3391750E+01  2.7695333E+01
 1.3403251E+01  2.7865780E+01
 1.3414751E+01  2.8048567E+01
 1.3426250E+01  2.8201494E+01
 1.3437751E+01  2.8330429E+01
 1.3449250E+01  2.8417120E+01
 1.3460751E+01  2.8487411E+01
 1.3472251E+01  2.8593327E+01
 1.3483750E+01  2.8744352E+01
 1.3495251E+01  2.8862560E+01
 1.3506751E+01  2.9025770E+01
 1.3518250E+01  2.9091162E+01
 1.3529751E+01  2.9173679E+01
 1.3541250E+01  2.9204527E+01
 1.3552751E+01  2.9264202E+01
 1.3564251E+01  2.9246056E+01
 1.3575750E+01  2.9223402E+01
 1.3587251E+01  2.9204533E+01
 1.3598751E+01  2.9222357E+01
 1.3610250E+01  2.9256630E+01
 1.3621751E+01  2.9305418E+01
 1.3633250E+01  2.9359789E+01
 1.3644751E+01  2.9334831E+01
 1.3656251E+01  2.9336334E+01
 1.3667750E+01  2.9361225E+01
 1.3679251E+01  2.9400616E+01
 1.3690751E+01  2.9392494E+01
 1.3702250E+01  2.9306484E+01
 1.3713751E+01  2.9191885E+01
 1.3725250E+01  2.9082546E+01
 1.3736751E+01  2.9019388E+01
 1.3748251E+01  2.9019867E+01
 1.3759750E+01  2.8996891E+01
 1.3771251E+01  2.8974436E+01
 1.3782751E+01  2.8925491E+01
 1.3794250E+01  2.8859028E+01
 1.3805751E+01  2.8823874E+01
 1.3817250E+01  2.8793350E+01
 1.3828751E+01  2.8850922E+01
 1.3840251E+01  2.8865538E+01
 1.3851750E+01  2.8961399E+01
 1.3863251E+01  2.9001753E+01
 1.3874751E+01  2.9270990E+01
 1.3886250E+01  2.9452415E+01
 1.3897751E+01  2.9986219E+01
 1.3909250E+01  3.0478039E+01
 1.3920751E+01  3.1384254E+01
 1.3932251E+01  3.2074512E+01
 1.3943750E+01  3.2753101E+01
 1.3955251E+01  3.3259457E+01
 1.3966751E+01  3.3526634E+01
 1.3978251E+01  3.3409195E+01
 1.3989751E+01  3.2655987E+01
 1.4001250E+01  3.1790070E+01
 1.4012751E+01  3.0553732E+01
 1.4024251E+01  2.9571962E+01
 1.4035750E+01  2.8686367E+01
 1.4047251E+01  2.8122068E+01
 1.4058751E+01  2.7719564E+01
 1.4070251E+01  2.7520330E+01
 1.4081751E+01  2.7368505E+01
 1.4093250E+01  2.7282974E+01
 1.4104751E+01  2.7189943E+01
 1.4116251E+01  2.7122738E+01
 1.4127750E+01  2.7006477E+01
 1.4139251E+01  2.6947773E+01
 1.4150751E+01  2.6863447E+01
 1.4162251E+01  2.6882027E+01
 1.4173751E+01  2.6760544E+01
 1.4185250E+01  2.6704346E+01
 1.4196751E+01  2.6548901E+01
 1.4208251E+01  2.6448063E+01
 1.4219750E+01  2.6333094E+01
 1.4231251E+01  2.6228010E+01
 1.4242751E+01  2.6166481E+01
 1.4254251E+01  2.6120443E+01
 1.4265751E+01  2.6071960E+01
 1.4277250E+01  2.6030306E+01
 1.4288751E+01  2.5977917E+01
 1.4300251E+01  2.5963104E+01
 1.4311750E+01  2.5973253E+01
 1.4323251E+01  2.5936388E+01
 1.4334751E+01  2.5874813E+01
 1.4346251E+01  2.5788626E+01
 1.4357751E+01  2.5741213E+01
 1.4369250E+01  2.5736267E+01
 1.4380751E+01  2.5696367E+01
 1.4392251E+01  2.5691603E+01
 1.4403750E+01  2.5666224E+01
 1.4415251E+01  2.5682137E+01
 1.4426751E+01  2.5653242E+01
 1.4438251E+01  2.5622568E+01
 1.4449751E+01  2.5564075E+01
 1.4461250E+01  2.5536552E+01
 1.4472751E+01  2.5523460E+01
 1.4484251E+01  2.5526070E+01
 1.4495750E+01  2.5538034E+01
 1.4507251E+01  2.5537426E+01
 1.4518751E+01  2.5529341E+01
 1.4530251E+01  2.5475746E+01
 1.4541751E+01  2.5473198E+01
 1.4553250E+01  2.5420189E+01
 1.4564751E+01  2.5356422E+01
 1.4576251E+01  2.5227289E+01
 1.4587750E+01  2.5121099E+01
 1.4599251E+01  2.5056202E+01
 1.4610751E+01  2.5071865E+01
 1.4622251E+01  2.5100084E+01
 1.4633751E+01  2.5084150E+01
 1.4645250E+01  2.5097925E+01
 1.4656751E+01  2.5080460E+01
 1.4668251E+01  2.5093561E+01
 1.4679750E+01  2.5064970E+01
 1.4691251E+01  2.5083506E+01
 1.4702751E+01  2.5074831E+01
 1.4714251E+01  2.4990011E+01
 1.4725751E+01  2.4960197E+01
 1.4737250E+01  2.4886728E+01
 1.4748751E+01  2.4929241E+01
 1.4760251E+01  2.4917355E+01
 1.4771750E+01  2.4934361E+01
 1.4783251E+01  2.4895020E+01
 1.4794751E+01  2.4870367E+01
 1.4806251E+01  2.4838717E+01
 1.4817751E+01  2.4808533E+01
 1.4829250E+01  2.4783474E+01
 1.4840751E+01  2.4760490E+01
 1.4852251E+01  2.4711735E+01
 1.4863750E+01  2.4658268E+01
 1.4875251E+01  2.4583384E+01
 1.4886751E+01  2.4554905E+01
 1.4898251E+01  2.4613480E+01
 1.4909751E+01  2.4670046E+01
 1.4921250E+01  2.4708576E+01
 1.4932751E+01  2.4691973E+01
 1.4944251E+01  2.4727365E+01
 1.4955750E+01  2.4710474E+01
 1.4967251E+01  2.4649094E+01
 1.4978751E+01  2.4574806E+01
 1.4990251E+01  2.4491524E+01
 1.5001751E+01  2.4463337E+01
 1.5013250E+01  2.4481432E+01
 1.5024751E+01  2.4488167E+01
 1.5036251E+01  2.4520342E+01
 1.5047750E+01  2.4540962E+01
 1.5059251E+01  2.4627108E+01
 1.5070751E+01  2.4688288E+01
 1.5082251E+01  2.4687798E+01
 1.5093751E+01  2.4689144E+01
 1.5105250E+01  2.4668436E+01
 1.5116751E+01  2.4736197E+01
 1.5128251E+01  2.4925797E+01
 1.5139750E+01  2.5161062E+01
 1.5151251E+01  2.5685087E+01
 1.5162751E+01  2.6192430E+01
 1.5174251E+01  2.6640209E+01
 1.5185751E+01  2.6767271E+01
 1.5197250E+01  2.6665497E+01
 1.5208751E+01  2.6493147E+01
 1.5220251E+01  2.6181803E+01
 1.5231750E+01  2.5887941E+01
 1.5243251E+01  2.5543728E+01
 1.5254751E+01  2.5217747E+01
 1.5266251E+01  2.4882084E+01
 1.5277751E+01  2.4709581E+01
 1.5289250E+01  2.4580770E+01
 1.5300751E+01  2.4551174E+01
 1.5312251E+01  2.4494989E+01
 1.5323750E+01  2.4478617E+01
 1.5335251E+01  2.4426369E+01
 1.5346751E+01  2.4385607E+01
 1.5358251E+01  2.4327057E+01
 1.5369751E+01  2.4291819E+01
 1.5381250E+01  2.4247583E+01
 1.5392751E+01  2.4239721E+01
 1.5404251E+01  2.4283377E+01
 1.5415751E+01  2.4252182E+01
 1.5427251E+01  2.4207077E+01
 1.5438751E+01  2.4178825E+01
 1.5450251E+01  2.4199915E+01
 1.5461751E+01  2.4184017E+01
 1.5473250E+01  2.4216917E+01
 1.5484751E+01  2.4251963E+01
 1.5496251E+01  2.4266350E+01
 1.5507751E+01  2.4248667E+01
 1.5519251E+01  2.4315474E+01
 1.5530751E+01  2.4366718E+01
 1.5542251E+01  2.4391417E+01
 1.5553751E+01  2.4327084E+01
 1.5565250E+01  2.4323753E+01
 1.5576751E+01  2.4324053E+01
 1.5588251E+01  2.4384567E+01
 1.5599751E+01  2.4374105E+01
 1.5611251E+01  2.4381456E+01
 1.5622751E+01  2.4307722E+01
 1.5634251E+01  2.4242517E+01
 1.5645751E+01  2.4200426E+01
 1.5657250E+01  2.4203907E+01
 1.5668751E+01  2.4229044E+01
 1.5680251E+01  2.4238949E+01
 1.5691751E+01  2.4277740E+01
 1.5703251E+01  2.4283621E+01
 1.5714751E+01  2.4254030E+01
 1.5726251E+01  2.4250605E+01
 1.5737751E+01  2.4253025E+01
 1.5749250E+01  2.4252054E+01
 1.5760751E+01  2.4213438E+01
 1.5772251E+01  2.4177074E+01
 1.5783751E+01  2.4154613E+01
 1.5795251E+01  2.4189453E+01
 1.5806751E+01  2.4234980E+01
 1.5818251E+01  2.4219559E+01
 1.5829751E+01  2.4184069E+01
 1.5841250E+01  2.4158646E+01
 1.5852751E+01  2.4227045E+01
 1.5864251E+01  2.4261244E+01
 1.5875751E+01  2.4319532E+01
 1.5887251E+01  2.4341021E+01
 1.5898750E+01  2.4348480E+01
 1.5910251E+01  2.4394262E+01
 1.5921751E+01  2.4367489E+01
 1.5933250E+01  2.4326632E+01
 1.5944751E+01  2.4248800E+01
 1.5956251E+01  2.4255075E+01
 1.5967751E+01  2.4265953E+01
 1.5979251E+01  2.4301640E+01
 1.5990750E+01  2.4318995E+01
 1.6002251E+01  2.4337311E+01
 1.6013750E+01  2.4357038E+01
 1.6025251E+01  2.4395727E+01
 1.6036751E+01  2.4454546E+01
 1.6048250E+01  2.4526947E+01
 1.6059752E+01  2.4610069E+01
 1.6071251E+01  2.4605734E+01
 1.6082750E+01  2.4637835E+01
 1.6094252E+01  2.4576132E+01
 1.6105751E+01  2.4628717E+01
 1.6117250E+01  2.4605257E+01
 1.6128750E+01  2.4654118E+01
 1.6140251E+01  2.4667374E+01
 1.6151751E+01  2.4675886E+01
 1.6163250E+01  2.4722921E+01
 1.6174751E+01  2.4677967E+01
 1.6186251E+01  2.4840065E+01
 1.6197750E+01  2.4804668E+01
 1.6209251E+01  2.5295631E+01
 1.6220751E+01  2.5405090E+01
 1.6232250E+01  2.6056576E+01
 1.6243752E+01  2.6286371E+01
 1.6255251E+01  2.6628439E+01
 1.6266750E+01  2.6756182E+01
 1.6278252E+01  2.6259005E+01
 1.6289751E+01  2.6186979E+01
 1.6301250E+01  2.5348598E+01
 1.6312750E+01  2.5397867E+01
 1.6324251E+01  2.4836813E+01
 1.6335751E+01  2.4903273E+01
 1.6347250E+01  2.4643902E+01
 1.6358751E+01  2.4594660E+01
 1.6370251E+01  2.4483732E+01
 1.6381750E+01  2.4444120E+01
 1.6393251E+01  2.4461649E+01
 1.6404751E+01  2.4446669E+01
 1.6416250E+01  2.4521206E+01
 1.6427752E+01  2.4504757E+01
 1.6439251E+01  2.4490688E+01
 1.6450750E+01  2.4433802E+01
 1.6462252E+01  2.4417789E+01
 1.6473751E+01  2.4358427E+01
 1.6485250E+01  2.4374544E+01
 1.6496750E+01  2.4394516E+01
 1.6508251E+01  2.4419275E+01
 1.6519751E+01  2.4352955E+01
 1.6531250E+01  2.4318527E+01
 1.6542751E+01  2.4335245E+01
 1.6554251E+01  2.4325172E+01
 1.6565750E+01  2.4337671E+01
 1.6577251E+01  2.4290792E+01
 1.6588751E+01  2.4306473E+01
 1.6600250E+01  2.4263269E+01
 1.6611752E+01  2.4276442E+01
 1.6623251E+01  2.4237497E+01
 1.6634750E+01  2.4276039E+01
 1.6646252E+01  2.4318888E+01
 1.6657751E+01  2.4389002E+01
 1.6669250E+01  2.4424252E+01
 1.6680750E+01  2.4428320E+01
 1.6692251E+01  2.4405386E+01
 1.6703751E+01  2.4367647E+01
 1.6715250E+01  2.4341148E+01
 1.6726751E+01  2.4292957E+01
 1.6738251E+01  2.4243954E+01
 1.6749750E+01  2.4232027E+01
 1.6761251E+01  2.4200388E+01
 1.6772751E+01  2.4218346E+01
 1.6784250E+01  2.4248903E+01
 1.6795752E+01  2.4271326E+01
 1.6807251E+01  2.4248941E+01
 1.6818750E+01  2.4199949E+01
 1.6830252E+01  2.4172960E+01
 1.6841751E+01  2.4161713E+01
 1.6853251E+01  2.4168055E+01
 1.6864750E+01  2.4200943E+01
 1.6876251E+01  2.4165518E+01
 1.6887751E+01  2.4120052E+01
 1.6899250E+01  2.4098593E+01
 1.6910751E+01  2.4136889E+01
 1.6922251E+01  2.4112074E+01
 1.6933750E+01  2.4099787E+01
 1.6945251E+01  2.4113380E+01
 1.6956751E+01  2.4133661E+01
 1.6968250E+01  2.4135393E+01
 1.6979752E+01  2.4120848E+01
 1.6991251E+01  2.4112804E+01
 1.7002750E+01  2.4093529E+01
 1.7014252E+01  2.4087172E+01
 1.7025751E+01  2.4058996E+01
 1.7037251E+01  2.3978088E+01
 1.7048750E+01  2.3916483E+01
 1.7060251E+01  2.3839083E+01
 1.7071751E+01  2.3840364E+01
 1.7083250E+01  2.3836336E+01
 1.7094751E+01  2.3891499E+01
 1.7106251E+01  2.3936958E+01
 1.7117750E+01  2.3994209E+01
 1.7129251E+01  2.4043859E+01
 1.7140751E+01  2.4049570E+01
 1.7152250E+01  2.4045967E+01
 1.7163752E+01  2.4028641E+01
 1.7175251E+01  2.4010305E+01
 1.7186750E+01  2.3968824E+01
 1.7198252E+01  2.3948772E+01
 1.7209751E+01  2.3966780E+01
 1.7221251E+01  2.3963844E+01
 1.7232750E+01  2.3958073E+01
 1.7244251E+01  2.3957220E+01
 1.7255751E+01  2.3950218E+01
 1.7267250E+01  2.3917482E+01
 1.7278751E+01  2.3880480E+01
 1.7290251E+01  2.3828701E+01
 1.7301750E+01  2.3844023E+01
 1.7313251E+01  2.3840767E+01
 1.7324751E+01  2.3886053E+01
 1.7336250E+01  2.3832720E+01
 1.7347752E+01  2.3781675E+01
 1.7359251E+01  2.3764442E+01
 1.7370750E+01  2.3780502E+01
 1.7382252E+01  2.3787981E+01
 1.7393751E+01  2.3808928E+01
 1.7405251E+01  2.3839849E+01
 1.7416750E+01  2.3847641E+01
 1.7428251E+01  2.3850534E+01
 1.7439751E+01  2.3852873E+01
 1.7451250E+01  2.3866308E+01
 1.7462751E+01  2.3818075E+01
 1.7474251E+01  2.3772209E+01
 1.7485750E+01  2.3719177E+01
 1.7497252E+01  2.3698112E+01
 1.7508751E+01  2.3665636E+01
 1.7520250E+01  2.3651245E+01
 1.7531752E+01  2.3596554E+01
 1.7543251E+01  2.3535191E+01
 1.7554750E+01  2.3468367E+01
 1.7566252E+01  2.3455984E+01
 1.7577751E+01  2.3441959E+01
 1.7589251E+01  2.3485310E+01
 1.7600750E+01  2.3519138E+01
 1.7612251E+01  2.3619381E+01
 1.7623751E+01  2.3638288E+01
 1.7635250E+01  2.3631310E+01
 1.7646751E+01  2.3582312E+01
 1.7658251E+01  2.3581207E+01
 1.7669750E+01  2.3604847E+01
 1.7681252E+01  2.3594728E+01
 1.7692751E+01  2.3581923E+01
 1.7704250E+01  2.3530540E+01
 1.7715752E+01  2.3498856E+01
 1.7727251E+01  2.3472225E+01
 1.7738750E+01  2.3475910E+01
 1.7750252E+01  2.3489464E+01
 1.7761751E+01  2.3465010E+01
 1.7773251E+01  2.3495590E+01
 1.7784750E+01  2.3541733E+01
 1.7796251E+01  2.3653917E+01
 1.7807751E+01  2.3700466E+01
 1.7819250E+01  2.3702841E+01
 1.7830751E+01  2.3682198E+01
 1.7842251E+01  2.3634253E+01
 1.7853750E+01  2.3675793E+01
 1.7865252E+01  2.3691999E+01
 1.7876751E+01  2.3689701E+01
 1.7888250E+01  2.3624353E+01
 1.7899752E+01  2.3547155E+01
 1.7911251E+01  2.3590036E+01
 1.7922750E+01  2.3581903E+01
 1.7934252E+01  2.3585789E+01
 1.7945751E+01  2.3644995E+01
 1.7957251E+01  2.3679956E+01
 1.7968750E+01  2.3864140E+01
 1.7980251E+01  2.4142534E+01
 1.7991751E+01  2.4365667E+01
 1.8003250E+01  2.5309193E+01
 1.8014751E+01  2.5493261E+01
 1.8026251E+01  2.5822039E+01
 1.8037750E+01  2.5311514E+01
 1.8049252E+01  2.5367327E+01
 1.8060751E+01  2.5585606E+01
 1.8072250E+01  2.5450384E+01
 1.8083752E+01  2.6023651E+01
 1.8095251E+01  2.6050886E+01
 1.8106750E+01  2.6238211E+01
 1.8118252E+01  2.6151413E+01
 1.8129751E+01  2.5865324E+01
 1.8141251E+01  2.5610989E+01
 1.8152750E+01  2.5059454E+01
 1.8164251E+01  2.4652020E+01
 1.8175751E+01  2.4286097E+01
 1.8187250E+01  2.3941458E+01
 1.8198751E+01  2.3794380E+01
 1.8210251E+01  2.3693106E+01
 1.8221750E+01  2.3619812E+01
 1.8233252E+01  2.3598186E+01
 1.8244751E+01  2.3568111E+01
 1.8256250E+01  2.3523228E+01
 1.8267752E+01  2.3501602E+01
 1.8279251E+01  2.3399147E+01
 1.8290751E+01  2.3389360E+01
 1.8302252E+01  2.3342552E+01
 1.8313751E+01  2.3369532E+01
 1.8325251E+01  2.3370407E+01
 1.8336750E+01  2.3400568E+01
 1.8348251E+01  2.3454405E+01
 1.8359751E+01  2.3477118E+01
 1.8371250E+01  2.3504675E+01
 1.8382751E+01  2.3518774E+01
 1.8394251E+01  2.3532213E+01
 1.8405750E+01  2.3530739E+01
 1.8417252E+01  2.3486809E+01
 1.8428751E+01  2.3435209E+01
 1.8440250E+01  2.3401819E+01
 1.8451752E+01  2.3388983E+01
 1.8463251E+01  2.3432491E+01
 1.8474751E+01  2.3455063E+01
 1.8486252E+01  2.3463110E+01
 1.8497751E+01  2.3432014E+01
 1.8509251E+01  2.3363598E+01
 1.8520750E+01  2.3285757E+01
 1.8532251E+01  2.3218483E+01
 1.8543751E+01  2.3177858E+01
 1.8555250E+01  2.3219797E+01
 1.8566751E+01  2.3251919E+01
 1.8578251E+01  2.3273315E+01
 1.8589750E+01  2.3278164E+01
 1.8601252E+01  2.3334486E+01
 1.8612751E+01  2.3325916E+01
 1.8624250E+01  2.3318794E+01
 1.8635752E+01  2.3353970E+01
 1.8647251E+01  2.3378065E+01
 1.8658751E+01  2.3339369E+01
 1.8670252E+01  2.3284075E+01
 1.8681751E+01  2.3265972E+01
 1.8693251E+01  2.3266222E+01
 1.8704750E+01  2.3226242E+01
 1.8716251E+01  2.3224239E+01
 1.8727751E+01  2.3220123E+01
 1.8739250E+01  2.3228968E+01
 1.8750751E+01  2.3265360E+01
 1.8762251E+01  2.3291822E+01
 1.8773750E+01  2.3313025E+01
 1.8785252E+01  2.3318628E+01
 1.8796751E+01  2.3377825E+01
 1.8808250E+01  2.3384846E+01
 1.8819752E+01  2.3401829E+01
 1.8831251E+01  2.3348207E+01
 1.8842751E+01  2.3324059E+01
 1.8854252E+01  2.3257893E+01
 1.8865751E+01  2.3255127E+01
 1.8877251E+01  2.3252583E+01
 1.8888750E+01  2.3211252E+01
 1.8900251E+01  2.3221230E+01
 1.8911751E+01  2.3239073E+01
 1.8923250E+01  2.3312843E+01
 1.8934752E+01  2.3327227E+01
 1.8946251E+01  2.3362000E+01
 1.8957750E+01  2.3344351E+01
 1.8969252E+01  2.3324615E+01
 1.8980751E+01  2.3291786E+01
 1.8992250E+01  2.3285856E+01
 1.9003752E+01  2.3238609E+01
 1.9015251E+01  2.3260479E+01
 1.9026751E+01  2.3269596E+01
 1.9038252E+01  2.3358685E+01
 1.9049751E+01  2.3323116E+01
 1.9061251E+01  2.3341677E+01
 1.9072750E+01  2.3349779E+01
 1.9084251E+01  2.3383768E+01
 1.9095751E+01  2.3368670E+01
 1.9107250E+01  2.3313875E+01
 1.9118752E+01  2.3263006E+01
 1.9130251E+01  2.3264750E+01
 1.9141750E+01  2.3303823E+01
 1.9153252E+01  2.3337183E+01
 1.9164751E+01  2.3280733E+01
 1.9176250E+01  2.3242180E+01
 1.9187752E+01  2.3276117E+01
 1.9199251E+01  2.3321579E+01
 1.9210751E+01  2.3355597E+01
 1.9222252E+01  2.3303347E+01
 1.9233751E+01  2.3286509E+01
 1.9245251E+01  2.3251123E+01
 1.9256750E+01  2.3309055E+01
 1.9268251E+01  2.3320065E+01
 1.9279751E+01  2.3307713E+01
 1.9291250E+01  2.3278847E+01
 1.9302752E+01  2.3344942E+01
 1.9314251E+01  2.3384804E+01
 1.9325750E+01  2.3373365E+01
 1.9337252E+01  2.3366127E+01
 1.9348751E+01  2.3376284E+01
 1.9360250E+01  2.3379419E+01
 1.9371752E+01  2.3414541E+01
 1.9383251E+01  2.3387144E+01
 1.9394751E+01  2.3429913E+01
 1.9406250E+01  2.3418604E+01
 1.9417751E+01  2.3443909E+01
 1.9429251E+01  2.3420950E+01
 1.9440750E+01  2.3411442E+01
 1.9452251E+01  2.3417662E+01
 1.9463751E+01  2.3374037E+01
 1.9475250E+01  2.3392473E+01
 1.9486752E+01  2.3421511E+01
 1.9498251E+01  2.3450884E+01
 1.9509750E+01  2.3446869E+01
 1.9521252E+01  2.3401066E+01
 1.9532751E+01  2.3385094E+01
 1.9544250E+01  2.3405802E+01
 1.9555752E+01  2.3383234E+01
 1.9567251E+01  2.3383493E+01
 1.9578751E+01  2.3414099E+01
 1.9590250E+01  2.3476679E+01
 1.9601751E+01  2.3590544E+01
 1.9613251E+01  2.3685394E+01
 1.9624750E+01  2.3764980E+01
 1.9636251E+01  2.3895962E+01
 1.9647751E+01  2.4053284E+01
 1.9659250E+01  2.4262896E+01
 1.9670752E+01  2.4565622E+01
 1.9682251E+01  2.4848602E+01
 1.9693750E+01  2.5234426E+01
 1.9705252E+01  2.5549997E+01
 1.9716751E+01  2.5878422E+01
 1.9728251E+01  2.5971813E+01
 1.9739752E+01  2.5897751E+01
 1.9751251E+01  2.5780205E+01
 1.9762751E+01  2.5496067E+01
 1.9774250E+01  2.5245848E+01
 1.9785751E+01  2.5161283E+01
 1.9797251E+01  2.5194088E+01
 1.9808750E+01  2.5369265E+01
 1.9820251E+01  2.5621262E+01
 1.9831751E+01  2.6038748E+01
 1.9843250E+01  2.6389830E+01
 1.9854752E+01  2.6886883E+01
 1.9866251E+01  2.7141239E+01
 1.9877750E+01  2.7164207E+01
 1.9889252E+01  2.6830053E+01
 1.9900751E+01  2.6348236E+01
 1.9912251E+01  2.5731825E+01
 1.9923752E+01  2.5125238E+01
 1.9935251E+01  2.4610817E+01
 1.9946751E+01  2.4217514E+01
 1.9958250E+01  2.3935902E+01
 1.9969751E+01  2.3820553E+01
 1.9981251E+01  2.3727787E+01
 1.9992750E+01  2.3728001E+01
 2.0004251E+01  2.3677723E+01
 2.0015751E+01  2.3650013E+01
 2.0027250E+01  2.3578987E+01
 2.0038752E+01  2.3570442E+01
 2.0050251E+01  2.3599766E+01
 2.0061750E+01  2.3547703E+01
 2.0073252E+01  2.3534906E+01
 2.0084751E+01  2.3474771E+01
 2.0096251E+01  2.3532026E+01
 2.0107752E+01  2.3527090E+01
 2.0119251E+01  2.3543863E+01
 2.0130751E+01  2.3517115E+01
 2.0142250E+01  2.3492664E+01
 2.0153751E+01  2.3480890E+01
 2.0165251E+01  2.3456459E+01
 2.0176750E+01  2.3460228E+01
 2.0188251E+01  2.3436686E+01
 2.0199751E+01  2.3447004E+01
 2.0211250E+01  2.3466610E+01
 2.0222752E+01  2.3490124E+01
 2.0234251E+01  2.3495806E+01
 2.0245750E+01  2.3516125E+01
 2.0257252E+01  2.3499874E+01
 2.0268751E+01  2.3468124E+01
 2.0280251E+01  2.3461205E+01
 2.0291752E+01  2.3484177E+01
 2.0303251E+01  2.3474129E+01
 2.0314751E+01  2.3435698E+01
 2.0326250E+01  2.3402821E+01
 2.0337751E+01  2.3399071E+01
 2.0349251E+01  2.3438988E+01
 2.0360750E+01  2.3451979E+01
 2.0372252E+01  2.3446520E+01
 2.0383751E+01  2.3429062E+01
 2.0395250E+01  2.3468874E+01
 2.0406752E+01  2.3488016E+01
 2.0418251E+01  2.3512712E+01
 2.0429750E+01  2.3482117E+01
 2.0441252E+01  2.3441082E+01
 2.0452751E+01  2.3440380E+01
 2.0464251E+01  2.3432837E+01
 2.0475752E+01  2.3497095E+01
 2.0487251E+01  2.3517208E+01
 2.0498751E+01  2.3570034E+01
 2.0510250E+01  2.3563869E+01
 2.0521751E+01  2.3551842E+01
 2.0533251E+01  2.3524029E+01
 2.0544750E+01  2.3545441E+01
 2.0556252E+01  2.3591619E+01
 2.0567751E+01  2.3623177E+01
 2.0579250E+01  2.3637249E+01
 2.0590752E+01  2.3665993E+01
 2.0602251E+01  2.3694134E+01
 2.0613750E+01  2.3719357E+01
 2.0625252E+01  2.3723482E+01
 2.0636751E+01  2.3762295E+01
 2.0648251E+01  2.3760479E+01
 2.0659752E+01  2.3787975E+01
 2.0671251E+01  2.3841732E+01
 2.0682751E+01  2.4084280E+01
 2.0694250E+01  2.4411625E+01
 2.0705751E+01  2.4917007E+01
 2.0717251E+01  2.5467621E+01
 2.0728750E+01  2.5941956E+01
 2.0740252E+01  2.6288715E+01
 2.0751751E+01  2.6357037E+01
 2.0763250E+01  2.6424498E+01
 2.0774752E+01  2.6200327E+01
 2.0786251E+01  2.5966854E+01
 2.0797750E+01  2.5517332E+01
 2.0809252E+01  2.5074257E+01
 2.0820751E+01  2.4606827E+01
 2.0832251E+01  2.4295942E+01
 2.0843752E+01  2.4030844E+01
 2.0855251E+01  2.3871252E+01
 2.0866751E+01  2.3765585E+01
 2.0878250E+01  2.3741926E+01
 2.0889751E+01  2.3696333E+01
 2.0901251E+01  2.3743809E+01
 2.0912750E+01  2.3786804E+01
 2.0924252E+01  2.3867863E+01
 2.0935751E+01  2.3910799E+01
 2.0947250E+01  2.3893570E+01
 2.0958752E+01  2.3848907E+01
 2.0970251E+01  2.3776152E+01
 2.0981750E+01  2.3711786E+01
 2.0993252E+01  2.3712954E+01
 2.1004751E+01  2.3626572E+01
 2.1016251E+01  2.3605919E+01
 2.1027752E+01  2.3598219E+01
 2.1039251E+01  2.3636131E+01
 2.1050751E+01  2.3584583E+01
 2.1062250E+01  2.3570541E+01
 2.1073751E+01  2.3635916E+01
 2.1085251E+01  2.3654736E+01
 2.1096750E+01  2.3615671E+01
 2.1108252E+01  2.3626509E+01
 2.1119751E+01  2.3672457E+01
 2.1131250E+01  2.3706957E+01
 2.1142752E+01  2.3655998E+01
 2.1154251E+01  2.3588400E+01
 2.1165751E+01  2.3607670E+01
 2.1177252E+01  2.3681782E+01
 2.1188751E+01  2.3762417E+01
 2.1200251E+01  2.3775545E+01
 2.1211752E+01  2.3779755E+01
 2.1223251E+01  2.3702799E+01
 2.1234751E+01  2.3652180E+01
 2.1246250E+01  2.3653135E+01
 2.1257751E+01  2.3680410E+01
 2.1269251E+01  2.3694057E+01
 2.1280750E+01  2.3696836E+01
 2.1292252E+01  2.3714140E+01
 2.1303751E+01  2.3686859E+01
 2.1315250E+01  2.3668966E+01
 2.1326752E+01  2.3660109E+01
 2.1338251E+01  2.3686953E+01
 2.1349751E+01  2.3650707E+01
 2.1361252E+01  2.3721048E+01
 2.1372751E+01  2.3752346E+01
 2.1384251E+01  2.3746443E+01
 2.1395752E+01  2.3705578E+01
 2.1407251E+01  2.3718811E+01
 2.1418751E+01  2.3736561E+01
 2.1430250E+01  2.3743254E+01
 2.1441751E+01  2.3698771E+01
 2.1453251E+01  2.3691553E+01
 2.1464750E+01  2.3704134E+01
 2.1476252E+01  2.3746603E+01
 2.1487751E+01  2.3801884E+01
 2.1499250E+01  2.3801157E+01
 2.1510752E+01  2.3790604E+01
 2.1522251E+01  2.3776529E+01
 2.1533751E+01  2.3778601E+01
 2.1545252E+01  2.3743292E+01
 2.1556751E+01  2.3702999E+01
 2.1568251E+01  2.3701586E+01
 2.1579752E+01  2.3717215E+01
 2.1591251E+01  2.3753622E+01
 2.1602751E+01  2.3762312E+01
 2.1614250E+01  2.3769581E+01
 2.1625751E+01  2.3781975E+01
 2.1637251E+01  2.3791828E+01
 2.1648750E+01  2.3805368E+01
 2.1660252E+01  2.3825867E+01
 2.1671751E+01  2.3832474E+01
 2.1683250E+01  2.3804249E+01
 2.1694752E+01  2.3824577E+01
 2.1706251E+01  2.3855200E+01
 2.1717751E+01  2.3900452E+01
 2.1729252E+01  2.3947624E+01
 2.1740751E+01  2.4015301E+01
 2.1752251E+01  2.3940426E+01
 2.1763752E+01  2.3873783E+01
 2.1775251E+01  2.3831543E+01
 2.1786751E+01  2.3818857E+01
 2.1798250E+01  2.3858189E+01
 2.1809752E+01  2.3877106E+01
 2.1821251E+01  2.3893667E+01
 2.1832750E+01  2.3871824E+01
 2.1844252E+01  2.3903450E+01
 2.1855751E+01  2.3903297E+01
 2.1867250E+01  2.3896624E+01
 2.1878752E+01  2.3898199E+01
 2.1890251E+01  2.3888138E+01
 2.1901751E+01  2.3919674E+01
 2.1913252E+01  2.3973175E+01
 2.1924751E+01  2.4022932E+01
 2.1936251E+01  2.4032579E+01
 2.1947752E+01  2.4002542E+01
 2.1959251E+01  2.4006775E+01
 2.1970751E+01  2.4019438E+01
 2.1982250E+01  2.4034100E+01
 2.1993752E+01  2.4034519E+01
 2.2005251E+01  2.3998198E+01
 2.2016750E+01  2.4016420E+01
 2.2028252E+01  2.4041445E+01
 2.2039751E+01  2.4101301E+01
 2.2051250E+01  2.4163626E+01
 2.2062752E+01  2.4195679E+01
 2.2074251E+01  2.4183722E+01
 2.2085751E+01  2.4114908E+01
 2.2097252E+01  2.4072048E+01
 2.2108751E+01  2.4054890E+01
 2.2120251E+01  2.4109316E+01
 2.2131752E+01  2.4101786E+01
 2.2143251E+01  2.4076122E+01
 2.2154751E+01  2.4027010E+01
 2.2166250E+01  2.4017036E+01
 2.2177752E+01  2.3977175E+01
 2.2189251E+01  2.3957439E+01
 2.2200750E+01  2.3980831E+01
 2.2212252E+01  2.4010065E+01
 2.2223751E+01  2.4059490E+01
 2.2235250E+01  2.4085133E+01
 2.2246752E+01  2.4118277E+01
 2.2258251E+01  2.4099331E+01
 2.2269751E+01  2.4055965E+01
 2.2281252E+01  2.4078257E+01
 2.2292751E+01  2.4097694E+01
 2.2304251E+01  2.4162563E+01
 2.2315752E+01  2.4218117E+01
 2.2327251E+01  2.4243288E+01
 2.2338751E+01  2.4283039E+01
 2.2350250E+01  2.4286760E+01
 2.2361752E+01  2.4248636E+01
 2.2373251E+01  2.4211367E+01
 2.2384750E+01  2.4154083E+01
 2.2396252E+01  2.4201689E+01
 2.2407751E+01  2.4255318E+01
 2.2419250E+01  2.4296865E+01
 2.2430752E+01  2.4329603E+01
 2.2442251E+01  2.4393003E+01
 2.2453751E+01  2.4396984E+01
 2.2465252E+01  2.4380714E+01
 2.2476751E+01  2.4311369E+01
 2.2488251E+01  2.4304129E+01
 2.2499752E+01  2.4353165E+01
 2.2511251E+01  2.4434135E+01
 2.2522751E+01  2.4520958E+01
 2.2534250E+01  2.4520998E+01
 2.2545752E+01  2.4558807E+01
 2.2557251E+01  2.4572142E+01
 2.2568750E+01  2.4588455E+01
 2.2580252E+01  2.4591640E+01
 2.2591751E+01  2.4561150E+01
 2.2603251E+01  2.4557970E+01
 2.2614752E+01  2.4556955E+01
 2.2626251E+01  2.4623112E+01
 2.2637751E+01  2.4677929E+01
 2.2649252E+01  2.4677921E+01
 2.2660751E+01  2.4689196E+01
 2.2672251E+01  2.4701838E+01
 2.2683752E+01  2.4771011E+01
 2.2695251E+01  2.4820089E+01
 2.2706751E+01  2.4874340E+01
 2.2718250E+01  2.4891699E+01
 2.2729752E+01  2.4916693E+01
 2.2741251E+01  2.4908894E+01
 2.2752750E+01  2.4963501E+01
 2.2764252E+01  2.5037943E+01
 2.2775751E+01  2.5069563E+01
 2.2787251E+01  2.5037674E+01
 2.2798752E+01  2.5098518E+01
 2.2810251E+01  2.5181633E+01
 2.2821751E+01  2.5240110E+01
 2.2833252E+01  2.5285538E+01
 2.2844751E+01  2.5347403E+01
 2.2856251E+01  2.5368355E+01
 2.2867750E+01  2.5419104E+01
 2.2879251E+01  2.5422890E+01
 2.2890751E+01  2.5521505E+01
 2.2902250E+01  2.5583576E+01
 2.2913752E+01  2.5711288E+01
 2.2925251E+01  2.5796213E+01
 2.2936750E+01  2.5798012E+01
 2.2948252E+01  2.5769653E+01
 2.2959751E+01  2.5758045E+01
 2.2971251E+01  2.5881048E+01
 2.2982752E+01  2.5986988E+01
 2.2994251E+01  2.6111208E+01
