F:\20151113_APS_34IDE\\Brian\Particle1\OCV\Data_0097.tif
2-Theta Angle (Degrees)
Intensity
       2000
 5.7500005E-03  0.0000000E+00
 1.7250001E-02  0.0000000E+00
 2.8750001E-02  0.0000000E+00
 4.0250003E-02  0.0000000E+00
 5.1750004E-02  0.0000000E+00
 6.3250005E-02  0.0000000E+00
 7.4750006E-02  0.0000000E+00
 8.6250007E-02  0.0000000E+00
 9.7750008E-02  0.0000000E+00
 1.0925001E-01  0.0000000E+00
 1.2075000E-01  0.0000000E+00
 1.3225001E-01  0.0000000E+00
 1.4375001E-01  0.0000000E+00
 1.5525001E-01  0.0000000E+00
 1.6675001E-01  0.0000000E+00
 1.7825001E-01  0.0000000E+00
 1.8975002E-01  0.0000000E+00
 2.0125002E-01  0.0000000E+00
 2.1275002E-01  0.0000000E+00
 2.2425000E-01  0.0000000E+00
 2.3575000E-01  0.0000000E+00
 2.4725001E-01  0.0000000E+00
 2.5875002E-01  0.0000000E+00
 2.7025002E-01  0.0000000E+00
 2.8175002E-01  0.0000000E+00
 2.9325002E-01  0.0000000E+00
 3.0475003E-01  0.0000000E+00
 3.1625003E-01  0.0000000E+00
 3.2775003E-01  0.0000000E+00
 3.3925003E-01  0.0000000E+00
 3.5075003E-01  0.0000000E+00
 3.6225003E-01  0.0000000E+00
 3.7375003E-01  0.0000000E+00
 3.8525003E-01  0.0000000E+00
 3.9675003E-01  0.0000000E+00
 4.0825003E-01  0.0000000E+00
 4.1975003E-01  0.0000000E+00
 4.3125004E-01  0.0000000E+00
 4.4275001E-01  0.0000000E+00
 4.5425001E-01  0.0000000E+00
 4.6575001E-01  0.0000000E+00
 4.7725001E-01  0.0000000E+00
 4.8875001E-01  0.0000000E+00
 5.0025004E-01  0.0000000E+00
 5.1175004E-01  0.0000000E+00
 5.2325004E-01  0.0000000E+00
 5.3475004E-01  0.0000000E+00
 5.4625005E-01  0.0000000E+00
 5.5775005E-01  0.0000000E+00
 5.6925005E-01  0.0000000E+00
 5.8075005E-01  0.0000000E+00
 5.9225005E-01  0.0000000E+00
 6.0375005E-01  0.0000000E+00
 6.1525005E-01  0.0000000E+00
 6.2675005E-01  0.0000000E+00
 6.3825005E-01  0.0000000E+00
 6.4975005E-01  0.0000000E+00
 6.6125005E-01  0.0000000E+00
 6.7275006E-01  0.0000000E+00
 6.8425006E-01  0.0000000E+00
 6.9575006E-01  0.0000000E+00
 7.0725006E-01  0.0000000E+00
 7.1875006E-01  0.0000000E+00
 7.3025006E-01  0.0000000E+00
 7.4175006E-01  0.0000000E+00
 7.5325006E-01  0.0000000E+00
 7.6475006E-01  0.0000000E+00
 7.7625006E-01  0.0000000E+00
 7.8775007E-01  0.0000000E+00
 7.9925007E-01  0.0000000E+00
 8.1075007E-01  0.0000000E+00
 8.2225007E-01  0.0000000E+00
 8.3375007E-01  0.0000000E+00
 8.4525007E-01  0.0000000E+00
 8.5675007E-01  0.0000000E+00
 8.6825007E-01  0.0000000E+00
 8.7975001E-01  0.0000000E+00
 8.9125001E-01  0.0000000E+00
 9.0275002E-01  0.0000000E+00
 9.1425002E-01  0.0000000E+00
 9.2575002E-01  0.0000000E+00
 9.3725002E-01  0.0000000E+00
 9.4875002E-01  0.0000000E+00
 9.6025002E-01  0.0000000E+00
 9.7175002E-01  0.0000000E+00
 9.8325002E-01  0.0000000E+00
 9.9475002E-01  0.0000000E+00
 1.0062500E+00  0.0000000E+00
 1.0177500E+00  0.0000000E+00
 1.0292500E+00  0.0000000E+00
 1.0407500E+00  0.0000000E+00
 1.0522500E+00  0.0000000E+00
 1.0637500E+00  0.0000000E+00
 1.0752500E+00  0.0000000E+00
 1.0867500E+00  0.0000000E+00
 1.0982500E+00  0.0000000E+00
 1.1097500E+00  0.0000000E+00
 1.1212500E+00  0.0000000E+00
 1.1327500E+00  0.0000000E+00
 1.1442500E+00  0.0000000E+00
 1.1557500E+00  0.0000000E+00
 1.1672500E+00  0.0000000E+00
 1.1787500E+00  0.0000000E+00
 1.1902500E+00  0.0000000E+00
 1.2017500E+00  0.0000000E+00
 1.2132500E+00  0.0000000E+00
 1.2247500E+00  0.0000000E+00
 1.2362500E+00  0.0000000E+00
 1.2477500E+00  0.0000000E+00
 1.2592500E+00  0.0000000E+00
 1.2707500E+00  0.0000000E+00
 1.2822500E+00  0.0000000E+00
 1.2937500E+00  0.0000000E+00
 1.3052500E+00  0.0000000E+00
 1.3167500E+00  0.0000000E+00
 1.3282501E+00  0.0000000E+00
 1.3397501E+00  0.0000000E+00
 1.3512501E+00  0.0000000E+00
 1.3627501E+00  0.0000000E+00
 1.3742501E+00  0.0000000E+00
 1.3857501E+00  0.0000000E+00
 1.3972501E+00  0.0000000E+00
 1.4087501E+00  0.0000000E+00
 1.4202501E+00  0.0000000E+00
 1.4317501E+00  0.0000000E+00
 1.4432501E+00  0.0000000E+00
 1.4547501E+00  0.0000000E+00
 1.4662501E+00  0.0000000E+00
 1.4777501E+00  0.0000000E+00
 1.4892501E+00  0.0000000E+00
 1.5007501E+00  0.0000000E+00
 1.5122501E+00  0.0000000E+00
 1.5237501E+00  0.0000000E+00
 1.5352501E+00  0.0000000E+00
 1.5467501E+00  0.0000000E+00
 1.5582501E+00  0.0000000E+00
 1.5697501E+00  0.0000000E+00
 1.5812501E+00  0.0000000E+00
 1.5927501E+00  0.0000000E+00
 1.6042501E+00  0.0000000E+00
 1.6157501E+00  0.0000000E+00
 1.6272501E+00  0.0000000E+00
 1.6387501E+00  0.0000000E+00
 1.6502501E+00  0.0000000E+00
 1.6617501E+00  0.0000000E+00
 1.6732501E+00  0.0000000E+00
 1.6847501E+00  0.0000000E+00
 1.6962501E+00  0.0000000E+00
 1.7077501E+00  0.0000000E+00
 1.7192501E+00  0.0000000E+00
 1.7307501E+00  0.0000000E+00
 1.7422501E+00  0.0000000E+00
 1.7537501E+00  0.0000000E+00
 1.7652501E+00  0.0000000E+00
 1.7767501E+00  0.0000000E+00
 1.7882501E+00  0.0000000E+00
 1.7997501E+00  0.0000000E+00
 1.8112501E+00  0.0000000E+00
 1.8227501E+00  0.0000000E+00
 1.8342501E+00  0.0000000E+00
 1.8457501E+00  0.0000000E+00
 1.8572501E+00  0.0000000E+00
 1.8687501E+00  0.0000000E+00
 1.8802501E+00  0.0000000E+00
 1.8917501E+00  0.0000000E+00
 1.9032501E+00  0.0000000E+00
 1.9147501E+00  0.0000000E+00
 1.9262501E+00  0.0000000E+00
 1.9377501E+00  0.0000000E+00
 1.9492501E+00  0.0000000E+00
 1.9607501E+00  0.0000000E+00
 1.9722501E+00  0.0000000E+00
 1.9837501E+00  0.0000000E+00
 1.9952501E+00  0.0000000E+00
 2.0067501E+00  0.0000000E+00
 2.0182500E+00  0.0000000E+00
 2.0297501E+00  0.0000000E+00
 2.0412500E+00  0.0000000E+00
 2.0527501E+00  0.0000000E+00
 2.0642500E+00  0.0000000E+00
 2.0757501E+00  0.0000000E+00
 2.0872500E+00  0.0000000E+00
 2.0987501E+00  0.0000000E+00
 2.1102500E+00  0.0000000E+00
 2.1217501E+00  0.0000000E+00
 2.1332500E+00  0.0000000E+00
 2.1447501E+00  0.0000000E+00
 2.1562500E+00  0.0000000E+00
 2.1677501E+00  0.0000000E+00
 2.1792500E+00  0.0000000E+00
 2.1907501E+00  0.0000000E+00
 2.2022500E+00  0.0000000E+00
 2.2137501E+00  0.0000000E+00
 2.2252500E+00  0.0000000E+00
 2.2367501E+00  0.0000000E+00
 2.2482500E+00  0.0000000E+00
 2.2597501E+00  0.0000000E+00
 2.2712500E+00  0.0000000E+00
 2.2827501E+00  0.0000000E+00
 2.2942500E+00  0.0000000E+00
 2.3057501E+00  0.0000000E+00
 2.3172500E+00  0.0000000E+00
 2.3287501E+00  0.0000000E+00
 2.3402500E+00  0.0000000E+00
 2.3517501E+00  0.0000000E+00
 2.3632500E+00  0.0000000E+00
 2.3747501E+00  0.0000000E+00
 2.3862500E+00  0.0000000E+00
 2.3977501E+00  0.0000000E+00
 2.4092500E+00  0.0000000E+00
 2.4207501E+00  0.0000000E+00
 2.4322500E+00  0.0000000E+00
 2.4437501E+00  0.0000000E+00
 2.4552500E+00  0.0000000E+00
 2.4667501E+00  0.0000000E+00
 2.4782500E+00  0.0000000E+00
 2.4897501E+00  0.0000000E+00
 2.5012500E+00  0.0000000E+00
 2.5127501E+00  0.0000000E+00
 2.5242500E+00  0.0000000E+00
 2.5357502E+00  0.0000000E+00
 2.5472500E+00  0.0000000E+00
 2.5587502E+00  0.0000000E+00
 2.5702500E+00  0.0000000E+00
 2.5817502E+00  0.0000000E+00
 2.5932500E+00  0.0000000E+00
 2.6047502E+00  0.0000000E+00
 2.6162500E+00  0.0000000E+00
 2.6277502E+00  0.0000000E+00
 2.6392500E+00  0.0000000E+00
 2.6507502E+00  0.0000000E+00
 2.6622500E+00  0.0000000E+00
 2.6737502E+00  0.0000000E+00
 2.6852500E+00  0.0000000E+00
 2.6967502E+00  0.0000000E+00
 2.7082500E+00  0.0000000E+00
 2.7197502E+00  0.0000000E+00
 2.7312500E+00  0.0000000E+00
 2.7427502E+00  0.0000000E+00
 2.7542500E+00  0.0000000E+00
 2.7657502E+00  0.0000000E+00
 2.7772501E+00  0.0000000E+00
 2.7887502E+00  0.0000000E+00
 2.8002501E+00  0.0000000E+00
 2.8117502E+00  0.0000000E+00
 2.8232501E+00  2.7566002E+01
 2.8347502E+00  3.1917309E+01
 2.8462501E+00  3.3298885E+01
 2.8577502E+00  3.4290131E+01
 2.8692501E+00  3.4216740E+01
 2.8807502E+00  3.4284157E+01
 2.8922501E+00  3.3958847E+01
 2.9037502E+00  3.4009972E+01
 2.9152501E+00  3.4319523E+01
 2.9267502E+00  3.4784428E+01
 2.9382501E+00  3.5554665E+01
 2.9497502E+00  3.6186195E+01
 2.9612501E+00  3.6395336E+01
 2.9727502E+00  3.6665459E+01
 2.9842501E+00  3.6514656E+01
 2.9957502E+00  3.6749809E+01
 3.0072501E+00  3.6842205E+01
 3.0187502E+00  3.6811886E+01
 3.0302501E+00  3.6823185E+01
 3.0417502E+00  3.6583244E+01
 3.0532501E+00  3.6500469E+01
 3.0647502E+00  3.6371708E+01
 3.0762501E+00  3.5976086E+01
 3.0877502E+00  3.5736977E+01
 3.0992501E+00  3.5426891E+01
 3.1107502E+00  3.5275715E+01
 3.1222501E+00  3.4928917E+01
 3.1337502E+00  3.4914364E+01
 3.1452501E+00  3.5313732E+01
 3.1567502E+00  3.6276752E+01
 3.1682501E+00  3.6350574E+01
 3.1797502E+00  3.6632732E+01
 3.1912501E+00  3.6217007E+01
 3.2027502E+00  3.6314823E+01
 3.2142501E+00  3.6227947E+01
 3.2257502E+00  3.6560497E+01
 3.2372501E+00  3.6616360E+01
 3.2487502E+00  3.6688107E+01
 3.2602501E+00  3.6487595E+01
 3.2717502E+00  3.6398342E+01
 3.2832501E+00  3.6144184E+01
 3.2947502E+00  3.5678017E+01
 3.3062501E+00  3.5219749E+01
 3.3177502E+00  3.5117821E+01
 3.3292501E+00  3.4841110E+01
 3.3407502E+00  3.4622650E+01
 3.3522501E+00  3.4634338E+01
 3.3637502E+00  3.4509064E+01
 3.3752501E+00  3.4598259E+01
 3.3867502E+00  3.4296944E+01
 3.3982501E+00  3.4235355E+01
 3.4097502E+00  3.3904804E+01
 3.4212501E+00  3.4091892E+01
 3.4327502E+00  3.4020958E+01
 3.4442501E+00  3.4720600E+01
 3.4557502E+00  3.4586033E+01
 3.4672501E+00  3.4904026E+01
 3.4787502E+00  3.4528530E+01
 3.4902501E+00  3.4521408E+01
 3.5017502E+00  3.4270222E+01
 3.5132501E+00  3.4183346E+01
 3.5247502E+00  3.3847092E+01
 3.5362501E+00  3.4078640E+01
 3.5477502E+00  3.4074162E+01
 3.5592501E+00  3.4348530E+01
 3.5707502E+00  3.4362846E+01
 3.5822501E+00  3.4409424E+01
 3.5937502E+00  3.4410465E+01
 3.6052501E+00  3.4334972E+01
 3.6167502E+00  3.4251698E+01
 3.6282501E+00  3.4173965E+01
 3.6397502E+00  3.4044765E+01
 3.6512501E+00  3.3965054E+01
 3.6627502E+00  3.4128956E+01
 3.6742501E+00  3.4082478E+01
 3.6857502E+00  3.4207630E+01
 3.6972501E+00  3.4045628E+01
 3.7087502E+00  3.4032890E+01
 3.7202501E+00  3.3933788E+01
 3.7317502E+00  3.3895973E+01
 3.7432501E+00  3.3873280E+01
 3.7547503E+00  3.3918835E+01
 3.7662501E+00  3.3812519E+01
 3.7777503E+00  3.3827785E+01
 3.7892501E+00  3.3614372E+01
 3.8007503E+00  3.3378933E+01
 3.8122501E+00  3.3318401E+01
 3.8237503E+00  3.3517624E+01
 3.8352501E+00  3.3781445E+01
 3.8467503E+00  3.3730721E+01
 3.8582501E+00  3.3706280E+01
 3.8697503E+00  3.3390396E+01
 3.8812501E+00  3.3429688E+01
 3.8927503E+00  3.3099865E+01
 3.9042501E+00  3.3268276E+01
 3.9157503E+00  3.3242851E+01
 3.9272501E+00  3.3268848E+01
 3.9387503E+00  3.3231083E+01
 3.9502501E+00  3.3027981E+01
 3.9617503E+00  3.2964180E+01
 3.9732502E+00  3.2892853E+01
 3.9847503E+00  3.3024990E+01
 3.9962502E+00  3.3134991E+01
 4.0077500E+00  3.3140507E+01
 4.0192504E+00  3.3104858E+01
 4.0307503E+00  3.3182983E+01
 4.0422502E+00  3.3258102E+01
 4.0537500E+00  3.3379692E+01
 4.0652504E+00  3.3329994E+01
 4.0767503E+00  3.3244949E+01
 4.0882502E+00  3.2938858E+01
 4.0997500E+00  3.2665859E+01
 4.1112504E+00  3.2596451E+01
 4.1227503E+00  3.2501484E+01
 4.1342502E+00  3.2646263E+01
 4.1457500E+00  3.2574081E+01
 4.1572504E+00  3.2506393E+01
 4.1687503E+00  3.2457397E+01
 4.1802502E+00  3.2375763E+01
 4.1917500E+00  3.2602242E+01
 4.2032504E+00  3.2586300E+01
 4.2147503E+00  3.2652802E+01
 4.2262502E+00  3.2579746E+01
 4.2377501E+00  3.2517384E+01
 4.2492504E+00  3.2501652E+01
 4.2607503E+00  3.2527386E+01
 4.2722502E+00  3.2553417E+01
 4.2837501E+00  3.2707611E+01
 4.2952504E+00  3.2713203E+01
 4.3067503E+00  3.2804985E+01
 4.3182502E+00  3.2695408E+01
 4.3297501E+00  3.2751762E+01
 4.3412504E+00  3.2739052E+01
 4.3527503E+00  3.2739620E+01
 4.3642502E+00  3.2731735E+01
 4.3757501E+00  3.2718082E+01
 4.3872504E+00  3.2729752E+01
 4.3987503E+00  3.2636135E+01
 4.4102502E+00  3.2604050E+01
 4.4217501E+00  3.2436581E+01
 4.4332504E+00  3.2563450E+01
 4.4447503E+00  3.2476269E+01
 4.4562502E+00  3.2657684E+01
 4.4677501E+00  3.2658482E+01
 4.4792504E+00  3.2853752E+01
 4.4907503E+00  3.2827652E+01
 4.5022502E+00  3.3025730E+01
 4.5137501E+00  3.3030350E+01
 4.5252504E+00  3.3187267E+01
 4.5367503E+00  3.2995056E+01
 4.5482502E+00  3.2907215E+01
 4.5597501E+00  3.2871101E+01
 4.5712504E+00  3.2995468E+01
 4.5827503E+00  3.3133141E+01
 4.5942502E+00  3.3119068E+01
 4.6057501E+00  3.3194122E+01
 4.6172504E+00  3.3204987E+01
 4.6287503E+00  3.3283157E+01
 4.6402502E+00  3.3302673E+01
 4.6517501E+00  3.3306297E+01
 4.6632504E+00  3.3357498E+01
 4.6747503E+00  3.3345909E+01
 4.6862502E+00  3.3272209E+01
 4.6977501E+00  3.3279369E+01
 4.7092505E+00  3.3397572E+01
 4.7207503E+00  3.3292931E+01
 4.7322502E+00  3.3197304E+01
 4.7437501E+00  3.3020504E+01
 4.7552505E+00  3.2825726E+01
 4.7667503E+00  3.2971024E+01
 4.7782502E+00  3.2915466E+01
 4.7897501E+00  3.3122604E+01
 4.8012505E+00  3.3062599E+01
 4.8127503E+00  3.2999393E+01
 4.8242502E+00  3.3051968E+01
 4.8357501E+00  3.3096443E+01
 4.8472505E+00  3.3178558E+01
 4.8587503E+00  3.3203678E+01
 4.8702502E+00  3.3152004E+01
 4.8817501E+00  3.3147652E+01
 4.8932505E+00  3.3021027E+01
 4.9047503E+00  3.2982285E+01
 4.9162502E+00  3.3027527E+01
 4.9277501E+00  3.2989822E+01
 4.9392505E+00  3.3075359E+01
 4.9507504E+00  3.3038078E+01
 4.9622502E+00  3.3121582E+01
 4.9737501E+00  3.3271069E+01
 4.9852505E+00  3.3418102E+01
 4.9967504E+00  3.3636322E+01
 5.0082502E+00  3.3833546E+01
 5.0197501E+00  3.3965538E+01
 5.0312505E+00  3.4026653E+01
 5.0427504E+00  3.3972145E+01
 5.0542502E+00  3.3899105E+01
 5.0657501E+00  3.3963428E+01
 5.0772505E+00  3.4048988E+01
 5.0887504E+00  3.4094711E+01
 5.1002502E+00  3.4012028E+01
 5.1117501E+00  3.3928196E+01
 5.1232505E+00  3.3836090E+01
 5.1347504E+00  3.3892521E+01
 5.1462502E+00  3.3915913E+01
 5.1577501E+00  3.3969860E+01
 5.1692505E+00  3.4052803E+01
 5.1807504E+00  3.4144753E+01
 5.1922503E+00  3.4418625E+01
 5.2037501E+00  3.4592575E+01
 5.2152505E+00  3.4658916E+01
 5.2267504E+00  3.4599125E+01
 5.2382503E+00  3.4611687E+01
 5.2497501E+00  3.4503799E+01
 5.2612505E+00  3.4525105E+01
 5.2727504E+00  3.4364296E+01
 5.2842503E+00  3.4514038E+01
 5.2957501E+00  3.4609173E+01
 5.3072500E+00  3.4750217E+01
 5.3187504E+00  3.4936111E+01
 5.3302503E+00  3.4992855E+01
 5.3417501E+00  3.5061531E+01
 5.3532500E+00  3.5058102E+01
 5.3647504E+00  3.5035759E+01
 5.3762503E+00  3.5043159E+01
 5.3877501E+00  3.5074848E+01
 5.3992500E+00  3.5038548E+01
 5.4107504E+00  3.4897545E+01
 5.4222503E+00  3.4736851E+01
 5.4337502E+00  3.4546162E+01
 5.4452500E+00  3.4604294E+01
 5.4567504E+00  3.4637268E+01
 5.4682503E+00  3.4896252E+01
 5.4797502E+00  3.5116577E+01
 5.4912500E+00  3.5298805E+01
 5.5027504E+00  3.5422955E+01
 5.5142503E+00  3.5552090E+01
 5.5257502E+00  3.5700977E+01
 5.5372500E+00  3.5693104E+01
 5.5487504E+00  3.5722198E+01
 5.5602503E+00  3.5723637E+01
 5.5717502E+00  3.5746677E+01
 5.5832500E+00  3.5744965E+01
 5.5947504E+00  3.5726627E+01
 5.6062503E+00  3.5718334E+01
 5.6177502E+00  3.5642727E+01
 5.6292500E+00  3.5542927E+01
 5.6407504E+00  3.5876019E+01
 5.6522503E+00  3.5912704E+01
 5.6637502E+00  3.6000362E+01
 5.6752501E+00  3.5740623E+01
 5.6867504E+00  3.5635780E+01
 5.6982503E+00  3.5598160E+01
 5.7097502E+00  3.5551357E+01
 5.7212501E+00  3.5580475E+01
 5.7327504E+00  3.5612965E+01
 5.7442503E+00  3.5642738E+01
 5.7557502E+00  3.5831299E+01
 5.7672501E+00  3.5989712E+01
 5.7787504E+00  3.6096390E+01
 5.7902503E+00  3.6152966E+01
 5.8017502E+00  3.6118172E+01
 5.8132501E+00  3.6188812E+01
 5.8247504E+00  3.6236847E+01
 5.8362503E+00  3.6286465E+01
 5.8477502E+00  3.6354919E+01
 5.8592501E+00  3.6229034E+01
 5.8707504E+00  3.6247250E+01
 5.8822503E+00  3.6316628E+01
 5.8937502E+00  3.6462479E+01
 5.9052501E+00  3.6715099E+01
 5.9167504E+00  3.6933331E+01
 5.9282503E+00  3.7478821E+01
 5.9397502E+00  3.8087543E+01
 5.9512501E+00  3.9301411E+01
 5.9627504E+00  4.0450050E+01
 5.9742503E+00  4.1509190E+01
 5.9857502E+00  4.1634605E+01
 5.9972501E+00  4.1303177E+01
 6.0087504E+00  4.0400280E+01
 6.0202503E+00  3.9615112E+01
 6.0317502E+00  3.8607285E+01
 6.0432501E+00  3.7973495E+01
 6.0547504E+00  3.7338524E+01
 6.0662503E+00  3.7157444E+01
 6.0777502E+00  3.7023846E+01
 6.0892501E+00  3.7035870E+01
 6.1007504E+00  3.7091526E+01
 6.1122503E+00  3.7084942E+01
 6.1237502E+00  3.7042633E+01
 6.1352501E+00  3.6866596E+01
 6.1467505E+00  3.6818127E+01
 6.1582503E+00  3.6865963E+01
 6.1697502E+00  3.7036808E+01
 6.1812501E+00  3.7181488E+01
 6.1927505E+00  3.7280983E+01
 6.2042503E+00  3.7342014E+01
 6.2157502E+00  3.7375381E+01
 6.2272501E+00  3.7427017E+01
 6.2387505E+00  3.7422329E+01
 6.2502503E+00  3.7511532E+01
 6.2617502E+00  3.7582302E+01
 6.2732501E+00  3.7771275E+01
 6.2847505E+00  3.7942017E+01
 6.2962503E+00  3.8061440E+01
 6.3077502E+00  3.8088684E+01
 6.3192501E+00  3.8178230E+01
 6.3307505E+00  3.8272537E+01
 6.3422503E+00  3.8342583E+01
 6.3537502E+00  3.8420139E+01
 6.3652501E+00  3.8521500E+01
 6.3767505E+00  3.8592716E+01
 6.3882504E+00  3.8679688E+01
 6.3997502E+00  3.8664524E+01
 6.4112501E+00  3.8819828E+01
 6.4227505E+00  3.8831905E+01
 6.4342504E+00  3.8923798E+01
 6.4457502E+00  3.8853241E+01
 6.4572501E+00  3.8893204E+01
 6.4687505E+00  3.8994263E+01
 6.4802504E+00  3.9076572E+01
 6.4917502E+00  3.9228500E+01
 6.5032501E+00  3.9298347E+01
 6.5147505E+00  3.9505249E+01
 6.5262504E+00  3.9558292E+01
 6.5377502E+00  3.9679043E+01
 6.5492501E+00  3.9668282E+01
 6.5607505E+00  3.9775078E+01
 6.5722504E+00  3.9720749E+01
 6.5837502E+00  3.9792519E+01
 6.5952501E+00  3.9859848E+01
 6.6067505E+00  4.0036942E+01
 6.6182504E+00  4.0236481E+01
 6.6297503E+00  4.0398979E+01
 6.6412501E+00  4.0556435E+01
 6.6527505E+00  4.0587791E+01
 6.6642504E+00  4.0647839E+01
 6.6757503E+00  4.0567623E+01
 6.6872501E+00  4.0561859E+01
 6.6987505E+00  4.0531994E+01
 6.7102504E+00  4.0563046E+01
 6.7217503E+00  4.0636974E+01
 6.7332501E+00  4.0816338E+01
 6.7447505E+00  4.0929523E+01
 6.7562504E+00  4.1137905E+01
 6.7677503E+00  4.1172741E+01
 6.7792501E+00  4.1322838E+01
 6.7907505E+00  4.1455376E+01
 6.8022504E+00  4.1579708E+01
 6.8137503E+00  4.1708149E+01
 6.8252501E+00  4.1824715E+01
 6.8367505E+00  4.1906948E+01
 6.8482504E+00  4.1979416E+01
 6.8597503E+00  4.2002281E+01
 6.8712502E+00  4.2067600E+01
 6.8827505E+00  4.2211990E+01
 6.8942504E+00  4.2276150E+01
 6.9057503E+00  4.2362789E+01
 6.9172502E+00  4.2454311E+01
 6.9287505E+00  4.2458923E+01
 6.9402504E+00  4.2575230E+01
 6.9517503E+00  4.2616222E+01
 6.9632502E+00  4.2710533E+01
 6.9747505E+00  4.2826775E+01
 6.9862504E+00  4.2887058E+01
 6.9977503E+00  4.3023075E+01
 7.0092502E+00  4.3032066E+01
 7.0207505E+00  4.3087646E+01
 7.0322504E+00  4.3214775E+01
 7.0437503E+00  4.3259346E+01
 7.0552502E+00  4.3220196E+01
 7.0667505E+00  4.3192039E+01
 7.0782504E+00  4.3191242E+01
 7.0897503E+00  4.3323254E+01
 7.1012502E+00  4.3466354E+01
 7.1127505E+00  4.3581799E+01
 7.1242504E+00  4.3779724E+01
 7.1357503E+00  4.3804207E+01
 7.1472502E+00  4.3838631E+01
 7.1587505E+00  4.3730236E+01
 7.1702504E+00  4.3785542E+01
 7.1817503E+00  4.3803936E+01
 7.1932502E+00  4.3998310E+01
 7.2047505E+00  4.3995701E+01
 7.2162504E+00  4.4069771E+01
 7.2277503E+00  4.4009892E+01
 7.2392502E+00  4.4071087E+01
 7.2507505E+00  4.4244968E+01
 7.2622504E+00  4.4300671E+01
 7.2737503E+00  4.4369606E+01
 7.2852502E+00  4.4316040E+01
 7.2967505E+00  4.4331547E+01
 7.3082504E+00  4.4376999E+01
 7.3197503E+00  4.4302162E+01
 7.3312502E+00  4.4481617E+01
 7.3427505E+00  4.4534206E+01
 7.3542504E+00  4.4715050E+01
 7.3657503E+00  4.4755238E+01
 7.3772502E+00  4.4758072E+01
 7.3887506E+00  4.4816921E+01
 7.4002504E+00  4.4850212E+01
 7.4117503E+00  4.4916668E+01
 7.4232502E+00  4.4836735E+01
 7.4347506E+00  4.4655220E+01
 7.4462504E+00  4.4498318E+01
 7.4577503E+00  4.4409840E+01
 7.4692502E+00  4.4337643E+01
 7.4807506E+00  4.4375336E+01
 7.4922504E+00  4.4433151E+01
 7.5037503E+00  4.4527916E+01
 7.5152502E+00  4.4618889E+01
 7.5267506E+00  4.4604115E+01
 7.5382504E+00  4.4774403E+01
 7.5497503E+00  4.4791935E+01
 7.5612502E+00  4.4942211E+01
 7.5727506E+00  4.4947899E+01
 7.5842505E+00  4.4918930E+01
 7.5957503E+00  4.4941544E+01
 7.6072502E+00  4.4934334E+01
 7.6187506E+00  4.4917553E+01
 7.6302505E+00  4.4896347E+01
 7.6417503E+00  4.4840565E+01
 7.6532502E+00  4.4942299E+01
 7.6647506E+00  4.4885612E+01
 7.6762505E+00  4.4954033E+01
 7.6877503E+00  4.4865490E+01
 7.6992502E+00  4.4852234E+01
 7.7107506E+00  4.4824738E+01
 7.7222505E+00  4.4851536E+01
 7.7337503E+00  4.4858700E+01
 7.7452502E+00  4.4772003E+01
 7.7567506E+00  4.4690281E+01
 7.7682505E+00  4.4550159E+01
 7.7797503E+00  4.4490219E+01
 7.7912502E+00  4.4376369E+01
 7.8027506E+00  4.4360970E+01
 7.8142505E+00  4.4411671E+01
 7.8257504E+00  4.4530525E+01
 7.8372502E+00  4.4599728E+01
 7.8487506E+00  4.4595070E+01
 7.8602505E+00  4.4566925E+01
 7.8717504E+00  4.4540462E+01
 7.8832502E+00  4.4434734E+01
 7.8947506E+00  4.4357834E+01
 7.9062505E+00  4.4265301E+01
 7.9177504E+00  4.4306675E+01
 7.9292502E+00  4.4251385E+01
 7.9407506E+00  4.4289032E+01
 7.9522505E+00  4.4215725E+01
 7.9637504E+00  4.4191589E+01
 7.9752502E+00  4.4106834E+01
 7.9867506E+00  4.4046883E+01
 7.9982505E+00  4.3918777E+01
 8.0097504E+00  4.3796715E+01
 8.0212507E+00  4.3687305E+01
 8.0327501E+00  4.3709293E+01
 8.0442505E+00  4.3701473E+01
 8.0557508E+00  4.3709908E+01
 8.0672503E+00  4.3573074E+01
 8.0787506E+00  4.3500332E+01
 8.0902500E+00  4.3413548E+01
 8.1017504E+00  4.3407001E+01
 8.1132507E+00  4.3379555E+01
 8.1247501E+00  4.3231419E+01
 8.1362505E+00  4.3090214E+01
 8.1477509E+00  4.2870926E+01
 8.1592503E+00  4.2773041E+01
 8.1707506E+00  4.2636955E+01
 8.1822500E+00  4.2521946E+01
 8.1937504E+00  4.2449089E+01
 8.2052507E+00  4.2362556E+01
 8.2167501E+00  4.2295746E+01
 8.2282505E+00  4.2128788E+01
 8.2397509E+00  4.2023026E+01
 8.2512503E+00  4.1799210E+01
 8.2627506E+00  4.1598396E+01
 8.2742500E+00  4.1326851E+01
 8.2857504E+00  4.1120258E+01
 8.2972507E+00  4.0975452E+01
 8.3087502E+00  4.0878624E+01
 8.3202505E+00  4.0801926E+01
 8.3317509E+00  4.0756367E+01
 8.3432503E+00  4.0661804E+01
 8.3547506E+00  4.0545929E+01
 8.3662500E+00  4.0370491E+01
 8.3777504E+00  4.0051128E+01
 8.3892508E+00  3.9866829E+01
 8.4007502E+00  3.9544067E+01
 8.4122505E+00  3.9409634E+01
 8.4237509E+00  3.9211403E+01
 8.4352503E+00  3.9091877E+01
 8.4467506E+00  3.9027187E+01
 8.4582500E+00  3.8909920E+01
 8.4697504E+00  3.8823040E+01
 8.4812508E+00  3.8597340E+01
 8.4927502E+00  3.8415291E+01
 8.5042505E+00  3.8301517E+01
 8.5157509E+00  3.8257427E+01
 8.5272503E+00  3.8128548E+01
 8.5387506E+00  3.7979706E+01
 8.5502501E+00  3.7696716E+01
 8.5617504E+00  3.7438618E+01
 8.5732508E+00  3.7156136E+01
 8.5847502E+00  3.6838497E+01
 8.5962505E+00  3.6640350E+01
 8.6077509E+00  3.6465782E+01
 8.6192503E+00  3.6353054E+01
 8.6307507E+00  3.6228676E+01
 8.6422501E+00  3.6088409E+01
 8.6537504E+00  3.5921715E+01
 8.6652508E+00  3.5767536E+01
 8.6767502E+00  3.5605015E+01
 8.6882505E+00  3.5499096E+01
 8.6997509E+00  3.5410625E+01
 8.7112503E+00  3.5178455E+01
 8.7227507E+00  3.4994766E+01
 8.7342501E+00  3.4634426E+01
 8.7457504E+00  3.4394318E+01
 8.7572508E+00  3.4179119E+01
 8.7687502E+00  3.3961365E+01
 8.7802505E+00  3.3798550E+01
 8.7917500E+00  3.3548386E+01
 8.8032503E+00  3.3411991E+01
 8.8147507E+00  3.3274837E+01
 8.8262501E+00  3.3191792E+01
 8.8377504E+00  3.3092831E+01
 8.8492508E+00  3.2896000E+01
 8.8607502E+00  3.2738716E+01
 8.8722506E+00  3.2595852E+01
 8.8837500E+00  3.2501923E+01
 8.8952503E+00  3.2346436E+01
 8.9067507E+00  3.2248276E+01
 8.9182501E+00  3.2132977E+01
 8.9297504E+00  3.1915461E+01
 8.9412508E+00  3.1662676E+01
 8.9527502E+00  3.1409456E+01
 8.9642506E+00  3.1228886E+01
 8.9757500E+00  3.1090286E+01
 8.9872503E+00  3.1029316E+01
 8.9987507E+00  3.0913115E+01
 9.0102501E+00  3.0763424E+01
 9.0217505E+00  3.0504196E+01
 9.0332508E+00  3.0362432E+01
 9.0447502E+00  3.0247154E+01
 9.0562506E+00  3.0099197E+01
 9.0677500E+00  3.0025585E+01
 9.0792503E+00  2.9913328E+01
 9.0907507E+00  2.9819427E+01
 9.1022501E+00  2.9653643E+01
 9.1137505E+00  2.9516306E+01
 9.1252508E+00  2.9400000E+01
 9.1367502E+00  2.9317627E+01
 9.1482506E+00  2.9209082E+01
 9.1597500E+00  2.9158167E+01
 9.1712503E+00  2.9025867E+01
 9.1827507E+00  2.8854046E+01
 9.1942501E+00  2.8714077E+01
 9.2057505E+00  2.8547094E+01
 9.2172508E+00  2.8458172E+01
 9.2287502E+00  2.8278688E+01
 9.2402506E+00  2.8147017E+01
 9.2517500E+00  2.8035769E+01
 9.2632504E+00  2.7947123E+01
 9.2747507E+00  2.7935669E+01
 9.2862501E+00  2.7868731E+01
 9.2977505E+00  2.7805044E+01
 9.3092508E+00  2.7725046E+01
 9.3207502E+00  2.7640654E+01
 9.3322506E+00  2.7570360E+01
 9.3437500E+00  2.7493591E+01
 9.3552504E+00  2.7403971E+01
 9.3667507E+00  2.7367300E+01
 9.3782501E+00  2.7269487E+01
 9.3897505E+00  2.7158890E+01
 9.4012508E+00  2.7044493E+01
 9.4127502E+00  2.6939133E+01
 9.4242506E+00  2.6883741E+01
 9.4357500E+00  2.6812155E+01
 9.4472504E+00  2.6717600E+01
 9.4587507E+00  2.6647100E+01
 9.4702501E+00  2.6575222E+01
 9.4817505E+00  2.6568033E+01
 9.4932508E+00  2.6481182E+01
 9.5047503E+00  2.6409887E+01
 9.5162506E+00  2.6329100E+01
 9.5277500E+00  2.6288019E+01
 9.5392504E+00  2.6245287E+01
 9.5507507E+00  2.6172819E+01
 9.5622501E+00  2.6153784E+01
 9.5737505E+00  2.6063385E+01
 9.5852509E+00  2.5983067E+01
 9.5967503E+00  2.5881899E+01
 9.6082506E+00  2.5792553E+01
 9.6197500E+00  2.5786331E+01
 9.6312504E+00  2.5727989E+01
 9.6427507E+00  2.5679728E+01
 9.6542501E+00  2.5589554E+01
 9.6657505E+00  2.5429501E+01
 9.6772509E+00  2.5325155E+01
 9.6887503E+00  2.5194763E+01
 9.7002506E+00  2.5184542E+01
 9.7117500E+00  2.5157848E+01
 9.7232504E+00  2.5165800E+01
 9.7347507E+00  2.5153627E+01
 9.7462502E+00  2.5189548E+01
 9.7577505E+00  2.5215372E+01
 9.7692509E+00  2.5257006E+01
 9.7807503E+00  2.5221626E+01
 9.7922506E+00  2.5205528E+01
 9.8037500E+00  2.5149385E+01
 9.8152504E+00  2.5046911E+01
 9.8267508E+00  2.4939098E+01
 9.8382502E+00  2.4895651E+01
 9.8497505E+00  2.4868046E+01
 9.8612509E+00  2.4838850E+01
 9.8727503E+00  2.4720890E+01
 9.8842506E+00  2.4652321E+01
 9.8957500E+00  2.4582720E+01
 9.9072504E+00  2.4541042E+01
 9.9187508E+00  2.4540779E+01
 9.9302502E+00  2.4511736E+01
 9.9417505E+00  2.4489922E+01
 9.9532509E+00  2.4398724E+01
 9.9647503E+00  2.4317787E+01
 9.9762506E+00  2.4288994E+01
 9.9877501E+00  2.4290133E+01
 9.9992504E+00  2.4295372E+01
 1.0010751E+01  2.4302973E+01
 1.0022250E+01  2.4292269E+01
 1.0033751E+01  2.4245459E+01
 1.0045251E+01  2.4158192E+01
 1.0056750E+01  2.4066168E+01
 1.0068251E+01  2.4017410E+01
 1.0079750E+01  2.3933992E+01
 1.0091250E+01  2.3901558E+01
 1.0102751E+01  2.3860573E+01
 1.0114250E+01  2.3855629E+01
 1.0125751E+01  2.3837090E+01
 1.0137251E+01  2.3797354E+01
 1.0148750E+01  2.3783722E+01
 1.0160251E+01  2.3737186E+01
 1.0171750E+01  2.3685152E+01
 1.0183250E+01  2.3671627E+01
 1.0194751E+01  2.3674704E+01
 1.0206250E+01  2.3758049E+01
 1.0217751E+01  2.3804380E+01
 1.0229251E+01  2.3791868E+01
 1.0240750E+01  2.3799149E+01
 1.0252251E+01  2.3702837E+01
 1.0263750E+01  2.3673880E+01
 1.0275250E+01  2.3603647E+01
 1.0286751E+01  2.3634249E+01
 1.0298250E+01  2.3688183E+01
 1.0309751E+01  2.3679312E+01
 1.0321251E+01  2.3669127E+01
 1.0332750E+01  2.3558872E+01
 1.0344251E+01  2.3469162E+01
 1.0355750E+01  2.3373508E+01
 1.0367250E+01  2.3356668E+01
 1.0378751E+01  2.3365255E+01
 1.0390250E+01  2.3391697E+01
 1.0401751E+01  2.3376934E+01
 1.0413251E+01  2.3317390E+01
 1.0424750E+01  2.3242517E+01
 1.0436251E+01  2.3170212E+01
 1.0447750E+01  2.3176628E+01
 1.0459250E+01  2.3180836E+01
 1.0470751E+01  2.3226625E+01
 1.0482250E+01  2.3253166E+01
 1.0493751E+01  2.3264992E+01
 1.0505251E+01  2.3277834E+01
 1.0516750E+01  2.3297901E+01
 1.0528251E+01  2.3252893E+01
 1.0539750E+01  2.3210039E+01
 1.0551250E+01  2.3136671E+01
 1.0562751E+01  2.3115755E+01
 1.0574250E+01  2.3038046E+01
 1.0585751E+01  2.2989315E+01
 1.0597251E+01  2.2930290E+01
 1.0608750E+01  2.2893909E+01
 1.0620251E+01  2.2844118E+01
 1.0631750E+01  2.2805319E+01
 1.0643250E+01  2.2809639E+01
 1.0654751E+01  2.2819313E+01
 1.0666250E+01  2.2862467E+01
 1.0677751E+01  2.2873833E+01
 1.0689251E+01  2.2879128E+01
 1.0700750E+01  2.2828495E+01
 1.0712251E+01  2.2807756E+01
 1.0723750E+01  2.2809813E+01
 1.0735250E+01  2.2800682E+01
 1.0746751E+01  2.2832926E+01
 1.0758250E+01  2.2791420E+01
 1.0769751E+01  2.2798155E+01
 1.0781251E+01  2.2761105E+01
 1.0792750E+01  2.2726896E+01
 1.0804251E+01  2.2722233E+01
 1.0815750E+01  2.2719965E+01
 1.0827250E+01  2.2759809E+01
 1.0838751E+01  2.2731688E+01
 1.0850250E+01  2.2715979E+01
 1.0861751E+01  2.2708263E+01
 1.0873251E+01  2.2752010E+01
 1.0884750E+01  2.2707033E+01
 1.0896251E+01  2.2613901E+01
 1.0907750E+01  2.2587469E+01
 1.0919250E+01  2.2571476E+01
 1.0930751E+01  2.2633436E+01
 1.0942250E+01  2.2648188E+01
 1.0953751E+01  2.2637482E+01
 1.0965251E+01  2.2576939E+01
 1.0976750E+01  2.2457937E+01
 1.0988251E+01  2.2418222E+01
 1.0999750E+01  2.2418028E+01
 1.1011250E+01  2.2418186E+01
 1.1022751E+01  2.2443361E+01
 1.1034250E+01  2.2485479E+01
 1.1045751E+01  2.2553173E+01
 1.1057251E+01  2.2545494E+01
 1.1068750E+01  2.2588324E+01
 1.1080251E+01  2.2601635E+01
 1.1091750E+01  2.2655375E+01
 1.1103251E+01  2.2603933E+01
 1.1114751E+01  2.2594894E+01
 1.1126250E+01  2.2582664E+01
 1.1137751E+01  2.2607868E+01
 1.1149251E+01  2.2621346E+01
 1.1160750E+01  2.2599340E+01
 1.1172251E+01  2.2547207E+01
 1.1183750E+01  2.2468216E+01
 1.1195251E+01  2.2408489E+01
 1.1206751E+01  2.2365288E+01
 1.1218250E+01  2.2277712E+01
 1.1229751E+01  2.2221811E+01
 1.1241251E+01  2.2218477E+01
 1.1252750E+01  2.2199593E+01
 1.1264251E+01  2.2211111E+01
 1.1275750E+01  2.2181620E+01
 1.1287251E+01  2.2222500E+01
 1.1298751E+01  2.2308176E+01
 1.1310250E+01  2.2372519E+01
 1.1321751E+01  2.2413788E+01
 1.1333251E+01  2.2398052E+01
 1.1344750E+01  2.2412540E+01
 1.1356251E+01  2.2443644E+01
 1.1367750E+01  2.2534531E+01
 1.1379251E+01  2.2513739E+01
 1.1390751E+01  2.2564463E+01
 1.1402250E+01  2.2621380E+01
 1.1413751E+01  2.2632326E+01
 1.1425251E+01  2.2623127E+01
 1.1436750E+01  2.2587086E+01
 1.1448251E+01  2.2646456E+01
 1.1459750E+01  2.2721197E+01
 1.1471251E+01  2.2717884E+01
 1.1482751E+01  2.2753092E+01
 1.1494250E+01  2.2775375E+01
 1.1505751E+01  2.2839308E+01
 1.1517251E+01  2.3045465E+01
 1.1528750E+01  2.3442738E+01
 1.1540251E+01  2.4010080E+01
 1.1551750E+01  2.4626202E+01
 1.1563251E+01  2.5579098E+01
 1.1574751E+01  2.6082172E+01
 1.1586250E+01  2.6793282E+01
 1.1597751E+01  2.6436441E+01
 1.1609251E+01  2.6301266E+01
 1.1620750E+01  2.5306339E+01
 1.1632251E+01  2.4725286E+01
 1.1643750E+01  2.3873159E+01
 1.1655251E+01  2.3406260E+01
 1.1666751E+01  2.2958323E+01
 1.1678250E+01  2.2771732E+01
 1.1689751E+01  2.2598068E+01
 1.1701251E+01  2.2514105E+01
 1.1712750E+01  2.2454620E+01
 1.1724251E+01  2.2469816E+01
 1.1735750E+01  2.2479240E+01
 1.1747251E+01  2.2457050E+01
 1.1758751E+01  2.2397442E+01
 1.1770250E+01  2.2318714E+01
 1.1781751E+01  2.2309252E+01
 1.1793251E+01  2.2337574E+01
 1.1804750E+01  2.2374191E+01
 1.1816251E+01  2.2429375E+01
 1.1827750E+01  2.2415777E+01
 1.1839251E+01  2.2396738E+01
 1.1850751E+01  2.2334982E+01
 1.1862250E+01  2.2347343E+01
 1.1873751E+01  2.2346178E+01
 1.1885251E+01  2.2325521E+01
 1.1896750E+01  2.2342163E+01
 1.1908251E+01  2.2347536E+01
 1.1919750E+01  2.2427773E+01
 1.1931251E+01  2.2468328E+01
 1.1942751E+01  2.2566206E+01
 1.1954250E+01  2.2697515E+01
 1.1965751E+01  2.2739342E+01
 1.1977251E+01  2.2724527E+01
 1.1988750E+01  2.2644133E+01
 1.2000251E+01  2.2596043E+01
 1.2011750E+01  2.2577425E+01
 1.2023251E+01  2.2567642E+01
 1.2034751E+01  2.2606091E+01
 1.2046250E+01  2.2672325E+01
 1.2057751E+01  2.2765194E+01
 1.2069251E+01  2.2898119E+01
 1.2080750E+01  2.3105642E+01
 1.2092251E+01  2.3216675E+01
 1.2103750E+01  2.3485966E+01
 1.2115251E+01  2.3420593E+01
 1.2126751E+01  2.3489412E+01
 1.2138250E+01  2.3177067E+01
 1.2149751E+01  2.3141232E+01
 1.2161251E+01  2.2889582E+01
 1.2172750E+01  2.2786360E+01
 1.2184251E+01  2.2628355E+01
 1.2195750E+01  2.2620186E+01
 1.2207251E+01  2.2563395E+01
 1.2218751E+01  2.2523298E+01
 1.2230250E+01  2.2424345E+01
 1.2241751E+01  2.2334969E+01
 1.2253251E+01  2.2246065E+01
 1.2264750E+01  2.2201092E+01
 1.2276251E+01  2.2204496E+01
 1.2287750E+01  2.2272186E+01
 1.2299251E+01  2.2326401E+01
 1.2310751E+01  2.2428516E+01
 1.2322250E+01  2.2464777E+01
 1.2333751E+01  2.2494146E+01
 1.2345250E+01  2.2476524E+01
 1.2356750E+01  2.2419142E+01
 1.2368251E+01  2.2407084E+01
 1.2379750E+01  2.2419426E+01
 1.2391251E+01  2.2472097E+01
 1.2402751E+01  2.2501381E+01
 1.2414250E+01  2.2480776E+01
 1.2425751E+01  2.2475559E+01
 1.2437250E+01  2.2489054E+01
 1.2448750E+01  2.2531080E+01
 1.2460251E+01  2.2560211E+01
 1.2471750E+01  2.2607458E+01
 1.2483251E+01  2.2662434E+01
 1.2494751E+01  2.2673611E+01
 1.2506250E+01  2.2637207E+01
 1.2517751E+01  2.2588007E+01
 1.2529250E+01  2.2614065E+01
 1.2540751E+01  2.2615509E+01
 1.2552251E+01  2.2653013E+01
 1.2563750E+01  2.2591738E+01
 1.2575251E+01  2.2587984E+01
 1.2586751E+01  2.2540966E+01
 1.2598250E+01  2.2562813E+01
 1.2609751E+01  2.2597334E+01
 1.2621250E+01  2.2652889E+01
 1.2632751E+01  2.2759743E+01
 1.2644251E+01  2.2777422E+01
 1.2655750E+01  2.2817253E+01
 1.2667251E+01  2.2841261E+01
 1.2678751E+01  2.2867474E+01
 1.2690250E+01  2.2919083E+01
 1.2701751E+01  2.2886314E+01
 1.2713250E+01  2.2954201E+01
 1.2724751E+01  2.2977314E+01
 1.2736251E+01  2.3082071E+01
 1.2747750E+01  2.3132385E+01
 1.2759251E+01  2.3178532E+01
 1.2770751E+01  2.3159874E+01
 1.2782250E+01  2.3161652E+01
 1.2793751E+01  2.3086102E+01
 1.2805250E+01  2.3051983E+01
 1.2816751E+01  2.3061720E+01
 1.2828251E+01  2.3117451E+01
 1.2839750E+01  2.3174614E+01
 1.2851251E+01  2.3263090E+01
 1.2862751E+01  2.3305256E+01
 1.2874250E+01  2.3366112E+01
 1.2885751E+01  2.3335222E+01
 1.2897250E+01  2.3401554E+01
 1.2908751E+01  2.3498085E+01
 1.2920251E+01  2.3550686E+01
 1.2931750E+01  2.3605406E+01
 1.2943251E+01  2.3618483E+01
 1.2954751E+01  2.3643999E+01
 1.2966250E+01  2.3706833E+01
 1.2977751E+01  2.3787601E+01
 1.2989250E+01  2.3923521E+01
 1.3000751E+01  2.3995195E+01
 1.3012251E+01  2.4063004E+01
 1.3023750E+01  2.4041018E+01
 1.3035251E+01  2.4086359E+01
 1.3046751E+01  2.4078098E+01
 1.3058250E+01  2.4182535E+01
 1.3069751E+01  2.4219975E+01
 1.3081250E+01  2.4336657E+01
 1.3092751E+01  2.4493351E+01
 1.3104251E+01  2.4745018E+01
 1.3115750E+01  2.4957127E+01
 1.3127251E+01  2.5136671E+01
 1.3138751E+01  2.5220701E+01
 1.3150250E+01  2.5343988E+01
 1.3161751E+01  2.5375563E+01
 1.3173250E+01  2.5385609E+01
 1.3184751E+01  2.5380571E+01
 1.3196251E+01  2.5504002E+01
 1.3207750E+01  2.5685619E+01
 1.3219251E+01  2.5903950E+01
 1.3230751E+01  2.6089415E+01
 1.3242250E+01  2.6317144E+01
 1.3253751E+01  2.6412495E+01
 1.3265250E+01  2.6553123E+01
 1.3276751E+01  2.6611717E+01
 1.3288251E+01  2.6798298E+01
 1.3299750E+01  2.6933277E+01
 1.3311251E+01  2.7060770E+01
 1.3322751E+01  2.7214918E+01
 1.3334250E+01  2.7339817E+01
 1.3345751E+01  2.7520971E+01
 1.3357250E+01  2.7681328E+01
 1.3368751E+01  2.7813568E+01
 1.3380251E+01  2.7987194E+01
 1.3391750E+01  2.8102133E+01
 1.3403251E+01  2.8275969E+01
 1.3414751E+01  2.8347351E+01
 1.3426250E+01  2.8437229E+01
 1.3437751E+01  2.8500893E+01
 1.3449250E+01  2.8652645E+01
 1.3460751E+01  2.8753801E+01
 1.3472251E+01  2.8881145E+01
 1.3483750E+01  2.9013945E+01
 1.3495251E+01  2.9147831E+01
 1.3506751E+01  2.9250961E+01
 1.3518250E+01  2.9320509E+01
 1.3529751E+01  2.9438772E+01
 1.3541250E+01  2.9554489E+01
 1.3552751E+01  2.9657202E+01
 1.3564251E+01  2.9789934E+01
 1.3575750E+01  2.9961308E+01
 1.3587251E+01  3.0029404E+01
 1.3598751E+01  3.0020950E+01
 1.3610250E+01  2.9940229E+01
 1.3621751E+01  2.9908554E+01
 1.3633250E+01  2.9888807E+01
 1.3644751E+01  2.9838272E+01
 1.3656251E+01  2.9808922E+01
 1.3667750E+01  2.9802492E+01
 1.3679251E+01  2.9798634E+01
 1.3690751E+01  2.9843443E+01
 1.3702250E+01  2.9802528E+01
 1.3713751E+01  2.9815157E+01
 1.3725250E+01  2.9784147E+01
 1.3736751E+01  2.9864197E+01
 1.3748251E+01  2.9933792E+01
 1.3759750E+01  2.9933184E+01
 1.3771251E+01  2.9910238E+01
 1.3782751E+01  2.9873528E+01
 1.3794250E+01  2.9863510E+01
 1.3805751E+01  2.9835629E+01
 1.3817250E+01  2.9893293E+01
 1.3828751E+01  2.9982546E+01
 1.3840251E+01  3.0233988E+01
 1.3851750E+01  3.0486383E+01
 1.3863251E+01  3.1064613E+01
 1.3874751E+01  3.1896929E+01
 1.3886250E+01  3.3318104E+01
 1.3897751E+01  3.5663422E+01
 1.3909250E+01  3.8560150E+01
 1.3920751E+01  4.1825535E+01
 1.3932251E+01  4.5399849E+01
 1.3943750E+01  4.7540516E+01
 1.3955251E+01  4.9299809E+01
 1.3966751E+01  4.8356869E+01
 1.3978251E+01  4.6571877E+01
 1.3989751E+01  4.2690292E+01
 1.4001250E+01  3.9304855E+01
 1.4012751E+01  3.5695858E+01
 1.4024251E+01  3.3091099E+01
 1.4035750E+01  3.1159740E+01
 1.4047251E+01  2.9855364E+01
 1.4058751E+01  2.9169142E+01
 1.4070251E+01  2.8639740E+01
 1.4081751E+01  2.8327248E+01
 1.4093250E+01  2.8134871E+01
 1.4104751E+01  2.7968212E+01
 1.4116251E+01  2.7852880E+01
 1.4127750E+01  2.7722937E+01
 1.4139251E+01  2.7621862E+01
 1.4150751E+01  2.7456209E+01
 1.4162251E+01  2.7340525E+01
 1.4173751E+01  2.7098368E+01
 1.4185250E+01  2.7020828E+01
 1.4196751E+01  2.6871244E+01
 1.4208251E+01  2.6858057E+01
 1.4219750E+01  2.6777233E+01
 1.4231251E+01  2.6718624E+01
 1.4242751E+01  2.6712194E+01
 1.4254251E+01  2.6691507E+01
 1.4265751E+01  2.6676989E+01
 1.4277250E+01  2.6594183E+01
 1.4288751E+01  2.6519817E+01
 1.4300251E+01  2.6450352E+01
 1.4311750E+01  2.6423170E+01
 1.4323251E+01  2.6310816E+01
 1.4334751E+01  2.6242649E+01
 1.4346251E+01  2.6161880E+01
 1.4357751E+01  2.6127474E+01
 1.4369250E+01  2.6135731E+01
 1.4380751E+01  2.6096195E+01
 1.4392251E+01  2.6126013E+01
 1.4403750E+01  2.6046457E+01
 1.4415251E+01  2.6000717E+01
 1.4426751E+01  2.5920376E+01
 1.4438251E+01  2.5835236E+01
 1.4449751E+01  2.5784702E+01
 1.4461250E+01  2.5716904E+01
 1.4472751E+01  2.5690567E+01
 1.4484251E+01  2.5678371E+01
 1.4495750E+01  2.5693407E+01
 1.4507251E+01  2.5688253E+01
 1.4518751E+01  2.5652267E+01
 1.4530251E+01  2.5657103E+01
 1.4541751E+01  2.5650410E+01
 1.4553250E+01  2.5653406E+01
 1.4564751E+01  2.5647242E+01
 1.4576251E+01  2.5633421E+01
 1.4587750E+01  2.5544809E+01
 1.4599251E+01  2.5388546E+01
 1.4610751E+01  2.5281225E+01
 1.4622251E+01  2.5211506E+01
 1.4633751E+01  2.5188463E+01
 1.4645250E+01  2.5187807E+01
 1.4656751E+01  2.5180895E+01
 1.4668251E+01  2.5156332E+01
 1.4679750E+01  2.5141531E+01
 1.4691251E+01  2.5132551E+01
 1.4702751E+01  2.5167824E+01
 1.4714251E+01  2.5139832E+01
 1.4725751E+01  2.5134201E+01
 1.4737250E+01  2.5109447E+01
 1.4748751E+01  2.5071074E+01
 1.4760251E+01  2.5065794E+01
 1.4771750E+01  2.5039082E+01
 1.4783251E+01  2.5040369E+01
 1.4794751E+01  2.5024105E+01
 1.4806251E+01  2.5020596E+01
 1.4817751E+01  2.5001705E+01
 1.4829250E+01  2.4993141E+01
 1.4840751E+01  2.5010393E+01
 1.4852251E+01  2.5029823E+01
 1.4863750E+01  2.4993311E+01
 1.4875251E+01  2.4952793E+01
 1.4886751E+01  2.4915670E+01
 1.4898251E+01  2.4923075E+01
 1.4909751E+01  2.4939590E+01
 1.4921250E+01  2.4888588E+01
 1.4932751E+01  2.4865940E+01
 1.4944251E+01  2.4806044E+01
 1.4955750E+01  2.4817417E+01
 1.4967251E+01  2.4833546E+01
 1.4978751E+01  2.4860319E+01
 1.4990251E+01  2.4918995E+01
 1.5001751E+01  2.4921968E+01
 1.5013250E+01  2.4943737E+01
 1.5024751E+01  2.4957254E+01
 1.5036251E+01  2.4919363E+01
 1.5047750E+01  2.4874191E+01
 1.5059251E+01  2.4844248E+01
 1.5070751E+01  2.4859146E+01
 1.5082251E+01  2.4869917E+01
 1.5093751E+01  2.4826090E+01
 1.5105250E+01  2.4836815E+01
 1.5116751E+01  2.4851120E+01
 1.5128251E+01  2.4873552E+01
 1.5139750E+01  2.4913145E+01
 1.5151251E+01  2.5010035E+01
 1.5162751E+01  2.5135813E+01
 1.5174251E+01  2.5259686E+01
 1.5185751E+01  2.5358084E+01
 1.5197250E+01  2.5447659E+01
 1.5208751E+01  2.5450537E+01
 1.5220251E+01  2.5371655E+01
 1.5231750E+01  2.5229155E+01
 1.5243251E+01  2.5064426E+01
 1.5254751E+01  2.4939259E+01
 1.5266251E+01  2.4806221E+01
 1.5277751E+01  2.4720100E+01
 1.5289250E+01  2.4661303E+01
 1.5300751E+01  2.4580385E+01
 1.5312251E+01  2.4561575E+01
 1.5323750E+01  2.4506636E+01
 1.5335251E+01  2.4573154E+01
 1.5346751E+01  2.4546791E+01
 1.5358251E+01  2.4612143E+01
 1.5369751E+01  2.4598555E+01
 1.5381250E+01  2.4601208E+01
 1.5392751E+01  2.4571400E+01
 1.5404251E+01  2.4571955E+01
 1.5415751E+01  2.4570570E+01
 1.5427251E+01  2.4529512E+01
 1.5438751E+01  2.4471601E+01
 1.5450251E+01  2.4442041E+01
 1.5461751E+01  2.4422611E+01
 1.5473250E+01  2.4416826E+01
 1.5484751E+01  2.4429388E+01
 1.5496251E+01  2.4409805E+01
 1.5507751E+01  2.4455818E+01
 1.5519251E+01  2.4473143E+01
 1.5530751E+01  2.4531584E+01
 1.5542251E+01  2.4525330E+01
 1.5553751E+01  2.4555056E+01
 1.5565250E+01  2.4554771E+01
 1.5576751E+01  2.4541624E+01
 1.5588251E+01  2.4480230E+01
 1.5599751E+01  2.4428387E+01
 1.5611251E+01  2.4439688E+01
 1.5622751E+01  2.4460405E+01
 1.5634251E+01  2.4507925E+01
 1.5645751E+01  2.4540012E+01
 1.5657250E+01  2.4561249E+01
 1.5668751E+01  2.4569416E+01
 1.5680251E+01  2.4539951E+01
 1.5691751E+01  2.4507414E+01
 1.5703251E+01  2.4500566E+01
 1.5714751E+01  2.4489603E+01
 1.5726251E+01  2.4540745E+01
 1.5737751E+01  2.4547056E+01
 1.5749250E+01  2.4615320E+01
 1.5760751E+01  2.4664146E+01
 1.5772251E+01  2.4707855E+01
 1.5783751E+01  2.4705624E+01
 1.5795251E+01  2.4675827E+01
 1.5806751E+01  2.4687170E+01
 1.5818251E+01  2.4676313E+01
 1.5829751E+01  2.4643717E+01
 1.5841250E+01  2.4565960E+01
 1.5852751E+01  2.4507277E+01
 1.5864251E+01  2.4449041E+01
 1.5875751E+01  2.4466370E+01
 1.5887251E+01  2.4516350E+01
 1.5898750E+01  2.4561001E+01
 1.5910251E+01  2.4601980E+01
 1.5921751E+01  2.4575016E+01
 1.5933250E+01  2.4549469E+01
 1.5944751E+01  2.4453566E+01
 1.5956251E+01  2.4411198E+01
 1.5967751E+01  2.4457863E+01
 1.5979251E+01  2.4485472E+01
 1.5990750E+01  2.4588617E+01
 1.6002251E+01  2.4622986E+01
 1.6013750E+01  2.4681293E+01
 1.6025251E+01  2.4678238E+01
 1.6036751E+01  2.4647388E+01
 1.6048250E+01  2.4649591E+01
 1.6059752E+01  2.4657351E+01
 1.6071251E+01  2.4676420E+01
 1.6082750E+01  2.4680593E+01
 1.6094252E+01  2.4667627E+01
 1.6105751E+01  2.4670990E+01
 1.6117250E+01  2.4690195E+01
 1.6128750E+01  2.4677855E+01
 1.6140251E+01  2.4756647E+01
 1.6151751E+01  2.4786932E+01
 1.6163250E+01  2.4893045E+01
 1.6174751E+01  2.4822235E+01
 1.6186251E+01  2.4858980E+01
 1.6197750E+01  2.4769907E+01
 1.6209251E+01  2.4911394E+01
 1.6220751E+01  2.4872444E+01
 1.6232250E+01  2.5076044E+01
 1.6243752E+01  2.5160818E+01
 1.6255251E+01  2.5297583E+01
 1.6266750E+01  2.5368229E+01
 1.6278252E+01  2.5252165E+01
 1.6289751E+01  2.5367577E+01
 1.6301250E+01  2.5069860E+01
 1.6312750E+01  2.5113125E+01
 1.6324251E+01  2.4804899E+01
 1.6335751E+01  2.4869425E+01
 1.6347250E+01  2.4731535E+01
 1.6358751E+01  2.4728722E+01
 1.6370251E+01  2.4618553E+01
 1.6381750E+01  2.4595819E+01
 1.6393251E+01  2.4607130E+01
 1.6404751E+01  2.4630621E+01
 1.6416250E+01  2.4673550E+01
 1.6427752E+01  2.4671473E+01
 1.6439251E+01  2.4668007E+01
 1.6450750E+01  2.4613974E+01
 1.6462252E+01  2.4582167E+01
 1.6473751E+01  2.4581526E+01
 1.6485250E+01  2.4634541E+01
 1.6496750E+01  2.4683889E+01
 1.6508251E+01  2.4705090E+01
 1.6519751E+01  2.4680584E+01
 1.6531250E+01  2.4603237E+01
 1.6542751E+01  2.4571728E+01
 1.6554251E+01  2.4501852E+01
 1.6565750E+01  2.4521183E+01
 1.6577251E+01  2.4507645E+01
 1.6588751E+01  2.4503752E+01
 1.6600250E+01  2.4503595E+01
 1.6611752E+01  2.4513769E+01
 1.6623251E+01  2.4493883E+01
 1.6634750E+01  2.4475197E+01
 1.6646252E+01  2.4497635E+01
 1.6657751E+01  2.4527933E+01
 1.6669250E+01  2.4564203E+01
 1.6680750E+01  2.4549078E+01
 1.6692251E+01  2.4566769E+01
 1.6703751E+01  2.4513561E+01
 1.6715250E+01  2.4466255E+01
 1.6726751E+01  2.4399740E+01
 1.6738251E+01  2.4434252E+01
 1.6749750E+01  2.4487217E+01
 1.6761251E+01  2.4488760E+01
 1.6772751E+01  2.4448353E+01
 1.6784250E+01  2.4355215E+01
 1.6795752E+01  2.4254314E+01
 1.6807251E+01  2.4186050E+01
 1.6818750E+01  2.4161173E+01
 1.6830252E+01  2.4206108E+01
 1.6841751E+01  2.4229340E+01
 1.6853251E+01  2.4249825E+01
 1.6864750E+01  2.4312542E+01
 1.6876251E+01  2.4279268E+01
 1.6887751E+01  2.4258078E+01
 1.6899250E+01  2.4207685E+01
 1.6910751E+01  2.4208017E+01
 1.6922251E+01  2.4213432E+01
 1.6933750E+01  2.4192966E+01
 1.6945251E+01  2.4254835E+01
 1.6956751E+01  2.4291805E+01
 1.6968250E+01  2.4307529E+01
 1.6979752E+01  2.4305662E+01
 1.6991251E+01  2.4277233E+01
 1.7002750E+01  2.4216669E+01
 1.7014252E+01  2.4153782E+01
 1.7025751E+01  2.4109964E+01
 1.7037251E+01  2.4031172E+01
 1.7048750E+01  2.3984190E+01
 1.7060251E+01  2.3955826E+01
 1.7071751E+01  2.4012285E+01
 1.7083250E+01  2.4050388E+01
 1.7094751E+01  2.4097012E+01
 1.7106251E+01  2.4103613E+01
 1.7117750E+01  2.4049614E+01
 1.7129251E+01  2.4066360E+01
 1.7140751E+01  2.4066696E+01
 1.7152250E+01  2.4100418E+01
 1.7163752E+01  2.4084663E+01
 1.7175251E+01  2.4108612E+01
 1.7186750E+01  2.4100361E+01
 1.7198252E+01  2.4102161E+01
 1.7209751E+01  2.4120008E+01
 1.7221251E+01  2.4114252E+01
 1.7232750E+01  2.4109543E+01
 1.7244251E+01  2.4082146E+01
 1.7255751E+01  2.3999178E+01
 1.7267250E+01  2.3963713E+01
 1.7278751E+01  2.3944136E+01
 1.7290251E+01  2.3953144E+01
 1.7301750E+01  2.3932663E+01
 1.7313251E+01  2.3896646E+01
 1.7324751E+01  2.3942825E+01
 1.7336250E+01  2.3973270E+01
 1.7347752E+01  2.3964148E+01
 1.7359251E+01  2.3913416E+01
 1.7370750E+01  2.3881760E+01
 1.7382252E+01  2.3862028E+01
 1.7393751E+01  2.3803215E+01
 1.7405251E+01  2.3766975E+01
 1.7416750E+01  2.3769823E+01
 1.7428251E+01  2.3813549E+01
 1.7439751E+01  2.3884422E+01
 1.7451250E+01  2.3934021E+01
 1.7462751E+01  2.3974203E+01
 1.7474251E+01  2.3933868E+01
 1.7485750E+01  2.3932909E+01
 1.7497252E+01  2.3911858E+01
 1.7508751E+01  2.3942942E+01
 1.7520250E+01  2.3941381E+01
 1.7531752E+01  2.3912481E+01
 1.7543251E+01  2.3914869E+01
 1.7554750E+01  2.3863256E+01
 1.7566252E+01  2.3847967E+01
 1.7577751E+01  2.3805477E+01
 1.7589251E+01  2.3798908E+01
 1.7600750E+01  2.3818638E+01
 1.7612251E+01  2.3813541E+01
 1.7623751E+01  2.3848846E+01
 1.7635250E+01  2.3788855E+01
 1.7646751E+01  2.3747721E+01
 1.7658251E+01  2.3708755E+01
 1.7669750E+01  2.3721405E+01
 1.7681252E+01  2.3715532E+01
 1.7692751E+01  2.3696400E+01
 1.7704250E+01  2.3665562E+01
 1.7715752E+01  2.3628143E+01
 1.7727251E+01  2.3598251E+01
 1.7738750E+01  2.3600672E+01
 1.7750252E+01  2.3597309E+01
 1.7761751E+01  2.3609064E+01
 1.7773251E+01  2.3656691E+01
 1.7784750E+01  2.3732986E+01
 1.7796251E+01  2.3758512E+01
 1.7807751E+01  2.3725451E+01
 1.7819250E+01  2.3680958E+01
 1.7830751E+01  2.3644125E+01
 1.7842251E+01  2.3654802E+01
 1.7853750E+01  2.3668276E+01
 1.7865252E+01  2.3638363E+01
 1.7876751E+01  2.3635380E+01
 1.7888250E+01  2.3628780E+01
 1.7899752E+01  2.3619951E+01
 1.7911251E+01  2.3588293E+01
 1.7922750E+01  2.3627415E+01
 1.7934252E+01  2.3624002E+01
 1.7945751E+01  2.3674856E+01
 1.7957251E+01  2.3680998E+01
 1.7968750E+01  2.3743832E+01
 1.7980251E+01  2.3762157E+01
 1.7991751E+01  2.3798071E+01
 1.8003250E+01  2.3888979E+01
 1.8014751E+01  2.3974743E+01
 1.8026251E+01  2.4054295E+01
 1.8037750E+01  2.4112766E+01
 1.8049252E+01  2.4126501E+01
 1.8060751E+01  2.4163763E+01
 1.8072250E+01  2.4175098E+01
 1.8083752E+01  2.4272814E+01
 1.8095251E+01  2.4375607E+01
 1.8106750E+01  2.4415394E+01
 1.8118252E+01  2.4432810E+01
 1.8129751E+01  2.4348030E+01
 1.8141251E+01  2.4248695E+01
 1.8152750E+01  2.4129044E+01
 1.8164251E+01  2.4034281E+01
 1.8175751E+01  2.3947376E+01
 1.8187250E+01  2.3813896E+01
 1.8198751E+01  2.3779245E+01
 1.8210251E+01  2.3777540E+01
 1.8221750E+01  2.3735252E+01
 1.8233252E+01  2.3656021E+01
 1.8244751E+01  2.3556368E+01
 1.8256250E+01  2.3542645E+01
 1.8267752E+01  2.3534576E+01
 1.8279251E+01  2.3513050E+01
 1.8290751E+01  2.3492283E+01
 1.8302252E+01  2.3478149E+01
 1.8313751E+01  2.3456871E+01
 1.8325251E+01  2.3448809E+01
 1.8336750E+01  2.3508877E+01
 1.8348251E+01  2.3550943E+01
 1.8359751E+01  2.3585873E+01
 1.8371250E+01  2.3551472E+01
 1.8382751E+01  2.3514517E+01
 1.8394251E+01  2.3443550E+01
 1.8405750E+01  2.3411249E+01
 1.8417252E+01  2.3395615E+01
 1.8428751E+01  2.3377317E+01
 1.8440250E+01  2.3384218E+01
 1.8451752E+01  2.3365330E+01
 1.8463251E+01  2.3417236E+01
 1.8474751E+01  2.3473045E+01
 1.8486252E+01  2.3496084E+01
 1.8497751E+01  2.3511854E+01
 1.8509251E+01  2.3530005E+01
 1.8520750E+01  2.3535498E+01
 1.8532251E+01  2.3485830E+01
 1.8543751E+01  2.3436253E+01
 1.8555250E+01  2.3452917E+01
 1.8566751E+01  2.3451696E+01
 1.8578251E+01  2.3508234E+01
 1.8589750E+01  2.3507456E+01
 1.8601252E+01  2.3512594E+01
 1.8612751E+01  2.3436047E+01
 1.8624250E+01  2.3368317E+01
 1.8635752E+01  2.3346800E+01
 1.8647251E+01  2.3330637E+01
 1.8658751E+01  2.3339458E+01
 1.8670252E+01  2.3341265E+01
 1.8681751E+01  2.3369616E+01
 1.8693251E+01  2.3396206E+01
 1.8704750E+01  2.3367437E+01
 1.8716251E+01  2.3370037E+01
 1.8727751E+01  2.3349148E+01
 1.8739250E+01  2.3328732E+01
 1.8750751E+01  2.3312263E+01
 1.8762251E+01  2.3282558E+01
 1.8773750E+01  2.3281607E+01
 1.8785252E+01  2.3287449E+01
 1.8796751E+01  2.3290977E+01
 1.8808250E+01  2.3239563E+01
 1.8819752E+01  2.3228853E+01
 1.8831251E+01  2.3208715E+01
 1.8842751E+01  2.3257828E+01
 1.8854252E+01  2.3259327E+01
 1.8865751E+01  2.3326775E+01
 1.8877251E+01  2.3355181E+01
 1.8888750E+01  2.3379314E+01
 1.8900251E+01  2.3374866E+01
 1.8911751E+01  2.3344793E+01
 1.8923250E+01  2.3361853E+01
 1.8934752E+01  2.3356024E+01
 1.8946251E+01  2.3401096E+01
 1.8957750E+01  2.3384649E+01
 1.8969252E+01  2.3375605E+01
 1.8980751E+01  2.3370184E+01
 1.8992250E+01  2.3304560E+01
 1.9003752E+01  2.3320734E+01
 1.9015251E+01  2.3358557E+01
 1.9026751E+01  2.3445021E+01
 1.9038252E+01  2.3443392E+01
 1.9049751E+01  2.3466370E+01
 1.9061251E+01  2.3472351E+01
 1.9072750E+01  2.3446587E+01
 1.9084251E+01  2.3419437E+01
 1.9095751E+01  2.3370220E+01
 1.9107250E+01  2.3273140E+01
 1.9118752E+01  2.3236811E+01
 1.9130251E+01  2.3251133E+01
 1.9141750E+01  2.3311853E+01
 1.9153252E+01  2.3317909E+01
 1.9164751E+01  2.3318100E+01
 1.9176250E+01  2.3347260E+01
 1.9187752E+01  2.3365961E+01
 1.9199251E+01  2.3390121E+01
 1.9210751E+01  2.3429075E+01
 1.9222252E+01  2.3435787E+01
 1.9233751E+01  2.3383940E+01
 1.9245251E+01  2.3324060E+01
 1.9256750E+01  2.3358660E+01
 1.9268251E+01  2.3369215E+01
 1.9279751E+01  2.3390667E+01
 1.9291250E+01  2.3407848E+01
 1.9302752E+01  2.3463358E+01
 1.9314251E+01  2.3488680E+01
 1.9325750E+01  2.3525028E+01
 1.9337252E+01  2.3590517E+01
 1.9348751E+01  2.3556828E+01
 1.9360250E+01  2.3505129E+01
 1.9371752E+01  2.3456408E+01
 1.9383251E+01  2.3489258E+01
 1.9394751E+01  2.3536875E+01
 1.9406250E+01  2.3530348E+01
 1.9417751E+01  2.3504976E+01
 1.9429251E+01  2.3520655E+01
 1.9440750E+01  2.3594259E+01
 1.9452251E+01  2.3634331E+01
 1.9463751E+01  2.3614063E+01
 1.9475250E+01  2.3599384E+01
 1.9486752E+01  2.3579424E+01
 1.9498251E+01  2.3538368E+01
 1.9509750E+01  2.3520180E+01
 1.9521252E+01  2.3536478E+01
 1.9532751E+01  2.3560408E+01
 1.9544250E+01  2.3614059E+01
 1.9555752E+01  2.3651894E+01
 1.9567251E+01  2.3752159E+01
 1.9578751E+01  2.3776518E+01
 1.9590250E+01  2.3824255E+01
 1.9601751E+01  2.3765512E+01
 1.9613251E+01  2.3762358E+01
 1.9624750E+01  2.3774719E+01
 1.9636251E+01  2.3815546E+01
 1.9647751E+01  2.3906307E+01
 1.9659250E+01  2.4138393E+01
 1.9670752E+01  2.4340002E+01
 1.9682251E+01  2.4658272E+01
 1.9693750E+01  2.4878531E+01
 1.9705252E+01  2.5168781E+01
 1.9716751E+01  2.5236582E+01
 1.9728251E+01  2.5319275E+01
 1.9739752E+01  2.5304806E+01
 1.9751251E+01  2.5187565E+01
 1.9762751E+01  2.5066742E+01
 1.9774250E+01  2.4855637E+01
 1.9785751E+01  2.4755688E+01
 1.9797251E+01  2.4764170E+01
 1.9808750E+01  2.4879215E+01
 1.9820251E+01  2.5157495E+01
 1.9831751E+01  2.5498669E+01
 1.9843250E+01  2.5690306E+01
 1.9854752E+01  2.5810061E+01
 1.9866251E+01  2.5696198E+01
 1.9877750E+01  2.5454033E+01
 1.9889252E+01  2.5096264E+01
 1.9900751E+01  2.4757046E+01
 1.9912251E+01  2.4438515E+01
 1.9923752E+01  2.4139231E+01
 1.9935251E+01  2.3948263E+01
 1.9946751E+01  2.3820480E+01
 1.9958250E+01  2.3754503E+01
 1.9969751E+01  2.3731709E+01
 1.9981251E+01  2.3700588E+01
 1.9992750E+01  2.3701269E+01
 2.0004251E+01  2.3657082E+01
 2.0015751E+01  2.3622114E+01
 2.0027250E+01  2.3603098E+01
 2.0038752E+01  2.3602116E+01
 2.0050251E+01  2.3645973E+01
 2.0061750E+01  2.3623184E+01
 2.0073252E+01  2.3685209E+01
 2.0084751E+01  2.3662256E+01
 2.0096251E+01  2.3693718E+01
 2.0107752E+01  2.3644728E+01
 2.0119251E+01  2.3649775E+01
 2.0130751E+01  2.3616491E+01
 2.0142250E+01  2.3597668E+01
 2.0153751E+01  2.3576157E+01
 2.0165251E+01  2.3567745E+01
 2.0176750E+01  2.3551731E+01
 2.0188251E+01  2.3521017E+01
 2.0199751E+01  2.3464594E+01
 2.0211250E+01  2.3492426E+01
 2.0222752E+01  2.3476614E+01
 2.0234251E+01  2.3521383E+01
 2.0245750E+01  2.3504711E+01
 2.0257252E+01  2.3495365E+01
 2.0268751E+01  2.3453011E+01
 2.0280251E+01  2.3467878E+01
 2.0291752E+01  2.3496311E+01
 2.0303251E+01  2.3503326E+01
 2.0314751E+01  2.3500755E+01
 2.0326250E+01  2.3527739E+01
 2.0337751E+01  2.3553627E+01
 2.0349251E+01  2.3568211E+01
 2.0360750E+01  2.3543581E+01
 2.0372252E+01  2.3529751E+01
 2.0383751E+01  2.3483757E+01
 2.0395250E+01  2.3474188E+01
 2.0406752E+01  2.3470203E+01
 2.0418251E+01  2.3517477E+01
 2.0429750E+01  2.3565910E+01
 2.0441252E+01  2.3574133E+01
 2.0452751E+01  2.3586760E+01
 2.0464251E+01  2.3566515E+01
 2.0475752E+01  2.3601536E+01
 2.0487251E+01  2.3654114E+01
 2.0498751E+01  2.3661432E+01
 2.0510250E+01  2.3648153E+01
 2.0521751E+01  2.3610985E+01
 2.0533251E+01  2.3611155E+01
 2.0544750E+01  2.3596956E+01
 2.0556252E+01  2.3670010E+01
 2.0567751E+01  2.3735319E+01
 2.0579250E+01  2.3789875E+01
 2.0590752E+01  2.3813839E+01
 2.0602251E+01  2.3826958E+01
 2.0613750E+01  2.3802111E+01
 2.0625252E+01  2.3738596E+01
 2.0636751E+01  2.3699503E+01
 2.0648251E+01  2.3645590E+01
 2.0659752E+01  2.3699604E+01
 2.0671251E+01  2.3755041E+01
 2.0682751E+01  2.3924637E+01
 2.0694250E+01  2.4059402E+01
 2.0705751E+01  2.4250954E+01
 2.0717251E+01  2.4580090E+01
 2.0728750E+01  2.4768045E+01
 2.0740252E+01  2.5030956E+01
 2.0751751E+01  2.5102331E+01
 2.0763250E+01  2.5191023E+01
 2.0774752E+01  2.5117134E+01
 2.0786251E+01  2.4964506E+01
 2.0797750E+01  2.4762716E+01
 2.0809252E+01  2.4452290E+01
 2.0820751E+01  2.4233345E+01
 2.0832251E+01  2.4018572E+01
 2.0843752E+01  2.3934984E+01
 2.0855251E+01  2.3932831E+01
 2.0866751E+01  2.3856003E+01
 2.0878250E+01  2.3840494E+01
 2.0889751E+01  2.3801233E+01
 2.0901251E+01  2.3815771E+01
 2.0912750E+01  2.3848743E+01
 2.0924252E+01  2.3834381E+01
 2.0935751E+01  2.3759512E+01
 2.0947250E+01  2.3692160E+01
 2.0958752E+01  2.3574125E+01
 2.0970251E+01  2.3579105E+01
 2.0981750E+01  2.3602234E+01
 2.0993252E+01  2.3706861E+01
 2.1004751E+01  2.3728996E+01
 2.1016251E+01  2.3747633E+01
 2.1027752E+01  2.3728197E+01
 2.1039251E+01  2.3688602E+01
 2.1050751E+01  2.3631422E+01
 2.1062250E+01  2.3636787E+01
 2.1073751E+01  2.3668472E+01
 2.1085251E+01  2.3667603E+01
 2.1096750E+01  2.3649948E+01
 2.1108252E+01  2.3704062E+01
 2.1119751E+01  2.3780643E+01
 2.1131250E+01  2.3774675E+01
 2.1142752E+01  2.3709967E+01
 2.1154251E+01  2.3625715E+01
 2.1165751E+01  2.3616865E+01
 2.1177252E+01  2.3623632E+01
 2.1188751E+01  2.3690035E+01
 2.1200251E+01  2.3763042E+01
 2.1211752E+01  2.3826797E+01
 2.1223251E+01  2.3790924E+01
 2.1234751E+01  2.3738827E+01
 2.1246250E+01  2.3761703E+01
 2.1257751E+01  2.3776947E+01
 2.1269251E+01  2.3754795E+01
 2.1280750E+01  2.3708004E+01
 2.1292252E+01  2.3710472E+01
 2.1303751E+01  2.3714499E+01
 2.1315250E+01  2.3721666E+01
 2.1326752E+01  2.3770357E+01
 2.1338251E+01  2.3809320E+01
 2.1349751E+01  2.3841463E+01
 2.1361252E+01  2.3841665E+01
 2.1372751E+01  2.3826591E+01
 2.1384251E+01  2.3768862E+01
 2.1395752E+01  2.3745085E+01
 2.1407251E+01  2.3779533E+01
 2.1418751E+01  2.3821371E+01
 2.1430250E+01  2.3860605E+01
 2.1441751E+01  2.3830330E+01
 2.1453251E+01  2.3840645E+01
 2.1464750E+01  2.3824772E+01
 2.1476252E+01  2.3820595E+01
 2.1487751E+01  2.3878803E+01
 2.1499250E+01  2.3883951E+01
 2.1510752E+01  2.3892757E+01
 2.1522251E+01  2.3837074E+01
 2.1533751E+01  2.3899174E+01
 2.1545252E+01  2.3906994E+01
 2.1556751E+01  2.3880701E+01
 2.1568251E+01  2.3811590E+01
 2.1579752E+01  2.3822611E+01
 2.1591251E+01  2.3888905E+01
 2.1602751E+01  2.3921492E+01
 2.1614250E+01  2.3916176E+01
 2.1625751E+01  2.3919256E+01
 2.1637251E+01  2.3945168E+01
 2.1648750E+01  2.3948086E+01
 2.1660252E+01  2.3935110E+01
 2.1671751E+01  2.3918385E+01
 2.1683250E+01  2.3915207E+01
 2.1694752E+01  2.3903742E+01
 2.1706251E+01  2.3929615E+01
 2.1717751E+01  2.3966488E+01
 2.1729252E+01  2.4038754E+01
 2.1740751E+01  2.4051636E+01
 2.1752251E+01  2.4008022E+01
 2.1763752E+01  2.3965345E+01
 2.1775251E+01  2.3923662E+01
 2.1786751E+01  2.3907804E+01
 2.1798250E+01  2.3890676E+01
 2.1809752E+01  2.3917597E+01
 2.1821251E+01  2.3944023E+01
 2.1832750E+01  2.3959696E+01
 2.1844252E+01  2.3977589E+01
 2.1855751E+01  2.4014526E+01
 2.1867250E+01  2.4051826E+01
 2.1878752E+01  2.4102417E+01
 2.1890251E+01  2.4115465E+01
 2.1901751E+01  2.4106533E+01
 2.1913252E+01  2.4076202E+01
 2.1924751E+01  2.4054792E+01
 2.1936251E+01  2.4057007E+01
 2.1947752E+01  2.4072523E+01
 2.1959251E+01  2.4109573E+01
 2.1970751E+01  2.4111837E+01
 2.1982250E+01  2.4109978E+01
 2.1993752E+01  2.4082159E+01
 2.2005251E+01  2.4049801E+01
 2.2016750E+01  2.4029722E+01
 2.2028252E+01  2.4030914E+01
 2.2039751E+01  2.4026897E+01
 2.2051250E+01  2.4045490E+01
 2.2062752E+01  2.4063148E+01
 2.2074251E+01  2.4082729E+01
 2.2085751E+01  2.4091000E+01
 2.2097252E+01  2.4100334E+01
 2.2108751E+01  2.4049953E+01
 2.2120251E+01  2.4074663E+01
 2.2131752E+01  2.4072081E+01
 2.2143251E+01  2.4139782E+01
 2.2154751E+01  2.4164963E+01
 2.2166250E+01  2.4202309E+01
 2.2177752E+01  2.4184435E+01
 2.2189251E+01  2.4184074E+01
 2.2200750E+01  2.4185236E+01
 2.2212252E+01  2.4205660E+01
 2.2223751E+01  2.4229984E+01
 2.2235250E+01  2.4253626E+01
 2.2246752E+01  2.4268814E+01
 2.2258251E+01  2.4230902E+01
 2.2269751E+01  2.4187119E+01
 2.2281252E+01  2.4178970E+01
 2.2292751E+01  2.4189030E+01
 2.2304251E+01  2.4242928E+01
 2.2315752E+01  2.4299206E+01
 2.2327251E+01  2.4355762E+01
 2.2338751E+01  2.4395468E+01
 2.2350250E+01  2.4441866E+01
 2.2361752E+01  2.4424620E+01
 2.2373251E+01  2.4448793E+01
 2.2384750E+01  2.4451462E+01
 2.2396252E+01  2.4449217E+01
 2.2407751E+01  2.4408607E+01
 2.2419250E+01  2.4393175E+01
 2.2430752E+01  2.4467846E+01
 2.2442251E+01  2.4504995E+01
 2.2453751E+01  2.4558815E+01
 2.2465252E+01  2.4517496E+01
 2.2476751E+01  2.4495895E+01
 2.2488251E+01  2.4475801E+01
 2.2499752E+01  2.4496721E+01
 2.2511251E+01  2.4520472E+01
 2.2522751E+01  2.4575642E+01
 2.2534250E+01  2.4601418E+01
 2.2545752E+01  2.4626184E+01
 2.2557251E+01  2.4591770E+01
 2.2568750E+01  2.4574749E+01
 2.2580252E+01  2.4594053E+01
 2.2591751E+01  2.4613585E+01
 2.2603251E+01  2.4628151E+01
 2.2614752E+01  2.4650620E+01
 2.2626251E+01  2.4676796E+01
 2.2637751E+01  2.4702024E+01
 2.2649252E+01  2.4775288E+01
 2.2660751E+01  2.4851410E+01
 2.2672251E+01  2.4947504E+01
 2.2683752E+01  2.5037746E+01
 2.2695251E+01  2.5121365E+01
 2.2706751E+01  2.5094057E+01
 2.2718250E+01  2.5097157E+01
 2.2729752E+01  2.5167824E+01
 2.2741251E+01  2.5158754E+01
 2.2752750E+01  2.5119257E+01
 2.2764252E+01  2.5055815E+01
 2.2775751E+01  2.5100300E+01
 2.2787251E+01  2.5087170E+01
 2.2798752E+01  2.5164940E+01
 2.2810251E+01  2.5211338E+01
 2.2821751E+01  2.5291550E+01
 2.2833252E+01  2.5324768E+01
 2.2844751E+01  2.5323030E+01
 2.2856251E+01  2.5342773E+01
 2.2867750E+01  2.5423866E+01
 2.2879251E+01  2.5494589E+01
 2.2890751E+01  2.5561422E+01
 2.2902250E+01  2.5652189E+01
 2.2913752E+01  2.5768753E+01
 2.2925251E+01  2.5830149E+01
 2.2936750E+01  2.5812262E+01
 2.2948252E+01  2.5860270E+01
 2.2959751E+01  2.5908421E+01
 2.2971251E+01  2.6068136E+01
 2.2982752E+01  2.6167997E+01
 2.2994251E+01  2.6307821E+01
