F:\20151113_APS_34IDE\\Brian\Particle1\OCV\Data_0137.tif
2-Theta Angle (Degrees)
Intensity
       2000
 5.7500005E-03  0.0000000E+00
 1.7250001E-02  0.0000000E+00
 2.8750001E-02  0.0000000E+00
 4.0250003E-02  0.0000000E+00
 5.1750004E-02  0.0000000E+00
 6.3250005E-02  0.0000000E+00
 7.4750006E-02  0.0000000E+00
 8.6250007E-02  0.0000000E+00
 9.7750008E-02  0.0000000E+00
 1.0925001E-01  0.0000000E+00
 1.2075000E-01  0.0000000E+00
 1.3225001E-01  0.0000000E+00
 1.4375001E-01  0.0000000E+00
 1.5525001E-01  0.0000000E+00
 1.6675001E-01  0.0000000E+00
 1.7825001E-01  0.0000000E+00
 1.8975002E-01  0.0000000E+00
 2.0125002E-01  0.0000000E+00
 2.1275002E-01  0.0000000E+00
 2.2425000E-01  0.0000000E+00
 2.3575000E-01  0.0000000E+00
 2.4725001E-01  0.0000000E+00
 2.5875002E-01  0.0000000E+00
 2.7025002E-01  0.0000000E+00
 2.8175002E-01  0.0000000E+00
 2.9325002E-01  0.0000000E+00
 3.0475003E-01  0.0000000E+00
 3.1625003E-01  0.0000000E+00
 3.2775003E-01  0.0000000E+00
 3.3925003E-01  0.0000000E+00
 3.5075003E-01  0.0000000E+00
 3.6225003E-01  0.0000000E+00
 3.7375003E-01  0.0000000E+00
 3.8525003E-01  0.0000000E+00
 3.9675003E-01  0.0000000E+00
 4.0825003E-01  0.0000000E+00
 4.1975003E-01  0.0000000E+00
 4.3125004E-01  0.0000000E+00
 4.4275001E-01  0.0000000E+00
 4.5425001E-01  0.0000000E+00
 4.6575001E-01  0.0000000E+00
 4.7725001E-01  0.0000000E+00
 4.8875001E-01  0.0000000E+00
 5.0025004E-01  0.0000000E+00
 5.1175004E-01  0.0000000E+00
 5.2325004E-01  0.0000000E+00
 5.3475004E-01  0.0000000E+00
 5.4625005E-01  0.0000000E+00
 5.5775005E-01  0.0000000E+00
 5.6925005E-01  0.0000000E+00
 5.8075005E-01  0.0000000E+00
 5.9225005E-01  0.0000000E+00
 6.0375005E-01  0.0000000E+00
 6.1525005E-01  0.0000000E+00
 6.2675005E-01  0.0000000E+00
 6.3825005E-01  0.0000000E+00
 6.4975005E-01  0.0000000E+00
 6.6125005E-01  0.0000000E+00
 6.7275006E-01  0.0000000E+00
 6.8425006E-01  0.0000000E+00
 6.9575006E-01  0.0000000E+00
 7.0725006E-01  0.0000000E+00
 7.1875006E-01  0.0000000E+00
 7.3025006E-01  0.0000000E+00
 7.4175006E-01  0.0000000E+00
 7.5325006E-01  0.0000000E+00
 7.6475006E-01  0.0000000E+00
 7.7625006E-01  0.0000000E+00
 7.8775007E-01  0.0000000E+00
 7.9925007E-01  0.0000000E+00
 8.1075007E-01  0.0000000E+00
 8.2225007E-01  0.0000000E+00
 8.3375007E-01  0.0000000E+00
 8.4525007E-01  0.0000000E+00
 8.5675007E-01  0.0000000E+00
 8.6825007E-01  0.0000000E+00
 8.7975001E-01  0.0000000E+00
 8.9125001E-01  0.0000000E+00
 9.0275002E-01  0.0000000E+00
 9.1425002E-01  0.0000000E+00
 9.2575002E-01  0.0000000E+00
 9.3725002E-01  0.0000000E+00
 9.4875002E-01  0.0000000E+00
 9.6025002E-01  0.0000000E+00
 9.7175002E-01  0.0000000E+00
 9.8325002E-01  0.0000000E+00
 9.9475002E-01  0.0000000E+00
 1.0062500E+00  0.0000000E+00
 1.0177500E+00  0.0000000E+00
 1.0292500E+00  0.0000000E+00
 1.0407500E+00  0.0000000E+00
 1.0522500E+00  0.0000000E+00
 1.0637500E+00  0.0000000E+00
 1.0752500E+00  0.0000000E+00
 1.0867500E+00  0.0000000E+00
 1.0982500E+00  0.0000000E+00
 1.1097500E+00  0.0000000E+00
 1.1212500E+00  0.0000000E+00
 1.1327500E+00  0.0000000E+00
 1.1442500E+00  0.0000000E+00
 1.1557500E+00  0.0000000E+00
 1.1672500E+00  0.0000000E+00
 1.1787500E+00  0.0000000E+00
 1.1902500E+00  0.0000000E+00
 1.2017500E+00  0.0000000E+00
 1.2132500E+00  0.0000000E+00
 1.2247500E+00  0.0000000E+00
 1.2362500E+00  0.0000000E+00
 1.2477500E+00  0.0000000E+00
 1.2592500E+00  0.0000000E+00
 1.2707500E+00  0.0000000E+00
 1.2822500E+00  0.0000000E+00
 1.2937500E+00  0.0000000E+00
 1.3052500E+00  0.0000000E+00
 1.3167500E+00  0.0000000E+00
 1.3282501E+00  0.0000000E+00
 1.3397501E+00  0.0000000E+00
 1.3512501E+00  0.0000000E+00
 1.3627501E+00  0.0000000E+00
 1.3742501E+00  0.0000000E+00
 1.3857501E+00  0.0000000E+00
 1.3972501E+00  0.0000000E+00
 1.4087501E+00  0.0000000E+00
 1.4202501E+00  0.0000000E+00
 1.4317501E+00  0.0000000E+00
 1.4432501E+00  0.0000000E+00
 1.4547501E+00  0.0000000E+00
 1.4662501E+00  0.0000000E+00
 1.4777501E+00  0.0000000E+00
 1.4892501E+00  0.0000000E+00
 1.5007501E+00  0.0000000E+00
 1.5122501E+00  0.0000000E+00
 1.5237501E+00  0.0000000E+00
 1.5352501E+00  0.0000000E+00
 1.5467501E+00  0.0000000E+00
 1.5582501E+00  0.0000000E+00
 1.5697501E+00  0.0000000E+00
 1.5812501E+00  0.0000000E+00
 1.5927501E+00  0.0000000E+00
 1.6042501E+00  0.0000000E+00
 1.6157501E+00  0.0000000E+00
 1.6272501E+00  0.0000000E+00
 1.6387501E+00  0.0000000E+00
 1.6502501E+00  0.0000000E+00
 1.6617501E+00  0.0000000E+00
 1.6732501E+00  0.0000000E+00
 1.6847501E+00  0.0000000E+00
 1.6962501E+00  0.0000000E+00
 1.7077501E+00  0.0000000E+00
 1.7192501E+00  0.0000000E+00
 1.7307501E+00  0.0000000E+00
 1.7422501E+00  0.0000000E+00
 1.7537501E+00  0.0000000E+00
 1.7652501E+00  0.0000000E+00
 1.7767501E+00  0.0000000E+00
 1.7882501E+00  0.0000000E+00
 1.7997501E+00  0.0000000E+00
 1.8112501E+00  0.0000000E+00
 1.8227501E+00  0.0000000E+00
 1.8342501E+00  0.0000000E+00
 1.8457501E+00  0.0000000E+00
 1.8572501E+00  0.0000000E+00
 1.8687501E+00  0.0000000E+00
 1.8802501E+00  0.0000000E+00
 1.8917501E+00  0.0000000E+00
 1.9032501E+00  0.0000000E+00
 1.9147501E+00  0.0000000E+00
 1.9262501E+00  0.0000000E+00
 1.9377501E+00  0.0000000E+00
 1.9492501E+00  0.0000000E+00
 1.9607501E+00  0.0000000E+00
 1.9722501E+00  0.0000000E+00
 1.9837501E+00  0.0000000E+00
 1.9952501E+00  0.0000000E+00
 2.0067501E+00  0.0000000E+00
 2.0182500E+00  0.0000000E+00
 2.0297501E+00  0.0000000E+00
 2.0412500E+00  0.0000000E+00
 2.0527501E+00  0.0000000E+00
 2.0642500E+00  0.0000000E+00
 2.0757501E+00  0.0000000E+00
 2.0872500E+00  0.0000000E+00
 2.0987501E+00  0.0000000E+00
 2.1102500E+00  0.0000000E+00
 2.1217501E+00  0.0000000E+00
 2.1332500E+00  0.0000000E+00
 2.1447501E+00  0.0000000E+00
 2.1562500E+00  0.0000000E+00
 2.1677501E+00  0.0000000E+00
 2.1792500E+00  0.0000000E+00
 2.1907501E+00  0.0000000E+00
 2.2022500E+00  0.0000000E+00
 2.2137501E+00  0.0000000E+00
 2.2252500E+00  0.0000000E+00
 2.2367501E+00  0.0000000E+00
 2.2482500E+00  0.0000000E+00
 2.2597501E+00  0.0000000E+00
 2.2712500E+00  0.0000000E+00
 2.2827501E+00  0.0000000E+00
 2.2942500E+00  0.0000000E+00
 2.3057501E+00  0.0000000E+00
 2.3172500E+00  0.0000000E+00
 2.3287501E+00  0.0000000E+00
 2.3402500E+00  0.0000000E+00
 2.3517501E+00  0.0000000E+00
 2.3632500E+00  0.0000000E+00
 2.3747501E+00  0.0000000E+00
 2.3862500E+00  0.0000000E+00
 2.3977501E+00  0.0000000E+00
 2.4092500E+00  0.0000000E+00
 2.4207501E+00  0.0000000E+00
 2.4322500E+00  0.0000000E+00
 2.4437501E+00  0.0000000E+00
 2.4552500E+00  0.0000000E+00
 2.4667501E+00  0.0000000E+00
 2.4782500E+00  0.0000000E+00
 2.4897501E+00  0.0000000E+00
 2.5012500E+00  0.0000000E+00
 2.5127501E+00  0.0000000E+00
 2.5242500E+00  0.0000000E+00
 2.5357502E+00  0.0000000E+00
 2.5472500E+00  0.0000000E+00
 2.5587502E+00  0.0000000E+00
 2.5702500E+00  0.0000000E+00
 2.5817502E+00  0.0000000E+00
 2.5932500E+00  0.0000000E+00
 2.6047502E+00  0.0000000E+00
 2.6162500E+00  0.0000000E+00
 2.6277502E+00  0.0000000E+00
 2.6392500E+00  0.0000000E+00
 2.6507502E+00  0.0000000E+00
 2.6622500E+00  0.0000000E+00
 2.6737502E+00  0.0000000E+00
 2.6852500E+00  0.0000000E+00
 2.6967502E+00  0.0000000E+00
 2.7082500E+00  0.0000000E+00
 2.7197502E+00  0.0000000E+00
 2.7312500E+00  0.0000000E+00
 2.7427502E+00  0.0000000E+00
 2.7542500E+00  0.0000000E+00
 2.7657502E+00  0.0000000E+00
 2.7772501E+00  0.0000000E+00
 2.7887502E+00  0.0000000E+00
 2.8002501E+00  0.0000000E+00
 2.8117502E+00  0.0000000E+00
 2.8232501E+00  4.0594589E+01
 2.8347502E+00  3.7663315E+01
 2.8462501E+00  3.7157402E+01
 2.8577502E+00  3.6510735E+01
 2.8692501E+00  3.6079609E+01
 2.8807502E+00  3.5962132E+01
 2.8922501E+00  3.5419006E+01
 2.9037502E+00  3.5468533E+01
 2.9152501E+00  3.5642021E+01
 2.9267502E+00  3.5652550E+01
 2.9382501E+00  3.5752731E+01
 2.9497502E+00  3.5380711E+01
 2.9612501E+00  3.5435581E+01
 2.9727502E+00  3.5207508E+01
 2.9842501E+00  3.5329857E+01
 2.9957502E+00  3.5636925E+01
 3.0072501E+00  3.6350586E+01
 3.0187502E+00  3.6677979E+01
 3.0302501E+00  3.6743176E+01
 3.0417502E+00  3.6394894E+01
 3.0532501E+00  3.5572102E+01
 3.0647502E+00  3.5199188E+01
 3.0762501E+00  3.4535007E+01
 3.0877502E+00  3.4646271E+01
 3.0992501E+00  3.4766678E+01
 3.1107502E+00  3.4868912E+01
 3.1222501E+00  3.5000519E+01
 3.1337502E+00  3.4832085E+01
 3.1452501E+00  3.5075565E+01
 3.1567502E+00  3.5148560E+01
 3.1682501E+00  3.5304714E+01
 3.1797502E+00  3.5430080E+01
 3.1912501E+00  3.5452305E+01
 3.2027502E+00  3.5200596E+01
 3.2142501E+00  3.5066883E+01
 3.2257502E+00  3.4975468E+01
 3.2372501E+00  3.4744297E+01
 3.2487502E+00  3.4573505E+01
 3.2602501E+00  3.4462524E+01
 3.2717502E+00  3.4463551E+01
 3.2832501E+00  3.4379913E+01
 3.2947502E+00  3.4286232E+01
 3.3062501E+00  3.4108208E+01
 3.3177502E+00  3.4001503E+01
 3.3292501E+00  3.4216255E+01
 3.3407502E+00  3.4552673E+01
 3.3522501E+00  3.4834087E+01
 3.3637502E+00  3.4486282E+01
 3.3752501E+00  3.4161549E+01
 3.3867502E+00  3.3926628E+01
 3.3982501E+00  3.3626740E+01
 3.4097502E+00  3.3597992E+01
 3.4212501E+00  3.3427933E+01
 3.4327502E+00  3.3696301E+01
 3.4442501E+00  3.3978310E+01
 3.4557502E+00  3.4296692E+01
 3.4672501E+00  3.4779598E+01
 3.4787502E+00  3.4747112E+01
 3.4902501E+00  3.5144936E+01
 3.5017502E+00  3.4938622E+01
 3.5132501E+00  3.4920197E+01
 3.5247502E+00  3.4555984E+01
 3.5362501E+00  3.4454609E+01
 3.5477502E+00  3.4240231E+01
 3.5592501E+00  3.3990929E+01
 3.5707502E+00  3.3714108E+01
 3.5822501E+00  3.3449528E+01
 3.5937502E+00  3.3419136E+01
 3.6052501E+00  3.3212799E+01
 3.6167502E+00  3.3438816E+01
 3.6282501E+00  3.3665443E+01
 3.6397502E+00  3.3671883E+01
 3.6512501E+00  3.3775787E+01
 3.6627502E+00  3.3616795E+01
 3.6742501E+00  3.3665588E+01
 3.6857502E+00  3.3534737E+01
 3.6972501E+00  3.3379486E+01
 3.7087502E+00  3.3116817E+01
 3.7202501E+00  3.3066864E+01
 3.7317502E+00  3.2902061E+01
 3.7432501E+00  3.3244606E+01
 3.7547503E+00  3.3278164E+01
 3.7662501E+00  3.3280788E+01
 3.7777503E+00  3.3280357E+01
 3.7892501E+00  3.3207653E+01
 3.8007503E+00  3.3288937E+01
 3.8122501E+00  3.3345383E+01
 3.8237503E+00  3.3236443E+01
 3.8352501E+00  3.3045498E+01
 3.8467503E+00  3.2847618E+01
 3.8582501E+00  3.2981373E+01
 3.8697503E+00  3.3267677E+01
 3.8812501E+00  3.3511082E+01
 3.8927503E+00  3.3633236E+01
 3.9042501E+00  3.3653370E+01
 3.9157503E+00  3.3461811E+01
 3.9272501E+00  3.3340256E+01
 3.9387503E+00  3.3352959E+01
 3.9502501E+00  3.3545986E+01
 3.9617503E+00  3.3433636E+01
 3.9732502E+00  3.3377728E+01
 3.9847503E+00  3.2984600E+01
 3.9962502E+00  3.2907356E+01
 4.0077500E+00  3.2790771E+01
 4.0192504E+00  3.2760948E+01
 4.0307503E+00  3.2826550E+01
 4.0422502E+00  3.2817326E+01
 4.0537500E+00  3.2838310E+01
 4.0652504E+00  3.2778374E+01
 4.0767503E+00  3.2624882E+01
 4.0882502E+00  3.2700623E+01
 4.0997500E+00  3.2561493E+01
 4.1112504E+00  3.2581551E+01
 4.1227503E+00  3.2432549E+01
 4.1342502E+00  3.2447277E+01
 4.1457500E+00  3.2400238E+01
 4.1572504E+00  3.2393814E+01
 4.1687503E+00  3.2303051E+01
 4.1802502E+00  3.2295124E+01
 4.1917500E+00  3.2389839E+01
 4.2032504E+00  3.2439194E+01
 4.2147503E+00  3.2582268E+01
 4.2262502E+00  3.2531033E+01
 4.2377501E+00  3.2571510E+01
 4.2492504E+00  3.2404667E+01
 4.2607503E+00  3.2444839E+01
 4.2722502E+00  3.2495628E+01
 4.2837501E+00  3.2610481E+01
 4.2952504E+00  3.2638489E+01
 4.3067503E+00  3.2516579E+01
 4.3182502E+00  3.2459415E+01
 4.3297501E+00  3.2467625E+01
 4.3412504E+00  3.2392315E+01
 4.3527503E+00  3.2382420E+01
 4.3642502E+00  3.2258335E+01
 4.3757501E+00  3.2172150E+01
 4.3872504E+00  3.2199364E+01
 4.3987503E+00  3.2214455E+01
 4.4102502E+00  3.2344875E+01
 4.4217501E+00  3.2361706E+01
 4.4332504E+00  3.2349510E+01
 4.4447503E+00  3.2477406E+01
 4.4562502E+00  3.2666878E+01
 4.4677501E+00  3.2880054E+01
 4.4792504E+00  3.2952709E+01
 4.4907503E+00  3.2880642E+01
 4.5022502E+00  3.2768410E+01
 4.5137501E+00  3.2588100E+01
 4.5252504E+00  3.2639606E+01
 4.5367503E+00  3.2790543E+01
 4.5482502E+00  3.3017601E+01
 4.5597501E+00  3.3171303E+01
 4.5712504E+00  3.3262074E+01
 4.5827503E+00  3.3246178E+01
 4.5942502E+00  3.3217934E+01
 4.6057501E+00  3.3087563E+01
 4.6172504E+00  3.3007023E+01
 4.6287503E+00  3.2940662E+01
 4.6402502E+00  3.2983215E+01
 4.6517501E+00  3.3032383E+01
 4.6632504E+00  3.3152504E+01
 4.6747503E+00  3.3179146E+01
 4.6862502E+00  3.3222591E+01
 4.6977501E+00  3.3060020E+01
 4.7092505E+00  3.2956787E+01
 4.7207503E+00  3.2914295E+01
 4.7322502E+00  3.2728882E+01
 4.7437501E+00  3.2755447E+01
 4.7552505E+00  3.2583675E+01
 4.7667503E+00  3.2692432E+01
 4.7782502E+00  3.2607922E+01
 4.7897501E+00  3.2591839E+01
 4.8012505E+00  3.2504555E+01
 4.8127503E+00  3.2338959E+01
 4.8242502E+00  3.2402050E+01
 4.8357501E+00  3.2571747E+01
 4.8472505E+00  3.2721096E+01
 4.8587503E+00  3.2795555E+01
 4.8702502E+00  3.2850769E+01
 4.8817501E+00  3.2837711E+01
 4.8932505E+00  3.2739166E+01
 4.9047503E+00  3.2644413E+01
 4.9162502E+00  3.2654823E+01
 4.9277501E+00  3.2755722E+01
 4.9392505E+00  3.2786629E+01
 4.9507504E+00  3.2749310E+01
 4.9622502E+00  3.2736649E+01
 4.9737501E+00  3.2771072E+01
 4.9852505E+00  3.2841053E+01
 4.9967504E+00  3.2953030E+01
 5.0082502E+00  3.3045513E+01
 5.0197501E+00  3.3034985E+01
 5.0312505E+00  3.3220070E+01
 5.0427504E+00  3.3200008E+01
 5.0542502E+00  3.3416168E+01
 5.0657501E+00  3.3525230E+01
 5.0772505E+00  3.3740986E+01
 5.0887504E+00  3.3840267E+01
 5.1002502E+00  3.3745045E+01
 5.1117501E+00  3.3557735E+01
 5.1232505E+00  3.3471916E+01
 5.1347504E+00  3.3385933E+01
 5.1462502E+00  3.3455208E+01
 5.1577501E+00  3.3493584E+01
 5.1692505E+00  3.3626968E+01
 5.1807504E+00  3.3782257E+01
 5.1922503E+00  3.4006168E+01
 5.2037501E+00  3.4111137E+01
 5.2152505E+00  3.4181175E+01
 5.2267504E+00  3.4216724E+01
 5.2382503E+00  3.4281620E+01
 5.2497501E+00  3.4319614E+01
 5.2612505E+00  3.4197365E+01
 5.2727504E+00  3.4090771E+01
 5.2842503E+00  3.3984386E+01
 5.2957501E+00  3.4029968E+01
 5.3072500E+00  3.4063747E+01
 5.3187504E+00  3.4148972E+01
 5.3302503E+00  3.4115829E+01
 5.3417501E+00  3.4034817E+01
 5.3532500E+00  3.3989899E+01
 5.3647504E+00  3.4067318E+01
 5.3762503E+00  3.4284477E+01
 5.3877501E+00  3.4492443E+01
 5.3992500E+00  3.4678761E+01
 5.4107504E+00  3.4755058E+01
 5.4222503E+00  3.4729664E+01
 5.4337502E+00  3.4684975E+01
 5.4452500E+00  3.4661263E+01
 5.4567504E+00  3.4635677E+01
 5.4682503E+00  3.4654137E+01
 5.4797502E+00  3.4660397E+01
 5.4912500E+00  3.4666325E+01
 5.5027504E+00  3.4576710E+01
 5.5142503E+00  3.4484009E+01
 5.5257502E+00  3.4598351E+01
 5.5372500E+00  3.4685364E+01
 5.5487504E+00  3.4791042E+01
 5.5602503E+00  3.4823677E+01
 5.5717502E+00  3.4946514E+01
 5.5832500E+00  3.5017971E+01
 5.5947504E+00  3.5107971E+01
 5.6062503E+00  3.5158081E+01
 5.6177502E+00  3.5249142E+01
 5.6292500E+00  3.5217014E+01
 5.6407504E+00  3.5306561E+01
 5.6522503E+00  3.5304741E+01
 5.6637502E+00  3.5473621E+01
 5.6752501E+00  3.5474503E+01
 5.6867504E+00  3.5626667E+01
 5.6982503E+00  3.5520649E+01
 5.7097502E+00  3.5555927E+01
 5.7212501E+00  3.5488327E+01
 5.7327504E+00  3.5506710E+01
 5.7442503E+00  3.5407082E+01
 5.7557502E+00  3.5374096E+01
 5.7672501E+00  3.5364494E+01
 5.7787504E+00  3.5388271E+01
 5.7902503E+00  3.5434708E+01
 5.8017502E+00  3.5476288E+01
 5.8132501E+00  3.5568668E+01
 5.8247504E+00  3.5495846E+01
 5.8362503E+00  3.5601280E+01
 5.8477502E+00  3.5630943E+01
 5.8592501E+00  3.5778793E+01
 5.8707504E+00  3.6001797E+01
 5.8822503E+00  3.6151211E+01
 5.8937502E+00  3.6326496E+01
 5.9052501E+00  3.6376301E+01
 5.9167504E+00  3.6680119E+01
 5.9282503E+00  3.7133259E+01
 5.9397502E+00  3.7552166E+01
 5.9512501E+00  3.8951283E+01
 5.9627504E+00  3.9660187E+01
 5.9742503E+00  4.0210453E+01
 5.9857502E+00  4.1067596E+01
 5.9972501E+00  4.0736031E+01
 6.0087504E+00  4.0591221E+01
 6.0202503E+00  3.9146450E+01
 6.0317502E+00  3.8499897E+01
 6.0432501E+00  3.8015594E+01
 6.0547504E+00  3.7287952E+01
 6.0662503E+00  3.7199928E+01
 6.0777502E+00  3.7070213E+01
 6.0892501E+00  3.7021606E+01
 6.1007504E+00  3.6893353E+01
 6.1122503E+00  3.6960854E+01
 6.1237502E+00  3.7066780E+01
 6.1352501E+00  3.7018600E+01
 6.1467505E+00  3.6850880E+01
 6.1582503E+00  3.6855984E+01
 6.1697502E+00  3.6794323E+01
 6.1812501E+00  3.6853554E+01
 6.1927505E+00  3.6803589E+01
 6.2042503E+00  3.6866684E+01
 6.2157502E+00  3.6985420E+01
 6.2272501E+00  3.7088123E+01
 6.2387505E+00  3.7238171E+01
 6.2502503E+00  3.7436043E+01
 6.2617502E+00  3.7599121E+01
 6.2732501E+00  3.7765118E+01
 6.2847505E+00  3.7865688E+01
 6.2962503E+00  3.7901001E+01
 6.3077502E+00  3.7861771E+01
 6.3192501E+00  3.7696888E+01
 6.3307505E+00  3.7665226E+01
 6.3422503E+00  3.7679035E+01
 6.3537502E+00  3.7816170E+01
 6.3652501E+00  3.7999767E+01
 6.3767505E+00  3.8116379E+01
 6.3882504E+00  3.8283154E+01
 6.3997502E+00  3.8300610E+01
 6.4112501E+00  3.8566978E+01
 6.4227505E+00  3.8644604E+01
 6.4342504E+00  3.8834274E+01
 6.4457502E+00  3.8804535E+01
 6.4572501E+00  3.8904842E+01
 6.4687505E+00  3.9022732E+01
 6.4802504E+00  3.9046547E+01
 6.4917502E+00  3.9076248E+01
 6.5032501E+00  3.9156193E+01
 6.5147505E+00  3.9266777E+01
 6.5262504E+00  3.9386406E+01
 6.5377502E+00  3.9378025E+01
 6.5492501E+00  3.9321835E+01
 6.5607505E+00  3.9254848E+01
 6.5722504E+00  3.9249939E+01
 6.5837502E+00  3.9306755E+01
 6.5952501E+00  3.9431671E+01
 6.6067505E+00  3.9547039E+01
 6.6182504E+00  3.9643085E+01
 6.6297503E+00  3.9760357E+01
 6.6412501E+00  3.9784500E+01
 6.6527505E+00  3.9840466E+01
 6.6642504E+00  3.9938313E+01
 6.6757503E+00  3.9994926E+01
 6.6872501E+00  4.0017006E+01
 6.6987505E+00  4.0077122E+01
 6.7102504E+00  4.0112118E+01
 6.7217503E+00  4.0286854E+01
 6.7332501E+00  4.0271420E+01
 6.7447505E+00  4.0365498E+01
 6.7562504E+00  4.0477962E+01
 6.7677503E+00  4.0587177E+01
 6.7792501E+00  4.0823166E+01
 6.7907505E+00  4.0911057E+01
 6.8022504E+00  4.1153969E+01
 6.8137503E+00  4.1284771E+01
 6.8252501E+00  4.1394154E+01
 6.8367505E+00  4.1485142E+01
 6.8482504E+00  4.1459507E+01
 6.8597503E+00  4.1478386E+01
 6.8712502E+00  4.1560184E+01
 6.8827505E+00  4.1624664E+01
 6.8942504E+00  4.1777027E+01
 6.9057503E+00  4.1813282E+01
 6.9172502E+00  4.1982346E+01
 6.9287505E+00  4.1978302E+01
 6.9402504E+00  4.2141430E+01
 6.9517503E+00  4.2215950E+01
 6.9632502E+00  4.2296230E+01
 6.9747505E+00  4.2270432E+01
 6.9862504E+00  4.2308853E+01
 6.9977503E+00  4.2330917E+01
 7.0092502E+00  4.2334473E+01
 7.0207505E+00  4.2302940E+01
 7.0322504E+00  4.2373043E+01
 7.0437503E+00  4.2422119E+01
 7.0552502E+00  4.2440315E+01
 7.0667505E+00  4.2434879E+01
 7.0782504E+00  4.2460743E+01
 7.0897503E+00  4.2564693E+01
 7.1012502E+00  4.2764675E+01
 7.1127505E+00  4.2891621E+01
 7.1242504E+00  4.3028202E+01
 7.1357503E+00  4.3068436E+01
 7.1472502E+00  4.3132690E+01
 7.1587505E+00  4.3206196E+01
 7.1702504E+00  4.3363518E+01
 7.1817503E+00  4.3507549E+01
 7.1932502E+00  4.3601082E+01
 7.2047505E+00  4.3617966E+01
 7.2162504E+00  4.3605358E+01
 7.2277503E+00  4.3602001E+01
 7.2392502E+00  4.3736568E+01
 7.2507505E+00  4.3872391E+01
 7.2622504E+00  4.3957027E+01
 7.2737503E+00  4.3929424E+01
 7.2852502E+00  4.3858654E+01
 7.2967505E+00  4.3807713E+01
 7.3082504E+00  4.3715782E+01
 7.3197503E+00  4.3666447E+01
 7.3312502E+00  4.3649483E+01
 7.3427505E+00  4.3640430E+01
 7.3542504E+00  4.3649448E+01
 7.3657503E+00  4.3706661E+01
 7.3772502E+00  4.3777557E+01
 7.3887506E+00  4.3882080E+01
 7.4002504E+00  4.3959347E+01
 7.4117503E+00  4.3989594E+01
 7.4232502E+00  4.4020855E+01
 7.4347506E+00  4.4045490E+01
 7.4462504E+00  4.4078423E+01
 7.4577503E+00  4.4125751E+01
 7.4692502E+00  4.4080639E+01
 7.4807506E+00  4.4019791E+01
 7.4922504E+00  4.3984066E+01
 7.5037503E+00  4.3906097E+01
 7.5152502E+00  4.4015125E+01
 7.5267506E+00  4.4064205E+01
 7.5382504E+00  4.4220863E+01
 7.5497503E+00  4.4272495E+01
 7.5612502E+00  4.4345833E+01
 7.5727506E+00  4.4356190E+01
 7.5842505E+00  4.4310982E+01
 7.5957503E+00  4.4178177E+01
 7.6072502E+00  4.4153229E+01
 7.6187506E+00  4.4185852E+01
 7.6302505E+00  4.4222687E+01
 7.6417503E+00  4.4263145E+01
 7.6532502E+00  4.4211826E+01
 7.6647506E+00  4.4291466E+01
 7.6762505E+00  4.4308807E+01
 7.6877503E+00  4.4350292E+01
 7.6992502E+00  4.4261147E+01
 7.7107506E+00  4.4218346E+01
 7.7222505E+00  4.4219292E+01
 7.7337503E+00  4.4229401E+01
 7.7452502E+00  4.4275124E+01
 7.7567506E+00  4.4278999E+01
 7.7682505E+00  4.4343845E+01
 7.7797503E+00  4.4218773E+01
 7.7912502E+00  4.4183136E+01
 7.8027506E+00  4.3941822E+01
 7.8142505E+00  4.3930798E+01
 7.8257504E+00  4.3791187E+01
 7.8372502E+00  4.3775513E+01
 7.8487506E+00  4.3769993E+01
 7.8602505E+00  4.3725666E+01
 7.8717504E+00  4.3753429E+01
 7.8832502E+00  4.3662430E+01
 7.8947506E+00  4.3651756E+01
 7.9062505E+00  4.3672371E+01
 7.9177504E+00  4.3748219E+01
 7.9292502E+00  4.3767284E+01
 7.9407506E+00  4.3771877E+01
 7.9522505E+00  4.3697140E+01
 7.9637504E+00  4.3646423E+01
 7.9752502E+00  4.3545761E+01
 7.9867506E+00  4.3555222E+01
 7.9982505E+00  4.3498470E+01
 8.0097504E+00  4.3491974E+01
 8.0212507E+00  4.3485516E+01
 8.0327501E+00  4.3388500E+01
 8.0442505E+00  4.3336761E+01
 8.0557508E+00  4.3156914E+01
 8.0672503E+00  4.3044754E+01
 8.0787506E+00  4.2875378E+01
 8.0902500E+00  4.2798645E+01
 8.1017504E+00  4.2685848E+01
 8.1132507E+00  4.2675995E+01
 8.1247501E+00  4.2539310E+01
 8.1362505E+00  4.2549019E+01
 8.1477509E+00  4.2481419E+01
 8.1592503E+00  4.2422157E+01
 8.1707506E+00  4.2314613E+01
 8.1822500E+00  4.2177387E+01
 8.1937504E+00  4.2109921E+01
 8.2052507E+00  4.1971653E+01
 8.2167501E+00  4.1830849E+01
 8.2282505E+00  4.1717861E+01
 8.2397509E+00  4.1591450E+01
 8.2512503E+00  4.1483761E+01
 8.2627506E+00  4.1306099E+01
 8.2742500E+00  4.1150532E+01
 8.2857504E+00  4.0984131E+01
 8.2972507E+00  4.0769432E+01
 8.3087502E+00  4.0609650E+01
 8.3202505E+00  4.0425671E+01
 8.3317509E+00  4.0293346E+01
 8.3432503E+00  4.0103542E+01
 8.3547506E+00  3.9929211E+01
 8.3662500E+00  3.9819290E+01
 8.3777504E+00  3.9648682E+01
 8.3892508E+00  3.9517818E+01
 8.4007502E+00  3.9317310E+01
 8.4122505E+00  3.9117287E+01
 8.4237509E+00  3.8934639E+01
 8.4352503E+00  3.8745327E+01
 8.4467506E+00  3.8672260E+01
 8.4582500E+00  3.8540337E+01
 8.4697504E+00  3.8441437E+01
 8.4812508E+00  3.8306786E+01
 8.4927502E+00  3.8103104E+01
 8.5042505E+00  3.7944420E+01
 8.5157509E+00  3.7750164E+01
 8.5272503E+00  3.7605892E+01
 8.5387506E+00  3.7437904E+01
 8.5502501E+00  3.7220619E+01
 8.5617504E+00  3.6980762E+01
 8.5732508E+00  3.6734814E+01
 8.5847502E+00  3.6498592E+01
 8.5962505E+00  3.6301910E+01
 8.6077509E+00  3.6125034E+01
 8.6192503E+00  3.5966679E+01
 8.6307507E+00  3.5839214E+01
 8.6422501E+00  3.5770481E+01
 8.6537504E+00  3.5618233E+01
 8.6652508E+00  3.5501133E+01
 8.6767502E+00  3.5333099E+01
 8.6882505E+00  3.5122604E+01
 8.6997509E+00  3.5031879E+01
 8.7112503E+00  3.4786270E+01
 8.7227507E+00  3.4720211E+01
 8.7342501E+00  3.4487843E+01
 8.7457504E+00  3.4303154E+01
 8.7572508E+00  3.4107189E+01
 8.7687502E+00  3.3925312E+01
 8.7802505E+00  3.3741081E+01
 8.7917500E+00  3.3530567E+01
 8.8032503E+00  3.3369381E+01
 8.8147507E+00  3.3233437E+01
 8.8262501E+00  3.3056587E+01
 8.8377504E+00  3.2820068E+01
 8.8492508E+00  3.2590061E+01
 8.8607502E+00  3.2367958E+01
 8.8722506E+00  3.2219688E+01
 8.8837500E+00  3.2070412E+01
 8.8952503E+00  3.1943386E+01
 8.9067507E+00  3.1796856E+01
 8.9182501E+00  3.1631163E+01
 8.9297504E+00  3.1468769E+01
 8.9412508E+00  3.1296101E+01
 8.9527502E+00  3.1120300E+01
 8.9642506E+00  3.0959501E+01
 8.9757500E+00  3.0741735E+01
 8.9872503E+00  3.0623522E+01
 8.9987507E+00  3.0489807E+01
 9.0102501E+00  3.0406796E+01
 9.0217505E+00  3.0288506E+01
 9.0332508E+00  3.0289612E+01
 9.0447502E+00  3.0213053E+01
 9.0562506E+00  3.0152584E+01
 9.0677500E+00  3.0040977E+01
 9.0792503E+00  2.9918913E+01
 9.0907507E+00  2.9803614E+01
 9.1022501E+00  2.9622768E+01
 9.1137505E+00  2.9530729E+01
 9.1252508E+00  2.9430079E+01
 9.1367502E+00  2.9290693E+01
 9.1482506E+00  2.9169222E+01
 9.1597500E+00  2.8998625E+01
 9.1712503E+00  2.8877047E+01
 9.1827507E+00  2.8740744E+01
 9.1942501E+00  2.8604298E+01
 9.2057505E+00  2.8452391E+01
 9.2172508E+00  2.8380732E+01
 9.2287502E+00  2.8289272E+01
 9.2402506E+00  2.8224398E+01
 9.2517500E+00  2.8053185E+01
 9.2632504E+00  2.7934902E+01
 9.2747507E+00  2.7846115E+01
 9.2862501E+00  2.7792656E+01
 9.2977505E+00  2.7759548E+01
 9.3092508E+00  2.7710020E+01
 9.3207502E+00  2.7626499E+01
 9.3322506E+00  2.7740248E+01
 9.3437500E+00  2.7504942E+01
 9.3552504E+00  2.7588684E+01
 9.3667507E+00  2.7443703E+01
 9.3782501E+00  2.7470346E+01
 9.3897505E+00  2.7419664E+01
 9.4012508E+00  2.7195429E+01
 9.4127502E+00  2.7136322E+01
 9.4242506E+00  2.7063948E+01
 9.4357500E+00  2.6911697E+01
 9.4472504E+00  2.6917000E+01
 9.4587507E+00  2.6726294E+01
 9.4702501E+00  2.6723104E+01
 9.4817505E+00  2.6539980E+01
 9.4932508E+00  2.6364042E+01
 9.5047503E+00  2.6221972E+01
 9.5162506E+00  2.6179380E+01
 9.5277500E+00  2.6086050E+01
 9.5392504E+00  2.6033007E+01
 9.5507507E+00  2.5959517E+01
 9.5622501E+00  2.5895332E+01
 9.5737505E+00  2.5794695E+01
 9.5852509E+00  2.5633039E+01
 9.5967503E+00  2.5539665E+01
 9.6082506E+00  2.5489563E+01
 9.6197500E+00  2.5501314E+01
 9.6312504E+00  2.5464752E+01
 9.6427507E+00  2.5429201E+01
 9.6542501E+00  2.5365704E+01
 9.6657505E+00  2.5344419E+01
 9.6772509E+00  2.5259007E+01
 9.6887503E+00  2.5155830E+01
 9.7002506E+00  2.5064814E+01
 9.7117500E+00  2.4987549E+01
 9.7232504E+00  2.4966848E+01
 9.7347507E+00  2.4881142E+01
 9.7462502E+00  2.4897917E+01
 9.7577505E+00  2.4904316E+01
 9.7692509E+00  2.4882416E+01
 9.7807503E+00  2.4849096E+01
 9.7922506E+00  2.4728052E+01
 9.8037500E+00  2.4687834E+01
 9.8152504E+00  2.4604097E+01
 9.8267508E+00  2.4596210E+01
 9.8382502E+00  2.4567600E+01
 9.8497505E+00  2.4555534E+01
 9.8612509E+00  2.4517614E+01
 9.8727503E+00  2.4485125E+01
 9.8842506E+00  2.4456461E+01
 9.8957500E+00  2.4478252E+01
 9.9072504E+00  2.4527395E+01
 9.9187508E+00  2.4543207E+01
 9.9302502E+00  2.4504238E+01
 9.9417505E+00  2.4522507E+01
 9.9532509E+00  2.4495058E+01
 9.9647503E+00  2.4518242E+01
 9.9762506E+00  2.4463123E+01
 9.9877501E+00  2.4427166E+01
 9.9992504E+00  2.4384293E+01
 1.0010751E+01  2.4250551E+01
 1.0022250E+01  2.4179298E+01
 1.0033751E+01  2.4051237E+01
 1.0045251E+01  2.4014975E+01
 1.0056750E+01  2.3943146E+01
 1.0068251E+01  2.3961872E+01
 1.0079750E+01  2.3921885E+01
 1.0091250E+01  2.3873476E+01
 1.0102751E+01  2.3831081E+01
 1.0114250E+01  2.3865101E+01
 1.0125751E+01  2.3918209E+01
 1.0137251E+01  2.3958200E+01
 1.0148750E+01  2.3936125E+01
 1.0160251E+01  2.3987539E+01
 1.0171750E+01  2.3942423E+01
 1.0183250E+01  2.3895758E+01
 1.0194751E+01  2.3831335E+01
 1.0206250E+01  2.3759613E+01
 1.0217751E+01  2.3733006E+01
 1.0229251E+01  2.3664854E+01
 1.0240750E+01  2.3648132E+01
 1.0252251E+01  2.3607143E+01
 1.0263750E+01  2.3592823E+01
 1.0275250E+01  2.3619148E+01
 1.0286751E+01  2.3616343E+01
 1.0298250E+01  2.3604553E+01
 1.0309751E+01  2.3527063E+01
 1.0321251E+01  2.3456257E+01
 1.0332750E+01  2.3406868E+01
 1.0344251E+01  2.3387403E+01
 1.0355750E+01  2.3410572E+01
 1.0367250E+01  2.3335823E+01
 1.0378751E+01  2.3291006E+01
 1.0390250E+01  2.3266504E+01
 1.0401751E+01  2.3235479E+01
 1.0413251E+01  2.3252905E+01
 1.0424750E+01  2.3199181E+01
 1.0436251E+01  2.3175308E+01
 1.0447750E+01  2.3137497E+01
 1.0459250E+01  2.3114956E+01
 1.0470751E+01  2.3141525E+01
 1.0482250E+01  2.3160421E+01
 1.0493751E+01  2.3207924E+01
 1.0505251E+01  2.3187405E+01
 1.0516750E+01  2.3154030E+01
 1.0528251E+01  2.3038807E+01
 1.0539750E+01  2.2956020E+01
 1.0551250E+01  2.2905098E+01
 1.0562751E+01  2.2906319E+01
 1.0574250E+01  2.2890467E+01
 1.0585751E+01  2.2896584E+01
 1.0597251E+01  2.2888731E+01
 1.0608750E+01  2.2919971E+01
 1.0620251E+01  2.2865858E+01
 1.0631750E+01  2.2834274E+01
 1.0643250E+01  2.2798010E+01
 1.0654751E+01  2.2780184E+01
 1.0666250E+01  2.2730526E+01
 1.0677751E+01  2.2695272E+01
 1.0689251E+01  2.2653311E+01
 1.0700750E+01  2.2665613E+01
 1.0712251E+01  2.2697525E+01
 1.0723750E+01  2.2725925E+01
 1.0735250E+01  2.2697224E+01
 1.0746751E+01  2.2680882E+01
 1.0758250E+01  2.2605350E+01
 1.0769751E+01  2.2599384E+01
 1.0781251E+01  2.2604471E+01
 1.0792750E+01  2.2623447E+01
 1.0804251E+01  2.2650900E+01
 1.0815750E+01  2.2645351E+01
 1.0827250E+01  2.2647938E+01
 1.0838751E+01  2.2657305E+01
 1.0850250E+01  2.2614880E+01
 1.0861751E+01  2.2594070E+01
 1.0873251E+01  2.2599041E+01
 1.0884750E+01  2.2589325E+01
 1.0896251E+01  2.2577250E+01
 1.0907750E+01  2.2588409E+01
 1.0919250E+01  2.2619944E+01
 1.0930751E+01  2.2658836E+01
 1.0942250E+01  2.2656218E+01
 1.0953751E+01  2.2645254E+01
 1.0965251E+01  2.2602242E+01
 1.0976750E+01  2.2517334E+01
 1.0988251E+01  2.2451044E+01
 1.0999750E+01  2.2431763E+01
 1.1011250E+01  2.2412472E+01
 1.1022751E+01  2.2490170E+01
 1.1034250E+01  2.2518784E+01
 1.1045751E+01  2.2512491E+01
 1.1057251E+01  2.2445391E+01
 1.1068750E+01  2.2466616E+01
 1.1080251E+01  2.2488434E+01
 1.1091750E+01  2.2513754E+01
 1.1103251E+01  2.2506405E+01
 1.1114751E+01  2.2523626E+01
 1.1126250E+01  2.2478228E+01
 1.1137751E+01  2.2414257E+01
 1.1149251E+01  2.2394979E+01
 1.1160750E+01  2.2341063E+01
 1.1172251E+01  2.2304747E+01
 1.1183750E+01  2.2206388E+01
 1.1195251E+01  2.2165291E+01
 1.1206751E+01  2.2175514E+01
 1.1218250E+01  2.2217699E+01
 1.1229751E+01  2.2254765E+01
 1.1241251E+01  2.2267565E+01
 1.1252750E+01  2.2281309E+01
 1.1264251E+01  2.2257929E+01
 1.1275750E+01  2.2268003E+01
 1.1287251E+01  2.2232040E+01
 1.1298751E+01  2.2242577E+01
 1.1310250E+01  2.2250786E+01
 1.1321751E+01  2.2221195E+01
 1.1333251E+01  2.2221596E+01
 1.1344750E+01  2.2188143E+01
 1.1356251E+01  2.2254221E+01
 1.1367750E+01  2.2358969E+01
 1.1379251E+01  2.2463537E+01
 1.1390751E+01  2.2598354E+01
 1.1402250E+01  2.2758057E+01
 1.1413751E+01  2.2862829E+01
 1.1425251E+01  2.2813595E+01
 1.1436750E+01  2.2779011E+01
 1.1448251E+01  2.2726809E+01
 1.1459750E+01  2.2715454E+01
 1.1471251E+01  2.2607265E+01
 1.1482751E+01  2.2504925E+01
 1.1494250E+01  2.2519815E+01
 1.1505751E+01  2.2513477E+01
 1.1517251E+01  2.2573563E+01
 1.1528750E+01  2.2684383E+01
 1.1540251E+01  2.2902761E+01
 1.1551750E+01  2.3141880E+01
 1.1563251E+01  2.3405821E+01
 1.1574751E+01  2.3657576E+01
 1.1586250E+01  2.3840513E+01
 1.1597751E+01  2.3890293E+01
 1.1609251E+01  2.3679087E+01
 1.1620750E+01  2.3466171E+01
 1.1632251E+01  2.3185747E+01
 1.1643750E+01  2.2971189E+01
 1.1655251E+01  2.2758429E+01
 1.1666751E+01  2.2535025E+01
 1.1678250E+01  2.2417624E+01
 1.1689751E+01  2.2332996E+01
 1.1701251E+01  2.2279165E+01
 1.1712750E+01  2.2292461E+01
 1.1724251E+01  2.2300457E+01
 1.1735750E+01  2.2322786E+01
 1.1747251E+01  2.2301817E+01
 1.1758751E+01  2.2308449E+01
 1.1770250E+01  2.2269251E+01
 1.1781751E+01  2.2278131E+01
 1.1793251E+01  2.2236128E+01
 1.1804750E+01  2.2263685E+01
 1.1816251E+01  2.2253679E+01
 1.1827750E+01  2.2258131E+01
 1.1839251E+01  2.2272509E+01
 1.1850751E+01  2.2213423E+01
 1.1862250E+01  2.2229704E+01
 1.1873751E+01  2.2207363E+01
 1.1885251E+01  2.2278044E+01
 1.1896750E+01  2.2377579E+01
 1.1908251E+01  2.2497486E+01
 1.1919750E+01  2.2657227E+01
 1.1931251E+01  2.2766424E+01
 1.1942751E+01  2.2862240E+01
 1.1954250E+01  2.2978222E+01
 1.1965751E+01  2.3050262E+01
 1.1977251E+01  2.3207958E+01
 1.1988750E+01  2.3248983E+01
 1.2000251E+01  2.3206017E+01
 1.2011750E+01  2.3045839E+01
 1.2023251E+01  2.2828094E+01
 1.2034751E+01  2.2684237E+01
 1.2046250E+01  2.2608284E+01
 1.2057751E+01  2.2613838E+01
 1.2069251E+01  2.2695696E+01
 1.2080750E+01  2.2794004E+01
 1.2092251E+01  2.2850557E+01
 1.2103750E+01  2.2885410E+01
 1.2115251E+01  2.2773237E+01
 1.2126751E+01  2.2705431E+01
 1.2138250E+01  2.2560877E+01
 1.2149751E+01  2.2504715E+01
 1.2161251E+01  2.2395521E+01
 1.2172750E+01  2.2374228E+01
 1.2184251E+01  2.2341171E+01
 1.2195750E+01  2.2327421E+01
 1.2207251E+01  2.2238661E+01
 1.2218751E+01  2.2220331E+01
 1.2230250E+01  2.2205603E+01
 1.2241751E+01  2.2190321E+01
 1.2253251E+01  2.2185131E+01
 1.2264750E+01  2.2214018E+01
 1.2276251E+01  2.2199738E+01
 1.2287750E+01  2.2211937E+01
 1.2299251E+01  2.2199966E+01
 1.2310751E+01  2.2278259E+01
 1.2322250E+01  2.2255333E+01
 1.2333751E+01  2.2310743E+01
 1.2345250E+01  2.2253424E+01
 1.2356750E+01  2.2259638E+01
 1.2368251E+01  2.2202091E+01
 1.2379750E+01  2.2282030E+01
 1.2391251E+01  2.2317297E+01
 1.2402751E+01  2.2387737E+01
 1.2414250E+01  2.2398855E+01
 1.2425751E+01  2.2384472E+01
 1.2437250E+01  2.2342356E+01
 1.2448750E+01  2.2314020E+01
 1.2460251E+01  2.2288689E+01
 1.2471750E+01  2.2300383E+01
 1.2483251E+01  2.2329987E+01
 1.2494751E+01  2.2363541E+01
 1.2506250E+01  2.2369808E+01
 1.2517751E+01  2.2358841E+01
 1.2529250E+01  2.2375790E+01
 1.2540751E+01  2.2415567E+01
 1.2552251E+01  2.2500568E+01
 1.2563750E+01  2.2561956E+01
 1.2575251E+01  2.2563877E+01
 1.2586751E+01  2.2591988E+01
 1.2598250E+01  2.2628538E+01
 1.2609751E+01  2.2698223E+01
 1.2621250E+01  2.2741940E+01
 1.2632751E+01  2.2787184E+01
 1.2644251E+01  2.2807411E+01
 1.2655750E+01  2.2820717E+01
 1.2667251E+01  2.2813560E+01
 1.2678751E+01  2.2779303E+01
 1.2690250E+01  2.2716040E+01
 1.2701751E+01  2.2699812E+01
 1.2713250E+01  2.2726053E+01
 1.2724751E+01  2.2733625E+01
 1.2736251E+01  2.2730478E+01
 1.2747750E+01  2.2729839E+01
 1.2759251E+01  2.2759897E+01
 1.2770751E+01  2.2788538E+01
 1.2782250E+01  2.2858866E+01
 1.2793751E+01  2.2846319E+01
 1.2805250E+01  2.2879982E+01
 1.2816751E+01  2.2895824E+01
 1.2828251E+01  2.2977549E+01
 1.2839750E+01  2.3049877E+01
 1.2851251E+01  2.3110390E+01
 1.2862751E+01  2.3120012E+01
 1.2874250E+01  2.3116922E+01
 1.2885751E+01  2.3087013E+01
 1.2897250E+01  2.3109898E+01
 1.2908751E+01  2.3173803E+01
 1.2920251E+01  2.3376944E+01
 1.2931750E+01  2.3545546E+01
 1.2943251E+01  2.3618406E+01
 1.2954751E+01  2.3567270E+01
 1.2966250E+01  2.3576763E+01
 1.2977751E+01  2.3646479E+01
 1.2989250E+01  2.3636858E+01
 1.3000751E+01  2.3695347E+01
 1.3012251E+01  2.3742905E+01
 1.3023750E+01  2.3871943E+01
 1.3035251E+01  2.3932442E+01
 1.3046751E+01  2.4011374E+01
 1.3058250E+01  2.4143272E+01
 1.3069751E+01  2.4226208E+01
 1.3081250E+01  2.4353968E+01
 1.3092751E+01  2.4485207E+01
 1.3104251E+01  2.4650112E+01
 1.3115750E+01  2.4738085E+01
 1.3127251E+01  2.4778524E+01
 1.3138751E+01  2.4784035E+01
 1.3150250E+01  2.4864180E+01
 1.3161751E+01  2.4941744E+01
 1.3173250E+01  2.5111385E+01
 1.3184751E+01  2.5271374E+01
 1.3196251E+01  2.5436127E+01
 1.3207750E+01  2.5624722E+01
 1.3219251E+01  2.5802166E+01
 1.3230751E+01  2.6035549E+01
 1.3242250E+01  2.6193560E+01
 1.3253751E+01  2.6295683E+01
 1.3265250E+01  2.6397232E+01
 1.3276751E+01  2.6476856E+01
 1.3288251E+01  2.6646189E+01
 1.3299750E+01  2.6806934E+01
 1.3311251E+01  2.6940973E+01
 1.3322751E+01  2.7089106E+01
 1.3334250E+01  2.7243835E+01
 1.3345751E+01  2.7395094E+01
 1.3357250E+01  2.7574898E+01
 1.3368751E+01  2.7618807E+01
 1.3380251E+01  2.7803514E+01
 1.3391750E+01  2.7890289E+01
 1.3403251E+01  2.8063614E+01
 1.3414751E+01  2.8110943E+01
 1.3426250E+01  2.8165976E+01
 1.3437751E+01  2.8310154E+01
 1.3449250E+01  2.8486961E+01
 1.3460751E+01  2.8820845E+01
 1.3472251E+01  2.9008722E+01
 1.3483750E+01  2.9103340E+01
 1.3495251E+01  2.8995810E+01
 1.3506751E+01  2.8965651E+01
 1.3518250E+01  2.9019753E+01
 1.3529751E+01  2.9083492E+01
 1.3541250E+01  2.9183760E+01
 1.3552751E+01  2.9236666E+01
 1.3564251E+01  2.9289167E+01
 1.3575750E+01  2.9285446E+01
 1.3587251E+01  2.9375290E+01
 1.3598751E+01  2.9404417E+01
 1.3610250E+01  2.9436369E+01
 1.3621751E+01  2.9433130E+01
 1.3633250E+01  2.9411654E+01
 1.3644751E+01  2.9394852E+01
 1.3656251E+01  2.9394117E+01
 1.3667750E+01  2.9406710E+01
 1.3679251E+01  2.9421202E+01
 1.3690751E+01  2.9390190E+01
 1.3702250E+01  2.9323301E+01
 1.3713751E+01  2.9263674E+01
 1.3725250E+01  2.9156857E+01
 1.3736751E+01  2.9064671E+01
 1.3748251E+01  2.8936230E+01
 1.3759750E+01  2.8864698E+01
 1.3771251E+01  2.8871609E+01
 1.3782751E+01  2.8882088E+01
 1.3794250E+01  2.8886602E+01
 1.3805751E+01  2.8830091E+01
 1.3817250E+01  2.8792963E+01
 1.3828751E+01  2.8753155E+01
 1.3840251E+01  2.8782101E+01
 1.3851750E+01  2.8834091E+01
 1.3863251E+01  2.8901970E+01
 1.3874751E+01  2.8909729E+01
 1.3886250E+01  2.9000061E+01
 1.3897751E+01  2.9281376E+01
 1.3909250E+01  2.9485477E+01
 1.3920751E+01  2.9971617E+01
 1.3932251E+01  3.0241276E+01
 1.3943750E+01  3.0489214E+01
 1.3955251E+01  3.0502680E+01
 1.3966751E+01  3.0209026E+01
 1.3978251E+01  3.0063391E+01
 1.3989751E+01  2.9444221E+01
 1.4001250E+01  2.9004313E+01
 1.4012751E+01  2.8342058E+01
 1.4024251E+01  2.7979528E+01
 1.4035750E+01  2.7721676E+01
 1.4047251E+01  2.7526112E+01
 1.4058751E+01  2.7391813E+01
 1.4070251E+01  2.7336988E+01
 1.4081751E+01  2.7218481E+01
 1.4093250E+01  2.7136534E+01
 1.4104751E+01  2.7006668E+01
 1.4116251E+01  2.6959730E+01
 1.4127750E+01  2.6867947E+01
 1.4139251E+01  2.6882902E+01
 1.4150751E+01  2.6836664E+01
 1.4162251E+01  2.6879896E+01
 1.4173751E+01  2.6812981E+01
 1.4185250E+01  2.6766722E+01
 1.4196751E+01  2.6675480E+01
 1.4208251E+01  2.6568279E+01
 1.4219750E+01  2.6476030E+01
 1.4231251E+01  2.6344940E+01
 1.4242751E+01  2.6314020E+01
 1.4254251E+01  2.6250978E+01
 1.4265751E+01  2.6279863E+01
 1.4277250E+01  2.6225714E+01
 1.4288751E+01  2.6238110E+01
 1.4300251E+01  2.6159725E+01
 1.4311750E+01  2.6087748E+01
 1.4323251E+01  2.5900255E+01
 1.4334751E+01  2.5830547E+01
 1.4346251E+01  2.5863026E+01
 1.4357751E+01  2.5958059E+01
 1.4369250E+01  2.6008226E+01
 1.4380751E+01  2.5999939E+01
 1.4392251E+01  2.6007357E+01
 1.4403750E+01  2.5954304E+01
 1.4415251E+01  2.5863737E+01
 1.4426751E+01  2.5775169E+01
 1.4438251E+01  2.5724163E+01
 1.4449751E+01  2.5657282E+01
 1.4461250E+01  2.5585667E+01
 1.4472751E+01  2.5523724E+01
 1.4484251E+01  2.5528038E+01
 1.4495750E+01  2.5508402E+01
 1.4507251E+01  2.5470589E+01
 1.4518751E+01  2.5415213E+01
 1.4530251E+01  2.5413181E+01
 1.4541751E+01  2.5426996E+01
 1.4553250E+01  2.5426657E+01
 1.4564751E+01  2.5368015E+01
 1.4576251E+01  2.5270884E+01
 1.4587750E+01  2.5202858E+01
 1.4599251E+01  2.5141985E+01
 1.4610751E+01  2.5118769E+01
 1.4622251E+01  2.5137959E+01
 1.4633751E+01  2.5116459E+01
 1.4645250E+01  2.5117407E+01
 1.4656751E+01  2.5066917E+01
 1.4668251E+01  2.5043623E+01
 1.4679750E+01  2.5086132E+01
 1.4691251E+01  2.5086435E+01
 1.4702751E+01  2.5076931E+01
 1.4714251E+01  2.4957676E+01
 1.4725751E+01  2.4894981E+01
 1.4737250E+01  2.4837225E+01
 1.4748751E+01  2.4805677E+01
 1.4760251E+01  2.4754753E+01
 1.4771750E+01  2.4746616E+01
 1.4783251E+01  2.4731201E+01
 1.4794751E+01  2.4753445E+01
 1.4806251E+01  2.4754030E+01
 1.4817751E+01  2.4762857E+01
 1.4829250E+01  2.4767096E+01
 1.4840751E+01  2.4773081E+01
 1.4852251E+01  2.4776937E+01
 1.4863750E+01  2.4714937E+01
 1.4875251E+01  2.4686684E+01
 1.4886751E+01  2.4637394E+01
 1.4898251E+01  2.4661669E+01
 1.4909751E+01  2.4621269E+01
 1.4921250E+01  2.4584057E+01
 1.4932751E+01  2.4540401E+01
 1.4944251E+01  2.4468542E+01
 1.4955750E+01  2.4452814E+01
 1.4967251E+01  2.4439980E+01
 1.4978751E+01  2.4477129E+01
 1.4990251E+01  2.4504772E+01
 1.5001751E+01  2.4529596E+01
 1.5013250E+01  2.4571674E+01
 1.5024751E+01  2.4614082E+01
 1.5036251E+01  2.4595201E+01
 1.5047750E+01  2.4575577E+01
 1.5059251E+01  2.4546549E+01
 1.5070751E+01  2.4537724E+01
 1.5082251E+01  2.4522335E+01
 1.5093751E+01  2.4513794E+01
 1.5105250E+01  2.4599794E+01
 1.5116751E+01  2.4649498E+01
 1.5128251E+01  2.4690807E+01
 1.5139750E+01  2.4702168E+01
 1.5151251E+01  2.4761463E+01
 1.5162751E+01  2.4860056E+01
 1.5174251E+01  2.4915478E+01
 1.5185751E+01  2.4963051E+01
 1.5197250E+01  2.4938961E+01
 1.5208751E+01  2.4924324E+01
 1.5220251E+01  2.4895508E+01
 1.5231750E+01  2.4825859E+01
 1.5243251E+01  2.4723532E+01
 1.5254751E+01  2.4590921E+01
 1.5266251E+01  2.4474831E+01
 1.5277751E+01  2.4405352E+01
 1.5289250E+01  2.4398293E+01
 1.5300751E+01  2.4414701E+01
 1.5312251E+01  2.4400928E+01
 1.5323750E+01  2.4369751E+01
 1.5335251E+01  2.4328671E+01
 1.5346751E+01  2.4301567E+01
 1.5358251E+01  2.4340229E+01
 1.5369751E+01  2.4371164E+01
 1.5381250E+01  2.4395628E+01
 1.5392751E+01  2.4350161E+01
 1.5404251E+01  2.4338274E+01
 1.5415751E+01  2.4255972E+01
 1.5427251E+01  2.4201229E+01
 1.5438751E+01  2.4134398E+01
 1.5450251E+01  2.4094532E+01
 1.5461751E+01  2.4097109E+01
 1.5473250E+01  2.4081858E+01
 1.5484751E+01  2.4165545E+01
 1.5496251E+01  2.4154636E+01
 1.5507751E+01  2.4215298E+01
 1.5519251E+01  2.4244537E+01
 1.5530751E+01  2.4303165E+01
 1.5542251E+01  2.4352623E+01
 1.5553751E+01  2.4363903E+01
 1.5565250E+01  2.4416882E+01
 1.5576751E+01  2.4357126E+01
 1.5588251E+01  2.4327057E+01
 1.5599751E+01  2.4279026E+01
 1.5611251E+01  2.4292896E+01
 1.5622751E+01  2.4265034E+01
 1.5634251E+01  2.4240444E+01
 1.5645751E+01  2.4283361E+01
 1.5657250E+01  2.4335878E+01
 1.5668751E+01  2.4379333E+01
 1.5680251E+01  2.4371319E+01
 1.5691751E+01  2.4385393E+01
 1.5703251E+01  2.4419090E+01
 1.5714751E+01  2.4389454E+01
 1.5726251E+01  2.4387114E+01
 1.5737751E+01  2.4329063E+01
 1.5749250E+01  2.4349787E+01
 1.5760751E+01  2.4374348E+01
 1.5772251E+01  2.4405455E+01
 1.5783751E+01  2.4364450E+01
 1.5795251E+01  2.4315237E+01
 1.5806751E+01  2.4312511E+01
 1.5818251E+01  2.4282352E+01
 1.5829751E+01  2.4249172E+01
 1.5841250E+01  2.4200392E+01
 1.5852751E+01  2.4230209E+01
 1.5864251E+01  2.4248550E+01
 1.5875751E+01  2.4294098E+01
 1.5887251E+01  2.4316023E+01
 1.5898750E+01  2.4321556E+01
 1.5910251E+01  2.4368999E+01
 1.5921751E+01  2.4374115E+01
 1.5933250E+01  2.4431328E+01
 1.5944751E+01  2.4355623E+01
 1.5956251E+01  2.4354597E+01
 1.5967751E+01  2.4314331E+01
 1.5979251E+01  2.4416739E+01
 1.5990750E+01  2.4506670E+01
 1.6002251E+01  2.4518057E+01
 1.6013750E+01  2.4510239E+01
 1.6025251E+01  2.4447687E+01
 1.6036751E+01  2.4497499E+01
 1.6048250E+01  2.4512911E+01
 1.6059752E+01  2.4592018E+01
 1.6071251E+01  2.4563566E+01
 1.6082750E+01  2.4636568E+01
 1.6094252E+01  2.4580265E+01
 1.6105751E+01  2.4630695E+01
 1.6117250E+01  2.4561836E+01
 1.6128750E+01  2.4544237E+01
 1.6140251E+01  2.4529575E+01
 1.6151751E+01  2.4515409E+01
 1.6163250E+01  2.4596071E+01
 1.6174751E+01  2.4572626E+01
 1.6186251E+01  2.4823977E+01
 1.6197750E+01  2.4773232E+01
 1.6209251E+01  2.5240423E+01
 1.6220751E+01  2.5260422E+01
 1.6232250E+01  2.5916187E+01
 1.6243752E+01  2.6133526E+01
 1.6255251E+01  2.6507397E+01
 1.6266750E+01  2.6625473E+01
 1.6278252E+01  2.6212242E+01
 1.6289751E+01  2.6156906E+01
 1.6301250E+01  2.5357994E+01
 1.6312750E+01  2.5337826E+01
 1.6324251E+01  2.4731804E+01
 1.6335751E+01  2.4772993E+01
 1.6347250E+01  2.4528450E+01
 1.6358751E+01  2.4534546E+01
 1.6370251E+01  2.4446676E+01
 1.6381750E+01  2.4390484E+01
 1.6393251E+01  2.4445887E+01
 1.6404751E+01  2.4431829E+01
 1.6416250E+01  2.4512867E+01
 1.6427752E+01  2.4463541E+01
 1.6439251E+01  2.4504946E+01
 1.6450750E+01  2.4444319E+01
 1.6462252E+01  2.4427507E+01
 1.6473751E+01  2.4370295E+01
 1.6485250E+01  2.4381390E+01
 1.6496750E+01  2.4392702E+01
 1.6508251E+01  2.4393925E+01
 1.6519751E+01  2.4383312E+01
 1.6531250E+01  2.4355082E+01
 1.6542751E+01  2.4408476E+01
 1.6554251E+01  2.4387987E+01
 1.6565750E+01  2.4414473E+01
 1.6577251E+01  2.4375448E+01
 1.6588751E+01  2.4461079E+01
 1.6600250E+01  2.4500608E+01
 1.6611752E+01  2.4577213E+01
 1.6623251E+01  2.4512501E+01
 1.6634750E+01  2.4476112E+01
 1.6646252E+01  2.4409683E+01
 1.6657751E+01  2.4440176E+01
 1.6669250E+01  2.4442064E+01
 1.6680750E+01  2.4447029E+01
 1.6692251E+01  2.4397301E+01
 1.6703751E+01  2.4326424E+01
 1.6715250E+01  2.4235849E+01
 1.6726751E+01  2.4197933E+01
 1.6738251E+01  2.4210598E+01
 1.6749750E+01  2.4278627E+01
 1.6761251E+01  2.4291878E+01
 1.6772751E+01  2.4261766E+01
 1.6784250E+01  2.4189764E+01
 1.6795752E+01  2.4165110E+01
 1.6807251E+01  2.4164764E+01
 1.6818750E+01  2.4162695E+01
 1.6830252E+01  2.4158888E+01
 1.6841751E+01  2.4173487E+01
 1.6853251E+01  2.4167856E+01
 1.6864750E+01  2.4205463E+01
 1.6876251E+01  2.4268238E+01
 1.6887751E+01  2.4293264E+01
 1.6899250E+01  2.4333748E+01
 1.6910751E+01  2.4290916E+01
 1.6922251E+01  2.4247250E+01
 1.6933750E+01  2.4110762E+01
 1.6945251E+01  2.4077202E+01
 1.6956751E+01  2.4041908E+01
 1.6968250E+01  2.4022287E+01
 1.6979752E+01  2.3982237E+01
 1.6991251E+01  2.3983097E+01
 1.7002750E+01  2.3950432E+01
 1.7014252E+01  2.3951675E+01
 1.7025751E+01  2.3898493E+01
 1.7037251E+01  2.3882675E+01
 1.7048750E+01  2.3821716E+01
 1.7060251E+01  2.3850048E+01
 1.7071751E+01  2.3875319E+01
 1.7083250E+01  2.3970943E+01
 1.7094751E+01  2.3967274E+01
 1.7106251E+01  2.3965508E+01
 1.7117750E+01  2.3948460E+01
 1.7129251E+01  2.3941259E+01
 1.7140751E+01  2.3923683E+01
 1.7152250E+01  2.3879345E+01
 1.7163752E+01  2.3886892E+01
 1.7175251E+01  2.3861755E+01
 1.7186750E+01  2.3846241E+01
 1.7198252E+01  2.3820568E+01
 1.7209751E+01  2.3838194E+01
 1.7221251E+01  2.3835161E+01
 1.7232750E+01  2.3814125E+01
 1.7244251E+01  2.3774343E+01
 1.7255751E+01  2.3736210E+01
 1.7267250E+01  2.3737005E+01
 1.7278751E+01  2.3711784E+01
 1.7290251E+01  2.3748779E+01
 1.7301750E+01  2.3799086E+01
 1.7313251E+01  2.3843712E+01
 1.7324751E+01  2.3840006E+01
 1.7336250E+01  2.3791359E+01
 1.7347752E+01  2.3733538E+01
 1.7359251E+01  2.3707584E+01
 1.7370750E+01  2.3708656E+01
 1.7382252E+01  2.3714090E+01
 1.7393751E+01  2.3661850E+01
 1.7405251E+01  2.3640541E+01
 1.7416750E+01  2.3631645E+01
 1.7428251E+01  2.3648848E+01
 1.7439751E+01  2.3713203E+01
 1.7451250E+01  2.3729572E+01
 1.7462751E+01  2.3811655E+01
 1.7474251E+01  2.3809994E+01
 1.7485750E+01  2.3903316E+01
 1.7497252E+01  2.3855789E+01
 1.7508751E+01  2.3839437E+01
 1.7520250E+01  2.3732491E+01
 1.7531752E+01  2.3709105E+01
 1.7543251E+01  2.3669348E+01
 1.7554750E+01  2.3663965E+01
 1.7566252E+01  2.3635866E+01
 1.7577751E+01  2.3662512E+01
 1.7589251E+01  2.3608719E+01
 1.7600750E+01  2.3578753E+01
 1.7612251E+01  2.3526058E+01
 1.7623751E+01  2.3573656E+01
 1.7635250E+01  2.3551819E+01
 1.7646751E+01  2.3543430E+01
 1.7658251E+01  2.3496128E+01
 1.7669750E+01  2.3515936E+01
 1.7681252E+01  2.3492146E+01
 1.7692751E+01  2.3524651E+01
 1.7704250E+01  2.3527132E+01
 1.7715752E+01  2.3508270E+01
 1.7727251E+01  2.3476517E+01
 1.7738750E+01  2.3416838E+01
 1.7750252E+01  2.3404173E+01
 1.7761751E+01  2.3412735E+01
 1.7773251E+01  2.3460869E+01
 1.7784750E+01  2.3531816E+01
 1.7796251E+01  2.3564497E+01
 1.7807751E+01  2.3578156E+01
 1.7819250E+01  2.3583342E+01
 1.7830751E+01  2.3597616E+01
 1.7842251E+01  2.3571484E+01
 1.7853750E+01  2.3498030E+01
 1.7865252E+01  2.3418383E+01
 1.7876751E+01  2.3380520E+01
 1.7888250E+01  2.3343227E+01
 1.7899752E+01  2.3353687E+01
 1.7911251E+01  2.3389481E+01
 1.7922750E+01  2.3432064E+01
 1.7934252E+01  2.3458719E+01
 1.7945751E+01  2.3513308E+01
 1.7957251E+01  2.3537247E+01
 1.7968750E+01  2.3548389E+01
 1.7980251E+01  2.3558126E+01
 1.7991751E+01  2.3580154E+01
 1.8003250E+01  2.3612907E+01
 1.8014751E+01  2.3610128E+01
 1.8026251E+01  2.3602034E+01
 1.8037750E+01  2.3605619E+01
 1.8049252E+01  2.3698496E+01
 1.8060751E+01  2.3816637E+01
 1.8072250E+01  2.3875296E+01
 1.8083752E+01  2.4007629E+01
 1.8095251E+01  2.4115992E+01
 1.8106750E+01  2.4209051E+01
 1.8118252E+01  2.4166689E+01
 1.8129751E+01  2.4146002E+01
 1.8141251E+01  2.4023197E+01
 1.8152750E+01  2.3904009E+01
 1.8164251E+01  2.3769463E+01
 1.8175751E+01  2.3658525E+01
 1.8187250E+01  2.3553577E+01
 1.8198751E+01  2.3493460E+01
 1.8210251E+01  2.3453388E+01
 1.8221750E+01  2.3429874E+01
 1.8233252E+01  2.3390272E+01
 1.8244751E+01  2.3373043E+01
 1.8256250E+01  2.3403704E+01
 1.8267752E+01  2.3432638E+01
 1.8279251E+01  2.3430172E+01
 1.8290751E+01  2.3386904E+01
 1.8302252E+01  2.3401245E+01
 1.8313751E+01  2.3385551E+01
 1.8325251E+01  2.3423330E+01
 1.8336750E+01  2.3448246E+01
 1.8348251E+01  2.3461771E+01
 1.8359751E+01  2.3422855E+01
 1.8371250E+01  2.3322924E+01
 1.8382751E+01  2.3274340E+01
 1.8394251E+01  2.3285126E+01
 1.8405750E+01  2.3337170E+01
 1.8417252E+01  2.3376436E+01
 1.8428751E+01  2.3373631E+01
 1.8440250E+01  2.3410137E+01
 1.8451752E+01  2.3424273E+01
 1.8463251E+01  2.3406645E+01
 1.8474751E+01  2.3397266E+01
 1.8486252E+01  2.3388180E+01
 1.8497751E+01  2.3356489E+01
 1.8509251E+01  2.3320827E+01
 1.8520750E+01  2.3262257E+01
 1.8532251E+01  2.3254433E+01
 1.8543751E+01  2.3233263E+01
 1.8555250E+01  2.3293385E+01
 1.8566751E+01  2.3312658E+01
 1.8578251E+01  2.3377096E+01
 1.8589750E+01  2.3385067E+01
 1.8601252E+01  2.3412828E+01
 1.8612751E+01  2.3405128E+01
 1.8624250E+01  2.3335381E+01
 1.8635752E+01  2.3262318E+01
 1.8647251E+01  2.3186760E+01
 1.8658751E+01  2.3173088E+01
 1.8670252E+01  2.3143030E+01
 1.8681751E+01  2.3159512E+01
 1.8693251E+01  2.3169926E+01
 1.8704750E+01  2.3196646E+01
 1.8716251E+01  2.3202488E+01
 1.8727751E+01  2.3222281E+01
 1.8739250E+01  2.3198772E+01
 1.8750751E+01  2.3189878E+01
 1.8762251E+01  2.3195673E+01
 1.8773750E+01  2.3228352E+01
 1.8785252E+01  2.3227705E+01
 1.8796751E+01  2.3251532E+01
 1.8808250E+01  2.3199423E+01
 1.8819752E+01  2.3244127E+01
 1.8831251E+01  2.3201406E+01
 1.8842751E+01  2.3208235E+01
 1.8854252E+01  2.3154980E+01
 1.8865751E+01  2.3162354E+01
 1.8877251E+01  2.3164917E+01
 1.8888750E+01  2.3184969E+01
 1.8900251E+01  2.3220490E+01
 1.8911751E+01  2.3250929E+01
 1.8923250E+01  2.3285442E+01
 1.8934752E+01  2.3294247E+01
 1.8946251E+01  2.3320385E+01
 1.8957750E+01  2.3279221E+01
 1.8969252E+01  2.3202078E+01
 1.8980751E+01  2.3139395E+01
 1.8992250E+01  2.3115461E+01
 1.9003752E+01  2.3136295E+01
 1.9015251E+01  2.3156141E+01
 1.9026751E+01  2.3237150E+01
 1.9038252E+01  2.3266832E+01
 1.9049751E+01  2.3264067E+01
 1.9061251E+01  2.3233883E+01
 1.9072750E+01  2.3174198E+01
 1.9084251E+01  2.3111691E+01
 1.9095751E+01  2.3043116E+01
 1.9107250E+01  2.3001637E+01
 1.9118752E+01  2.3002161E+01
 1.9130251E+01  2.3065578E+01
 1.9141750E+01  2.3116978E+01
 1.9153252E+01  2.3147726E+01
 1.9164751E+01  2.3141268E+01
 1.9176250E+01  2.3151590E+01
 1.9187752E+01  2.3185911E+01
 1.9199251E+01  2.3205803E+01
 1.9210751E+01  2.3161880E+01
 1.9222252E+01  2.3132380E+01
 1.9233751E+01  2.3083584E+01
 1.9245251E+01  2.3120781E+01
 1.9256750E+01  2.3134640E+01
 1.9268251E+01  2.3223997E+01
 1.9279751E+01  2.3193298E+01
 1.9291250E+01  2.3203119E+01
 1.9302752E+01  2.3195728E+01
 1.9314251E+01  2.3218012E+01
 1.9325750E+01  2.3204731E+01
 1.9337252E+01  2.3174261E+01
 1.9348751E+01  2.3190275E+01
 1.9360250E+01  2.3239777E+01
 1.9371752E+01  2.3309624E+01
 1.9383251E+01  2.3356222E+01
 1.9394751E+01  2.3421347E+01
 1.9406250E+01  2.3445143E+01
 1.9417751E+01  2.3438053E+01
 1.9429251E+01  2.3396526E+01
 1.9440750E+01  2.3354080E+01
 1.9452251E+01  2.3344372E+01
 1.9463751E+01  2.3342344E+01
 1.9475250E+01  2.3355869E+01
 1.9486752E+01  2.3336168E+01
 1.9498251E+01  2.3311913E+01
 1.9509750E+01  2.3306166E+01
 1.9521252E+01  2.3347639E+01
 1.9532751E+01  2.3376585E+01
 1.9544250E+01  2.3408312E+01
 1.9555752E+01  2.3410543E+01
 1.9567251E+01  2.3455328E+01
 1.9578751E+01  2.3449120E+01
 1.9590250E+01  2.3436710E+01
 1.9601751E+01  2.3423214E+01
 1.9613251E+01  2.3442381E+01
 1.9624750E+01  2.3483074E+01
 1.9636251E+01  2.3530903E+01
 1.9647751E+01  2.3559103E+01
 1.9659250E+01  2.3576092E+01
 1.9670752E+01  2.3594046E+01
 1.9682251E+01  2.3660774E+01
 1.9693750E+01  2.3757172E+01
 1.9705252E+01  2.3850008E+01
 1.9716751E+01  2.3890162E+01
 1.9728251E+01  2.3868214E+01
 1.9739752E+01  2.3846182E+01
 1.9751251E+01  2.3799814E+01
 1.9762751E+01  2.3767796E+01
 1.9774250E+01  2.3735407E+01
 1.9785751E+01  2.3710648E+01
 1.9797251E+01  2.3727455E+01
 1.9808750E+01  2.3731642E+01
 1.9820251E+01  2.3774220E+01
 1.9831751E+01  2.3836668E+01
 1.9843250E+01  2.3896870E+01
 1.9854752E+01  2.3952690E+01
 1.9866251E+01  2.4038996E+01
 1.9877750E+01  2.4103657E+01
 1.9889252E+01  2.4139324E+01
 1.9900751E+01  2.4079601E+01
 1.9912251E+01  2.3955048E+01
 1.9923752E+01  2.3757521E+01
 1.9935251E+01  2.3599434E+01
 1.9946751E+01  2.3523769E+01
 1.9958250E+01  2.3475760E+01
 1.9969751E+01  2.3472927E+01
 1.9981251E+01  2.3454453E+01
 1.9992750E+01  2.3439259E+01
 2.0004251E+01  2.3408907E+01
 2.0015751E+01  2.3415751E+01
 2.0027250E+01  2.3412586E+01
 2.0038752E+01  2.3430063E+01
 2.0050251E+01  2.3434206E+01
 2.0061750E+01  2.3426018E+01
 2.0073252E+01  2.3415989E+01
 2.0084751E+01  2.3367407E+01
 2.0096251E+01  2.3355631E+01
 2.0107752E+01  2.3350664E+01
 2.0119251E+01  2.3339443E+01
 2.0130751E+01  2.3325531E+01
 2.0142250E+01  2.3361076E+01
 2.0153751E+01  2.3367699E+01
 2.0165251E+01  2.3370804E+01
 2.0176750E+01  2.3368969E+01
 2.0188251E+01  2.3373739E+01
 2.0199751E+01  2.3385513E+01
 2.0211250E+01  2.3398577E+01
 2.0222752E+01  2.3422535E+01
 2.0234251E+01  2.3428326E+01
 2.0245750E+01  2.3424042E+01
 2.0257252E+01  2.3417585E+01
 2.0268751E+01  2.3397650E+01
 2.0280251E+01  2.3391796E+01
 2.0291752E+01  2.3380590E+01
 2.0303251E+01  2.3339062E+01
 2.0314751E+01  2.3300341E+01
 2.0326250E+01  2.3284550E+01
 2.0337751E+01  2.3305080E+01
 2.0349251E+01  2.3339134E+01
 2.0360750E+01  2.3329000E+01
 2.0372252E+01  2.3364933E+01
 2.0383751E+01  2.3388786E+01
 2.0395250E+01  2.3472857E+01
 2.0406752E+01  2.3493809E+01
 2.0418251E+01  2.3516520E+01
 2.0429750E+01  2.3493481E+01
 2.0441252E+01  2.3489653E+01
 2.0452751E+01  2.3488762E+01
 2.0464251E+01  2.3497631E+01
 2.0475752E+01  2.3504416E+01
 2.0487251E+01  2.3463839E+01
 2.0498751E+01  2.3450813E+01
 2.0510250E+01  2.3446302E+01
 2.0521751E+01  2.3429388E+01
 2.0533251E+01  2.3403706E+01
 2.0544750E+01  2.3425524E+01
 2.0556252E+01  2.3476906E+01
 2.0567751E+01  2.3494114E+01
 2.0579250E+01  2.3475775E+01
 2.0590752E+01  2.3466055E+01
 2.0602251E+01  2.3484726E+01
 2.0613750E+01  2.3563089E+01
 2.0625252E+01  2.3626642E+01
 2.0636751E+01  2.3599405E+01
 2.0648251E+01  2.3477442E+01
 2.0659752E+01  2.3462248E+01
 2.0671251E+01  2.3496836E+01
 2.0682751E+01  2.3618649E+01
 2.0694250E+01  2.3699291E+01
 2.0705751E+01  2.3807884E+01
 2.0717251E+01  2.3898376E+01
 2.0728750E+01  2.3961428E+01
 2.0740252E+01  2.3962591E+01
 2.0751751E+01  2.3954975E+01
 2.0763250E+01  2.3974030E+01
 2.0774752E+01  2.3941055E+01
 2.0786251E+01  2.3890663E+01
 2.0797750E+01  2.3769625E+01
 2.0809252E+01  2.3763321E+01
 2.0820751E+01  2.3694281E+01
 2.0832251E+01  2.3634642E+01
 2.0843752E+01  2.3573364E+01
 2.0855251E+01  2.3577614E+01
 2.0866751E+01  2.3541313E+01
 2.0878250E+01  2.3513124E+01
 2.0889751E+01  2.3498600E+01
 2.0901251E+01  2.3530140E+01
 2.0912750E+01  2.3564377E+01
 2.0924252E+01  2.3584965E+01
 2.0935751E+01  2.3609480E+01
 2.0947250E+01  2.3567080E+01
 2.0958752E+01  2.3530296E+01
 2.0970251E+01  2.3473568E+01
 2.0981750E+01  2.3494434E+01
 2.0993252E+01  2.3508999E+01
 2.1004751E+01  2.3529377E+01
 2.1016251E+01  2.3515984E+01
 2.1027752E+01  2.3545708E+01
 2.1039251E+01  2.3589596E+01
 2.1050751E+01  2.3590517E+01
 2.1062250E+01  2.3552702E+01
 2.1073751E+01  2.3571821E+01
 2.1085251E+01  2.3578173E+01
 2.1096750E+01  2.3580608E+01
 2.1108252E+01  2.3576048E+01
 2.1119751E+01  2.3641258E+01
 2.1131250E+01  2.3630558E+01
 2.1142752E+01  2.3564312E+01
 2.1154251E+01  2.3513067E+01
 2.1165751E+01  2.3507351E+01
 2.1177252E+01  2.3572502E+01
 2.1188751E+01  2.3627798E+01
 2.1200251E+01  2.3649412E+01
 2.1211752E+01  2.3627018E+01
 2.1223251E+01  2.3552317E+01
 2.1234751E+01  2.3545660E+01
 2.1246250E+01  2.3652231E+01
 2.1257751E+01  2.3705137E+01
 2.1269251E+01  2.3686472E+01
 2.1280750E+01  2.3625866E+01
 2.1292252E+01  2.3565920E+01
 2.1303751E+01  2.3566378E+01
 2.1315250E+01  2.3525440E+01
 2.1326752E+01  2.3574364E+01
 2.1338251E+01  2.3626818E+01
 2.1349751E+01  2.3656528E+01
 2.1361252E+01  2.3658686E+01
 2.1372751E+01  2.3656229E+01
 2.1384251E+01  2.3613050E+01
 2.1395752E+01  2.3595789E+01
 2.1407251E+01  2.3579735E+01
 2.1418751E+01  2.3631876E+01
 2.1430250E+01  2.3598429E+01
 2.1441751E+01  2.3603645E+01
 2.1453251E+01  2.3593857E+01
 2.1464750E+01  2.3641792E+01
 2.1476252E+01  2.3640936E+01
 2.1487751E+01  2.3707447E+01
 2.1499250E+01  2.3716387E+01
 2.1510752E+01  2.3690493E+01
 2.1522251E+01  2.3675146E+01
 2.1533751E+01  2.3656136E+01
 2.1545252E+01  2.3680107E+01
 2.1556751E+01  2.3632246E+01
 2.1568251E+01  2.3608667E+01
 2.1579752E+01  2.3585485E+01
 2.1591251E+01  2.3605602E+01
 2.1602751E+01  2.3620741E+01
 2.1614250E+01  2.3615881E+01
 2.1625751E+01  2.3633289E+01
 2.1637251E+01  2.3636576E+01
 2.1648750E+01  2.3674536E+01
 2.1660252E+01  2.3759777E+01
 2.1671751E+01  2.3809111E+01
 2.1683250E+01  2.3830364E+01
 2.1694752E+01  2.3824354E+01
 2.1706251E+01  2.3837614E+01
 2.1717751E+01  2.3779346E+01
 2.1729252E+01  2.3779234E+01
 2.1740751E+01  2.3797333E+01
 2.1752251E+01  2.3792744E+01
 2.1763752E+01  2.3764750E+01
 2.1775251E+01  2.3734646E+01
 2.1786751E+01  2.3736031E+01
 2.1798250E+01  2.3716932E+01
 2.1809752E+01  2.3724558E+01
 2.1821251E+01  2.3739355E+01
 2.1832750E+01  2.3730370E+01
 2.1844252E+01  2.3753254E+01
 2.1855751E+01  2.3775997E+01
 2.1867250E+01  2.3840078E+01
 2.1878752E+01  2.3869619E+01
 2.1890251E+01  2.3880579E+01
 2.1901751E+01  2.3858574E+01
 2.1913252E+01  2.3850792E+01
 2.1924751E+01  2.3871286E+01
 2.1936251E+01  2.3892187E+01
 2.1947752E+01  2.3904772E+01
 2.1959251E+01  2.3901798E+01
 2.1970751E+01  2.3936047E+01
 2.1982250E+01  2.3985586E+01
 2.1993752E+01  2.4004763E+01
 2.2005251E+01  2.4019794E+01
 2.2016750E+01  2.4019871E+01
 2.2028252E+01  2.4023914E+01
 2.2039751E+01  2.4019321E+01
 2.2051250E+01  2.4017210E+01
 2.2062752E+01  2.4062963E+01
 2.2074251E+01  2.4095739E+01
 2.2085751E+01  2.4097340E+01
 2.2097252E+01  2.4056074E+01
 2.2108751E+01  2.4033606E+01
 2.2120251E+01  2.4071543E+01
 2.2131752E+01  2.4105442E+01
 2.2143251E+01  2.4100071E+01
 2.2154751E+01  2.4070135E+01
 2.2166250E+01  2.4045132E+01
 2.2177752E+01  2.4013882E+01
 2.2189251E+01  2.4001760E+01
 2.2200750E+01  2.4002850E+01
 2.2212252E+01  2.3976162E+01
 2.2223751E+01  2.4015913E+01
 2.2235250E+01  2.4099693E+01
 2.2246752E+01  2.4221245E+01
 2.2258251E+01  2.4265697E+01
 2.2269751E+01  2.4221523E+01
 2.2281252E+01  2.4197168E+01
 2.2292751E+01  2.4152880E+01
 2.2304251E+01  2.4170656E+01
 2.2315752E+01  2.4179138E+01
 2.2327251E+01  2.4152409E+01
 2.2338751E+01  2.4169544E+01
 2.2350250E+01  2.4215717E+01
 2.2361752E+01  2.4275623E+01
 2.2373251E+01  2.4281950E+01
 2.2384750E+01  2.4233387E+01
 2.2396252E+01  2.4231222E+01
 2.2407751E+01  2.4216742E+01
 2.2419250E+01  2.4185234E+01
 2.2430752E+01  2.4189272E+01
 2.2442251E+01  2.4267942E+01
 2.2453751E+01  2.4333174E+01
 2.2465252E+01  2.4355745E+01
 2.2476751E+01  2.4342327E+01
 2.2488251E+01  2.4404436E+01
 2.2499752E+01  2.4443890E+01
 2.2511251E+01  2.4481913E+01
 2.2522751E+01  2.4501945E+01
 2.2534250E+01  2.4523428E+01
 2.2545752E+01  2.4510597E+01
 2.2557251E+01  2.4501877E+01
 2.2568750E+01  2.4448620E+01
 2.2580252E+01  2.4470053E+01
 2.2591751E+01  2.4486977E+01
 2.2603251E+01  2.4540640E+01
 2.2614752E+01  2.4577930E+01
 2.2626251E+01  2.4652412E+01
 2.2637751E+01  2.4659739E+01
 2.2649252E+01  2.4636703E+01
 2.2660751E+01  2.4602409E+01
 2.2672251E+01  2.4599596E+01
 2.2683752E+01  2.4631634E+01
 2.2695251E+01  2.4709948E+01
 2.2706751E+01  2.4788849E+01
 2.2718250E+01  2.4823898E+01
 2.2729752E+01  2.4862968E+01
 2.2741251E+01  2.4905005E+01
 2.2752750E+01  2.4928301E+01
 2.2764252E+01  2.4903776E+01
 2.2775751E+01  2.4896406E+01
 2.2787251E+01  2.4885260E+01
 2.2798752E+01  2.4908133E+01
 2.2810251E+01  2.4951616E+01
 2.2821751E+01  2.4997160E+01
 2.2833252E+01  2.5028030E+01
 2.2844751E+01  2.5057154E+01
 2.2856251E+01  2.5108408E+01
 2.2867750E+01  2.5183510E+01
 2.2879251E+01  2.5189245E+01
 2.2890751E+01  2.5253361E+01
 2.2902250E+01  2.5291355E+01
 2.2913752E+01  2.5383175E+01
 2.2925251E+01  2.5469456E+01
 2.2936750E+01  2.5563271E+01
 2.2948252E+01  2.5623356E+01
 2.2959751E+01  2.5670147E+01
 2.2971251E+01  2.5825424E+01
 2.2982752E+01  2.5904470E+01
 2.2994251E+01  2.5936657E+01
