F:\20151113_APS_34IDE\\Brian\Particle1\OCV\Data_0004.tif
2-Theta Angle (Degrees)
Intensity
       2000
 5.7500005E-03  0.0000000E+00
 1.7250001E-02  0.0000000E+00
 2.8750001E-02  0.0000000E+00
 4.0250003E-02  0.0000000E+00
 5.1750004E-02  0.0000000E+00
 6.3250005E-02  0.0000000E+00
 7.4750006E-02  0.0000000E+00
 8.6250007E-02  0.0000000E+00
 9.7750008E-02  0.0000000E+00
 1.0925001E-01  0.0000000E+00
 1.2075000E-01  0.0000000E+00
 1.3225001E-01  0.0000000E+00
 1.4375001E-01  0.0000000E+00
 1.5525001E-01  0.0000000E+00
 1.6675001E-01  0.0000000E+00
 1.7825001E-01  0.0000000E+00
 1.8975002E-01  0.0000000E+00
 2.0125002E-01  0.0000000E+00
 2.1275002E-01  0.0000000E+00
 2.2425000E-01  0.0000000E+00
 2.3575000E-01  0.0000000E+00
 2.4725001E-01  0.0000000E+00
 2.5875002E-01  0.0000000E+00
 2.7025002E-01  0.0000000E+00
 2.8175002E-01  0.0000000E+00
 2.9325002E-01  0.0000000E+00
 3.0475003E-01  0.0000000E+00
 3.1625003E-01  0.0000000E+00
 3.2775003E-01  0.0000000E+00
 3.3925003E-01  0.0000000E+00
 3.5075003E-01  0.0000000E+00
 3.6225003E-01  0.0000000E+00
 3.7375003E-01  0.0000000E+00
 3.8525003E-01  0.0000000E+00
 3.9675003E-01  0.0000000E+00
 4.0825003E-01  0.0000000E+00
 4.1975003E-01  0.0000000E+00
 4.3125004E-01  0.0000000E+00
 4.4275001E-01  0.0000000E+00
 4.5425001E-01  0.0000000E+00
 4.6575001E-01  0.0000000E+00
 4.7725001E-01  0.0000000E+00
 4.8875001E-01  0.0000000E+00
 5.0025004E-01  0.0000000E+00
 5.1175004E-01  0.0000000E+00
 5.2325004E-01  0.0000000E+00
 5.3475004E-01  0.0000000E+00
 5.4625005E-01  0.0000000E+00
 5.5775005E-01  0.0000000E+00
 5.6925005E-01  0.0000000E+00
 5.8075005E-01  0.0000000E+00
 5.9225005E-01  0.0000000E+00
 6.0375005E-01  0.0000000E+00
 6.1525005E-01  0.0000000E+00
 6.2675005E-01  0.0000000E+00
 6.3825005E-01  0.0000000E+00
 6.4975005E-01  0.0000000E+00
 6.6125005E-01  0.0000000E+00
 6.7275006E-01  0.0000000E+00
 6.8425006E-01  0.0000000E+00
 6.9575006E-01  0.0000000E+00
 7.0725006E-01  0.0000000E+00
 7.1875006E-01  0.0000000E+00
 7.3025006E-01  0.0000000E+00
 7.4175006E-01  0.0000000E+00
 7.5325006E-01  0.0000000E+00
 7.6475006E-01  0.0000000E+00
 7.7625006E-01  0.0000000E+00
 7.8775007E-01  0.0000000E+00
 7.9925007E-01  0.0000000E+00
 8.1075007E-01  0.0000000E+00
 8.2225007E-01  0.0000000E+00
 8.3375007E-01  0.0000000E+00
 8.4525007E-01  0.0000000E+00
 8.5675007E-01  0.0000000E+00
 8.6825007E-01  0.0000000E+00
 8.7975001E-01  0.0000000E+00
 8.9125001E-01  0.0000000E+00
 9.0275002E-01  0.0000000E+00
 9.1425002E-01  0.0000000E+00
 9.2575002E-01  0.0000000E+00
 9.3725002E-01  0.0000000E+00
 9.4875002E-01  0.0000000E+00
 9.6025002E-01  0.0000000E+00
 9.7175002E-01  0.0000000E+00
 9.8325002E-01  0.0000000E+00
 9.9475002E-01  0.0000000E+00
 1.0062500E+00  0.0000000E+00
 1.0177500E+00  0.0000000E+00
 1.0292500E+00  0.0000000E+00
 1.0407500E+00  0.0000000E+00
 1.0522500E+00  0.0000000E+00
 1.0637500E+00  0.0000000E+00
 1.0752500E+00  0.0000000E+00
 1.0867500E+00  0.0000000E+00
 1.0982500E+00  0.0000000E+00
 1.1097500E+00  0.0000000E+00
 1.1212500E+00  0.0000000E+00
 1.1327500E+00  0.0000000E+00
 1.1442500E+00  0.0000000E+00
 1.1557500E+00  0.0000000E+00
 1.1672500E+00  0.0000000E+00
 1.1787500E+00  0.0000000E+00
 1.1902500E+00  0.0000000E+00
 1.2017500E+00  0.0000000E+00
 1.2132500E+00  0.0000000E+00
 1.2247500E+00  0.0000000E+00
 1.2362500E+00  0.0000000E+00
 1.2477500E+00  0.0000000E+00
 1.2592500E+00  0.0000000E+00
 1.2707500E+00  0.0000000E+00
 1.2822500E+00  0.0000000E+00
 1.2937500E+00  0.0000000E+00
 1.3052500E+00  0.0000000E+00
 1.3167500E+00  0.0000000E+00
 1.3282501E+00  0.0000000E+00
 1.3397501E+00  0.0000000E+00
 1.3512501E+00  0.0000000E+00
 1.3627501E+00  0.0000000E+00
 1.3742501E+00  0.0000000E+00
 1.3857501E+00  0.0000000E+00
 1.3972501E+00  0.0000000E+00
 1.4087501E+00  0.0000000E+00
 1.4202501E+00  0.0000000E+00
 1.4317501E+00  0.0000000E+00
 1.4432501E+00  0.0000000E+00
 1.4547501E+00  0.0000000E+00
 1.4662501E+00  0.0000000E+00
 1.4777501E+00  0.0000000E+00
 1.4892501E+00  0.0000000E+00
 1.5007501E+00  0.0000000E+00
 1.5122501E+00  0.0000000E+00
 1.5237501E+00  0.0000000E+00
 1.5352501E+00  0.0000000E+00
 1.5467501E+00  0.0000000E+00
 1.5582501E+00  0.0000000E+00
 1.5697501E+00  0.0000000E+00
 1.5812501E+00  0.0000000E+00
 1.5927501E+00  0.0000000E+00
 1.6042501E+00  0.0000000E+00
 1.6157501E+00  0.0000000E+00
 1.6272501E+00  0.0000000E+00
 1.6387501E+00  0.0000000E+00
 1.6502501E+00  0.0000000E+00
 1.6617501E+00  0.0000000E+00
 1.6732501E+00  0.0000000E+00
 1.6847501E+00  0.0000000E+00
 1.6962501E+00  0.0000000E+00
 1.7077501E+00  0.0000000E+00
 1.7192501E+00  0.0000000E+00
 1.7307501E+00  0.0000000E+00
 1.7422501E+00  0.0000000E+00
 1.7537501E+00  0.0000000E+00
 1.7652501E+00  0.0000000E+00
 1.7767501E+00  0.0000000E+00
 1.7882501E+00  0.0000000E+00
 1.7997501E+00  0.0000000E+00
 1.8112501E+00  0.0000000E+00
 1.8227501E+00  0.0000000E+00
 1.8342501E+00  0.0000000E+00
 1.8457501E+00  0.0000000E+00
 1.8572501E+00  0.0000000E+00
 1.8687501E+00  0.0000000E+00
 1.8802501E+00  0.0000000E+00
 1.8917501E+00  0.0000000E+00
 1.9032501E+00  0.0000000E+00
 1.9147501E+00  0.0000000E+00
 1.9262501E+00  0.0000000E+00
 1.9377501E+00  0.0000000E+00
 1.9492501E+00  0.0000000E+00
 1.9607501E+00  0.0000000E+00
 1.9722501E+00  0.0000000E+00
 1.9837501E+00  0.0000000E+00
 1.9952501E+00  0.0000000E+00
 2.0067501E+00  0.0000000E+00
 2.0182500E+00  0.0000000E+00
 2.0297501E+00  0.0000000E+00
 2.0412500E+00  0.0000000E+00
 2.0527501E+00  0.0000000E+00
 2.0642500E+00  0.0000000E+00
 2.0757501E+00  0.0000000E+00
 2.0872500E+00  0.0000000E+00
 2.0987501E+00  0.0000000E+00
 2.1102500E+00  0.0000000E+00
 2.1217501E+00  0.0000000E+00
 2.1332500E+00  0.0000000E+00
 2.1447501E+00  0.0000000E+00
 2.1562500E+00  0.0000000E+00
 2.1677501E+00  0.0000000E+00
 2.1792500E+00  0.0000000E+00
 2.1907501E+00  0.0000000E+00
 2.2022500E+00  0.0000000E+00
 2.2137501E+00  0.0000000E+00
 2.2252500E+00  0.0000000E+00
 2.2367501E+00  0.0000000E+00
 2.2482500E+00  0.0000000E+00
 2.2597501E+00  0.0000000E+00
 2.2712500E+00  0.0000000E+00
 2.2827501E+00  0.0000000E+00
 2.2942500E+00  0.0000000E+00
 2.3057501E+00  0.0000000E+00
 2.3172500E+00  0.0000000E+00
 2.3287501E+00  0.0000000E+00
 2.3402500E+00  0.0000000E+00
 2.3517501E+00  0.0000000E+00
 2.3632500E+00  0.0000000E+00
 2.3747501E+00  0.0000000E+00
 2.3862500E+00  0.0000000E+00
 2.3977501E+00  0.0000000E+00
 2.4092500E+00  0.0000000E+00
 2.4207501E+00  0.0000000E+00
 2.4322500E+00  0.0000000E+00
 2.4437501E+00  0.0000000E+00
 2.4552500E+00  0.0000000E+00
 2.4667501E+00  0.0000000E+00
 2.4782500E+00  0.0000000E+00
 2.4897501E+00  0.0000000E+00
 2.5012500E+00  0.0000000E+00
 2.5127501E+00  0.0000000E+00
 2.5242500E+00  0.0000000E+00
 2.5357502E+00  0.0000000E+00
 2.5472500E+00  0.0000000E+00
 2.5587502E+00  0.0000000E+00
 2.5702500E+00  0.0000000E+00
 2.5817502E+00  0.0000000E+00
 2.5932500E+00  0.0000000E+00
 2.6047502E+00  0.0000000E+00
 2.6162500E+00  0.0000000E+00
 2.6277502E+00  0.0000000E+00
 2.6392500E+00  0.0000000E+00
 2.6507502E+00  0.0000000E+00
 2.6622500E+00  0.0000000E+00
 2.6737502E+00  0.0000000E+00
 2.6852500E+00  0.0000000E+00
 2.6967502E+00  0.0000000E+00
 2.7082500E+00  0.0000000E+00
 2.7197502E+00  0.0000000E+00
 2.7312500E+00  0.0000000E+00
 2.7427502E+00  0.0000000E+00
 2.7542500E+00  0.0000000E+00
 2.7657502E+00  0.0000000E+00
 2.7772501E+00  0.0000000E+00
 2.7887502E+00  0.0000000E+00
 2.8002501E+00  0.0000000E+00
 2.8117502E+00  0.0000000E+00
 2.8232501E+00  3.5368813E+01
 2.8347502E+00  3.5264153E+01
 2.8462501E+00  3.5375645E+01
 2.8577502E+00  3.5338982E+01
 2.8692501E+00  3.5305946E+01
 2.8807502E+00  3.5225891E+01
 2.8922501E+00  3.5162357E+01
 2.9037502E+00  3.5776821E+01
 2.9152501E+00  3.6114258E+01
 2.9267502E+00  3.6414112E+01
 2.9382501E+00  3.6363495E+01
 2.9497502E+00  3.6470448E+01
 2.9612501E+00  3.6225071E+01
 2.9727502E+00  3.5899399E+01
 2.9842501E+00  3.5608471E+01
 2.9957502E+00  3.5874672E+01
 3.0072501E+00  3.6263134E+01
 3.0187502E+00  3.6419044E+01
 3.0302501E+00  3.6736607E+01
 3.0417502E+00  3.7437119E+01
 3.0532501E+00  3.7792286E+01
 3.0647502E+00  3.7784302E+01
 3.0762501E+00  3.7150799E+01
 3.0877502E+00  3.6796188E+01
 3.0992501E+00  3.6515060E+01
 3.1107502E+00  3.5929363E+01
 3.1222501E+00  3.5485172E+01
 3.1337502E+00  3.5174339E+01
 3.1452501E+00  3.5428875E+01
 3.1567502E+00  3.5602139E+01
 3.1682501E+00  3.5942307E+01
 3.1797502E+00  3.6000584E+01
 3.1912501E+00  3.5981274E+01
 3.2027502E+00  3.5611946E+01
 3.2142501E+00  3.5842701E+01
 3.2257502E+00  3.5647861E+01
 3.2372501E+00  3.5788967E+01
 3.2487502E+00  3.5314579E+01
 3.2602501E+00  3.5077301E+01
 3.2717502E+00  3.4785480E+01
 3.2832501E+00  3.4726093E+01
 3.2947502E+00  3.4853344E+01
 3.3062501E+00  3.4978287E+01
 3.3177502E+00  3.4849297E+01
 3.3292501E+00  3.4682934E+01
 3.3407502E+00  3.4462135E+01
 3.3522501E+00  3.4475040E+01
 3.3637502E+00  3.4501442E+01
 3.3752501E+00  3.4686375E+01
 3.3867502E+00  3.4482288E+01
 3.3982501E+00  3.4291721E+01
 3.4097502E+00  3.4319538E+01
 3.4212501E+00  3.4299774E+01
 3.4327502E+00  3.4496780E+01
 3.4442501E+00  3.4293240E+01
 3.4557502E+00  3.4527882E+01
 3.4672501E+00  3.4588108E+01
 3.4787502E+00  3.4705177E+01
 3.4902501E+00  3.4777908E+01
 3.5017502E+00  3.4781025E+01
 3.5132501E+00  3.4664303E+01
 3.5247502E+00  3.4683815E+01
 3.5362501E+00  3.4644032E+01
 3.5477502E+00  3.4580254E+01
 3.5592501E+00  3.4658264E+01
 3.5707502E+00  3.4432449E+01
 3.5822501E+00  3.4268478E+01
 3.5937502E+00  3.3762558E+01
 3.6052501E+00  3.3583374E+01
 3.6167502E+00  3.3606113E+01
 3.6282501E+00  3.3601185E+01
 3.6397502E+00  3.3535583E+01
 3.6512501E+00  3.3536076E+01
 3.6627502E+00  3.3416199E+01
 3.6742501E+00  3.3433861E+01
 3.6857502E+00  3.3326687E+01
 3.6972501E+00  3.3335743E+01
 3.7087502E+00  3.3311245E+01
 3.7202501E+00  3.3201492E+01
 3.7317502E+00  3.3206501E+01
 3.7432501E+00  3.3280670E+01
 3.7547503E+00  3.3329781E+01
 3.7662501E+00  3.3574245E+01
 3.7777503E+00  3.3587543E+01
 3.7892501E+00  3.3581596E+01
 3.8007503E+00  3.3446095E+01
 3.8122501E+00  3.3307999E+01
 3.8237503E+00  3.3156895E+01
 3.8352501E+00  3.2992004E+01
 3.8467503E+00  3.2811619E+01
 3.8582501E+00  3.2874249E+01
 3.8697503E+00  3.2735600E+01
 3.8812501E+00  3.2827873E+01
 3.8927503E+00  3.2673733E+01
 3.9042501E+00  3.2681625E+01
 3.9157503E+00  3.2869648E+01
 3.9272501E+00  3.2906597E+01
 3.9387503E+00  3.3005566E+01
 3.9502501E+00  3.3004791E+01
 3.9617503E+00  3.3090076E+01
 3.9732502E+00  3.3375141E+01
 3.9847503E+00  3.3359241E+01
 3.9962502E+00  3.3410145E+01
 4.0077500E+00  3.3110798E+01
 4.0192504E+00  3.2789368E+01
 4.0307503E+00  3.2595375E+01
 4.0422502E+00  3.2469334E+01
 4.0537500E+00  3.2514862E+01
 4.0652504E+00  3.2386223E+01
 4.0767503E+00  3.2411869E+01
 4.0882502E+00  3.2430656E+01
 4.0997500E+00  3.2512756E+01
 4.1112504E+00  3.2484192E+01
 4.1227503E+00  3.2422619E+01
 4.1342502E+00  3.2399841E+01
 4.1457500E+00  3.2492439E+01
 4.1572504E+00  3.2616295E+01
 4.1687503E+00  3.2670059E+01
 4.1802502E+00  3.2621296E+01
 4.1917500E+00  3.2601017E+01
 4.2032504E+00  3.2552456E+01
 4.2147503E+00  3.2518970E+01
 4.2262502E+00  3.2397602E+01
 4.2377501E+00  3.2283451E+01
 4.2492504E+00  3.2172810E+01
 4.2607503E+00  3.2125603E+01
 4.2722502E+00  3.2184895E+01
 4.2837501E+00  3.2293034E+01
 4.2952504E+00  3.2339535E+01
 4.3067503E+00  3.2421646E+01
 4.3182502E+00  3.2485073E+01
 4.3297501E+00  3.2672779E+01
 4.3412504E+00  3.2759045E+01
 4.3527503E+00  3.2739571E+01
 4.3642502E+00  3.2697338E+01
 4.3757501E+00  3.2708565E+01
 4.3872504E+00  3.2693714E+01
 4.3987503E+00  3.2528561E+01
 4.4102502E+00  3.2429447E+01
 4.4217501E+00  3.2267090E+01
 4.4332504E+00  3.2347652E+01
 4.4447503E+00  3.2331665E+01
 4.4562502E+00  3.2441284E+01
 4.4677501E+00  3.2612896E+01
 4.4792504E+00  3.2748955E+01
 4.4907503E+00  3.2764908E+01
 4.5022502E+00  3.2862610E+01
 4.5137501E+00  3.2757504E+01
 4.5252504E+00  3.2800838E+01
 4.5367503E+00  3.2828239E+01
 4.5482502E+00  3.2829494E+01
 4.5597501E+00  3.2945988E+01
 4.5712504E+00  3.3020096E+01
 4.5827503E+00  3.3013645E+01
 4.5942502E+00  3.3110989E+01
 4.6057501E+00  3.3008015E+01
 4.6172504E+00  3.3053375E+01
 4.6287503E+00  3.3044266E+01
 4.6402502E+00  3.3244678E+01
 4.6517501E+00  3.3299171E+01
 4.6632504E+00  3.3432079E+01
 4.6747503E+00  3.3417709E+01
 4.6862502E+00  3.3303783E+01
 4.6977501E+00  3.3287071E+01
 4.7092505E+00  3.3073185E+01
 4.7207503E+00  3.3186066E+01
 4.7322502E+00  3.3052597E+01
 4.7437501E+00  3.2898800E+01
 4.7552505E+00  3.2755169E+01
 4.7667503E+00  3.2660213E+01
 4.7782502E+00  3.2692608E+01
 4.7897501E+00  3.2730526E+01
 4.8012505E+00  3.2868637E+01
 4.8127503E+00  3.2843513E+01
 4.8242502E+00  3.2868301E+01
 4.8357501E+00  3.2898121E+01
 4.8472505E+00  3.2993683E+01
 4.8587503E+00  3.3164322E+01
 4.8702502E+00  3.3206436E+01
 4.8817501E+00  3.3417454E+01
 4.8932505E+00  3.3508224E+01
 4.9047503E+00  3.3720249E+01
 4.9162502E+00  3.3863422E+01
 4.9277501E+00  3.3865807E+01
 4.9392505E+00  3.3763847E+01
 4.9507504E+00  3.3543545E+01
 4.9622502E+00  3.3427876E+01
 4.9737501E+00  3.3462051E+01
 4.9852505E+00  3.3458023E+01
 4.9967504E+00  3.3568420E+01
 5.0082502E+00  3.3632187E+01
 5.0197501E+00  3.3670448E+01
 5.0312505E+00  3.3678913E+01
 5.0427504E+00  3.3561260E+01
 5.0542502E+00  3.3476807E+01
 5.0657501E+00  3.3525917E+01
 5.0772505E+00  3.3469959E+01
 5.0887504E+00  3.3491611E+01
 5.1002502E+00  3.3543293E+01
 5.1117501E+00  3.3646378E+01
 5.1232505E+00  3.3725273E+01
 5.1347504E+00  3.3833588E+01
 5.1462502E+00  3.3986454E+01
 5.1577501E+00  3.4158390E+01
 5.1692505E+00  3.4189785E+01
 5.1807504E+00  3.4248283E+01
 5.1922503E+00  3.4363110E+01
 5.2037501E+00  3.4356937E+01
 5.2152505E+00  3.4364334E+01
 5.2267504E+00  3.4262054E+01
 5.2382503E+00  3.4306725E+01
 5.2497501E+00  3.4310730E+01
 5.2612505E+00  3.4386696E+01
 5.2727504E+00  3.4376659E+01
 5.2842503E+00  3.4387093E+01
 5.2957501E+00  3.4436729E+01
 5.3072500E+00  3.4469967E+01
 5.3187504E+00  3.4508606E+01
 5.3302503E+00  3.4514164E+01
 5.3417501E+00  3.4563511E+01
 5.3532500E+00  3.4605881E+01
 5.3647504E+00  3.4586792E+01
 5.3762503E+00  3.4670898E+01
 5.3877501E+00  3.4836300E+01
 5.3992500E+00  3.4973793E+01
 5.4107504E+00  3.5005432E+01
 5.4222503E+00  3.5041485E+01
 5.4337502E+00  3.4978020E+01
 5.4452500E+00  3.5056969E+01
 5.4567504E+00  3.5082172E+01
 5.4682503E+00  3.5150284E+01
 5.4797502E+00  3.5293133E+01
 5.4912500E+00  3.5263355E+01
 5.5027504E+00  3.5275635E+01
 5.5142503E+00  3.5212036E+01
 5.5257502E+00  3.5238930E+01
 5.5372500E+00  3.5127625E+01
 5.5487504E+00  3.5159431E+01
 5.5602503E+00  3.5180744E+01
 5.5717502E+00  3.5284805E+01
 5.5832500E+00  3.5407703E+01
 5.5947504E+00  3.5375671E+01
 5.6062503E+00  3.5568447E+01
 5.6177502E+00  3.5490788E+01
 5.6292500E+00  3.5577671E+01
 5.6407504E+00  3.5633549E+01
 5.6522503E+00  3.5819790E+01
 5.6637502E+00  3.6060715E+01
 5.6752501E+00  3.6031563E+01
 5.6867504E+00  3.5897091E+01
 5.6982503E+00  3.5698780E+01
 5.7097502E+00  3.5614407E+01
 5.7212501E+00  3.5646740E+01
 5.7327504E+00  3.5871944E+01
 5.7442503E+00  3.5986485E+01
 5.7557502E+00  3.6183319E+01
 5.7672501E+00  3.6015579E+01
 5.7787504E+00  3.6036655E+01
 5.7902503E+00  3.6004993E+01
 5.8017502E+00  3.6061954E+01
 5.8132501E+00  3.6051491E+01
 5.8247504E+00  3.5941792E+01
 5.8362503E+00  3.5954861E+01
 5.8477502E+00  3.6025364E+01
 5.8592501E+00  3.6036934E+01
 5.8707504E+00  3.6206779E+01
 5.8822503E+00  3.6413780E+01
 5.8937502E+00  3.6733421E+01
 5.9052501E+00  3.6955338E+01
 5.9167504E+00  3.7322578E+01
 5.9282503E+00  3.7944790E+01
 5.9397502E+00  3.9168060E+01
 5.9512501E+00  4.0916119E+01
 5.9627504E+00  4.2574368E+01
 5.9742503E+00  4.3939640E+01
 5.9857502E+00  4.4557102E+01
 5.9972501E+00  4.3845608E+01
 6.0087504E+00  4.2568851E+01
 6.0202503E+00  4.0552879E+01
 6.0317502E+00  3.9260025E+01
 6.0432501E+00  3.8258038E+01
 6.0547504E+00  3.7628559E+01
 6.0662503E+00  3.7273682E+01
 6.0777502E+00  3.7036274E+01
 6.0892501E+00  3.6977215E+01
 6.1007504E+00  3.6990681E+01
 6.1122503E+00  3.6971668E+01
 6.1237502E+00  3.6924801E+01
 6.1352501E+00  3.6853497E+01
 6.1467505E+00  3.6837429E+01
 6.1582503E+00  3.6884190E+01
 6.1697502E+00  3.6914116E+01
 6.1812501E+00  3.7061474E+01
 6.1927505E+00  3.7218769E+01
 6.2042503E+00  3.7394577E+01
 6.2157502E+00  3.7568245E+01
 6.2272501E+00  3.7650848E+01
 6.2387505E+00  3.7557213E+01
 6.2502503E+00  3.7484493E+01
 6.2617502E+00  3.7475178E+01
 6.2732501E+00  3.7611992E+01
 6.2847505E+00  3.7733833E+01
 6.2962503E+00  3.7820389E+01
 6.3077502E+00  3.7937298E+01
 6.3192501E+00  3.7870159E+01
 6.3307505E+00  3.7988171E+01
 6.3422503E+00  3.7952206E+01
 6.3537502E+00  3.8039394E+01
 6.3652501E+00  3.8077908E+01
 6.3767505E+00  3.8182331E+01
 6.3882504E+00  3.8399422E+01
 6.3997502E+00  3.8529877E+01
 6.4112501E+00  3.8725231E+01
 6.4227505E+00  3.8829212E+01
 6.4342504E+00  3.8876247E+01
 6.4457502E+00  3.8956791E+01
 6.4572501E+00  3.8989716E+01
 6.4687505E+00  3.9046795E+01
 6.4802504E+00  3.9150940E+01
 6.4917502E+00  3.9285831E+01
 6.5032501E+00  3.9443027E+01
 6.5147505E+00  3.9576843E+01
 6.5262504E+00  3.9570393E+01
 6.5377502E+00  3.9722450E+01
 6.5492501E+00  3.9828922E+01
 6.5607505E+00  3.9978313E+01
 6.5722504E+00  4.0068562E+01
 6.5837502E+00  4.0061108E+01
 6.5952501E+00  4.0108025E+01
 6.6067505E+00  4.0152958E+01
 6.6182504E+00  4.0169437E+01
 6.6297503E+00  4.0187233E+01
 6.6412501E+00  4.0243244E+01
 6.6527505E+00  4.0295345E+01
 6.6642504E+00  4.0469307E+01
 6.6757503E+00  4.0598972E+01
 6.6872501E+00  4.0721249E+01
 6.6987505E+00  4.0834755E+01
 6.7102504E+00  4.0943157E+01
 6.7217503E+00  4.1034592E+01
 6.7332501E+00  4.1086811E+01
 6.7447505E+00  4.1094852E+01
 6.7562504E+00  4.1169865E+01
 6.7677503E+00  4.1180767E+01
 6.7792501E+00  4.1282310E+01
 6.7907505E+00  4.1323277E+01
 6.8022504E+00  4.1568233E+01
 6.8137503E+00  4.1636059E+01
 6.8252501E+00  4.1784367E+01
 6.8367505E+00  4.1849819E+01
 6.8482504E+00  4.1959267E+01
 6.8597503E+00  4.2051262E+01
 6.8712502E+00  4.2116692E+01
 6.8827505E+00  4.2111359E+01
 6.8942504E+00  4.2217152E+01
 6.9057503E+00  4.2207115E+01
 6.9172502E+00  4.2364048E+01
 6.9287505E+00  4.2318531E+01
 6.9402504E+00  4.2411388E+01
 6.9517503E+00  4.2416740E+01
 6.9632502E+00  4.2525661E+01
 6.9747505E+00  4.2646297E+01
 6.9862504E+00  4.2713676E+01
 6.9977503E+00  4.2730553E+01
 7.0092502E+00  4.2731106E+01
 7.0207505E+00  4.2793018E+01
 7.0322504E+00  4.2945377E+01
 7.0437503E+00  4.3144924E+01
 7.0552502E+00  4.3289249E+01
 7.0667505E+00  4.3420021E+01
 7.0782504E+00  4.3393898E+01
 7.0897503E+00  4.3406746E+01
 7.1012502E+00  4.3419712E+01
 7.1127505E+00  4.3404510E+01
 7.1242504E+00  4.3457893E+01
 7.1357503E+00  4.3405399E+01
 7.1472502E+00  4.3528042E+01
 7.1587505E+00  4.3599110E+01
 7.1702504E+00  4.3684643E+01
 7.1817503E+00  4.3736366E+01
 7.1932502E+00  4.3752960E+01
 7.2047505E+00  4.3854771E+01
 7.2162504E+00  4.3943741E+01
 7.2277503E+00  4.4067245E+01
 7.2392502E+00  4.4177620E+01
 7.2507505E+00  4.4186779E+01
 7.2622504E+00  4.4187389E+01
 7.2737503E+00  4.4220921E+01
 7.2852502E+00  4.4188217E+01
 7.2967505E+00  4.4226738E+01
 7.3082504E+00  4.4213428E+01
 7.3197503E+00  4.4355598E+01
 7.3312502E+00  4.4542957E+01
 7.3427505E+00  4.4569256E+01
 7.3542504E+00  4.4829254E+01
 7.3657503E+00  4.4808723E+01
 7.3772502E+00  4.4891884E+01
 7.3887506E+00  4.4771420E+01
 7.4002504E+00  4.4813969E+01
 7.4117503E+00  4.4813694E+01
 7.4232502E+00  4.4843601E+01
 7.4347506E+00  4.4766899E+01
 7.4462504E+00  4.4751389E+01
 7.4577503E+00  4.4740623E+01
 7.4692502E+00  4.4743679E+01
 7.4807506E+00  4.4878750E+01
 7.4922504E+00  4.4982952E+01
 7.5037503E+00  4.5081841E+01
 7.5152502E+00  4.5075710E+01
 7.5267506E+00  4.5123989E+01
 7.5382504E+00  4.5103001E+01
 7.5497503E+00  4.5050247E+01
 7.5612502E+00  4.5045937E+01
 7.5727506E+00  4.5052029E+01
 7.5842505E+00  4.5092106E+01
 7.5957503E+00  4.4998405E+01
 7.6072502E+00  4.5001987E+01
 7.6187506E+00  4.5011040E+01
 7.6302505E+00  4.4932251E+01
 7.6417503E+00  4.4940033E+01
 7.6532502E+00  4.4849342E+01
 7.6647506E+00  4.4866714E+01
 7.6762505E+00  4.4850704E+01
 7.6877503E+00  4.4820061E+01
 7.6992502E+00  4.4840454E+01
 7.7107506E+00  4.4849743E+01
 7.7222505E+00  4.4921219E+01
 7.7337503E+00  4.4918228E+01
 7.7452502E+00  4.4853836E+01
 7.7567506E+00  4.4784851E+01
 7.7682505E+00  4.4789642E+01
 7.7797503E+00  4.4849220E+01
 7.7912502E+00  4.4839279E+01
 7.8027506E+00  4.4887577E+01
 7.8142505E+00  4.4788490E+01
 7.8257504E+00  4.4853016E+01
 7.8372502E+00  4.4814438E+01
 7.8487506E+00  4.4847443E+01
 7.8602505E+00  4.4900375E+01
 7.8717504E+00  4.4905704E+01
 7.8832502E+00  4.4895565E+01
 7.8947506E+00  4.4745720E+01
 7.9062505E+00  4.4674984E+01
 7.9177504E+00  4.4690910E+01
 7.9292502E+00  4.4680412E+01
 7.9407506E+00  4.4720444E+01
 7.9522505E+00  4.4627151E+01
 7.9637504E+00  4.4580608E+01
 7.9752502E+00  4.4407730E+01
 7.9867506E+00  4.4371010E+01
 7.9982505E+00  4.4286373E+01
 8.0097504E+00  4.4319874E+01
 8.0212507E+00  4.4220486E+01
 8.0327501E+00  4.4211647E+01
 8.0442505E+00  4.4144737E+01
 8.0557508E+00  4.4129173E+01
 8.0672503E+00  4.3966015E+01
 8.0787506E+00  4.3845730E+01
 8.0902500E+00  4.3732887E+01
 8.1017504E+00  4.3778347E+01
 8.1132507E+00  4.3781551E+01
 8.1247501E+00  4.3692032E+01
 8.1362505E+00  4.3640102E+01
 8.1477509E+00  4.3571758E+01
 8.1592503E+00  4.3576920E+01
 8.1707506E+00  4.3434757E+01
 8.1822500E+00  4.3275806E+01
 8.1937504E+00  4.3133484E+01
 8.2052507E+00  4.2958950E+01
 8.2167501E+00  4.2808403E+01
 8.2282505E+00  4.2666622E+01
 8.2397509E+00  4.2531078E+01
 8.2512503E+00  4.2327682E+01
 8.2627506E+00  4.2194256E+01
 8.2742500E+00  4.2109745E+01
 8.2857504E+00  4.2122917E+01
 8.2972507E+00  4.2066177E+01
 8.3087502E+00  4.1998112E+01
 8.3202505E+00  4.1794792E+01
 8.3317509E+00  4.1550270E+01
 8.3432503E+00  4.1226112E+01
 8.3547506E+00  4.0967888E+01
 8.3662500E+00  4.0880974E+01
 8.3777504E+00  4.0695492E+01
 8.3892508E+00  4.0594170E+01
 8.4007502E+00  4.0297256E+01
 8.4122505E+00  4.0212044E+01
 8.4237509E+00  3.9990292E+01
 8.4352503E+00  3.9777809E+01
 8.4467506E+00  3.9605610E+01
 8.4582500E+00  3.9411766E+01
 8.4697504E+00  3.9234856E+01
 8.4812508E+00  3.8953312E+01
 8.4927502E+00  3.8711166E+01
 8.5042505E+00  3.8545864E+01
 8.5157509E+00  3.8368969E+01
 8.5272503E+00  3.8325115E+01
 8.5387506E+00  3.8322742E+01
 8.5502501E+00  3.8205723E+01
 8.5617504E+00  3.8060059E+01
 8.5732508E+00  3.7846928E+01
 8.5847502E+00  3.7634560E+01
 8.5962505E+00  3.7376484E+01
 8.6077509E+00  3.7112209E+01
 8.6192503E+00  3.7027508E+01
 8.6307507E+00  3.6871235E+01
 8.6422501E+00  3.6753551E+01
 8.6537504E+00  3.6527107E+01
 8.6652508E+00  3.6372738E+01
 8.6767502E+00  3.6131397E+01
 8.6882505E+00  3.6039146E+01
 8.6997509E+00  3.5937443E+01
 8.7112503E+00  3.5824230E+01
 8.7227507E+00  3.5601566E+01
 8.7342501E+00  3.5363487E+01
 8.7457504E+00  3.5108620E+01
 8.7572508E+00  3.4916744E+01
 8.7687502E+00  3.4692516E+01
 8.7802505E+00  3.4605927E+01
 8.7917500E+00  3.4396992E+01
 8.8032503E+00  3.4175007E+01
 8.8147507E+00  3.3969547E+01
 8.8262501E+00  3.3740818E+01
 8.8377504E+00  3.3664978E+01
 8.8492508E+00  3.3549267E+01
 8.8607502E+00  3.3532181E+01
 8.8722506E+00  3.3378922E+01
 8.8837500E+00  3.3207703E+01
 8.8952503E+00  3.2977234E+01
 8.9067507E+00  3.2867607E+01
 8.9182501E+00  3.2782879E+01
 8.9297504E+00  3.2695557E+01
 8.9412508E+00  3.2537697E+01
 8.9527502E+00  3.2375668E+01
 8.9642506E+00  3.2183563E+01
 8.9757500E+00  3.2033306E+01
 8.9872503E+00  3.1758905E+01
 8.9987507E+00  3.1634657E+01
 9.0102501E+00  3.1381189E+01
 9.0217505E+00  3.1222696E+01
 9.0332508E+00  3.1047529E+01
 9.0447502E+00  3.0932585E+01
 9.0562506E+00  3.0841345E+01
 9.0677500E+00  3.0766399E+01
 9.0792503E+00  3.0724989E+01
 9.0907507E+00  3.0622828E+01
 9.1022501E+00  3.0478394E+01
 9.1137505E+00  3.0294750E+01
 9.1252508E+00  3.0132450E+01
 9.1367502E+00  2.9958319E+01
 9.1482506E+00  2.9847256E+01
 9.1597500E+00  2.9752998E+01
 9.1712503E+00  2.9610947E+01
 9.1827507E+00  2.9514736E+01
 9.1942501E+00  2.9415129E+01
 9.2057505E+00  2.9347797E+01
 9.2172508E+00  2.9276478E+01
 9.2287502E+00  2.9201315E+01
 9.2402506E+00  2.9201107E+01
 9.2517500E+00  2.9080700E+01
 9.2632504E+00  2.9011953E+01
 9.2747507E+00  2.8881622E+01
 9.2862501E+00  2.8784531E+01
 9.2977505E+00  2.8642900E+01
 9.3092508E+00  2.8470577E+01
 9.3207502E+00  2.8353544E+01
 9.3322506E+00  2.8216305E+01
 9.3437500E+00  2.8097689E+01
 9.3552504E+00  2.7996559E+01
 9.3667507E+00  2.7935791E+01
 9.3782501E+00  2.7936768E+01
 9.3897505E+00  2.7939598E+01
 9.4012508E+00  2.7900820E+01
 9.4127502E+00  2.7821640E+01
 9.4242506E+00  2.7713720E+01
 9.4357500E+00  2.7626528E+01
 9.4472504E+00  2.7511282E+01
 9.4587507E+00  2.7380472E+01
 9.4702501E+00  2.7231758E+01
 9.4817505E+00  2.7145628E+01
 9.4932508E+00  2.7134716E+01
 9.5047503E+00  2.7155619E+01
 9.5162506E+00  2.7139776E+01
 9.5277500E+00  2.7056711E+01
 9.5392504E+00  2.6957132E+01
 9.5507507E+00  2.6852955E+01
 9.5622501E+00  2.6782179E+01
 9.5737505E+00  2.6666979E+01
 9.5852509E+00  2.6607775E+01
 9.5967503E+00  2.6472994E+01
 9.6082506E+00  2.6465864E+01
 9.6197500E+00  2.6468988E+01
 9.6312504E+00  2.6458050E+01
 9.6427507E+00  2.6380085E+01
 9.6542501E+00  2.6262836E+01
 9.6657505E+00  2.6165190E+01
 9.6772509E+00  2.6056948E+01
 9.6887503E+00  2.5939913E+01
 9.7002506E+00  2.5869827E+01
 9.7117500E+00  2.5889698E+01
 9.7232504E+00  2.5920879E+01
 9.7347507E+00  2.5964441E+01
 9.7462502E+00  2.5922813E+01
 9.7577505E+00  2.5861467E+01
 9.7692509E+00  2.5807970E+01
 9.7807503E+00  2.5712666E+01
 9.7922506E+00  2.5654572E+01
 9.8037500E+00  2.5650358E+01
 9.8152504E+00  2.5601484E+01
 9.8267508E+00  2.5560097E+01
 9.8382502E+00  2.5459295E+01
 9.8497505E+00  2.5459446E+01
 9.8612509E+00  2.5386009E+01
 9.8727503E+00  2.5361231E+01
 9.8842506E+00  2.5325222E+01
 9.8957500E+00  2.5324196E+01
 9.9072504E+00  2.5296602E+01
 9.9187508E+00  2.5304316E+01
 9.9302502E+00  2.5266619E+01
 9.9417505E+00  2.5247131E+01
 9.9532509E+00  2.5131590E+01
 9.9647503E+00  2.5175869E+01
 9.9762506E+00  2.5190985E+01
 9.9877501E+00  2.5208580E+01
 9.9992504E+00  2.5129097E+01
 1.0010751E+01  2.5068331E+01
 1.0022250E+01  2.5004473E+01
 1.0033751E+01  2.4973497E+01
 1.0045251E+01  2.4895536E+01
 1.0056750E+01  2.4838682E+01
 1.0068251E+01  2.4783112E+01
 1.0079750E+01  2.4748848E+01
 1.0091250E+01  2.4672699E+01
 1.0102751E+01  2.4617859E+01
 1.0114250E+01  2.4549994E+01
 1.0125751E+01  2.4503561E+01
 1.0137251E+01  2.4477375E+01
 1.0148750E+01  2.4424515E+01
 1.0160251E+01  2.4438883E+01
 1.0171750E+01  2.4388639E+01
 1.0183250E+01  2.4345242E+01
 1.0194751E+01  2.4293957E+01
 1.0206250E+01  2.4226162E+01
 1.0217751E+01  2.4196167E+01
 1.0229251E+01  2.4153942E+01
 1.0240750E+01  2.4145203E+01
 1.0252251E+01  2.4106247E+01
 1.0263750E+01  2.4133436E+01
 1.0275250E+01  2.4121092E+01
 1.0286751E+01  2.4141054E+01
 1.0298250E+01  2.4089231E+01
 1.0309751E+01  2.4069391E+01
 1.0321251E+01  2.4022291E+01
 1.0332750E+01  2.3988924E+01
 1.0344251E+01  2.3957703E+01
 1.0355750E+01  2.3895000E+01
 1.0367250E+01  2.3867334E+01
 1.0378751E+01  2.3864594E+01
 1.0390250E+01  2.3969896E+01
 1.0401751E+01  2.4019945E+01
 1.0413251E+01  2.4058344E+01
 1.0424750E+01  2.4011999E+01
 1.0436251E+01  2.3963964E+01
 1.0447750E+01  2.3884874E+01
 1.0459250E+01  2.3868340E+01
 1.0470751E+01  2.3801542E+01
 1.0482250E+01  2.3788363E+01
 1.0493751E+01  2.3708195E+01
 1.0505251E+01  2.3718351E+01
 1.0516750E+01  2.3751364E+01
 1.0528251E+01  2.3784224E+01
 1.0539750E+01  2.3820501E+01
 1.0551250E+01  2.3821711E+01
 1.0562751E+01  2.3820471E+01
 1.0574250E+01  2.3742886E+01
 1.0585751E+01  2.3704685E+01
 1.0597251E+01  2.3623289E+01
 1.0608750E+01  2.3615288E+01
 1.0620251E+01  2.3578194E+01
 1.0631750E+01  2.3600233E+01
 1.0643250E+01  2.3632761E+01
 1.0654751E+01  2.3636318E+01
 1.0666250E+01  2.3637281E+01
 1.0677751E+01  2.3596466E+01
 1.0689251E+01  2.3549156E+01
 1.0700750E+01  2.3546989E+01
 1.0712251E+01  2.3517405E+01
 1.0723750E+01  2.3557337E+01
 1.0735250E+01  2.3475927E+01
 1.0746751E+01  2.3444939E+01
 1.0758250E+01  2.3294924E+01
 1.0769751E+01  2.3242262E+01
 1.0781251E+01  2.3231836E+01
 1.0792750E+01  2.3256781E+01
 1.0804251E+01  2.3262985E+01
 1.0815750E+01  2.3211796E+01
 1.0827250E+01  2.3180281E+01
 1.0838751E+01  2.3172901E+01
 1.0850250E+01  2.3167751E+01
 1.0861751E+01  2.3162367E+01
 1.0873251E+01  2.3169033E+01
 1.0884750E+01  2.3096964E+01
 1.0896251E+01  2.3034496E+01
 1.0907750E+01  2.2978191E+01
 1.0919250E+01  2.2951689E+01
 1.0930751E+01  2.2965439E+01
 1.0942250E+01  2.2906775E+01
 1.0953751E+01  2.2984188E+01
 1.0965251E+01  2.2954105E+01
 1.0976750E+01  2.3002975E+01
 1.0988251E+01  2.2988419E+01
 1.0999750E+01  2.3003988E+01
 1.1011250E+01  2.2952898E+01
 1.1022751E+01  2.2882187E+01
 1.1034250E+01  2.2835571E+01
 1.1045751E+01  2.2841015E+01
 1.1057251E+01  2.2855387E+01
 1.1068750E+01  2.2939421E+01
 1.1080251E+01  2.2992134E+01
 1.1091750E+01  2.3088282E+01
 1.1103251E+01  2.3042917E+01
 1.1114751E+01  2.3037115E+01
 1.1126250E+01  2.2990396E+01
 1.1137751E+01  2.2995481E+01
 1.1149251E+01  2.2995520E+01
 1.1160750E+01  2.2966101E+01
 1.1172251E+01  2.2931372E+01
 1.1183750E+01  2.2957987E+01
 1.1195251E+01  2.2921135E+01
 1.1206751E+01  2.2951511E+01
 1.1218250E+01  2.2874935E+01
 1.1229751E+01  2.2844952E+01
 1.1241251E+01  2.2817015E+01
 1.1252750E+01  2.2821936E+01
 1.1264251E+01  2.2835133E+01
 1.1275750E+01  2.2865782E+01
 1.1287251E+01  2.2853994E+01
 1.1298751E+01  2.2864067E+01
 1.1310250E+01  2.2838036E+01
 1.1321751E+01  2.2814449E+01
 1.1333251E+01  2.2798597E+01
 1.1344750E+01  2.2774797E+01
 1.1356251E+01  2.2789429E+01
 1.1367750E+01  2.2829182E+01
 1.1379251E+01  2.2902111E+01
 1.1390751E+01  2.2957792E+01
 1.1402250E+01  2.3120268E+01
 1.1413751E+01  2.3136021E+01
 1.1425251E+01  2.3152836E+01
 1.1436750E+01  2.3178808E+01
 1.1448251E+01  2.3182133E+01
 1.1459750E+01  2.3172678E+01
 1.1471251E+01  2.3051048E+01
 1.1482751E+01  2.3035192E+01
 1.1494250E+01  2.3089766E+01
 1.1505751E+01  2.3104635E+01
 1.1517251E+01  2.3253923E+01
 1.1528750E+01  2.3413666E+01
 1.1540251E+01  2.3644503E+01
 1.1551750E+01  2.3969486E+01
 1.1563251E+01  2.4322788E+01
 1.1574751E+01  2.4685844E+01
 1.1586250E+01  2.5202972E+01
 1.1597751E+01  2.5387072E+01
 1.1609251E+01  2.5316574E+01
 1.1620750E+01  2.4904966E+01
 1.1632251E+01  2.4445507E+01
 1.1643750E+01  2.4034838E+01
 1.1655251E+01  2.3547018E+01
 1.1666751E+01  2.3303764E+01
 1.1678250E+01  2.3104931E+01
 1.1689751E+01  2.2980631E+01
 1.1701251E+01  2.2860201E+01
 1.1712750E+01  2.2817347E+01
 1.1724251E+01  2.2798719E+01
 1.1735750E+01  2.2807367E+01
 1.1747251E+01  2.2853746E+01
 1.1758751E+01  2.2825378E+01
 1.1770250E+01  2.2789295E+01
 1.1781751E+01  2.2782902E+01
 1.1793251E+01  2.2746893E+01
 1.1804750E+01  2.2719648E+01
 1.1816251E+01  2.2705444E+01
 1.1827750E+01  2.2720850E+01
 1.1839251E+01  2.2795143E+01
 1.1850751E+01  2.2731668E+01
 1.1862250E+01  2.2794977E+01
 1.1873751E+01  2.2749060E+01
 1.1885251E+01  2.2802130E+01
 1.1896750E+01  2.2787104E+01
 1.1908251E+01  2.2826797E+01
 1.1919750E+01  2.2869259E+01
 1.1931251E+01  2.2869654E+01
 1.1942751E+01  2.2941933E+01
 1.1954250E+01  2.2971672E+01
 1.1965751E+01  2.3029707E+01
 1.1977251E+01  2.3057386E+01
 1.1988750E+01  2.3089865E+01
 1.2000251E+01  2.3129047E+01
 1.2011750E+01  2.3123997E+01
 1.2023251E+01  2.3216734E+01
 1.2034751E+01  2.3276815E+01
 1.2046250E+01  2.3381393E+01
 1.2057751E+01  2.3428293E+01
 1.2069251E+01  2.3558559E+01
 1.2080750E+01  2.3784468E+01
 1.2092251E+01  2.4006676E+01
 1.2103750E+01  2.4214203E+01
 1.2115251E+01  2.4207106E+01
 1.2126751E+01  2.4093199E+01
 1.2138250E+01  2.3831076E+01
 1.2149751E+01  2.3540186E+01
 1.2161251E+01  2.3322334E+01
 1.2172750E+01  2.3098253E+01
 1.2184251E+01  2.2983347E+01
 1.2195750E+01  2.2871302E+01
 1.2207251E+01  2.2862259E+01
 1.2218751E+01  2.2874210E+01
 1.2230250E+01  2.2873924E+01
 1.2241751E+01  2.2894310E+01
 1.2253251E+01  2.2921820E+01
 1.2264750E+01  2.2901119E+01
 1.2276251E+01  2.2888992E+01
 1.2287750E+01  2.2909300E+01
 1.2299251E+01  2.2969032E+01
 1.2310751E+01  2.3001944E+01
 1.2322250E+01  2.2950970E+01
 1.2333751E+01  2.2974009E+01
 1.2345250E+01  2.2909920E+01
 1.2356750E+01  2.2922955E+01
 1.2368251E+01  2.2855001E+01
 1.2379750E+01  2.2879025E+01
 1.2391251E+01  2.2860090E+01
 1.2402751E+01  2.2861078E+01
 1.2414250E+01  2.2855108E+01
 1.2425751E+01  2.2880272E+01
 1.2437250E+01  2.2944132E+01
 1.2448750E+01  2.2956812E+01
 1.2460251E+01  2.3010050E+01
 1.2471750E+01  2.3010147E+01
 1.2483251E+01  2.3113331E+01
 1.2494751E+01  2.3074976E+01
 1.2506250E+01  2.3045425E+01
 1.2517751E+01  2.2964689E+01
 1.2529250E+01  2.2962030E+01
 1.2540751E+01  2.2967911E+01
 1.2552251E+01  2.2933338E+01
 1.2563750E+01  2.2943371E+01
 1.2575251E+01  2.2961882E+01
 1.2586751E+01  2.3017323E+01
 1.2598250E+01  2.3027786E+01
 1.2609751E+01  2.2995043E+01
 1.2621250E+01  2.3027281E+01
 1.2632751E+01  2.3039461E+01
 1.2644251E+01  2.3048775E+01
 1.2655750E+01  2.3060253E+01
 1.2667251E+01  2.3063972E+01
 1.2678751E+01  2.3120707E+01
 1.2690250E+01  2.3194595E+01
 1.2701751E+01  2.3293694E+01
 1.2713250E+01  2.3490788E+01
 1.2724751E+01  2.3512384E+01
 1.2736251E+01  2.3536932E+01
 1.2747750E+01  2.3471939E+01
 1.2759251E+01  2.3505247E+01
 1.2770751E+01  2.3547174E+01
 1.2782250E+01  2.3579895E+01
 1.2793751E+01  2.3556824E+01
 1.2805250E+01  2.3538857E+01
 1.2816751E+01  2.3562033E+01
 1.2828251E+01  2.3618914E+01
 1.2839750E+01  2.3655010E+01
 1.2851251E+01  2.3664799E+01
 1.2862751E+01  2.3712387E+01
 1.2874250E+01  2.3800697E+01
 1.2885751E+01  2.3856035E+01
 1.2897250E+01  2.3907049E+01
 1.2908751E+01  2.3962496E+01
 1.2920251E+01  2.3981785E+01
 1.2931750E+01  2.4030474E+01
 1.2943251E+01  2.4072958E+01
 1.2954751E+01  2.4179564E+01
 1.2966250E+01  2.4241913E+01
 1.2977751E+01  2.4332972E+01
 1.2989250E+01  2.4381027E+01
 1.3000751E+01  2.4462910E+01
 1.3012251E+01  2.4547108E+01
 1.3023750E+01  2.4657978E+01
 1.3035251E+01  2.4795269E+01
 1.3046751E+01  2.4804605E+01
 1.3058250E+01  2.4910307E+01
 1.3069751E+01  2.4913725E+01
 1.3081250E+01  2.4962019E+01
 1.3092751E+01  2.4977972E+01
 1.3104251E+01  2.5050652E+01
 1.3115750E+01  2.5176315E+01
 1.3127251E+01  2.5203608E+01
 1.3138751E+01  2.5239319E+01
 1.3150250E+01  2.5336712E+01
 1.3161751E+01  2.5473660E+01
 1.3173250E+01  2.5653538E+01
 1.3184751E+01  2.5804731E+01
 1.3196251E+01  2.5987431E+01
 1.3207750E+01  2.6168219E+01
 1.3219251E+01  2.6326117E+01
 1.3230751E+01  2.6536343E+01
 1.3242250E+01  2.6725416E+01
 1.3253751E+01  2.6858616E+01
 1.3265250E+01  2.6986031E+01
 1.3276751E+01  2.7097340E+01
 1.3288251E+01  2.7267914E+01
 1.3299750E+01  2.7344473E+01
 1.3311251E+01  2.7418343E+01
 1.3322751E+01  2.7586374E+01
 1.3334250E+01  2.7781576E+01
 1.3345751E+01  2.8013504E+01
 1.3357250E+01  2.8157667E+01
 1.3368751E+01  2.8294971E+01
 1.3380251E+01  2.8379213E+01
 1.3391750E+01  2.8435305E+01
 1.3403251E+01  2.8585707E+01
 1.3414751E+01  2.8689276E+01
 1.3426250E+01  2.8833725E+01
 1.3437751E+01  2.8913984E+01
 1.3449250E+01  2.9061480E+01
 1.3460751E+01  2.9170563E+01
 1.3472251E+01  2.9302813E+01
 1.3483750E+01  2.9411293E+01
 1.3495251E+01  2.9495558E+01
 1.3506751E+01  2.9649082E+01
 1.3518250E+01  2.9776054E+01
 1.3529751E+01  2.9889568E+01
 1.3541250E+01  2.9955578E+01
 1.3552751E+01  2.9959192E+01
 1.3564251E+01  3.0036180E+01
 1.3575750E+01  3.0066408E+01
 1.3587251E+01  3.0118427E+01
 1.3598751E+01  3.0092953E+01
 1.3610250E+01  3.0001280E+01
 1.3621751E+01  3.0037144E+01
 1.3633250E+01  3.0030432E+01
 1.3644751E+01  3.0097227E+01
 1.3656251E+01  3.0107222E+01
 1.3667750E+01  3.0215052E+01
 1.3679251E+01  3.0223095E+01
 1.3690751E+01  3.0167179E+01
 1.3702250E+01  3.0053011E+01
 1.3713751E+01  2.9943502E+01
 1.3725250E+01  2.9914459E+01
 1.3736751E+01  2.9851009E+01
 1.3748251E+01  2.9871159E+01
 1.3759750E+01  2.9806616E+01
 1.3771251E+01  2.9804737E+01
 1.3782751E+01  2.9739450E+01
 1.3794250E+01  2.9695400E+01
 1.3805751E+01  2.9670889E+01
 1.3817250E+01  2.9601454E+01
 1.3828751E+01  2.9594744E+01
 1.3840251E+01  2.9515368E+01
 1.3851750E+01  2.9521278E+01
 1.3863251E+01  2.9540653E+01
 1.3874751E+01  2.9637661E+01
 1.3886250E+01  2.9896338E+01
 1.3897751E+01  3.0262938E+01
 1.3909250E+01  3.0618137E+01
 1.3920751E+01  3.1400209E+01
 1.3932251E+01  3.1954277E+01
 1.3943750E+01  3.2533699E+01
 1.3955251E+01  3.2618103E+01
 1.3966751E+01  3.2442898E+01
 1.3978251E+01  3.1810747E+01
 1.3989751E+01  3.0913057E+01
 1.4001250E+01  3.0162764E+01
 1.4012751E+01  2.9566013E+01
 1.4024251E+01  2.8955931E+01
 1.4035750E+01  2.8597452E+01
 1.4047251E+01  2.8302582E+01
 1.4058751E+01  2.8124289E+01
 1.4070251E+01  2.7985909E+01
 1.4081751E+01  2.7838560E+01
 1.4093250E+01  2.7785715E+01
 1.4104751E+01  2.7676527E+01
 1.4116251E+01  2.7582762E+01
 1.4127750E+01  2.7522493E+01
 1.4139251E+01  2.7476210E+01
 1.4150751E+01  2.7409834E+01
 1.4162251E+01  2.7346260E+01
 1.4173751E+01  2.7251001E+01
 1.4185250E+01  2.7175852E+01
 1.4196751E+01  2.7091652E+01
 1.4208251E+01  2.7074898E+01
 1.4219750E+01  2.7032003E+01
 1.4231251E+01  2.6940149E+01
 1.4242751E+01  2.6896624E+01
 1.4254251E+01  2.6859711E+01
 1.4265751E+01  2.6888792E+01
 1.4277250E+01  2.6794579E+01
 1.4288751E+01  2.6765751E+01
 1.4300251E+01  2.6689522E+01
 1.4311750E+01  2.6658653E+01
 1.4323251E+01  2.6568922E+01
 1.4334751E+01  2.6518074E+01
 1.4346251E+01  2.6477573E+01
 1.4357751E+01  2.6431242E+01
 1.4369250E+01  2.6397274E+01
 1.4380751E+01  2.6410646E+01
 1.4392251E+01  2.6403858E+01
 1.4403750E+01  2.6362211E+01
 1.4415251E+01  2.6287766E+01
 1.4426751E+01  2.6231735E+01
 1.4438251E+01  2.6166864E+01
 1.4449751E+01  2.6122746E+01
 1.4461250E+01  2.6146889E+01
 1.4472751E+01  2.6123667E+01
 1.4484251E+01  2.6088072E+01
 1.4495750E+01  2.6005714E+01
 1.4507251E+01  2.5989916E+01
 1.4518751E+01  2.5986122E+01
 1.4530251E+01  2.5977827E+01
 1.4541751E+01  2.5879347E+01
 1.4553250E+01  2.5813875E+01
 1.4564751E+01  2.5778311E+01
 1.4576251E+01  2.5769716E+01
 1.4587750E+01  2.5744085E+01
 1.4599251E+01  2.5688751E+01
 1.4610751E+01  2.5681463E+01
 1.4622251E+01  2.5651043E+01
 1.4633751E+01  2.5595041E+01
 1.4645250E+01  2.5515854E+01
 1.4656751E+01  2.5470661E+01
 1.4668251E+01  2.5453760E+01
 1.4679750E+01  2.5505325E+01
 1.4691251E+01  2.5529968E+01
 1.4702751E+01  2.5655666E+01
 1.4714251E+01  2.5657633E+01
 1.4725751E+01  2.5632742E+01
 1.4737250E+01  2.5559158E+01
 1.4748751E+01  2.5552652E+01
 1.4760251E+01  2.5479492E+01
 1.4771750E+01  2.5451359E+01
 1.4783251E+01  2.5437391E+01
 1.4794751E+01  2.5461681E+01
 1.4806251E+01  2.5410522E+01
 1.4817751E+01  2.5382263E+01
 1.4829250E+01  2.5361410E+01
 1.4840751E+01  2.5397984E+01
 1.4852251E+01  2.5428312E+01
 1.4863750E+01  2.5405476E+01
 1.4875251E+01  2.5369764E+01
 1.4886751E+01  2.5325195E+01
 1.4898251E+01  2.5423141E+01
 1.4909751E+01  2.5455421E+01
 1.4921250E+01  2.5468462E+01
 1.4932751E+01  2.5420876E+01
 1.4944251E+01  2.5386620E+01
 1.4955750E+01  2.5393621E+01
 1.4967251E+01  2.5357935E+01
 1.4978751E+01  2.5360491E+01
 1.4990251E+01  2.5331049E+01
 1.5001751E+01  2.5361055E+01
 1.5013250E+01  2.5389235E+01
 1.5024751E+01  2.5383326E+01
 1.5036251E+01  2.5264793E+01
 1.5047750E+01  2.5197983E+01
 1.5059251E+01  2.5166676E+01
 1.5070751E+01  2.5145113E+01
 1.5082251E+01  2.5070257E+01
 1.5093751E+01  2.5028687E+01
 1.5105250E+01  2.5051117E+01
 1.5116751E+01  2.5045317E+01
 1.5128251E+01  2.5101057E+01
 1.5139750E+01  2.5189886E+01
 1.5151251E+01  2.5344406E+01
 1.5162751E+01  2.5463421E+01
 1.5174251E+01  2.5619509E+01
 1.5185751E+01  2.5691927E+01
 1.5197250E+01  2.5772886E+01
 1.5208751E+01  2.5807575E+01
 1.5220251E+01  2.5775354E+01
 1.5231750E+01  2.5615816E+01
 1.5243251E+01  2.5435556E+01
 1.5254751E+01  2.5296848E+01
 1.5266251E+01  2.5155573E+01
 1.5277751E+01  2.5043077E+01
 1.5289250E+01  2.4939981E+01
 1.5300751E+01  2.4849249E+01
 1.5312251E+01  2.4795277E+01
 1.5323750E+01  2.4754398E+01
 1.5335251E+01  2.4755280E+01
 1.5346751E+01  2.4694254E+01
 1.5358251E+01  2.4697668E+01
 1.5369751E+01  2.4681623E+01
 1.5381250E+01  2.4723341E+01
 1.5392751E+01  2.4761053E+01
 1.5404251E+01  2.4822237E+01
 1.5415751E+01  2.4841452E+01
 1.5427251E+01  2.4877718E+01
 1.5438751E+01  2.4894194E+01
 1.5450251E+01  2.4894854E+01
 1.5461751E+01  2.4894583E+01
 1.5473250E+01  2.4847336E+01
 1.5484751E+01  2.4870005E+01
 1.5496251E+01  2.4829197E+01
 1.5507751E+01  2.4878155E+01
 1.5519251E+01  2.4857050E+01
 1.5530751E+01  2.4820419E+01
 1.5542251E+01  2.4766031E+01
 1.5553751E+01  2.4761564E+01
 1.5565250E+01  2.4813810E+01
 1.5576751E+01  2.4841940E+01
 1.5588251E+01  2.4853827E+01
 1.5599751E+01  2.4801125E+01
 1.5611251E+01  2.4775219E+01
 1.5622751E+01  2.4663715E+01
 1.5634251E+01  2.4646671E+01
 1.5645751E+01  2.4678740E+01
 1.5657250E+01  2.4780596E+01
 1.5668751E+01  2.4863211E+01
 1.5680251E+01  2.4902102E+01
 1.5691751E+01  2.4943274E+01
 1.5703251E+01  2.4959532E+01
 1.5714751E+01  2.4964960E+01
 1.5726251E+01  2.4992163E+01
 1.5737751E+01  2.4951530E+01
 1.5749250E+01  2.4928919E+01
 1.5760751E+01  2.4902943E+01
 1.5772251E+01  2.4912445E+01
 1.5783751E+01  2.4894434E+01
 1.5795251E+01  2.4863510E+01
 1.5806751E+01  2.4839159E+01
 1.5818251E+01  2.4817255E+01
 1.5829751E+01  2.4829140E+01
 1.5841250E+01  2.4796612E+01
 1.5852751E+01  2.4799498E+01
 1.5864251E+01  2.4740625E+01
 1.5875751E+01  2.4764824E+01
 1.5887251E+01  2.4780027E+01
 1.5898750E+01  2.4816891E+01
 1.5910251E+01  2.4867006E+01
 1.5921751E+01  2.4930164E+01
 1.5933250E+01  2.4982281E+01
 1.5944751E+01  2.4945417E+01
 1.5956251E+01  2.4964266E+01
 1.5967751E+01  2.4982212E+01
 1.5979251E+01  2.5034225E+01
 1.5990750E+01  2.5045616E+01
 1.6002251E+01  2.4987144E+01
 1.6013750E+01  2.4962620E+01
 1.6025251E+01  2.4944649E+01
 1.6036751E+01  2.5003084E+01
 1.6048250E+01  2.5008484E+01
 1.6059752E+01  2.5085478E+01
 1.6071251E+01  2.5045969E+01
 1.6082750E+01  2.5142683E+01
 1.6094252E+01  2.5153429E+01
 1.6105751E+01  2.5269243E+01
 1.6117250E+01  2.5239082E+01
 1.6128750E+01  2.5182823E+01
 1.6140251E+01  2.5140783E+01
 1.6151751E+01  2.5076536E+01
 1.6163250E+01  2.5189272E+01
 1.6174751E+01  2.5173281E+01
 1.6186251E+01  2.5575981E+01
 1.6197750E+01  2.5588928E+01
 1.6209251E+01  2.6244904E+01
 1.6220751E+01  2.6094316E+01
 1.6232250E+01  2.6585011E+01
 1.6243752E+01  2.6581789E+01
 1.6255251E+01  2.6857311E+01
 1.6266750E+01  2.6988440E+01
 1.6278252E+01  2.6611029E+01
 1.6289751E+01  2.6579309E+01
 1.6301250E+01  2.5796810E+01
 1.6312750E+01  2.5849607E+01
 1.6324251E+01  2.5359257E+01
 1.6335751E+01  2.5398947E+01
 1.6347250E+01  2.5125137E+01
 1.6358751E+01  2.5073603E+01
 1.6370251E+01  2.4956308E+01
 1.6381750E+01  2.4939650E+01
 1.6393251E+01  2.4949732E+01
 1.6404751E+01  2.4950178E+01
 1.6416250E+01  2.4933638E+01
 1.6427752E+01  2.4917675E+01
 1.6439251E+01  2.4948837E+01
 1.6450750E+01  2.4931190E+01
 1.6462252E+01  2.4882772E+01
 1.6473751E+01  2.4831684E+01
 1.6485250E+01  2.4898432E+01
 1.6496750E+01  2.4944656E+01
 1.6508251E+01  2.4993059E+01
 1.6519751E+01  2.4978497E+01
 1.6531250E+01  2.5003113E+01
 1.6542751E+01  2.4987467E+01
 1.6554251E+01  2.4977057E+01
 1.6565750E+01  2.4941269E+01
 1.6577251E+01  2.4948242E+01
 1.6588751E+01  2.4938114E+01
 1.6600250E+01  2.4945639E+01
 1.6611752E+01  2.4921076E+01
 1.6623251E+01  2.4868109E+01
 1.6634750E+01  2.4861124E+01
 1.6646252E+01  2.4847269E+01
 1.6657751E+01  2.4868124E+01
 1.6669250E+01  2.4877697E+01
 1.6680750E+01  2.4866421E+01
 1.6692251E+01  2.4875141E+01
 1.6703751E+01  2.4855839E+01
 1.6715250E+01  2.4869902E+01
 1.6726751E+01  2.4845749E+01
 1.6738251E+01  2.4844793E+01
 1.6749750E+01  2.4902756E+01
 1.6761251E+01  2.4900728E+01
 1.6772751E+01  2.4905905E+01
 1.6784250E+01  2.4861095E+01
 1.6795752E+01  2.4868311E+01
 1.6807251E+01  2.4818552E+01
 1.6818750E+01  2.4741938E+01
 1.6830252E+01  2.4684391E+01
 1.6841751E+01  2.4608389E+01
 1.6853251E+01  2.4595840E+01
 1.6864750E+01  2.4626431E+01
 1.6876251E+01  2.4703182E+01
 1.6887751E+01  2.4712988E+01
 1.6899250E+01  2.4713955E+01
 1.6910751E+01  2.4695202E+01
 1.6922251E+01  2.4709677E+01
 1.6933750E+01  2.4692781E+01
 1.6945251E+01  2.4686594E+01
 1.6956751E+01  2.4649582E+01
 1.6968250E+01  2.4611097E+01
 1.6979752E+01  2.4598095E+01
 1.6991251E+01  2.4568569E+01
 1.7002750E+01  2.4535824E+01
 1.7014252E+01  2.4538803E+01
 1.7025751E+01  2.4567108E+01
 1.7037251E+01  2.4533422E+01
 1.7048750E+01  2.4447792E+01
 1.7060251E+01  2.4403107E+01
 1.7071751E+01  2.4389227E+01
 1.7083250E+01  2.4411364E+01
 1.7094751E+01  2.4420721E+01
 1.7106251E+01  2.4430559E+01
 1.7117750E+01  2.4421698E+01
 1.7129251E+01  2.4566610E+01
 1.7140751E+01  2.4555365E+01
 1.7152250E+01  2.4943626E+01
 1.7163752E+01  2.5065802E+01
 1.7175251E+01  2.5100529E+01
 1.7186750E+01  2.4662489E+01
 1.7198252E+01  2.4587389E+01
 1.7209751E+01  2.4616924E+01
 1.7221251E+01  2.4646549E+01
 1.7232750E+01  2.4589415E+01
 1.7244251E+01  2.4558910E+01
 1.7255751E+01  2.4449186E+01
 1.7267250E+01  2.4442596E+01
 1.7278751E+01  2.4441933E+01
 1.7290251E+01  2.4475878E+01
 1.7301750E+01  2.4449644E+01
 1.7313251E+01  2.4398430E+01
 1.7324751E+01  2.4379402E+01
 1.7336250E+01  2.4309288E+01
 1.7347752E+01  2.4264956E+01
 1.7359251E+01  2.4193172E+01
 1.7370750E+01  2.4209682E+01
 1.7382252E+01  2.4212564E+01
 1.7393751E+01  2.4256227E+01
 1.7405251E+01  2.4272470E+01
 1.7416750E+01  2.4302462E+01
 1.7428251E+01  2.4313805E+01
 1.7439751E+01  2.4349625E+01
 1.7451250E+01  2.4357441E+01
 1.7462751E+01  2.4360407E+01
 1.7474251E+01  2.4345568E+01
 1.7485750E+01  2.4352324E+01
 1.7497252E+01  2.4318434E+01
 1.7508751E+01  2.4288033E+01
 1.7520250E+01  2.4202810E+01
 1.7531752E+01  2.4166243E+01
 1.7543251E+01  2.4191221E+01
 1.7554750E+01  2.4234015E+01
 1.7566252E+01  2.4195585E+01
 1.7577751E+01  2.4111185E+01
 1.7589251E+01  2.4053026E+01
 1.7600750E+01  2.4072489E+01
 1.7612251E+01  2.4069698E+01
 1.7623751E+01  2.4080631E+01
 1.7635250E+01  2.4033100E+01
 1.7646751E+01  2.4003492E+01
 1.7658251E+01  2.3963266E+01
 1.7669750E+01  2.3976456E+01
 1.7681252E+01  2.3973619E+01
 1.7692751E+01  2.4020988E+01
 1.7704250E+01  2.3994930E+01
 1.7715752E+01  2.3985262E+01
 1.7727251E+01  2.3940990E+01
 1.7738750E+01  2.3945566E+01
 1.7750252E+01  2.3949795E+01
 1.7761751E+01  2.3942118E+01
 1.7773251E+01  2.3955664E+01
 1.7784750E+01  2.3941223E+01
 1.7796251E+01  2.4014370E+01
 1.7807751E+01  2.3987329E+01
 1.7819250E+01  2.3963448E+01
 1.7830751E+01  2.3909712E+01
 1.7842251E+01  2.3939993E+01
 1.7853750E+01  2.3936296E+01
 1.7865252E+01  2.3961245E+01
 1.7876751E+01  2.3994898E+01
 1.7888250E+01  2.4017809E+01
 1.7899752E+01  2.4022766E+01
 1.7911251E+01  2.4081682E+01
 1.7922750E+01  2.4088531E+01
 1.7934252E+01  2.4073788E+01
 1.7945751E+01  2.4062527E+01
 1.7957251E+01  2.4041983E+01
 1.7968750E+01  2.3970711E+01
 1.7980251E+01  2.3991856E+01
 1.7991751E+01  2.4027395E+01
 1.8003250E+01  2.4099819E+01
 1.8014751E+01  2.4149343E+01
 1.8026251E+01  2.4218395E+01
 1.8037750E+01  2.4351532E+01
 1.8049252E+01  2.4478666E+01
 1.8060751E+01  2.4704281E+01
 1.8072250E+01  2.4880772E+01
 1.8083752E+01  2.5110922E+01
 1.8095251E+01  2.5275471E+01
 1.8106750E+01  2.5346577E+01
 1.8118252E+01  2.5286221E+01
 1.8129751E+01  2.5099911E+01
 1.8141251E+01  2.4818453E+01
 1.8152750E+01  2.4548765E+01
 1.8164251E+01  2.4317434E+01
 1.8175751E+01  2.4129578E+01
 1.8187250E+01  2.4008133E+01
 1.8198751E+01  2.3965193E+01
 1.8210251E+01  2.3966019E+01
 1.8221750E+01  2.3946285E+01
 1.8233252E+01  2.3873880E+01
 1.8244751E+01  2.3845417E+01
 1.8256250E+01  2.3796820E+01
 1.8267752E+01  2.3765707E+01
 1.8279251E+01  2.3712154E+01
 1.8290751E+01  2.3779047E+01
 1.8302252E+01  2.3838875E+01
 1.8313751E+01  2.3892420E+01
 1.8325251E+01  2.3914692E+01
 1.8336750E+01  2.3966537E+01
 1.8348251E+01  2.3967299E+01
 1.8359751E+01  2.3962482E+01
 1.8371250E+01  2.3947165E+01
 1.8382751E+01  2.3955673E+01
 1.8394251E+01  2.3945192E+01
 1.8405750E+01  2.3959232E+01
 1.8417252E+01  2.3971354E+01
 1.8428751E+01  2.3932161E+01
 1.8440250E+01  2.3963963E+01
 1.8451752E+01  2.3915648E+01
 1.8463251E+01  2.3925928E+01
 1.8474751E+01  2.3861811E+01
 1.8486252E+01  2.3815279E+01
 1.8497751E+01  2.3752148E+01
 1.8509251E+01  2.3742176E+01
 1.8520750E+01  2.3709923E+01
 1.8532251E+01  2.3730618E+01
 1.8543751E+01  2.3714922E+01
 1.8555250E+01  2.4066374E+01
 1.8566751E+01  2.4140854E+01
 1.8578251E+01  2.4277500E+01
 1.8589750E+01  2.4081810E+01
 1.8601252E+01  2.4065243E+01
 1.8612751E+01  2.3923246E+01
 1.8624250E+01  2.3864567E+01
 1.8635752E+01  2.3843279E+01
 1.8647251E+01  2.3838560E+01
 1.8658751E+01  2.3857040E+01
 1.8670252E+01  2.3932322E+01
 1.8681751E+01  2.4058207E+01
 1.8693251E+01  2.4155840E+01
 1.8704750E+01  2.4116058E+01
 1.8716251E+01  2.4086647E+01
 1.8727751E+01  2.4031803E+01
 1.8739250E+01  2.4012131E+01
 1.8750751E+01  2.3904221E+01
 1.8762251E+01  2.3855486E+01
 1.8773750E+01  2.3814228E+01
 1.8785252E+01  2.3844309E+01
 1.8796751E+01  2.3847023E+01
 1.8808250E+01  2.3812057E+01
 1.8819752E+01  2.3804754E+01
 1.8831251E+01  2.3834948E+01
 1.8842751E+01  2.3836340E+01
 1.8854252E+01  2.3754845E+01
 1.8865751E+01  2.3649775E+01
 1.8877251E+01  2.3600996E+01
 1.8888750E+01  2.3600422E+01
 1.8900251E+01  2.3681341E+01
 1.8911751E+01  2.3709038E+01
 1.8923250E+01  2.3773769E+01
 1.8934752E+01  2.3803408E+01
 1.8946251E+01  2.3849529E+01
 1.8957750E+01  2.3811657E+01
 1.8969252E+01  2.3765732E+01
 1.8980751E+01  2.3736080E+01
 1.8992250E+01  2.3705050E+01
 1.9003752E+01  2.3706764E+01
 1.9015251E+01  2.3741207E+01
 1.9026751E+01  2.3805017E+01
 1.9038252E+01  2.3846582E+01
 1.9049751E+01  2.3826019E+01
 1.9061251E+01  2.3844151E+01
 1.9072750E+01  2.3817249E+01
 1.9084251E+01  2.3845884E+01
 1.9095751E+01  2.3805677E+01
 1.9107250E+01  2.3771790E+01
 1.9118752E+01  2.3708563E+01
 1.9130251E+01  2.3709269E+01
 1.9141750E+01  2.3719671E+01
 1.9153252E+01  2.3724855E+01
 1.9164751E+01  2.3732912E+01
 1.9176250E+01  2.3732927E+01
 1.9187752E+01  2.3756516E+01
 1.9199251E+01  2.3784124E+01
 1.9210751E+01  2.3824591E+01
 1.9222252E+01  2.3787636E+01
 1.9233751E+01  2.3753456E+01
 1.9245251E+01  2.3745483E+01
 1.9256750E+01  2.3770937E+01
 1.9268251E+01  2.3763376E+01
 1.9279751E+01  2.3753963E+01
 1.9291250E+01  2.3753183E+01
 1.9302752E+01  2.3808949E+01
 1.9314251E+01  2.3826731E+01
 1.9325750E+01  2.3823683E+01
 1.9337252E+01  2.3779562E+01
 1.9348751E+01  2.3800829E+01
 1.9360250E+01  2.3845861E+01
 1.9371752E+01  2.3910423E+01
 1.9383251E+01  2.3910004E+01
 1.9394751E+01  2.3897596E+01
 1.9406250E+01  2.3864477E+01
 1.9417751E+01  2.3879972E+01
 1.9429251E+01  2.3892309E+01
 1.9440750E+01  2.3925482E+01
 1.9452251E+01  2.3920263E+01
 1.9463751E+01  2.3901680E+01
 1.9475250E+01  2.3913761E+01
 1.9486752E+01  2.3871904E+01
 1.9498251E+01  2.3870338E+01
 1.9509750E+01  2.3872862E+01
 1.9521252E+01  2.3912476E+01
 1.9532751E+01  2.3921068E+01
 1.9544250E+01  2.3947636E+01
 1.9555752E+01  2.3956198E+01
 1.9567251E+01  2.3974318E+01
 1.9578751E+01  2.3978371E+01
 1.9590250E+01  2.3952179E+01
 1.9601751E+01  2.3911829E+01
 1.9613251E+01  2.3905008E+01
 1.9624750E+01  2.3982922E+01
 1.9636251E+01  2.4083668E+01
 1.9647751E+01  2.4190353E+01
 1.9659250E+01  2.4344822E+01
 1.9670752E+01  2.4512911E+01
 1.9682251E+01  2.4677422E+01
 1.9693750E+01  2.4862368E+01
 1.9705252E+01  2.5057165E+01
 1.9716751E+01  2.5185259E+01
 1.9728251E+01  2.5154362E+01
 1.9739752E+01  2.5040165E+01
 1.9751251E+01  2.4864445E+01
 1.9762751E+01  2.4664364E+01
 1.9774250E+01  2.4623219E+01
 1.9785751E+01  2.4616194E+01
 1.9797251E+01  2.4695343E+01
 1.9808750E+01  2.4801872E+01
 1.9820251E+01  2.4882950E+01
 1.9831751E+01  2.5052820E+01
 1.9843250E+01  2.5148212E+01
 1.9854752E+01  2.5302961E+01
 1.9866251E+01  2.5329262E+01
 1.9877750E+01  2.5298622E+01
 1.9889252E+01  2.5095182E+01
 1.9900751E+01  2.4899637E+01
 1.9912251E+01  2.4679462E+01
 1.9923752E+01  2.4492315E+01
 1.9935251E+01  2.4305655E+01
 1.9946751E+01  2.4216024E+01
 1.9958250E+01  2.4136028E+01
 1.9969751E+01  2.4145956E+01
 1.9981251E+01  2.4090506E+01
 1.9992750E+01  2.4056854E+01
 2.0004251E+01  2.4043110E+01
 2.0015751E+01  2.4013346E+01
 2.0027250E+01  2.4035856E+01
 2.0038752E+01  2.4007740E+01
 2.0050251E+01  2.4049187E+01
 2.0061750E+01  2.3966997E+01
 2.0073252E+01  2.3952515E+01
 2.0084751E+01  2.3931828E+01
 2.0096251E+01  2.3980299E+01
 2.0107752E+01  2.3968346E+01
 2.0119251E+01  2.3969442E+01
 2.0130751E+01  2.3936563E+01
 2.0142250E+01  2.3962769E+01
 2.0153751E+01  2.3940659E+01
 2.0165251E+01  2.3947830E+01
 2.0176750E+01  2.3914843E+01
 2.0188251E+01  2.3942429E+01
 2.0199751E+01  2.3988480E+01
 2.0211250E+01  2.4033230E+01
 2.0222752E+01  2.4039705E+01
 2.0234251E+01  2.4053514E+01
 2.0245750E+01  2.4069584E+01
 2.0257252E+01  2.4074924E+01
 2.0268751E+01  2.3997293E+01
 2.0280251E+01  2.3985397E+01
 2.0291752E+01  2.3936462E+01
 2.0303251E+01  2.3918314E+01
 2.0314751E+01  2.3930283E+01
 2.0326250E+01  2.3962845E+01
 2.0337751E+01  2.3963600E+01
 2.0349251E+01  2.3939886E+01
 2.0360750E+01  2.3937954E+01
 2.0372252E+01  2.3955286E+01
 2.0383751E+01  2.3946491E+01
 2.0395250E+01  2.4026051E+01
 2.0406752E+01  2.4045467E+01
 2.0418251E+01  2.4095856E+01
 2.0429750E+01  2.4079765E+01
 2.0441252E+01  2.4075569E+01
 2.0452751E+01  2.4015894E+01
 2.0464251E+01  2.3973923E+01
 2.0475752E+01  2.3960434E+01
 2.0487251E+01  2.3952259E+01
 2.0498751E+01  2.3951300E+01
 2.0510250E+01  2.3914772E+01
 2.0521751E+01  2.3879612E+01
 2.0533251E+01  2.3839703E+01
 2.0544750E+01  2.3878248E+01
 2.0556252E+01  2.3975204E+01
 2.0567751E+01  2.4061422E+01
 2.0579250E+01  2.4048882E+01
 2.0590752E+01  2.4024481E+01
 2.0602251E+01  2.3988531E+01
 2.0613750E+01  2.4015873E+01
 2.0625252E+01  2.4035095E+01
 2.0636751E+01  2.4072548E+01
 2.0648251E+01  2.4091475E+01
 2.0659752E+01  2.4103844E+01
 2.0671251E+01  2.4135937E+01
 2.0682751E+01  2.4236931E+01
 2.0694250E+01  2.4312683E+01
 2.0705751E+01  2.4459921E+01
 2.0717251E+01  2.4649303E+01
 2.0728750E+01  2.4848982E+01
 2.0740252E+01  2.4885963E+01
 2.0751751E+01  2.4956352E+01
 2.0763250E+01  2.4950327E+01
 2.0774752E+01  2.4929253E+01
 2.0786251E+01  2.4797100E+01
 2.0797750E+01  2.4689438E+01
 2.0809252E+01  2.4532652E+01
 2.0820751E+01  2.4394083E+01
 2.0832251E+01  2.4292358E+01
 2.0843752E+01  2.4223454E+01
 2.0855251E+01  2.4214853E+01
 2.0866751E+01  2.4169928E+01
 2.0878250E+01  2.4123035E+01
 2.0889751E+01  2.4107460E+01
 2.0901251E+01  2.4133179E+01
 2.0912750E+01  2.4187706E+01
 2.0924252E+01  2.4212374E+01
 2.0935751E+01  2.4236948E+01
 2.0947250E+01  2.4192034E+01
 2.0958752E+01  2.4158722E+01
 2.0970251E+01  2.4165255E+01
 2.0981750E+01  2.4175301E+01
 2.0993252E+01  2.4167980E+01
 2.1004751E+01  2.4148378E+01
 2.1016251E+01  2.4118954E+01
 2.1027752E+01  2.4106169E+01
 2.1039251E+01  2.4084162E+01
 2.1050751E+01  2.4068441E+01
 2.1062250E+01  2.4073389E+01
 2.1073751E+01  2.4101320E+01
 2.1085251E+01  2.4095478E+01
 2.1096750E+01  2.4050438E+01
 2.1108252E+01  2.4103951E+01
 2.1119751E+01  2.4136536E+01
 2.1131250E+01  2.4146137E+01
 2.1142752E+01  2.4080864E+01
 2.1154251E+01  2.4035490E+01
 2.1165751E+01  2.4026882E+01
 2.1177252E+01  2.4065334E+01
 2.1188751E+01  2.4068815E+01
 2.1200251E+01  2.4108875E+01
 2.1211752E+01  2.4121035E+01
 2.1223251E+01  2.4122620E+01
 2.1234751E+01  2.4113773E+01
 2.1246250E+01  2.4134258E+01
 2.1257751E+01  2.4185789E+01
 2.1269251E+01  2.4164330E+01
 2.1280750E+01  2.4172031E+01
 2.1292252E+01  2.4176859E+01
 2.1303751E+01  2.4221766E+01
 2.1315250E+01  2.4203766E+01
 2.1326752E+01  2.4212440E+01
 2.1338251E+01  2.4204945E+01
 2.1349751E+01  2.4234022E+01
 2.1361252E+01  2.4287685E+01
 2.1372751E+01  2.4323332E+01
 2.1384251E+01  2.4278278E+01
 2.1395752E+01  2.4277748E+01
 2.1407251E+01  2.4238047E+01
 2.1418751E+01  2.4215776E+01
 2.1430250E+01  2.4204151E+01
 2.1441751E+01  2.4200876E+01
 2.1453251E+01  2.4185785E+01
 2.1464750E+01  2.4149580E+01
 2.1476252E+01  2.4109863E+01
 2.1487751E+01  2.4151623E+01
 2.1499250E+01  2.4171425E+01
 2.1510752E+01  2.4224560E+01
 2.1522251E+01  2.4254234E+01
 2.1533751E+01  2.4294497E+01
 2.1545252E+01  2.4260244E+01
 2.1556751E+01  2.4250132E+01
 2.1568251E+01  2.4215418E+01
 2.1579752E+01  2.4265495E+01
 2.1591251E+01  2.4319481E+01
 2.1602751E+01  2.4394363E+01
 2.1614250E+01  2.4369600E+01
 2.1625751E+01  2.4395275E+01
 2.1637251E+01  2.4364847E+01
 2.1648750E+01  2.4368132E+01
 2.1660252E+01  2.4350191E+01
 2.1671751E+01  2.4382957E+01
 2.1683250E+01  2.4383682E+01
 2.1694752E+01  2.4357700E+01
 2.1706251E+01  2.4361115E+01
 2.1717751E+01  2.4330168E+01
 2.1729252E+01  2.4320196E+01
 2.1740751E+01  2.4351595E+01
 2.1752251E+01  2.4361322E+01
 2.1763752E+01  2.4354845E+01
 2.1775251E+01  2.4316076E+01
 2.1786751E+01  2.4303511E+01
 2.1798250E+01  2.4315643E+01
 2.1809752E+01  2.4352402E+01
 2.1821251E+01  2.4390551E+01
 2.1832750E+01  2.4350191E+01
 2.1844252E+01  2.4318573E+01
 2.1855751E+01  2.4327133E+01
 2.1867250E+01  2.4405788E+01
 2.1878752E+01  2.4479263E+01
 2.1890251E+01  2.4525888E+01
 2.1901751E+01  2.4540052E+01
 2.1913252E+01  2.4542263E+01
 2.1924751E+01  2.4515913E+01
 2.1936251E+01  2.4448244E+01
 2.1947752E+01  2.4421341E+01
 2.1959251E+01  2.4437607E+01
 2.1970751E+01  2.4515650E+01
 2.1982250E+01  2.4527456E+01
 2.1993752E+01  2.4540855E+01
 2.2005251E+01  2.4549580E+01
 2.2016750E+01  2.4549276E+01
 2.2028252E+01  2.4556736E+01
 2.2039751E+01  2.4509462E+01
 2.2051250E+01  2.4529148E+01
 2.2062752E+01  2.4527132E+01
 2.2074251E+01  2.4625875E+01
 2.2085751E+01  2.4644108E+01
 2.2097252E+01  2.4665859E+01
 2.2108751E+01  2.4624228E+01
 2.2120251E+01  2.4635862E+01
 2.2131752E+01  2.4644081E+01
 2.2143251E+01  2.4688572E+01
 2.2154751E+01  2.4698589E+01
 2.2166250E+01  2.4685099E+01
 2.2177752E+01  2.4630127E+01
 2.2189251E+01  2.4651808E+01
 2.2200750E+01  2.4627901E+01
 2.2212252E+01  2.4634394E+01
 2.2223751E+01  2.4651646E+01
 2.2235250E+01  2.4673418E+01
 2.2246752E+01  2.4686663E+01
 2.2258251E+01  2.4757410E+01
 2.2269751E+01  2.4793989E+01
 2.2281252E+01  2.4818893E+01
 2.2292751E+01  2.4805574E+01
 2.2304251E+01  2.4842562E+01
 2.2315752E+01  2.4832172E+01
 2.2327251E+01  2.4830965E+01
 2.2338751E+01  2.4809597E+01
 2.2350250E+01  2.4850840E+01
 2.2361752E+01  2.4842371E+01
 2.2373251E+01  2.4887629E+01
 2.2384750E+01  2.4853338E+01
 2.2396252E+01  2.4822519E+01
 2.2407751E+01  2.4724932E+01
 2.2419250E+01  2.4686102E+01
 2.2430752E+01  2.4689604E+01
 2.2442251E+01  2.4802357E+01
 2.2453751E+01  2.4911259E+01
 2.2465252E+01  2.4982262E+01
 2.2476751E+01  2.4963671E+01
 2.2488251E+01  2.4959393E+01
 2.2499752E+01  2.4989828E+01
 2.2511251E+01  2.5018311E+01
 2.2522751E+01  2.5075132E+01
 2.2534250E+01  2.5104132E+01
 2.2545752E+01  2.5145477E+01
 2.2557251E+01  2.5130724E+01
 2.2568750E+01  2.5102020E+01
 2.2580252E+01  2.5072222E+01
 2.2591751E+01  2.5052256E+01
 2.2603251E+01  2.5117058E+01
 2.2614752E+01  2.5160376E+01
 2.2626251E+01  2.5171001E+01
 2.2637751E+01  2.5110960E+01
 2.2649252E+01  2.5075552E+01
 2.2660751E+01  2.5072077E+01
 2.2672251E+01  2.5103092E+01
 2.2683752E+01  2.5177509E+01
 2.2695251E+01  2.5224871E+01
 2.2706751E+01  2.5257095E+01
 2.2718250E+01  2.5304485E+01
 2.2729752E+01  2.5337372E+01
 2.2741251E+01  2.5402378E+01
 2.2752750E+01  2.5446455E+01
 2.2764252E+01  2.5487949E+01
 2.2775751E+01  2.5473543E+01
 2.2787251E+01  2.5483765E+01
 2.2798752E+01  2.5538355E+01
 2.2810251E+01  2.5592497E+01
 2.2821751E+01  2.5625639E+01
 2.2833252E+01  2.5706711E+01
 2.2844751E+01  2.5747444E+01
 2.2856251E+01  2.5777464E+01
 2.2867750E+01  2.5830639E+01
 2.2879251E+01  2.5851833E+01
 2.2890751E+01  2.5928690E+01
 2.2902250E+01  2.5964907E+01
 2.2913752E+01  2.6085766E+01
 2.2925251E+01  2.6117550E+01
 2.2936750E+01  2.6181080E+01
 2.2948252E+01  2.6258099E+01
 2.2959751E+01  2.6295572E+01
 2.2971251E+01  2.6410662E+01
 2.2982752E+01  2.6488850E+01
 2.2994251E+01  2.6563152E+01
