F:\20151113_APS_34IDE\\Brian\Particle1\OCV\Data_0058.tif
2-Theta Angle (Degrees)
Intensity
       2000
 5.7500005E-03  0.0000000E+00
 1.7250001E-02  0.0000000E+00
 2.8750001E-02  0.0000000E+00
 4.0250003E-02  0.0000000E+00
 5.1750004E-02  0.0000000E+00
 6.3250005E-02  0.0000000E+00
 7.4750006E-02  0.0000000E+00
 8.6250007E-02  0.0000000E+00
 9.7750008E-02  0.0000000E+00
 1.0925001E-01  0.0000000E+00
 1.2075000E-01  0.0000000E+00
 1.3225001E-01  0.0000000E+00
 1.4375001E-01  0.0000000E+00
 1.5525001E-01  0.0000000E+00
 1.6675001E-01  0.0000000E+00
 1.7825001E-01  0.0000000E+00
 1.8975002E-01  0.0000000E+00
 2.0125002E-01  0.0000000E+00
 2.1275002E-01  0.0000000E+00
 2.2425000E-01  0.0000000E+00
 2.3575000E-01  0.0000000E+00
 2.4725001E-01  0.0000000E+00
 2.5875002E-01  0.0000000E+00
 2.7025002E-01  0.0000000E+00
 2.8175002E-01  0.0000000E+00
 2.9325002E-01  0.0000000E+00
 3.0475003E-01  0.0000000E+00
 3.1625003E-01  0.0000000E+00
 3.2775003E-01  0.0000000E+00
 3.3925003E-01  0.0000000E+00
 3.5075003E-01  0.0000000E+00
 3.6225003E-01  0.0000000E+00
 3.7375003E-01  0.0000000E+00
 3.8525003E-01  0.0000000E+00
 3.9675003E-01  0.0000000E+00
 4.0825003E-01  0.0000000E+00
 4.1975003E-01  0.0000000E+00
 4.3125004E-01  0.0000000E+00
 4.4275001E-01  0.0000000E+00
 4.5425001E-01  0.0000000E+00
 4.6575001E-01  0.0000000E+00
 4.7725001E-01  0.0000000E+00
 4.8875001E-01  0.0000000E+00
 5.0025004E-01  0.0000000E+00
 5.1175004E-01  0.0000000E+00
 5.2325004E-01  0.0000000E+00
 5.3475004E-01  0.0000000E+00
 5.4625005E-01  0.0000000E+00
 5.5775005E-01  0.0000000E+00
 5.6925005E-01  0.0000000E+00
 5.8075005E-01  0.0000000E+00
 5.9225005E-01  0.0000000E+00
 6.0375005E-01  0.0000000E+00
 6.1525005E-01  0.0000000E+00
 6.2675005E-01  0.0000000E+00
 6.3825005E-01  0.0000000E+00
 6.4975005E-01  0.0000000E+00
 6.6125005E-01  0.0000000E+00
 6.7275006E-01  0.0000000E+00
 6.8425006E-01  0.0000000E+00
 6.9575006E-01  0.0000000E+00
 7.0725006E-01  0.0000000E+00
 7.1875006E-01  0.0000000E+00
 7.3025006E-01  0.0000000E+00
 7.4175006E-01  0.0000000E+00
 7.5325006E-01  0.0000000E+00
 7.6475006E-01  0.0000000E+00
 7.7625006E-01  0.0000000E+00
 7.8775007E-01  0.0000000E+00
 7.9925007E-01  0.0000000E+00
 8.1075007E-01  0.0000000E+00
 8.2225007E-01  0.0000000E+00
 8.3375007E-01  0.0000000E+00
 8.4525007E-01  0.0000000E+00
 8.5675007E-01  0.0000000E+00
 8.6825007E-01  0.0000000E+00
 8.7975001E-01  0.0000000E+00
 8.9125001E-01  0.0000000E+00
 9.0275002E-01  0.0000000E+00
 9.1425002E-01  0.0000000E+00
 9.2575002E-01  0.0000000E+00
 9.3725002E-01  0.0000000E+00
 9.4875002E-01  0.0000000E+00
 9.6025002E-01  0.0000000E+00
 9.7175002E-01  0.0000000E+00
 9.8325002E-01  0.0000000E+00
 9.9475002E-01  0.0000000E+00
 1.0062500E+00  0.0000000E+00
 1.0177500E+00  0.0000000E+00
 1.0292500E+00  0.0000000E+00
 1.0407500E+00  0.0000000E+00
 1.0522500E+00  0.0000000E+00
 1.0637500E+00  0.0000000E+00
 1.0752500E+00  0.0000000E+00
 1.0867500E+00  0.0000000E+00
 1.0982500E+00  0.0000000E+00
 1.1097500E+00  0.0000000E+00
 1.1212500E+00  0.0000000E+00
 1.1327500E+00  0.0000000E+00
 1.1442500E+00  0.0000000E+00
 1.1557500E+00  0.0000000E+00
 1.1672500E+00  0.0000000E+00
 1.1787500E+00  0.0000000E+00
 1.1902500E+00  0.0000000E+00
 1.2017500E+00  0.0000000E+00
 1.2132500E+00  0.0000000E+00
 1.2247500E+00  0.0000000E+00
 1.2362500E+00  0.0000000E+00
 1.2477500E+00  0.0000000E+00
 1.2592500E+00  0.0000000E+00
 1.2707500E+00  0.0000000E+00
 1.2822500E+00  0.0000000E+00
 1.2937500E+00  0.0000000E+00
 1.3052500E+00  0.0000000E+00
 1.3167500E+00  0.0000000E+00
 1.3282501E+00  0.0000000E+00
 1.3397501E+00  0.0000000E+00
 1.3512501E+00  0.0000000E+00
 1.3627501E+00  0.0000000E+00
 1.3742501E+00  0.0000000E+00
 1.3857501E+00  0.0000000E+00
 1.3972501E+00  0.0000000E+00
 1.4087501E+00  0.0000000E+00
 1.4202501E+00  0.0000000E+00
 1.4317501E+00  0.0000000E+00
 1.4432501E+00  0.0000000E+00
 1.4547501E+00  0.0000000E+00
 1.4662501E+00  0.0000000E+00
 1.4777501E+00  0.0000000E+00
 1.4892501E+00  0.0000000E+00
 1.5007501E+00  0.0000000E+00
 1.5122501E+00  0.0000000E+00
 1.5237501E+00  0.0000000E+00
 1.5352501E+00  0.0000000E+00
 1.5467501E+00  0.0000000E+00
 1.5582501E+00  0.0000000E+00
 1.5697501E+00  0.0000000E+00
 1.5812501E+00  0.0000000E+00
 1.5927501E+00  0.0000000E+00
 1.6042501E+00  0.0000000E+00
 1.6157501E+00  0.0000000E+00
 1.6272501E+00  0.0000000E+00
 1.6387501E+00  0.0000000E+00
 1.6502501E+00  0.0000000E+00
 1.6617501E+00  0.0000000E+00
 1.6732501E+00  0.0000000E+00
 1.6847501E+00  0.0000000E+00
 1.6962501E+00  0.0000000E+00
 1.7077501E+00  0.0000000E+00
 1.7192501E+00  0.0000000E+00
 1.7307501E+00  0.0000000E+00
 1.7422501E+00  0.0000000E+00
 1.7537501E+00  0.0000000E+00
 1.7652501E+00  0.0000000E+00
 1.7767501E+00  0.0000000E+00
 1.7882501E+00  0.0000000E+00
 1.7997501E+00  0.0000000E+00
 1.8112501E+00  0.0000000E+00
 1.8227501E+00  0.0000000E+00
 1.8342501E+00  0.0000000E+00
 1.8457501E+00  0.0000000E+00
 1.8572501E+00  0.0000000E+00
 1.8687501E+00  0.0000000E+00
 1.8802501E+00  0.0000000E+00
 1.8917501E+00  0.0000000E+00
 1.9032501E+00  0.0000000E+00
 1.9147501E+00  0.0000000E+00
 1.9262501E+00  0.0000000E+00
 1.9377501E+00  0.0000000E+00
 1.9492501E+00  0.0000000E+00
 1.9607501E+00  0.0000000E+00
 1.9722501E+00  0.0000000E+00
 1.9837501E+00  0.0000000E+00
 1.9952501E+00  0.0000000E+00
 2.0067501E+00  0.0000000E+00
 2.0182500E+00  0.0000000E+00
 2.0297501E+00  0.0000000E+00
 2.0412500E+00  0.0000000E+00
 2.0527501E+00  0.0000000E+00
 2.0642500E+00  0.0000000E+00
 2.0757501E+00  0.0000000E+00
 2.0872500E+00  0.0000000E+00
 2.0987501E+00  0.0000000E+00
 2.1102500E+00  0.0000000E+00
 2.1217501E+00  0.0000000E+00
 2.1332500E+00  0.0000000E+00
 2.1447501E+00  0.0000000E+00
 2.1562500E+00  0.0000000E+00
 2.1677501E+00  0.0000000E+00
 2.1792500E+00  0.0000000E+00
 2.1907501E+00  0.0000000E+00
 2.2022500E+00  0.0000000E+00
 2.2137501E+00  0.0000000E+00
 2.2252500E+00  0.0000000E+00
 2.2367501E+00  0.0000000E+00
 2.2482500E+00  0.0000000E+00
 2.2597501E+00  0.0000000E+00
 2.2712500E+00  0.0000000E+00
 2.2827501E+00  0.0000000E+00
 2.2942500E+00  0.0000000E+00
 2.3057501E+00  0.0000000E+00
 2.3172500E+00  0.0000000E+00
 2.3287501E+00  0.0000000E+00
 2.3402500E+00  0.0000000E+00
 2.3517501E+00  0.0000000E+00
 2.3632500E+00  0.0000000E+00
 2.3747501E+00  0.0000000E+00
 2.3862500E+00  0.0000000E+00
 2.3977501E+00  0.0000000E+00
 2.4092500E+00  0.0000000E+00
 2.4207501E+00  0.0000000E+00
 2.4322500E+00  0.0000000E+00
 2.4437501E+00  0.0000000E+00
 2.4552500E+00  0.0000000E+00
 2.4667501E+00  0.0000000E+00
 2.4782500E+00  0.0000000E+00
 2.4897501E+00  0.0000000E+00
 2.5012500E+00  0.0000000E+00
 2.5127501E+00  0.0000000E+00
 2.5242500E+00  0.0000000E+00
 2.5357502E+00  0.0000000E+00
 2.5472500E+00  0.0000000E+00
 2.5587502E+00  0.0000000E+00
 2.5702500E+00  0.0000000E+00
 2.5817502E+00  0.0000000E+00
 2.5932500E+00  0.0000000E+00
 2.6047502E+00  0.0000000E+00
 2.6162500E+00  0.0000000E+00
 2.6277502E+00  0.0000000E+00
 2.6392500E+00  0.0000000E+00
 2.6507502E+00  0.0000000E+00
 2.6622500E+00  0.0000000E+00
 2.6737502E+00  0.0000000E+00
 2.6852500E+00  0.0000000E+00
 2.6967502E+00  0.0000000E+00
 2.7082500E+00  0.0000000E+00
 2.7197502E+00  0.0000000E+00
 2.7312500E+00  0.0000000E+00
 2.7427502E+00  0.0000000E+00
 2.7542500E+00  0.0000000E+00
 2.7657502E+00  0.0000000E+00
 2.7772501E+00  0.0000000E+00
 2.7887502E+00  0.0000000E+00
 2.8002501E+00  0.0000000E+00
 2.8117502E+00  0.0000000E+00
 2.8232501E+00  3.3217400E+01
 2.8347502E+00  3.3697334E+01
 2.8462501E+00  3.3320282E+01
 2.8577502E+00  3.3543980E+01
 2.8692501E+00  3.4101879E+01
 2.8807502E+00  3.5023514E+01
 2.8922501E+00  3.5510712E+01
 2.9037502E+00  3.6148060E+01
 2.9152501E+00  3.6428276E+01
 2.9267502E+00  3.6362392E+01
 2.9382501E+00  3.5924721E+01
 2.9497502E+00  3.5487000E+01
 2.9612501E+00  3.5578449E+01
 2.9727502E+00  3.5730160E+01
 2.9842501E+00  3.5840324E+01
 2.9957502E+00  3.6293179E+01
 3.0072501E+00  3.6736103E+01
 3.0187502E+00  3.6982693E+01
 3.0302501E+00  3.6934418E+01
 3.0417502E+00  3.6720272E+01
 3.0532501E+00  3.6646183E+01
 3.0647502E+00  3.6509060E+01
 3.0762501E+00  3.6170048E+01
 3.0877502E+00  3.6244881E+01
 3.0992501E+00  3.6213902E+01
 3.1107502E+00  3.6152660E+01
 3.1222501E+00  3.6199310E+01
 3.1337502E+00  3.6096497E+01
 3.1452501E+00  3.6101917E+01
 3.1567502E+00  3.6081921E+01
 3.1682501E+00  3.6069672E+01
 3.1797502E+00  3.6237202E+01
 3.1912501E+00  3.6199646E+01
 3.2027502E+00  3.6005978E+01
 3.2142501E+00  3.6017422E+01
 3.2257502E+00  3.5816448E+01
 3.2372501E+00  3.5561134E+01
 3.2487502E+00  3.5311810E+01
 3.2602501E+00  3.5098946E+01
 3.2717502E+00  3.4964096E+01
 3.2832501E+00  3.4738731E+01
 3.2947502E+00  3.4635632E+01
 3.3062501E+00  3.4634747E+01
 3.3177502E+00  3.4981461E+01
 3.3292501E+00  3.5100014E+01
 3.3407502E+00  3.5429451E+01
 3.3522501E+00  3.5464611E+01
 3.3637502E+00  3.5461243E+01
 3.3752501E+00  3.5474377E+01
 3.3867502E+00  3.5121708E+01
 3.3982501E+00  3.4931660E+01
 3.4097502E+00  3.4717960E+01
 3.4212501E+00  3.4675838E+01
 3.4327502E+00  3.4412392E+01
 3.4442501E+00  3.4136585E+01
 3.4557502E+00  3.3889492E+01
 3.4672501E+00  3.3886902E+01
 3.4787502E+00  3.3992142E+01
 3.4902501E+00  3.4331570E+01
 3.5017502E+00  3.4324528E+01
 3.5132501E+00  3.4126305E+01
 3.5247502E+00  3.4098610E+01
 3.5362501E+00  3.4145172E+01
 3.5477502E+00  3.4091408E+01
 3.5592501E+00  3.3951893E+01
 3.5707502E+00  3.3508820E+01
 3.5822501E+00  3.3331436E+01
 3.5937502E+00  3.3147758E+01
 3.6052501E+00  3.2893036E+01
 3.6167502E+00  3.2961609E+01
 3.6282501E+00  3.2931576E+01
 3.6397502E+00  3.2929798E+01
 3.6512501E+00  3.3195747E+01
 3.6627502E+00  3.3183250E+01
 3.6742501E+00  3.3281155E+01
 3.6857502E+00  3.3287758E+01
 3.6972501E+00  3.3175049E+01
 3.7087502E+00  3.2986931E+01
 3.7202501E+00  3.2720783E+01
 3.7317502E+00  3.2653996E+01
 3.7432501E+00  3.2864101E+01
 3.7547503E+00  3.3102230E+01
 3.7662501E+00  3.3654266E+01
 3.7777503E+00  3.4587513E+01
 3.7892501E+00  3.4387165E+01
 3.8007503E+00  3.3994190E+01
 3.8122501E+00  3.3247784E+01
 3.8237503E+00  3.2963867E+01
 3.8352501E+00  3.2660809E+01
 3.8467503E+00  3.2476711E+01
 3.8582501E+00  3.2562424E+01
 3.8697503E+00  3.2808590E+01
 3.8812501E+00  3.2885765E+01
 3.8927503E+00  3.2734447E+01
 3.9042501E+00  3.2736523E+01
 3.9157503E+00  3.2544498E+01
 3.9272501E+00  3.2621620E+01
 3.9387503E+00  3.2587910E+01
 3.9502501E+00  3.2614811E+01
 3.9617503E+00  3.2768181E+01
 3.9732502E+00  3.2719643E+01
 3.9847503E+00  3.2614052E+01
 3.9962502E+00  3.2451572E+01
 4.0077500E+00  3.2418198E+01
 4.0192504E+00  3.2318806E+01
 4.0307503E+00  3.2190105E+01
 4.0422502E+00  3.2113209E+01
 4.0537500E+00  3.2161861E+01
 4.0652504E+00  3.2151684E+01
 4.0767503E+00  3.2064770E+01
 4.0882502E+00  3.2196304E+01
 4.0997500E+00  3.2410194E+01
 4.1112504E+00  3.2555935E+01
 4.1227503E+00  3.2550804E+01
 4.1342502E+00  3.2467083E+01
 4.1457500E+00  3.2494766E+01
 4.1572504E+00  3.2378750E+01
 4.1687503E+00  3.2416199E+01
 4.1802502E+00  3.2341217E+01
 4.1917500E+00  3.2370323E+01
 4.2032504E+00  3.2423557E+01
 4.2147503E+00  3.2499706E+01
 4.2262502E+00  3.2710236E+01
 4.2377501E+00  3.2701733E+01
 4.2492504E+00  3.2714306E+01
 4.2607503E+00  3.2751617E+01
 4.2722502E+00  3.2646023E+01
 4.2837501E+00  3.2577667E+01
 4.2952504E+00  3.2301846E+01
 4.3067503E+00  3.2160187E+01
 4.3182502E+00  3.2148705E+01
 4.3297501E+00  3.2274570E+01
 4.3412504E+00  3.2270447E+01
 4.3527503E+00  3.2251839E+01
 4.3642502E+00  3.2111782E+01
 4.3757501E+00  3.2151802E+01
 4.3872504E+00  3.2160015E+01
 4.3987503E+00  3.2294014E+01
 4.4102502E+00  3.2270157E+01
 4.4217501E+00  3.2360329E+01
 4.4332504E+00  3.2413773E+01
 4.4447503E+00  3.2528271E+01
 4.4562502E+00  3.2492371E+01
 4.4677501E+00  3.2414505E+01
 4.4792504E+00  3.2524830E+01
 4.4907503E+00  3.2443947E+01
 4.5022502E+00  3.2440498E+01
 4.5137501E+00  3.2452667E+01
 4.5252504E+00  3.2464260E+01
 4.5367503E+00  3.2471809E+01
 4.5482502E+00  3.2346050E+01
 4.5597501E+00  3.2379082E+01
 4.5712504E+00  3.2395187E+01
 4.5827503E+00  3.2380325E+01
 4.5942502E+00  3.2502544E+01
 4.6057501E+00  3.2554893E+01
 4.6172504E+00  3.2712193E+01
 4.6287503E+00  3.2763130E+01
 4.6402502E+00  3.2990936E+01
 4.6517501E+00  3.3044914E+01
 4.6632504E+00  3.3108715E+01
 4.6747503E+00  3.3058132E+01
 4.6862502E+00  3.3121193E+01
 4.6977501E+00  3.3149303E+01
 4.7092505E+00  3.3113922E+01
 4.7207503E+00  3.3088425E+01
 4.7322502E+00  3.3051491E+01
 4.7437501E+00  3.2997231E+01
 4.7552505E+00  3.2905289E+01
 4.7667503E+00  3.2842861E+01
 4.7782502E+00  3.2800163E+01
 4.7897501E+00  3.2788902E+01
 4.8012505E+00  3.2585495E+01
 4.8127503E+00  3.2563927E+01
 4.8242502E+00  3.2497280E+01
 4.8357501E+00  3.2580673E+01
 4.8472505E+00  3.2642689E+01
 4.8587503E+00  3.2795578E+01
 4.8702502E+00  3.2799583E+01
 4.8817501E+00  3.2788910E+01
 4.8932505E+00  3.2606239E+01
 4.9047503E+00  3.2634914E+01
 4.9162502E+00  3.2659264E+01
 4.9277501E+00  3.2678646E+01
 4.9392505E+00  3.2676476E+01
 4.9507504E+00  3.2659847E+01
 4.9622502E+00  3.2624538E+01
 4.9737501E+00  3.2695385E+01
 4.9852505E+00  3.2619907E+01
 4.9967504E+00  3.2668209E+01
 5.0082502E+00  3.2637825E+01
 5.0197501E+00  3.2578518E+01
 5.0312505E+00  3.2677971E+01
 5.0427504E+00  3.2766819E+01
 5.0542502E+00  3.2878010E+01
 5.0657501E+00  3.3005009E+01
 5.0772505E+00  3.3086399E+01
 5.0887504E+00  3.3250111E+01
 5.1002502E+00  3.3312847E+01
 5.1117501E+00  3.3307434E+01
 5.1232505E+00  3.3303314E+01
 5.1347504E+00  3.3413929E+01
 5.1462502E+00  3.3466087E+01
 5.1577501E+00  3.3652393E+01
 5.1692505E+00  3.3805973E+01
 5.1807504E+00  3.4094402E+01
 5.1922503E+00  3.4376072E+01
 5.2037501E+00  3.4523930E+01
 5.2152505E+00  3.4479916E+01
 5.2267504E+00  3.4416027E+01
 5.2382503E+00  3.4202976E+01
 5.2497501E+00  3.4239376E+01
 5.2612505E+00  3.4121048E+01
 5.2727504E+00  3.4113758E+01
 5.2842503E+00  3.4095367E+01
 5.2957501E+00  3.4244644E+01
 5.3072500E+00  3.4320263E+01
 5.3187504E+00  3.4379917E+01
 5.3302503E+00  3.4263195E+01
 5.3417501E+00  3.4266571E+01
 5.3532500E+00  3.4231365E+01
 5.3647504E+00  3.4283234E+01
 5.3762503E+00  3.4380589E+01
 5.3877501E+00  3.4611725E+01
 5.3992500E+00  3.4771019E+01
 5.4107504E+00  3.4934246E+01
 5.4222503E+00  3.4949795E+01
 5.4337502E+00  3.4917728E+01
 5.4452500E+00  3.4894848E+01
 5.4567504E+00  3.4862053E+01
 5.4682503E+00  3.4901295E+01
 5.4797502E+00  3.4896465E+01
 5.4912500E+00  3.4863117E+01
 5.5027504E+00  3.4897831E+01
 5.5142503E+00  3.5028442E+01
 5.5257502E+00  3.5121956E+01
 5.5372500E+00  3.5094204E+01
 5.5487504E+00  3.5014122E+01
 5.5602503E+00  3.4985439E+01
 5.5717502E+00  3.5066505E+01
 5.5832500E+00  3.5193470E+01
 5.5947504E+00  3.5297958E+01
 5.6062503E+00  3.5416122E+01
 5.6177502E+00  3.5448265E+01
 5.6292500E+00  3.5539265E+01
 5.6407504E+00  3.5527149E+01
 5.6522503E+00  3.5635666E+01
 5.6637502E+00  3.5767826E+01
 5.6752501E+00  3.5945286E+01
 5.6867504E+00  3.6024906E+01
 5.6982503E+00  3.5964378E+01
 5.7097502E+00  3.5888004E+01
 5.7212501E+00  3.5869099E+01
 5.7327504E+00  3.5836426E+01
 5.7442503E+00  3.5881130E+01
 5.7557502E+00  3.5945694E+01
 5.7672501E+00  3.5911221E+01
 5.7787504E+00  3.5999977E+01
 5.7902503E+00  3.6020977E+01
 5.8017502E+00  3.6105675E+01
 5.8132501E+00  3.6096558E+01
 5.8247504E+00  3.6144257E+01
 5.8362503E+00  3.6342602E+01
 5.8477502E+00  3.6599194E+01
 5.8592501E+00  3.6724255E+01
 5.8707504E+00  3.6998882E+01
 5.8822503E+00  3.7346046E+01
 5.8937502E+00  3.7769939E+01
 5.9052501E+00  3.8773430E+01
 5.9167504E+00  4.0099140E+01
 5.9282503E+00  4.2038250E+01
 5.9397502E+00  4.6859470E+01
 5.9512501E+00  5.1581676E+01
 5.9627504E+00  5.6716866E+01
 5.9742503E+00  6.8654900E+01
 5.9857502E+00  6.9854874E+01
 5.9972501E+00  7.0529877E+01
 6.0087504E+00  6.0771500E+01
 6.0202503E+00  5.5105919E+01
 6.0317502E+00  5.0251514E+01
 6.0432501E+00  4.3881973E+01
 6.0547504E+00  4.1360710E+01
 6.0662503E+00  3.9654285E+01
 6.0777502E+00  3.8434723E+01
 6.0892501E+00  3.8128551E+01
 6.1007504E+00  3.7757431E+01
 6.1122503E+00  3.7669006E+01
 6.1237502E+00  3.7610085E+01
 6.1352501E+00  3.7511185E+01
 6.1467505E+00  3.7398285E+01
 6.1582503E+00  3.7419338E+01
 6.1697502E+00  3.7417747E+01
 6.1812501E+00  3.7503754E+01
 6.1927505E+00  3.7501015E+01
 6.2042503E+00  3.7498924E+01
 6.2157502E+00  3.7552795E+01
 6.2272501E+00  3.7590534E+01
 6.2387505E+00  3.7603050E+01
 6.2502503E+00  3.7523010E+01
 6.2617502E+00  3.7408737E+01
 6.2732501E+00  3.7439774E+01
 6.2847505E+00  3.7471642E+01
 6.2962503E+00  3.7519974E+01
 6.3077502E+00  3.7654766E+01
 6.3192501E+00  3.7791050E+01
 6.3307505E+00  3.7944111E+01
 6.3422503E+00  3.8036640E+01
 6.3537502E+00  3.8112423E+01
 6.3652501E+00  3.8160347E+01
 6.3767505E+00  3.8160362E+01
 6.3882504E+00  3.8155861E+01
 6.3997502E+00  3.8201660E+01
 6.4112501E+00  3.8342197E+01
 6.4227505E+00  3.8518024E+01
 6.4342504E+00  3.8668858E+01
 6.4457502E+00  3.8703915E+01
 6.4572501E+00  3.8672832E+01
 6.4687505E+00  3.8732624E+01
 6.4802504E+00  3.8887577E+01
 6.4917502E+00  3.9072506E+01
 6.5032501E+00  3.9258816E+01
 6.5147505E+00  3.9354511E+01
 6.5262504E+00  3.9423748E+01
 6.5377502E+00  3.9407547E+01
 6.5492501E+00  3.9425468E+01
 6.5607505E+00  3.9477226E+01
 6.5722504E+00  3.9558037E+01
 6.5837502E+00  3.9562157E+01
 6.5952501E+00  3.9609421E+01
 6.6067505E+00  3.9678738E+01
 6.6182504E+00  3.9744061E+01
 6.6297503E+00  3.9789162E+01
 6.6412501E+00  3.9876762E+01
 6.6527505E+00  3.9936543E+01
 6.6642504E+00  4.0086582E+01
 6.6757503E+00  4.0152374E+01
 6.6872501E+00  4.0242672E+01
 6.6987505E+00  4.0349907E+01
 6.7102504E+00  4.0499260E+01
 6.7217503E+00  4.0672207E+01
 6.7332501E+00  4.0710968E+01
 6.7447505E+00  4.0816158E+01
 6.7562504E+00  4.0825199E+01
 6.7677503E+00  4.0906406E+01
 6.7792501E+00  4.0873775E+01
 6.7907505E+00  4.0895084E+01
 6.8022504E+00  4.1022842E+01
 6.8137503E+00  4.1237320E+01
 6.8252501E+00  4.1391438E+01
 6.8367505E+00  4.1533108E+01
 6.8482504E+00  4.1535133E+01
 6.8597503E+00  4.1640892E+01
 6.8712502E+00  4.1587502E+01
 6.8827505E+00  4.1610809E+01
 6.8942504E+00  4.1595398E+01
 6.9057503E+00  4.1705818E+01
 6.9172502E+00  4.1769981E+01
 6.9287505E+00  4.1837086E+01
 6.9402504E+00  4.1919548E+01
 6.9517503E+00  4.1944855E+01
 6.9632502E+00  4.1992641E+01
 6.9747505E+00  4.2089436E+01
 6.9862504E+00  4.2158356E+01
 6.9977503E+00  4.2266869E+01
 7.0092502E+00  4.2286022E+01
 7.0207505E+00  4.2415321E+01
 7.0322504E+00  4.2575626E+01
 7.0437503E+00  4.2633961E+01
 7.0552502E+00  4.2727577E+01
 7.0667505E+00  4.2847542E+01
 7.0782504E+00  4.2975739E+01
 7.0897503E+00  4.3115292E+01
 7.1012502E+00  4.3192131E+01
 7.1127505E+00  4.3292244E+01
 7.1242504E+00  4.3399658E+01
 7.1357503E+00  4.3372902E+01
 7.1472502E+00  4.3372066E+01
 7.1587505E+00  4.3255215E+01
 7.1702504E+00  4.3298782E+01
 7.1817503E+00  4.3229939E+01
 7.1932502E+00  4.3359085E+01
 7.2047505E+00  4.3449501E+01
 7.2162504E+00  4.3606316E+01
 7.2277503E+00  4.3666534E+01
 7.2392502E+00  4.3663013E+01
 7.2507505E+00  4.3666676E+01
 7.2622504E+00  4.3613541E+01
 7.2737503E+00  4.3671799E+01
 7.2852502E+00  4.3659546E+01
 7.2967505E+00  4.3674282E+01
 7.3082504E+00  4.3649639E+01
 7.3197503E+00  4.3716412E+01
 7.3312502E+00  4.3798332E+01
 7.3427505E+00  4.3806366E+01
 7.3542504E+00  4.3747646E+01
 7.3657503E+00  4.3751850E+01
 7.3772502E+00  4.3667828E+01
 7.3887506E+00  4.3684898E+01
 7.4002504E+00  4.3648766E+01
 7.4117503E+00  4.3729263E+01
 7.4232502E+00  4.3773987E+01
 7.4347506E+00  4.3894100E+01
 7.4462504E+00  4.3987926E+01
 7.4577503E+00  4.4104225E+01
 7.4692502E+00  4.4157360E+01
 7.4807506E+00  4.4262264E+01
 7.4922504E+00  4.4387489E+01
 7.5037503E+00  4.4449738E+01
 7.5152502E+00  4.4474731E+01
 7.5267506E+00  4.4372772E+01
 7.5382504E+00  4.4373882E+01
 7.5497503E+00  4.4327412E+01
 7.5612502E+00  4.4343693E+01
 7.5727506E+00  4.4358887E+01
 7.5842505E+00  4.4380554E+01
 7.5957503E+00  4.4402908E+01
 7.6072502E+00  4.4445965E+01
 7.6187506E+00  4.4427803E+01
 7.6302505E+00  4.4438599E+01
 7.6417503E+00  4.4366711E+01
 7.6532502E+00  4.4292885E+01
 7.6647506E+00  4.4167614E+01
 7.6762505E+00  4.4105221E+01
 7.6877503E+00  4.4150795E+01
 7.6992502E+00  4.4236446E+01
 7.7107506E+00  4.4366425E+01
 7.7222505E+00  4.4363903E+01
 7.7337503E+00  4.4455490E+01
 7.7452502E+00  4.4372242E+01
 7.7567506E+00  4.4385174E+01
 7.7682505E+00  4.4342976E+01
 7.7797503E+00  4.4366901E+01
 7.7912502E+00  4.4404396E+01
 7.8027506E+00  4.4431290E+01
 7.8142505E+00  4.4371967E+01
 7.8257504E+00  4.4383789E+01
 7.8372502E+00  4.4352974E+01
 7.8487506E+00  4.4408657E+01
 7.8602505E+00  4.4248814E+01
 7.8717504E+00  4.4090611E+01
 7.8832502E+00  4.3985088E+01
 7.8947506E+00  4.3867706E+01
 7.9062505E+00  4.3810978E+01
 7.9177504E+00  4.3721367E+01
 7.9292502E+00  4.3722816E+01
 7.9407506E+00  4.3762760E+01
 7.9522505E+00  4.3747623E+01
 7.9637504E+00  4.3610336E+01
 7.9752502E+00  4.3495483E+01
 7.9867506E+00  4.3424561E+01
 7.9982505E+00  4.3434155E+01
 8.0097504E+00  4.3452934E+01
 8.0212507E+00  4.3492882E+01
 8.0327501E+00  4.3537323E+01
 8.0442505E+00  4.3568653E+01
 8.0557508E+00  4.3468220E+01
 8.0672503E+00  4.3394390E+01
 8.0787506E+00  4.3157677E+01
 8.0902500E+00  4.2961784E+01
 8.1017504E+00  4.2840218E+01
 8.1132507E+00  4.2828522E+01
 8.1247501E+00  4.2740097E+01
 8.1362505E+00  4.2647919E+01
 8.1477509E+00  4.2570141E+01
 8.1592503E+00  4.2510891E+01
 8.1707506E+00  4.2393036E+01
 8.1822500E+00  4.2153019E+01
 8.1937504E+00  4.1956791E+01
 8.2052507E+00  4.1720951E+01
 8.2167501E+00  4.1581062E+01
 8.2282505E+00  4.1476833E+01
 8.2397509E+00  4.1500351E+01
 8.2512503E+00  4.1480507E+01
 8.2627506E+00  4.1407211E+01
 8.2742500E+00  4.1290352E+01
 8.2857504E+00  4.1066086E+01
 8.2972507E+00  4.0800747E+01
 8.3087502E+00  4.0494465E+01
 8.3202505E+00  4.0355389E+01
 8.3317509E+00  4.0174564E+01
 8.3432503E+00  4.0059513E+01
 8.3547506E+00  3.9923706E+01
 8.3662500E+00  3.9898144E+01
 8.3777504E+00  3.9795975E+01
 8.3892508E+00  3.9642147E+01
 8.4007502E+00  3.9514286E+01
 8.4122505E+00  3.9415619E+01
 8.4237509E+00  3.9243427E+01
 8.4352503E+00  3.9011391E+01
 8.4467506E+00  3.8858932E+01
 8.4582500E+00  3.8670601E+01
 8.4697504E+00  3.8490322E+01
 8.4812508E+00  3.8222694E+01
 8.4927502E+00  3.8016239E+01
 8.5042505E+00  3.7821922E+01
 8.5157509E+00  3.7695705E+01
 8.5272503E+00  3.7509251E+01
 8.5387506E+00  3.7428249E+01
 8.5502501E+00  3.7215332E+01
 8.5617504E+00  3.7102203E+01
 8.5732508E+00  3.6917088E+01
 8.5847502E+00  3.6686466E+01
 8.5962505E+00  3.6496498E+01
 8.6077509E+00  3.6304638E+01
 8.6192503E+00  3.6244156E+01
 8.6307507E+00  3.6159908E+01
 8.6422501E+00  3.5966911E+01
 8.6537504E+00  3.5787849E+01
 8.6652508E+00  3.5603691E+01
 8.6767502E+00  3.5473022E+01
 8.6882505E+00  3.5402088E+01
 8.6997509E+00  3.5261551E+01
 8.7112503E+00  3.5158459E+01
 8.7227507E+00  3.4968170E+01
 8.7342501E+00  3.4734299E+01
 8.7457504E+00  3.4461250E+01
 8.7572508E+00  3.4188755E+01
 8.7687502E+00  3.3982143E+01
 8.7802505E+00  3.3836346E+01
 8.7917500E+00  3.3678822E+01
 8.8032503E+00  3.3536774E+01
 8.8147507E+00  3.3359531E+01
 8.8262501E+00  3.3148983E+01
 8.8377504E+00  3.3051647E+01
 8.8492508E+00  3.2893543E+01
 8.8607502E+00  3.2755646E+01
 8.8722506E+00  3.2541813E+01
 8.8837500E+00  3.2364170E+01
 8.8952503E+00  3.2228252E+01
 8.9067507E+00  3.2013260E+01
 8.9182501E+00  3.1840368E+01
 8.9297504E+00  3.1683449E+01
 8.9412508E+00  3.1584290E+01
 8.9527502E+00  3.1437040E+01
 8.9642506E+00  3.1294525E+01
 8.9757500E+00  3.1125990E+01
 8.9872503E+00  3.0974749E+01
 8.9987507E+00  3.0768728E+01
 9.0102501E+00  3.0632599E+01
 9.0217505E+00  3.0455223E+01
 9.0332508E+00  3.0404757E+01
 9.0447502E+00  3.0256271E+01
 9.0562506E+00  3.0154793E+01
 9.0677500E+00  3.0003605E+01
 9.0792503E+00  2.9908714E+01
 9.0907507E+00  2.9771536E+01
 9.1022501E+00  2.9707973E+01
 9.1137505E+00  2.9538078E+01
 9.1252508E+00  2.9452776E+01
 9.1367502E+00  2.9307714E+01
 9.1482506E+00  2.9264931E+01
 9.1597500E+00  2.9155504E+01
 9.1712503E+00  2.8997910E+01
 9.1827507E+00  2.8907000E+01
 9.1942501E+00  2.8832794E+01
 9.2057505E+00  2.8706980E+01
 9.2172508E+00  2.8569139E+01
 9.2287502E+00  2.8398926E+01
 9.2402506E+00  2.8305460E+01
 9.2517500E+00  2.8186554E+01
 9.2632504E+00  2.8099869E+01
 9.2747507E+00  2.7975794E+01
 9.2862501E+00  2.7901535E+01
 9.2977505E+00  2.7934061E+01
 9.3092508E+00  2.7889408E+01
 9.3207502E+00  2.7804735E+01
 9.3322506E+00  2.7566128E+01
 9.3437500E+00  2.7403872E+01
 9.3552504E+00  2.7236303E+01
 9.3667507E+00  2.7123787E+01
 9.3782501E+00  2.7035414E+01
 9.3897505E+00  2.6948669E+01
 9.4012508E+00  2.6900106E+01
 9.4127502E+00  2.6828201E+01
 9.4242506E+00  2.6791079E+01
 9.4357500E+00  2.6722767E+01
 9.4472504E+00  2.6626656E+01
 9.4587507E+00  2.6617149E+01
 9.4702501E+00  2.6566864E+01
 9.4817505E+00  2.6597523E+01
 9.4932508E+00  2.6511782E+01
 9.5047503E+00  2.6496145E+01
 9.5162506E+00  2.6497953E+01
 9.5277500E+00  2.6557310E+01
 9.5392504E+00  2.6512089E+01
 9.5507507E+00  2.6378824E+01
 9.5622501E+00  2.6224762E+01
 9.5737505E+00  2.6062607E+01
 9.5852509E+00  2.5951105E+01
 9.5967503E+00  2.5826965E+01
 9.6082506E+00  2.5793745E+01
 9.6197500E+00  2.5727251E+01
 9.6312504E+00  2.5717819E+01
 9.6427507E+00  2.5644739E+01
 9.6542501E+00  2.5694635E+01
 9.6657505E+00  2.5581671E+01
 9.6772509E+00  2.5501661E+01
 9.6887503E+00  2.5325577E+01
 9.7002506E+00  2.5244513E+01
 9.7117500E+00  2.5225794E+01
 9.7232504E+00  2.5193888E+01
 9.7347507E+00  2.5213551E+01
 9.7462502E+00  2.5195932E+01
 9.7577505E+00  2.5180195E+01
 9.7692509E+00  2.5181047E+01
 9.7807503E+00  2.5182158E+01
 9.7922506E+00  2.5243027E+01
 9.8037500E+00  2.5218296E+01
 9.8152504E+00  2.5174719E+01
 9.8267508E+00  2.5092886E+01
 9.8382502E+00  2.5049067E+01
 9.8497505E+00  2.4904827E+01
 9.8612509E+00  2.4746342E+01
 9.8727503E+00  2.4614597E+01
 9.8842506E+00  2.4514135E+01
 9.8957500E+00  2.4504089E+01
 9.9072504E+00  2.4465071E+01
 9.9187508E+00  2.4519583E+01
 9.9302502E+00  2.4491199E+01
 9.9417505E+00  2.4451290E+01
 9.9532509E+00  2.4334667E+01
 9.9647503E+00  2.4261312E+01
 9.9762506E+00  2.4237940E+01
 9.9877501E+00  2.4265812E+01
 9.9992504E+00  2.4318983E+01
 1.0010751E+01  2.4315886E+01
 1.0022250E+01  2.4380640E+01
 1.0033751E+01  2.4399275E+01
 1.0045251E+01  2.4394220E+01
 1.0056750E+01  2.4396490E+01
 1.0068251E+01  2.4340191E+01
 1.0079750E+01  2.4279263E+01
 1.0091250E+01  2.4145887E+01
 1.0102751E+01  2.4085056E+01
 1.0114250E+01  2.4025267E+01
 1.0125751E+01  2.3997658E+01
 1.0137251E+01  2.4000591E+01
 1.0148750E+01  2.4090374E+01
 1.0160251E+01  2.4292755E+01
 1.0171750E+01  2.4449793E+01
 1.0183250E+01  2.4573973E+01
 1.0194751E+01  2.4496330E+01
 1.0206250E+01  2.4433662E+01
 1.0217751E+01  2.4277124E+01
 1.0229251E+01  2.4086342E+01
 1.0240750E+01  2.3877150E+01
 1.0252251E+01  2.3729197E+01
 1.0263750E+01  2.3686447E+01
 1.0275250E+01  2.3642300E+01
 1.0286751E+01  2.3658476E+01
 1.0298250E+01  2.3681250E+01
 1.0309751E+01  2.3673864E+01
 1.0321251E+01  2.3577841E+01
 1.0332750E+01  2.3541006E+01
 1.0344251E+01  2.3552652E+01
 1.0355750E+01  2.3553190E+01
 1.0367250E+01  2.3547327E+01
 1.0378751E+01  2.3546967E+01
 1.0390250E+01  2.3661219E+01
 1.0401751E+01  2.3680664E+01
 1.0413251E+01  2.3646095E+01
 1.0424750E+01  2.3568548E+01
 1.0436251E+01  2.3518827E+01
 1.0447750E+01  2.3498468E+01
 1.0459250E+01  2.3451597E+01
 1.0470751E+01  2.3402798E+01
 1.0482250E+01  2.3356575E+01
 1.0493751E+01  2.3375364E+01
 1.0505251E+01  2.3358366E+01
 1.0516750E+01  2.3318897E+01
 1.0528251E+01  2.3211960E+01
 1.0539750E+01  2.3118387E+01
 1.0551250E+01  2.3127773E+01
 1.0562751E+01  2.3174015E+01
 1.0574250E+01  2.3202948E+01
 1.0585751E+01  2.3197998E+01
 1.0597251E+01  2.3115377E+01
 1.0608750E+01  2.3104296E+01
 1.0620251E+01  2.3106716E+01
 1.0631750E+01  2.3189922E+01
 1.0643250E+01  2.3209383E+01
 1.0654751E+01  2.3213327E+01
 1.0666250E+01  2.3149738E+01
 1.0677751E+01  2.3121819E+01
 1.0689251E+01  2.3073591E+01
 1.0700750E+01  2.3068987E+01
 1.0712251E+01  2.3059584E+01
 1.0723750E+01  2.3074678E+01
 1.0735250E+01  2.3014700E+01
 1.0746751E+01  2.2993145E+01
 1.0758250E+01  2.2924377E+01
 1.0769751E+01  2.2971708E+01
 1.0781251E+01  2.2990566E+01
 1.0792750E+01  2.3006435E+01
 1.0804251E+01  2.2951328E+01
 1.0815750E+01  2.2903032E+01
 1.0827250E+01  2.2901175E+01
 1.0838751E+01  2.2879244E+01
 1.0850250E+01  2.2883991E+01
 1.0861751E+01  2.2830254E+01
 1.0873251E+01  2.2822014E+01
 1.0884750E+01  2.2780149E+01
 1.0896251E+01  2.2702162E+01
 1.0907750E+01  2.2671103E+01
 1.0919250E+01  2.2673281E+01
 1.0930751E+01  2.2759861E+01
 1.0942250E+01  2.2820011E+01
 1.0953751E+01  2.2852926E+01
 1.0965251E+01  2.2843714E+01
 1.0976750E+01  2.2843370E+01
 1.0988251E+01  2.2784084E+01
 1.0999750E+01  2.2792593E+01
 1.1011250E+01  2.2754612E+01
 1.1022751E+01  2.2773819E+01
 1.1034250E+01  2.2805693E+01
 1.1045751E+01  2.2793503E+01
 1.1057251E+01  2.2782841E+01
 1.1068750E+01  2.2749218E+01
 1.1080251E+01  2.2776321E+01
 1.1091750E+01  2.2802809E+01
 1.1103251E+01  2.2807032E+01
 1.1114751E+01  2.2850643E+01
 1.1126250E+01  2.2820698E+01
 1.1137751E+01  2.2746538E+01
 1.1149251E+01  2.2697073E+01
 1.1160750E+01  2.2703289E+01
 1.1172251E+01  2.2714867E+01
 1.1183750E+01  2.2701727E+01
 1.1195251E+01  2.2712793E+01
 1.1206751E+01  2.2732826E+01
 1.1218250E+01  2.2754929E+01
 1.1229751E+01  2.2723219E+01
 1.1241251E+01  2.2763483E+01
 1.1252750E+01  2.2762346E+01
 1.1264251E+01  2.2776251E+01
 1.1275750E+01  2.2747339E+01
 1.1287251E+01  2.2653719E+01
 1.1298751E+01  2.2613174E+01
 1.1310250E+01  2.2598274E+01
 1.1321751E+01  2.2668804E+01
 1.1333251E+01  2.2701279E+01
 1.1344750E+01  2.2762190E+01
 1.1356251E+01  2.2787319E+01
 1.1367750E+01  2.2858200E+01
 1.1379251E+01  2.2893179E+01
 1.1390751E+01  2.2913321E+01
 1.1402250E+01  2.3031231E+01
 1.1413751E+01  2.3015099E+01
 1.1425251E+01  2.3047800E+01
 1.1436750E+01  2.2991634E+01
 1.1448251E+01  2.2979364E+01
 1.1459750E+01  2.2986485E+01
 1.1471251E+01  2.2963770E+01
 1.1482751E+01  2.3007803E+01
 1.1494250E+01  2.3076515E+01
 1.1505751E+01  2.3156162E+01
 1.1517251E+01  2.3406946E+01
 1.1528750E+01  2.3762249E+01
 1.1540251E+01  2.4413170E+01
 1.1551750E+01  2.5137188E+01
 1.1563251E+01  2.6106064E+01
 1.1574751E+01  2.7448805E+01
 1.1586250E+01  2.8413162E+01
 1.1597751E+01  2.9276373E+01
 1.1609251E+01  2.9077753E+01
 1.1620750E+01  2.8363798E+01
 1.1632251E+01  2.7125814E+01
 1.1643750E+01  2.5796036E+01
 1.1655251E+01  2.4918978E+01
 1.1666751E+01  2.4066147E+01
 1.1678250E+01  2.3588131E+01
 1.1689751E+01  2.3278250E+01
 1.1701251E+01  2.3098446E+01
 1.1712750E+01  2.2977592E+01
 1.1724251E+01  2.2888426E+01
 1.1735750E+01  2.2836220E+01
 1.1747251E+01  2.2811243E+01
 1.1758751E+01  2.2757816E+01
 1.1770250E+01  2.2705770E+01
 1.1781751E+01  2.2667561E+01
 1.1793251E+01  2.2711760E+01
 1.1804750E+01  2.2690245E+01
 1.1816251E+01  2.2743256E+01
 1.1827750E+01  2.2713755E+01
 1.1839251E+01  2.2753717E+01
 1.1850751E+01  2.2673941E+01
 1.1862250E+01  2.2634691E+01
 1.1873751E+01  2.2640104E+01
 1.1885251E+01  2.2671967E+01
 1.1896750E+01  2.2745377E+01
 1.1908251E+01  2.2769661E+01
 1.1919750E+01  2.2867996E+01
 1.1931251E+01  2.2949305E+01
 1.1942751E+01  2.3155729E+01
 1.1954250E+01  2.3360853E+01
 1.1965751E+01  2.3699787E+01
 1.1977251E+01  2.4001276E+01
 1.1988750E+01  2.4268436E+01
 1.2000251E+01  2.4335159E+01
 1.2011750E+01  2.4225260E+01
 1.2023251E+01  2.4117937E+01
 1.2034751E+01  2.3987936E+01
 1.2046250E+01  2.4063049E+01
 1.2057751E+01  2.4214550E+01
 1.2069251E+01  2.4544079E+01
 1.2080750E+01  2.4974731E+01
 1.2092251E+01  2.5500111E+01
 1.2103750E+01  2.5795774E+01
 1.2115251E+01  2.5787260E+01
 1.2126751E+01  2.5442869E+01
 1.2138250E+01  2.4921560E+01
 1.2149751E+01  2.4315634E+01
 1.2161251E+01  2.3737799E+01
 1.2172750E+01  2.3318619E+01
 1.2184251E+01  2.3083220E+01
 1.2195750E+01  2.2941982E+01
 1.2207251E+01  2.2898836E+01
 1.2218751E+01  2.2850897E+01
 1.2230250E+01  2.2818956E+01
 1.2241751E+01  2.2822067E+01
 1.2253251E+01  2.2763184E+01
 1.2264750E+01  2.2735666E+01
 1.2276251E+01  2.2640375E+01
 1.2287750E+01  2.2658852E+01
 1.2299251E+01  2.2656164E+01
 1.2310751E+01  2.2732609E+01
 1.2322250E+01  2.2680243E+01
 1.2333751E+01  2.2645172E+01
 1.2345250E+01  2.2576488E+01
 1.2356750E+01  2.2593441E+01
 1.2368251E+01  2.2592316E+01
 1.2379750E+01  2.2659088E+01
 1.2391251E+01  2.2704620E+01
 1.2402751E+01  2.2719780E+01
 1.2414250E+01  2.2753021E+01
 1.2425751E+01  2.2711884E+01
 1.2437250E+01  2.2691313E+01
 1.2448750E+01  2.2616709E+01
 1.2460251E+01  2.2634323E+01
 1.2471750E+01  2.2681982E+01
 1.2483251E+01  2.2750168E+01
 1.2494751E+01  2.2770405E+01
 1.2506250E+01  2.2735777E+01
 1.2517751E+01  2.2676313E+01
 1.2529250E+01  2.2660585E+01
 1.2540751E+01  2.2685843E+01
 1.2552251E+01  2.2687548E+01
 1.2563750E+01  2.2736748E+01
 1.2575251E+01  2.2751740E+01
 1.2586751E+01  2.2803923E+01
 1.2598250E+01  2.2825346E+01
 1.2609751E+01  2.2852634E+01
 1.2621250E+01  2.2884861E+01
 1.2632751E+01  2.2896315E+01
 1.2644251E+01  2.2885256E+01
 1.2655750E+01  2.2877193E+01
 1.2667251E+01  2.2877966E+01
 1.2678751E+01  2.2902946E+01
 1.2690250E+01  2.2966846E+01
 1.2701751E+01  2.3020510E+01
 1.2713250E+01  2.3125746E+01
 1.2724751E+01  2.3134617E+01
 1.2736251E+01  2.3157406E+01
 1.2747750E+01  2.3207916E+01
 1.2759251E+01  2.3216614E+01
 1.2770751E+01  2.3169977E+01
 1.2782250E+01  2.3152611E+01
 1.2793751E+01  2.3116196E+01
 1.2805250E+01  2.3225983E+01
 1.2816751E+01  2.3260792E+01
 1.2828251E+01  2.3383005E+01
 1.2839750E+01  2.3425568E+01
 1.2851251E+01  2.3483334E+01
 1.2862751E+01  2.3543247E+01
 1.2874250E+01  2.3562582E+01
 1.2885751E+01  2.3582483E+01
 1.2897250E+01  2.3611341E+01
 1.2908751E+01  2.3669828E+01
 1.2920251E+01  2.3683926E+01
 1.2931750E+01  2.3695957E+01
 1.2943251E+01  2.3696373E+01
 1.2954751E+01  2.3767618E+01
 1.2966250E+01  2.3805113E+01
 1.2977751E+01  2.3902838E+01
 1.2989250E+01  2.3949837E+01
 1.3000751E+01  2.4074942E+01
 1.3012251E+01  2.4165468E+01
 1.3023750E+01  2.4267742E+01
 1.3035251E+01  2.4335781E+01
 1.3046751E+01  2.4424376E+01
 1.3058250E+01  2.4508669E+01
 1.3069751E+01  2.4592678E+01
 1.3081250E+01  2.4695656E+01
 1.3092751E+01  2.4819092E+01
 1.3104251E+01  2.4929476E+01
 1.3115750E+01  2.5013708E+01
 1.3127251E+01  2.5089386E+01
 1.3138751E+01  2.5151684E+01
 1.3150250E+01  2.5223282E+01
 1.3161751E+01  2.5348135E+01
 1.3173250E+01  2.5447744E+01
 1.3184751E+01  2.5564247E+01
 1.3196251E+01  2.5648849E+01
 1.3207750E+01  2.5827490E+01
 1.3219251E+01  2.6003975E+01
 1.3230751E+01  2.6241526E+01
 1.3242250E+01  2.6447760E+01
 1.3253751E+01  2.6681688E+01
 1.3265250E+01  2.6817545E+01
 1.3276751E+01  2.6879360E+01
 1.3288251E+01  2.6970299E+01
 1.3299750E+01  2.7054691E+01
 1.3311251E+01  2.7165648E+01
 1.3322751E+01  2.7252649E+01
 1.3334250E+01  2.7469017E+01
 1.3345751E+01  2.7675489E+01
 1.3357250E+01  2.7905130E+01
 1.3368751E+01  2.7976126E+01
 1.3380251E+01  2.8094103E+01
 1.3391750E+01  2.8194981E+01
 1.3403251E+01  2.8351141E+01
 1.3414751E+01  2.8422134E+01
 1.3426250E+01  2.8460432E+01
 1.3437751E+01  2.8516937E+01
 1.3449250E+01  2.8648279E+01
 1.3460751E+01  2.8749159E+01
 1.3472251E+01  2.8900587E+01
 1.3483750E+01  2.9070812E+01
 1.3495251E+01  2.9229519E+01
 1.3506751E+01  2.9369507E+01
 1.3518250E+01  2.9495708E+01
 1.3529751E+01  2.9558506E+01
 1.3541250E+01  2.9680040E+01
 1.3552751E+01  2.9718430E+01
 1.3564251E+01  2.9810883E+01
 1.3575750E+01  2.9849138E+01
 1.3587251E+01  2.9886822E+01
 1.3598751E+01  2.9940710E+01
 1.3610250E+01  2.9906744E+01
 1.3621751E+01  2.9933275E+01
 1.3633250E+01  2.9893156E+01
 1.3644751E+01  2.9885529E+01
 1.3656251E+01  2.9861971E+01
 1.3667750E+01  2.9863749E+01
 1.3679251E+01  2.9858246E+01
 1.3690751E+01  2.9834894E+01
 1.3702250E+01  2.9794388E+01
 1.3713751E+01  2.9784206E+01
 1.3725250E+01  2.9759390E+01
 1.3736751E+01  2.9779469E+01
 1.3748251E+01  2.9827524E+01
 1.3759750E+01  2.9769028E+01
 1.3771251E+01  2.9706438E+01
 1.3782751E+01  2.9588594E+01
 1.3794250E+01  2.9516521E+01
 1.3805751E+01  2.9435244E+01
 1.3817250E+01  2.9331959E+01
 1.3828751E+01  2.9377050E+01
 1.3840251E+01  2.9412777E+01
 1.3851750E+01  2.9539492E+01
 1.3863251E+01  2.9702826E+01
 1.3874751E+01  2.9992168E+01
 1.3886250E+01  3.0343487E+01
 1.3897751E+01  3.1086905E+01
 1.3909250E+01  3.1995012E+01
 1.3920751E+01  3.3219456E+01
 1.3932251E+01  3.4572716E+01
 1.3943750E+01  3.5695583E+01
 1.3955251E+01  3.6288826E+01
 1.3966751E+01  3.6046051E+01
 1.3978251E+01  3.4949234E+01
 1.3989751E+01  3.3674198E+01
 1.4001250E+01  3.2128212E+01
 1.4012751E+01  3.0912573E+01
 1.4024251E+01  2.9798477E+01
 1.4035750E+01  2.9103262E+01
 1.4047251E+01  2.8690929E+01
 1.4058751E+01  2.8369635E+01
 1.4070251E+01  2.8194845E+01
 1.4081751E+01  2.7979958E+01
 1.4093250E+01  2.7804686E+01
 1.4104751E+01  2.7613338E+01
 1.4116251E+01  2.7451679E+01
 1.4127750E+01  2.7370302E+01
 1.4139251E+01  2.7355455E+01
 1.4150751E+01  2.7303663E+01
 1.4162251E+01  2.7246559E+01
 1.4173751E+01  2.7095030E+01
 1.4185250E+01  2.6994724E+01
 1.4196751E+01  2.6934025E+01
 1.4208251E+01  2.6880873E+01
 1.4219750E+01  2.6814270E+01
 1.4231251E+01  2.6700861E+01
 1.4242751E+01  2.6598196E+01
 1.4254251E+01  2.6516506E+01
 1.4265751E+01  2.6445898E+01
 1.4277250E+01  2.6362867E+01
 1.4288751E+01  2.6298250E+01
 1.4300251E+01  2.6289942E+01
 1.4311750E+01  2.6325386E+01
 1.4323251E+01  2.6302940E+01
 1.4334751E+01  2.6281488E+01
 1.4346251E+01  2.6310061E+01
 1.4357751E+01  2.6352800E+01
 1.4369250E+01  2.6363718E+01
 1.4380751E+01  2.6263771E+01
 1.4392251E+01  2.6224825E+01
 1.4403750E+01  2.6130541E+01
 1.4415251E+01  2.6094326E+01
 1.4426751E+01  2.6045630E+01
 1.4438251E+01  2.6035164E+01
 1.4449751E+01  2.6005453E+01
 1.4461250E+01  2.5961441E+01
 1.4472751E+01  2.5946295E+01
 1.4484251E+01  2.6009489E+01
 1.4495750E+01  2.5982258E+01
 1.4507251E+01  2.6017525E+01
 1.4518751E+01  2.6138418E+01
 1.4530251E+01  2.6139696E+01
 1.4541751E+01  2.6057133E+01
 1.4553250E+01  2.5864904E+01
 1.4564751E+01  2.5827147E+01
 1.4576251E+01  2.5738552E+01
 1.4587750E+01  2.5658016E+01
 1.4599251E+01  2.5598440E+01
 1.4610751E+01  2.5543839E+01
 1.4622251E+01  2.5508789E+01
 1.4633751E+01  2.5504526E+01
 1.4645250E+01  2.5512463E+01
 1.4656751E+01  2.5513840E+01
 1.4668251E+01  2.5501579E+01
 1.4679750E+01  2.5500702E+01
 1.4691251E+01  2.5496933E+01
 1.4702751E+01  2.5485867E+01
 1.4714251E+01  2.5443312E+01
 1.4725751E+01  2.5356300E+01
 1.4737250E+01  2.5268105E+01
 1.4748751E+01  2.5287264E+01
 1.4760251E+01  2.5249313E+01
 1.4771750E+01  2.5261848E+01
 1.4783251E+01  2.5127897E+01
 1.4794751E+01  2.5078379E+01
 1.4806251E+01  2.5042274E+01
 1.4817751E+01  2.5038933E+01
 1.4829250E+01  2.5069849E+01
 1.4840751E+01  2.5054026E+01
 1.4852251E+01  2.5109039E+01
 1.4863750E+01  2.5098629E+01
 1.4875251E+01  2.5117146E+01
 1.4886751E+01  2.5141363E+01
 1.4898251E+01  2.5159216E+01
 1.4909751E+01  2.5158388E+01
 1.4921250E+01  2.5098183E+01
 1.4932751E+01  2.5055609E+01
 1.4944251E+01  2.5045069E+01
 1.4955750E+01  2.5057447E+01
 1.4967251E+01  2.5074642E+01
 1.4978751E+01  2.5113867E+01
 1.4990251E+01  2.5097277E+01
 1.5001751E+01  2.5107594E+01
 1.5013250E+01  2.5127869E+01
 1.5024751E+01  2.5155449E+01
 1.5036251E+01  2.5183058E+01
 1.5047750E+01  2.5201736E+01
 1.5059251E+01  2.5298100E+01
 1.5070751E+01  2.5343327E+01
 1.5082251E+01  2.5347969E+01
 1.5093751E+01  2.5399021E+01
 1.5105250E+01  2.5532991E+01
 1.5116751E+01  2.5697350E+01
 1.5128251E+01  2.6193403E+01
 1.5139750E+01  2.6621603E+01
 1.5151251E+01  2.7485989E+01
 1.5162751E+01  2.8741163E+01
 1.5174251E+01  2.9498617E+01
 1.5185751E+01  3.0945635E+01
 1.5197250E+01  3.1082857E+01
 1.5208751E+01  3.1088181E+01
 1.5220251E+01  3.0028078E+01
 1.5231750E+01  2.8933968E+01
 1.5243251E+01  2.7867071E+01
 1.5254751E+01  2.6541845E+01
 1.5266251E+01  2.5841974E+01
 1.5277751E+01  2.5555513E+01
 1.5289250E+01  2.5243582E+01
 1.5300751E+01  2.5189062E+01
 1.5312251E+01  2.5094505E+01
 1.5323750E+01  2.5036287E+01
 1.5335251E+01  2.5027960E+01
 1.5346751E+01  2.4972891E+01
 1.5358251E+01  2.5017366E+01
 1.5369751E+01  2.4997416E+01
 1.5381250E+01  2.4911795E+01
 1.5392751E+01  2.4798515E+01
 1.5404251E+01  2.4747467E+01
 1.5415751E+01  2.4778788E+01
 1.5427251E+01  2.4803038E+01
 1.5438751E+01  2.4803904E+01
 1.5450251E+01  2.4775074E+01
 1.5461751E+01  2.4759514E+01
 1.5473250E+01  2.4739353E+01
 1.5484751E+01  2.4739807E+01
 1.5496251E+01  2.4726597E+01
 1.5507751E+01  2.4688917E+01
 1.5519251E+01  2.4677223E+01
 1.5530751E+01  2.4676411E+01
 1.5542251E+01  2.4642126E+01
 1.5553751E+01  2.4598215E+01
 1.5565250E+01  2.4604445E+01
 1.5576751E+01  2.4603264E+01
 1.5588251E+01  2.4646484E+01
 1.5599751E+01  2.4646629E+01
 1.5611251E+01  2.4675703E+01
 1.5622751E+01  2.4695526E+01
 1.5634251E+01  2.4696045E+01
 1.5645751E+01  2.4741722E+01
 1.5657250E+01  2.4748194E+01
 1.5668751E+01  2.4759533E+01
 1.5680251E+01  2.4713013E+01
 1.5691751E+01  2.4692692E+01
 1.5703251E+01  2.4744646E+01
 1.5714751E+01  2.4760426E+01
 1.5726251E+01  2.4797428E+01
 1.5737751E+01  2.4755793E+01
 1.5749250E+01  2.4724745E+01
 1.5760751E+01  2.4677767E+01
 1.5772251E+01  2.4672409E+01
 1.5783751E+01  2.4687920E+01
 1.5795251E+01  2.4693071E+01
 1.5806751E+01  2.4717932E+01
 1.5818251E+01  2.4720304E+01
 1.5829751E+01  2.4692434E+01
 1.5841250E+01  2.4688757E+01
 1.5852751E+01  2.4720793E+01
 1.5864251E+01  2.4742365E+01
 1.5875751E+01  2.4767414E+01
 1.5887251E+01  2.4778963E+01
 1.5898750E+01  2.4802256E+01
 1.5910251E+01  2.4810909E+01
 1.5921751E+01  2.4823439E+01
 1.5933250E+01  2.4878599E+01
 1.5944751E+01  2.4841215E+01
 1.5956251E+01  2.4889475E+01
 1.5967751E+01  2.4860764E+01
 1.5979251E+01  2.4891943E+01
 1.5990750E+01  2.4876146E+01
 1.6002251E+01  2.4895334E+01
 1.6013750E+01  2.4886799E+01
 1.6025251E+01  2.4891598E+01
 1.6036751E+01  2.4933615E+01
 1.6048250E+01  2.5041586E+01
 1.6059752E+01  2.5075771E+01
 1.6071251E+01  2.5037256E+01
 1.6082750E+01  2.5009983E+01
 1.6094252E+01  2.4968067E+01
 1.6105751E+01  2.5024950E+01
 1.6117250E+01  2.4994127E+01
 1.6128750E+01  2.5003162E+01
 1.6140251E+01  2.5000147E+01
 1.6151751E+01  2.4998388E+01
 1.6163250E+01  2.5102581E+01
 1.6174751E+01  2.5089001E+01
 1.6186251E+01  2.5402050E+01
 1.6197750E+01  2.5337540E+01
 1.6209251E+01  2.5883797E+01
 1.6220751E+01  2.5888704E+01
 1.6232250E+01  2.6599262E+01
 1.6243752E+01  2.6801678E+01
 1.6255251E+01  2.7147532E+01
 1.6266750E+01  2.7275667E+01
 1.6278252E+01  2.6762199E+01
 1.6289751E+01  2.6670212E+01
 1.6301250E+01  2.5731682E+01
 1.6312750E+01  2.5793182E+01
 1.6324251E+01  2.5230436E+01
 1.6335751E+01  2.5320023E+01
 1.6347250E+01  2.5085587E+01
 1.6358751E+01  2.5087252E+01
 1.6370251E+01  2.4978559E+01
 1.6381750E+01  2.4925810E+01
 1.6393251E+01  2.4963285E+01
 1.6404751E+01  2.4977859E+01
 1.6416250E+01  2.5033804E+01
 1.6427752E+01  2.4960224E+01
 1.6439251E+01  2.4983221E+01
 1.6450750E+01  2.4922701E+01
 1.6462252E+01  2.4891651E+01
 1.6473751E+01  2.4818544E+01
 1.6485250E+01  2.4792439E+01
 1.6496750E+01  2.4806828E+01
 1.6508251E+01  2.4819185E+01
 1.6519751E+01  2.4779118E+01
 1.6531250E+01  2.4805887E+01
 1.6542751E+01  2.4787674E+01
 1.6554251E+01  2.4758141E+01
 1.6565750E+01  2.4703640E+01
 1.6577251E+01  2.4680393E+01
 1.6588751E+01  2.4700575E+01
 1.6600250E+01  2.4754713E+01
 1.6611752E+01  2.4760921E+01
 1.6623251E+01  2.4731558E+01
 1.6634750E+01  2.4696861E+01
 1.6646252E+01  2.4661175E+01
 1.6657751E+01  2.4633438E+01
 1.6669250E+01  2.4650612E+01
 1.6680750E+01  2.4649225E+01
 1.6692251E+01  2.4625694E+01
 1.6703751E+01  2.4582067E+01
 1.6715250E+01  2.4577114E+01
 1.6726751E+01  2.4565300E+01
 1.6738251E+01  2.4593184E+01
 1.6749750E+01  2.4609997E+01
 1.6761251E+01  2.4613792E+01
 1.6772751E+01  2.4578764E+01
 1.6784250E+01  2.4579617E+01
 1.6795752E+01  2.4550947E+01
 1.6807251E+01  2.4555319E+01
 1.6818750E+01  2.4511549E+01
 1.6830252E+01  2.4516768E+01
 1.6841751E+01  2.4487211E+01
 1.6853251E+01  2.4490622E+01
 1.6864750E+01  2.4449518E+01
 1.6876251E+01  2.4446995E+01
 1.6887751E+01  2.4440466E+01
 1.6899250E+01  2.4438993E+01
 1.6910751E+01  2.4403507E+01
 1.6922251E+01  2.4368263E+01
 1.6933750E+01  2.4321327E+01
 1.6945251E+01  2.4285664E+01
 1.6956751E+01  2.4276793E+01
 1.6968250E+01  2.4335459E+01
 1.6979752E+01  2.4422935E+01
 1.6991251E+01  2.4487411E+01
 1.7002750E+01  2.4496725E+01
 1.7014252E+01  2.4428627E+01
 1.7025751E+01  2.4365051E+01
 1.7037251E+01  2.4248852E+01
 1.7048750E+01  2.4190773E+01
 1.7060251E+01  2.4168020E+01
 1.7071751E+01  2.4221691E+01
 1.7083250E+01  2.4310656E+01
 1.7094751E+01  2.4371187E+01
 1.7106251E+01  2.4398434E+01
 1.7117750E+01  2.4355225E+01
 1.7129251E+01  2.4334848E+01
 1.7140751E+01  2.4329842E+01
 1.7152250E+01  2.4353783E+01
 1.7163752E+01  2.4397427E+01
 1.7175251E+01  2.4421812E+01
 1.7186750E+01  2.4401049E+01
 1.7198252E+01  2.4318817E+01
 1.7209751E+01  2.4281284E+01
 1.7221251E+01  2.4225727E+01
 1.7232750E+01  2.4201714E+01
 1.7244251E+01  2.4186468E+01
 1.7255751E+01  2.4190813E+01
 1.7267250E+01  2.4210575E+01
 1.7278751E+01  2.4236805E+01
 1.7290251E+01  2.4266565E+01
 1.7301750E+01  2.4244226E+01
 1.7313251E+01  2.4232786E+01
 1.7324751E+01  2.4235699E+01
 1.7336250E+01  2.4216822E+01
 1.7347752E+01  2.4240520E+01
 1.7359251E+01  2.4242453E+01
 1.7370750E+01  2.4222979E+01
 1.7382252E+01  2.4153107E+01
 1.7393751E+01  2.4132349E+01
 1.7405251E+01  2.4094564E+01
 1.7416750E+01  2.4085833E+01
 1.7428251E+01  2.4126629E+01
 1.7439751E+01  2.4129959E+01
 1.7451250E+01  2.4116413E+01
 1.7462751E+01  2.4064373E+01
 1.7474251E+01  2.4073675E+01
 1.7485750E+01  2.4089439E+01
 1.7497252E+01  2.4097233E+01
 1.7508751E+01  2.4098730E+01
 1.7520250E+01  2.4094580E+01
 1.7531752E+01  2.4116779E+01
 1.7543251E+01  2.4167841E+01
 1.7554750E+01  2.4155758E+01
 1.7566252E+01  2.4113951E+01
 1.7577751E+01  2.4027952E+01
 1.7589251E+01  2.3994572E+01
 1.7600750E+01  2.4052216E+01
 1.7612251E+01  2.4122753E+01
 1.7623751E+01  2.4205957E+01
 1.7635250E+01  2.4163666E+01
 1.7646751E+01  2.4103891E+01
 1.7658251E+01  2.3979736E+01
 1.7669750E+01  2.3963442E+01
 1.7681252E+01  2.3976072E+01
 1.7692751E+01  2.4027933E+01
 1.7704250E+01  2.4040874E+01
 1.7715752E+01  2.4053686E+01
 1.7727251E+01  2.4050484E+01
 1.7738750E+01  2.4016144E+01
 1.7750252E+01  2.4000175E+01
 1.7761751E+01  2.4020941E+01
 1.7773251E+01  2.4054827E+01
 1.7784750E+01  2.4054296E+01
 1.7796251E+01  2.4039524E+01
 1.7807751E+01  2.4041674E+01
 1.7819250E+01  2.4044319E+01
 1.7830751E+01  2.4024632E+01
 1.7842251E+01  2.4001066E+01
 1.7853750E+01  2.4014389E+01
 1.7865252E+01  2.4009569E+01
 1.7876751E+01  2.4005232E+01
 1.7888250E+01  2.3947666E+01
 1.7899752E+01  2.3958174E+01
 1.7911251E+01  2.4023630E+01
 1.7922750E+01  2.4085855E+01
 1.7934252E+01  2.4083998E+01
 1.7945751E+01  2.4100134E+01
 1.7957251E+01  2.4150331E+01
 1.7968750E+01  2.4218056E+01
 1.7980251E+01  2.4353653E+01
 1.7991751E+01  2.4505877E+01
 1.8003250E+01  2.4770290E+01
 1.8014751E+01  2.5009630E+01
 1.8026251E+01  2.5308140E+01
 1.8037750E+01  2.5720102E+01
 1.8049252E+01  2.6129499E+01
 1.8060751E+01  2.6748798E+01
 1.8072250E+01  2.7193403E+01
 1.8083752E+01  2.7611435E+01
 1.8095251E+01  2.8005672E+01
 1.8106750E+01  2.7931013E+01
 1.8118252E+01  2.7813257E+01
 1.8129751E+01  2.7159378E+01
 1.8141251E+01  2.6674620E+01
 1.8152750E+01  2.5973690E+01
 1.8164251E+01  2.5367334E+01
 1.8175751E+01  2.4899233E+01
 1.8187250E+01  2.4574438E+01
 1.8198751E+01  2.4421806E+01
 1.8210251E+01  2.4339481E+01
 1.8221750E+01  2.4266106E+01
 1.8233252E+01  2.4209200E+01
 1.8244751E+01  2.4117661E+01
 1.8256250E+01  2.4047840E+01
 1.8267752E+01  2.3950405E+01
 1.8279251E+01  2.3876263E+01
 1.8290751E+01  2.3840204E+01
 1.8302252E+01  2.3816896E+01
 1.8313751E+01  2.3833967E+01
 1.8325251E+01  2.3846472E+01
 1.8336750E+01  2.3871290E+01
 1.8348251E+01  2.3893745E+01
 1.8359751E+01  2.3900856E+01
 1.8371250E+01  2.3891884E+01
 1.8382751E+01  2.3831194E+01
 1.8394251E+01  2.3814861E+01
 1.8405750E+01  2.3814520E+01
 1.8417252E+01  2.3830809E+01
 1.8428751E+01  2.3838654E+01
 1.8440250E+01  2.3885851E+01
 1.8451752E+01  2.3857670E+01
 1.8463251E+01  2.3846155E+01
 1.8474751E+01  2.3797310E+01
 1.8486252E+01  2.3802528E+01
 1.8497751E+01  2.3802742E+01
 1.8509251E+01  2.3777843E+01
 1.8520750E+01  2.3770153E+01
 1.8532251E+01  2.3746588E+01
 1.8543751E+01  2.3764219E+01
 1.8555250E+01  2.3827600E+01
 1.8566751E+01  2.3835144E+01
 1.8578251E+01  2.3823038E+01
 1.8589750E+01  2.3797636E+01
 1.8601252E+01  2.3810976E+01
 1.8612751E+01  2.3768606E+01
 1.8624250E+01  2.3699799E+01
 1.8635752E+01  2.3727999E+01
 1.8647251E+01  2.3737389E+01
 1.8658751E+01  2.3743509E+01
 1.8670252E+01  2.3738657E+01
 1.8681751E+01  2.3753126E+01
 1.8693251E+01  2.3767162E+01
 1.8704750E+01  2.3746363E+01
 1.8716251E+01  2.3816637E+01
 1.8727751E+01  2.3863089E+01
 1.8739250E+01  2.4101263E+01
 1.8750751E+01  2.4229055E+01
 1.8762251E+01  2.4453279E+01
 1.8773750E+01  2.4421295E+01
 1.8785252E+01  2.4301207E+01
 1.8796751E+01  2.3986822E+01
 1.8808250E+01  2.3733429E+01
 1.8819752E+01  2.3661274E+01
 1.8831251E+01  2.3616871E+01
 1.8842751E+01  2.3674717E+01
 1.8854252E+01  2.3661497E+01
 1.8865751E+01  2.3640936E+01
 1.8877251E+01  2.3704723E+01
 1.8888750E+01  2.3739574E+01
 1.8900251E+01  2.3762987E+01
 1.8911751E+01  2.3766878E+01
 1.8923250E+01  2.3787189E+01
 1.8934752E+01  2.3799065E+01
 1.8946251E+01  2.3785505E+01
 1.8957750E+01  2.3745308E+01
 1.8969252E+01  2.3669439E+01
 1.8980751E+01  2.3601828E+01
 1.8992250E+01  2.3539186E+01
 1.9003752E+01  2.3519236E+01
 1.9015251E+01  2.3579178E+01
 1.9026751E+01  2.3670906E+01
 1.9038252E+01  2.3733850E+01
 1.9049751E+01  2.3739973E+01
 1.9061251E+01  2.3761909E+01
 1.9072750E+01  2.3762156E+01
 1.9084251E+01  2.3785618E+01
 1.9095751E+01  2.3783340E+01
 1.9107250E+01  2.3795147E+01
 1.9118752E+01  2.3754311E+01
 1.9130251E+01  2.3786512E+01
 1.9141750E+01  2.3789276E+01
 1.9153252E+01  2.3832888E+01
 1.9164751E+01  2.3806921E+01
 1.9176250E+01  2.3809383E+01
 1.9187752E+01  2.3773056E+01
 1.9199251E+01  2.3749706E+01
 1.9210751E+01  2.3731283E+01
 1.9222252E+01  2.3721691E+01
 1.9233751E+01  2.3680912E+01
 1.9245251E+01  2.3720396E+01
 1.9256750E+01  2.3776157E+01
 1.9268251E+01  2.3849688E+01
 1.9279751E+01  2.3848000E+01
 1.9291250E+01  2.3871450E+01
 1.9302752E+01  2.3910072E+01
 1.9314251E+01  2.3920963E+01
 1.9325750E+01  2.3885859E+01
 1.9337252E+01  2.3837111E+01
 1.9348751E+01  2.3831450E+01
 1.9360250E+01  2.3816467E+01
 1.9371752E+01  2.3865107E+01
 1.9383251E+01  2.3833403E+01
 1.9394751E+01  2.3857031E+01
 1.9406250E+01  2.3800407E+01
 1.9417751E+01  2.3845373E+01
 1.9429251E+01  2.3876192E+01
 1.9440750E+01  2.3919703E+01
 1.9452251E+01  2.3922588E+01
 1.9463751E+01  2.3939823E+01
 1.9475250E+01  2.3986349E+01
 1.9486752E+01  2.3971077E+01
 1.9498251E+01  2.3953325E+01
 1.9509750E+01  2.3960178E+01
 1.9521252E+01  2.4007933E+01
 1.9532751E+01  2.4047445E+01
 1.9544250E+01  2.4111408E+01
 1.9555752E+01  2.4137749E+01
 1.9567251E+01  2.4089241E+01
 1.9578751E+01  2.4086603E+01
 1.9590250E+01  2.4069796E+01
 1.9601751E+01  2.4110950E+01
 1.9613251E+01  2.4175180E+01
 1.9624750E+01  2.4305481E+01
 1.9636251E+01  2.4501966E+01
 1.9647751E+01  2.4750797E+01
 1.9659250E+01  2.5139164E+01
 1.9670752E+01  2.5646385E+01
 1.9682251E+01  2.6334621E+01
 1.9693750E+01  2.7106976E+01
 1.9705252E+01  2.7791834E+01
 1.9716751E+01  2.8303732E+01
 1.9728251E+01  2.8503136E+01
 1.9739752E+01  2.8359303E+01
 1.9751251E+01  2.8026512E+01
 1.9762751E+01  2.7614672E+01
 1.9774250E+01  2.7231251E+01
 1.9785751E+01  2.7041790E+01
 1.9797251E+01  2.7182983E+01
 1.9808750E+01  2.7801180E+01
 1.9820251E+01  2.9052099E+01
 1.9831751E+01  3.0815670E+01
 1.9843250E+01  3.2828861E+01
 1.9854752E+01  3.4328457E+01
 1.9866251E+01  3.5000729E+01
 1.9877750E+01  3.4696423E+01
 1.9889252E+01  3.3242939E+01
 1.9900751E+01  3.1604650E+01
 1.9912251E+01  2.9701899E+01
 1.9923752E+01  2.8127823E+01
 1.9935251E+01  2.6778807E+01
 1.9946751E+01  2.5831070E+01
 1.9958250E+01  2.5165747E+01
 1.9969751E+01  2.4796329E+01
 1.9981251E+01  2.4539341E+01
 1.9992750E+01  2.4451477E+01
 2.0004251E+01  2.4373022E+01
 2.0015751E+01  2.4303461E+01
 2.0027250E+01  2.4252501E+01
 2.0038752E+01  2.4246050E+01
 2.0050251E+01  2.4229841E+01
 2.0061750E+01  2.4144022E+01
 2.0073252E+01  2.4084351E+01
 2.0084751E+01  2.4060867E+01
 2.0096251E+01  2.4094889E+01
 2.0107752E+01  2.4090826E+01
 2.0119251E+01  2.4083338E+01
 2.0130751E+01  2.4038151E+01
 2.0142250E+01  2.4004047E+01
 2.0153751E+01  2.3982523E+01
 2.0165251E+01  2.3970362E+01
 2.0176750E+01  2.3999990E+01
 2.0188251E+01  2.4009523E+01
 2.0199751E+01  2.4008524E+01
 2.0211250E+01  2.4024549E+01
 2.0222752E+01  2.4032497E+01
 2.0234251E+01  2.4046104E+01
 2.0245750E+01  2.3997789E+01
 2.0257252E+01  2.3932520E+01
 2.0268751E+01  2.3894524E+01
 2.0280251E+01  2.3919638E+01
 2.0291752E+01  2.4017050E+01
 2.0303251E+01  2.4010117E+01
 2.0314751E+01  2.4014362E+01
 2.0326250E+01  2.4005657E+01
 2.0337751E+01  2.4012407E+01
 2.0349251E+01  2.3979095E+01
 2.0360750E+01  2.3957079E+01
 2.0372252E+01  2.3943396E+01
 2.0383751E+01  2.3919920E+01
 2.0395250E+01  2.3911329E+01
 2.0406752E+01  2.3908239E+01
 2.0418251E+01  2.3958996E+01
 2.0429750E+01  2.3996744E+01
 2.0441252E+01  2.4023726E+01
 2.0452751E+01  2.4048210E+01
 2.0464251E+01  2.4008106E+01
 2.0475752E+01  2.4030727E+01
 2.0487251E+01  2.3969822E+01
 2.0498751E+01  2.3947245E+01
 2.0510250E+01  2.3824192E+01
 2.0521751E+01  2.3807245E+01
 2.0533251E+01  2.3790936E+01
 2.0544750E+01  2.3844435E+01
 2.0556252E+01  2.3936234E+01
 2.0567751E+01  2.3996674E+01
 2.0579250E+01  2.4046022E+01
 2.0590752E+01  2.4060575E+01
 2.0602251E+01  2.4098721E+01
 2.0613750E+01  2.4147215E+01
 2.0625252E+01  2.4249193E+01
 2.0636751E+01  2.4285051E+01
 2.0648251E+01  2.4287254E+01
 2.0659752E+01  2.4312206E+01
 2.0671251E+01  2.4433073E+01
 2.0682751E+01  2.4582314E+01
 2.0694250E+01  2.4770067E+01
 2.0705751E+01  2.5016960E+01
 2.0717251E+01  2.5325813E+01
 2.0728750E+01  2.5729925E+01
 2.0740252E+01  2.6098553E+01
 2.0751751E+01  2.6410561E+01
 2.0763250E+01  2.6713692E+01
 2.0774752E+01  2.6655058E+01
 2.0786251E+01  2.6454443E+01
 2.0797750E+01  2.6038485E+01
 2.0809252E+01  2.5690281E+01
 2.0820751E+01  2.5264059E+01
 2.0832251E+01  2.4918287E+01
 2.0843752E+01  2.4631622E+01
 2.0855251E+01  2.4493567E+01
 2.0866751E+01  2.4383627E+01
 2.0878250E+01  2.4315233E+01
 2.0889751E+01  2.4249847E+01
 2.0901251E+01  2.4211926E+01
 2.0912750E+01  2.4185425E+01
 2.0924252E+01  2.4206102E+01
 2.0935751E+01  2.4231009E+01
 2.0947250E+01  2.4218300E+01
 2.0958752E+01  2.4196035E+01
 2.0970251E+01  2.4181673E+01
 2.0981750E+01  2.4200241E+01
 2.0993252E+01  2.4183983E+01
 2.1004751E+01  2.4215221E+01
 2.1016251E+01  2.4166805E+01
 2.1027752E+01  2.4131233E+01
 2.1039251E+01  2.4068974E+01
 2.1050751E+01  2.4040548E+01
 2.1062250E+01  2.4051224E+01
 2.1073751E+01  2.4080681E+01
 2.1085251E+01  2.4060053E+01
 2.1096750E+01  2.3998425E+01
 2.1108252E+01  2.4003424E+01
 2.1119751E+01  2.4021820E+01
 2.1131250E+01  2.4068962E+01
 2.1142752E+01  2.4044220E+01
 2.1154251E+01  2.4000742E+01
 2.1165751E+01  2.3996044E+01
 2.1177252E+01  2.4087910E+01
 2.1188751E+01  2.4131693E+01
 2.1200251E+01  2.4240807E+01
 2.1211752E+01  2.4230232E+01
 2.1223251E+01  2.4187113E+01
 2.1234751E+01  2.4129992E+01
 2.1246250E+01  2.4148542E+01
 2.1257751E+01  2.4184526E+01
 2.1269251E+01  2.4182299E+01
 2.1280750E+01  2.4143127E+01
 2.1292252E+01  2.4095318E+01
 2.1303751E+01  2.4101904E+01
 2.1315250E+01  2.4071882E+01
 2.1326752E+01  2.4099798E+01
 2.1338251E+01  2.4118685E+01
 2.1349751E+01  2.4159706E+01
 2.1361252E+01  2.4198606E+01
 2.1372751E+01  2.4226484E+01
 2.1384251E+01  2.4216946E+01
 2.1395752E+01  2.4185955E+01
 2.1407251E+01  2.4184465E+01
 2.1418751E+01  2.4188116E+01
 2.1430250E+01  2.4241571E+01
 2.1441751E+01  2.4248428E+01
 2.1453251E+01  2.4270229E+01
 2.1464750E+01  2.4261120E+01
 2.1476252E+01  2.4237537E+01
 2.1487751E+01  2.4262423E+01
 2.1499250E+01  2.4275919E+01
 2.1510752E+01  2.4298323E+01
 2.1522251E+01  2.4266813E+01
 2.1533751E+01  2.4235783E+01
 2.1545252E+01  2.4134100E+01
 2.1556751E+01  2.4077833E+01
 2.1568251E+01  2.4056810E+01
 2.1579752E+01  2.4135565E+01
 2.1591251E+01  2.4219641E+01
 2.1602751E+01  2.4346373E+01
 2.1614250E+01  2.4364500E+01
 2.1625751E+01  2.4388916E+01
 2.1637251E+01  2.4383894E+01
 2.1648750E+01  2.4425383E+01
 2.1660252E+01  2.4404968E+01
 2.1671751E+01  2.4440519E+01
 2.1683250E+01  2.4434149E+01
 2.1694752E+01  2.4402672E+01
 2.1706251E+01  2.4416439E+01
 2.1717751E+01  2.4444275E+01
 2.1729252E+01  2.4439816E+01
 2.1740751E+01  2.4406374E+01
 2.1752251E+01  2.4410789E+01
 2.1763752E+01  2.4401823E+01
 2.1775251E+01  2.4393595E+01
 2.1786751E+01  2.4391817E+01
 2.1798250E+01  2.4389288E+01
 2.1809752E+01  2.4386879E+01
 2.1821251E+01  2.4355236E+01
 2.1832750E+01  2.4320885E+01
 2.1844252E+01  2.4334253E+01
 2.1855751E+01  2.4338543E+01
 2.1867250E+01  2.4359364E+01
 2.1878752E+01  2.4359709E+01
 2.1890251E+01  2.4376308E+01
 2.1901751E+01  2.4406080E+01
 2.1913252E+01  2.4474203E+01
 2.1924751E+01  2.4497034E+01
 2.1936251E+01  2.4543594E+01
 2.1947752E+01  2.4532818E+01
 2.1959251E+01  2.4528162E+01
 2.1970751E+01  2.4500841E+01
 2.1982250E+01  2.4500599E+01
 2.1993752E+01  2.4480103E+01
 2.2005251E+01  2.4499628E+01
 2.2016750E+01  2.4541008E+01
 2.2028252E+01  2.4543501E+01
 2.2039751E+01  2.4488380E+01
 2.2051250E+01  2.4460966E+01
 2.2062752E+01  2.4415213E+01
 2.2074251E+01  2.4448988E+01
 2.2085751E+01  2.4477968E+01
 2.2097252E+01  2.4479961E+01
 2.2108751E+01  2.4414505E+01
 2.2120251E+01  2.4421505E+01
 2.2131752E+01  2.4434568E+01
 2.2143251E+01  2.4463049E+01
 2.2154751E+01  2.4432508E+01
 2.2166250E+01  2.4502552E+01
 2.2177752E+01  2.4505789E+01
 2.2189251E+01  2.4558157E+01
 2.2200750E+01  2.4598875E+01
 2.2212252E+01  2.4690521E+01
 2.2223751E+01  2.4703695E+01
 2.2235250E+01  2.4719893E+01
 2.2246752E+01  2.4724922E+01
 2.2258251E+01  2.4777773E+01
 2.2269751E+01  2.4758562E+01
 2.2281252E+01  2.4798475E+01
 2.2292751E+01  2.4791046E+01
 2.2304251E+01  2.4825714E+01
 2.2315752E+01  2.4815317E+01
 2.2327251E+01  2.4786198E+01
 2.2338751E+01  2.4800461E+01
 2.2350250E+01  2.4775850E+01
 2.2361752E+01  2.4756685E+01
 2.2373251E+01  2.4708872E+01
 2.2384750E+01  2.4657942E+01
 2.2396252E+01  2.4659136E+01
 2.2407751E+01  2.4642221E+01
 2.2419250E+01  2.4714905E+01
 2.2430752E+01  2.4767906E+01
 2.2442251E+01  2.4956009E+01
 2.2453751E+01  2.5028730E+01
 2.2465252E+01  2.5008064E+01
 2.2476751E+01  2.4911894E+01
 2.2488251E+01  2.4929346E+01
 2.2499752E+01  2.4947445E+01
 2.2511251E+01  2.4977106E+01
 2.2522751E+01  2.5053070E+01
 2.2534250E+01  2.5065664E+01
 2.2545752E+01  2.5080162E+01
 2.2557251E+01  2.5055735E+01
 2.2568750E+01  2.5080233E+01
 2.2580252E+01  2.5082245E+01
 2.2591751E+01  2.5110466E+01
 2.2603251E+01  2.5178135E+01
 2.2614752E+01  2.5241190E+01
 2.2626251E+01  2.5306416E+01
 2.2637751E+01  2.5369535E+01
 2.2649252E+01  2.5386093E+01
 2.2660751E+01  2.5419809E+01
 2.2672251E+01  2.5461576E+01
 2.2683752E+01  2.5605764E+01
 2.2695251E+01  2.5634621E+01
 2.2706751E+01  2.5551897E+01
 2.2718250E+01  2.5461023E+01
 2.2729752E+01  2.5439045E+01
 2.2741251E+01  2.5483883E+01
 2.2752750E+01  2.5530210E+01
 2.2764252E+01  2.5579010E+01
 2.2775751E+01  2.5594707E+01
 2.2787251E+01  2.5606777E+01
 2.2798752E+01  2.5633207E+01
 2.2810251E+01  2.5736786E+01
 2.2821751E+01  2.5803005E+01
 2.2833252E+01  2.5896664E+01
 2.2844751E+01  2.5970770E+01
 2.2856251E+01  2.6034966E+01
 2.2867750E+01  2.6101480E+01
 2.2879251E+01  2.6155359E+01
 2.2890751E+01  2.6240097E+01
 2.2902250E+01  2.6244890E+01
 2.2913752E+01  2.6339548E+01
 2.2925251E+01  2.6478056E+01
 2.2936750E+01  2.6601259E+01
 2.2948252E+01  2.6686281E+01
 2.2959751E+01  2.6902628E+01
 2.2971251E+01  2.7303606E+01
 2.2982752E+01  2.7774424E+01
 2.2994251E+01  2.8100193E+01
