F:\20151113_APS_34IDE\\Brian\Particle1\OCV\Data_0066.tif
2-Theta Angle (Degrees)
Intensity
       2000
 5.7500005E-03  0.0000000E+00
 1.7250001E-02  0.0000000E+00
 2.8750001E-02  0.0000000E+00
 4.0250003E-02  0.0000000E+00
 5.1750004E-02  0.0000000E+00
 6.3250005E-02  0.0000000E+00
 7.4750006E-02  0.0000000E+00
 8.6250007E-02  0.0000000E+00
 9.7750008E-02  0.0000000E+00
 1.0925001E-01  0.0000000E+00
 1.2075000E-01  0.0000000E+00
 1.3225001E-01  0.0000000E+00
 1.4375001E-01  0.0000000E+00
 1.5525001E-01  0.0000000E+00
 1.6675001E-01  0.0000000E+00
 1.7825001E-01  0.0000000E+00
 1.8975002E-01  0.0000000E+00
 2.0125002E-01  0.0000000E+00
 2.1275002E-01  0.0000000E+00
 2.2425000E-01  0.0000000E+00
 2.3575000E-01  0.0000000E+00
 2.4725001E-01  0.0000000E+00
 2.5875002E-01  0.0000000E+00
 2.7025002E-01  0.0000000E+00
 2.8175002E-01  0.0000000E+00
 2.9325002E-01  0.0000000E+00
 3.0475003E-01  0.0000000E+00
 3.1625003E-01  0.0000000E+00
 3.2775003E-01  0.0000000E+00
 3.3925003E-01  0.0000000E+00
 3.5075003E-01  0.0000000E+00
 3.6225003E-01  0.0000000E+00
 3.7375003E-01  0.0000000E+00
 3.8525003E-01  0.0000000E+00
 3.9675003E-01  0.0000000E+00
 4.0825003E-01  0.0000000E+00
 4.1975003E-01  0.0000000E+00
 4.3125004E-01  0.0000000E+00
 4.4275001E-01  0.0000000E+00
 4.5425001E-01  0.0000000E+00
 4.6575001E-01  0.0000000E+00
 4.7725001E-01  0.0000000E+00
 4.8875001E-01  0.0000000E+00
 5.0025004E-01  0.0000000E+00
 5.1175004E-01  0.0000000E+00
 5.2325004E-01  0.0000000E+00
 5.3475004E-01  0.0000000E+00
 5.4625005E-01  0.0000000E+00
 5.5775005E-01  0.0000000E+00
 5.6925005E-01  0.0000000E+00
 5.8075005E-01  0.0000000E+00
 5.9225005E-01  0.0000000E+00
 6.0375005E-01  0.0000000E+00
 6.1525005E-01  0.0000000E+00
 6.2675005E-01  0.0000000E+00
 6.3825005E-01  0.0000000E+00
 6.4975005E-01  0.0000000E+00
 6.6125005E-01  0.0000000E+00
 6.7275006E-01  0.0000000E+00
 6.8425006E-01  0.0000000E+00
 6.9575006E-01  0.0000000E+00
 7.0725006E-01  0.0000000E+00
 7.1875006E-01  0.0000000E+00
 7.3025006E-01  0.0000000E+00
 7.4175006E-01  0.0000000E+00
 7.5325006E-01  0.0000000E+00
 7.6475006E-01  0.0000000E+00
 7.7625006E-01  0.0000000E+00
 7.8775007E-01  0.0000000E+00
 7.9925007E-01  0.0000000E+00
 8.1075007E-01  0.0000000E+00
 8.2225007E-01  0.0000000E+00
 8.3375007E-01  0.0000000E+00
 8.4525007E-01  0.0000000E+00
 8.5675007E-01  0.0000000E+00
 8.6825007E-01  0.0000000E+00
 8.7975001E-01  0.0000000E+00
 8.9125001E-01  0.0000000E+00
 9.0275002E-01  0.0000000E+00
 9.1425002E-01  0.0000000E+00
 9.2575002E-01  0.0000000E+00
 9.3725002E-01  0.0000000E+00
 9.4875002E-01  0.0000000E+00
 9.6025002E-01  0.0000000E+00
 9.7175002E-01  0.0000000E+00
 9.8325002E-01  0.0000000E+00
 9.9475002E-01  0.0000000E+00
 1.0062500E+00  0.0000000E+00
 1.0177500E+00  0.0000000E+00
 1.0292500E+00  0.0000000E+00
 1.0407500E+00  0.0000000E+00
 1.0522500E+00  0.0000000E+00
 1.0637500E+00  0.0000000E+00
 1.0752500E+00  0.0000000E+00
 1.0867500E+00  0.0000000E+00
 1.0982500E+00  0.0000000E+00
 1.1097500E+00  0.0000000E+00
 1.1212500E+00  0.0000000E+00
 1.1327500E+00  0.0000000E+00
 1.1442500E+00  0.0000000E+00
 1.1557500E+00  0.0000000E+00
 1.1672500E+00  0.0000000E+00
 1.1787500E+00  0.0000000E+00
 1.1902500E+00  0.0000000E+00
 1.2017500E+00  0.0000000E+00
 1.2132500E+00  0.0000000E+00
 1.2247500E+00  0.0000000E+00
 1.2362500E+00  0.0000000E+00
 1.2477500E+00  0.0000000E+00
 1.2592500E+00  0.0000000E+00
 1.2707500E+00  0.0000000E+00
 1.2822500E+00  0.0000000E+00
 1.2937500E+00  0.0000000E+00
 1.3052500E+00  0.0000000E+00
 1.3167500E+00  0.0000000E+00
 1.3282501E+00  0.0000000E+00
 1.3397501E+00  0.0000000E+00
 1.3512501E+00  0.0000000E+00
 1.3627501E+00  0.0000000E+00
 1.3742501E+00  0.0000000E+00
 1.3857501E+00  0.0000000E+00
 1.3972501E+00  0.0000000E+00
 1.4087501E+00  0.0000000E+00
 1.4202501E+00  0.0000000E+00
 1.4317501E+00  0.0000000E+00
 1.4432501E+00  0.0000000E+00
 1.4547501E+00  0.0000000E+00
 1.4662501E+00  0.0000000E+00
 1.4777501E+00  0.0000000E+00
 1.4892501E+00  0.0000000E+00
 1.5007501E+00  0.0000000E+00
 1.5122501E+00  0.0000000E+00
 1.5237501E+00  0.0000000E+00
 1.5352501E+00  0.0000000E+00
 1.5467501E+00  0.0000000E+00
 1.5582501E+00  0.0000000E+00
 1.5697501E+00  0.0000000E+00
 1.5812501E+00  0.0000000E+00
 1.5927501E+00  0.0000000E+00
 1.6042501E+00  0.0000000E+00
 1.6157501E+00  0.0000000E+00
 1.6272501E+00  0.0000000E+00
 1.6387501E+00  0.0000000E+00
 1.6502501E+00  0.0000000E+00
 1.6617501E+00  0.0000000E+00
 1.6732501E+00  0.0000000E+00
 1.6847501E+00  0.0000000E+00
 1.6962501E+00  0.0000000E+00
 1.7077501E+00  0.0000000E+00
 1.7192501E+00  0.0000000E+00
 1.7307501E+00  0.0000000E+00
 1.7422501E+00  0.0000000E+00
 1.7537501E+00  0.0000000E+00
 1.7652501E+00  0.0000000E+00
 1.7767501E+00  0.0000000E+00
 1.7882501E+00  0.0000000E+00
 1.7997501E+00  0.0000000E+00
 1.8112501E+00  0.0000000E+00
 1.8227501E+00  0.0000000E+00
 1.8342501E+00  0.0000000E+00
 1.8457501E+00  0.0000000E+00
 1.8572501E+00  0.0000000E+00
 1.8687501E+00  0.0000000E+00
 1.8802501E+00  0.0000000E+00
 1.8917501E+00  0.0000000E+00
 1.9032501E+00  0.0000000E+00
 1.9147501E+00  0.0000000E+00
 1.9262501E+00  0.0000000E+00
 1.9377501E+00  0.0000000E+00
 1.9492501E+00  0.0000000E+00
 1.9607501E+00  0.0000000E+00
 1.9722501E+00  0.0000000E+00
 1.9837501E+00  0.0000000E+00
 1.9952501E+00  0.0000000E+00
 2.0067501E+00  0.0000000E+00
 2.0182500E+00  0.0000000E+00
 2.0297501E+00  0.0000000E+00
 2.0412500E+00  0.0000000E+00
 2.0527501E+00  0.0000000E+00
 2.0642500E+00  0.0000000E+00
 2.0757501E+00  0.0000000E+00
 2.0872500E+00  0.0000000E+00
 2.0987501E+00  0.0000000E+00
 2.1102500E+00  0.0000000E+00
 2.1217501E+00  0.0000000E+00
 2.1332500E+00  0.0000000E+00
 2.1447501E+00  0.0000000E+00
 2.1562500E+00  0.0000000E+00
 2.1677501E+00  0.0000000E+00
 2.1792500E+00  0.0000000E+00
 2.1907501E+00  0.0000000E+00
 2.2022500E+00  0.0000000E+00
 2.2137501E+00  0.0000000E+00
 2.2252500E+00  0.0000000E+00
 2.2367501E+00  0.0000000E+00
 2.2482500E+00  0.0000000E+00
 2.2597501E+00  0.0000000E+00
 2.2712500E+00  0.0000000E+00
 2.2827501E+00  0.0000000E+00
 2.2942500E+00  0.0000000E+00
 2.3057501E+00  0.0000000E+00
 2.3172500E+00  0.0000000E+00
 2.3287501E+00  0.0000000E+00
 2.3402500E+00  0.0000000E+00
 2.3517501E+00  0.0000000E+00
 2.3632500E+00  0.0000000E+00
 2.3747501E+00  0.0000000E+00
 2.3862500E+00  0.0000000E+00
 2.3977501E+00  0.0000000E+00
 2.4092500E+00  0.0000000E+00
 2.4207501E+00  0.0000000E+00
 2.4322500E+00  0.0000000E+00
 2.4437501E+00  0.0000000E+00
 2.4552500E+00  0.0000000E+00
 2.4667501E+00  0.0000000E+00
 2.4782500E+00  0.0000000E+00
 2.4897501E+00  0.0000000E+00
 2.5012500E+00  0.0000000E+00
 2.5127501E+00  0.0000000E+00
 2.5242500E+00  0.0000000E+00
 2.5357502E+00  0.0000000E+00
 2.5472500E+00  0.0000000E+00
 2.5587502E+00  0.0000000E+00
 2.5702500E+00  0.0000000E+00
 2.5817502E+00  0.0000000E+00
 2.5932500E+00  0.0000000E+00
 2.6047502E+00  0.0000000E+00
 2.6162500E+00  0.0000000E+00
 2.6277502E+00  0.0000000E+00
 2.6392500E+00  0.0000000E+00
 2.6507502E+00  0.0000000E+00
 2.6622500E+00  0.0000000E+00
 2.6737502E+00  0.0000000E+00
 2.6852500E+00  0.0000000E+00
 2.6967502E+00  0.0000000E+00
 2.7082500E+00  0.0000000E+00
 2.7197502E+00  0.0000000E+00
 2.7312500E+00  0.0000000E+00
 2.7427502E+00  0.0000000E+00
 2.7542500E+00  0.0000000E+00
 2.7657502E+00  0.0000000E+00
 2.7772501E+00  0.0000000E+00
 2.7887502E+00  0.0000000E+00
 2.8002501E+00  0.0000000E+00
 2.8117502E+00  0.0000000E+00
 2.8232501E+00  3.4713379E+01
 2.8347502E+00  3.5266731E+01
 2.8462501E+00  3.4829075E+01
 2.8577502E+00  3.4526325E+01
 2.8692501E+00  3.4663528E+01
 2.8807502E+00  3.5066490E+01
 2.8922501E+00  3.5463501E+01
 2.9037502E+00  3.5700760E+01
 2.9152501E+00  3.6115730E+01
 2.9267502E+00  3.6150394E+01
 2.9382501E+00  3.5991096E+01
 2.9497502E+00  3.5854240E+01
 2.9612501E+00  3.5844116E+01
 2.9727502E+00  3.5760426E+01
 2.9842501E+00  3.5477161E+01
 2.9957502E+00  3.5657440E+01
 3.0072501E+00  3.5836426E+01
 3.0187502E+00  3.6085377E+01
 3.0302501E+00  3.5726440E+01
 3.0417502E+00  3.5558266E+01
 3.0532501E+00  3.4870632E+01
 3.0647502E+00  3.4608025E+01
 3.0762501E+00  3.4473751E+01
 3.0877502E+00  3.4490791E+01
 3.0992501E+00  3.4832535E+01
 3.1107502E+00  3.4768646E+01
 3.1222501E+00  3.5062248E+01
 3.1337502E+00  3.4639233E+01
 3.1452501E+00  3.4912235E+01
 3.1567502E+00  3.4893505E+01
 3.1682501E+00  3.5445168E+01
 3.1797502E+00  3.5635162E+01
 3.1912501E+00  3.5433605E+01
 3.2027502E+00  3.5068764E+01
 3.2142501E+00  3.4754032E+01
 3.2257502E+00  3.4324074E+01
 3.2372501E+00  3.4132244E+01
 3.2487502E+00  3.3904224E+01
 3.2602501E+00  3.4149750E+01
 3.2717502E+00  3.3960686E+01
 3.2832501E+00  3.3628880E+01
 3.2947502E+00  3.3740959E+01
 3.3062501E+00  3.3480339E+01
 3.3177502E+00  3.3777737E+01
 3.3292501E+00  3.3842197E+01
 3.3407502E+00  3.4191086E+01
 3.3522501E+00  3.4464733E+01
 3.3637502E+00  3.4457230E+01
 3.3752501E+00  3.4562630E+01
 3.3867502E+00  3.4492050E+01
 3.3982501E+00  3.4477974E+01
 3.4097502E+00  3.4498367E+01
 3.4212501E+00  3.4391842E+01
 3.4327502E+00  3.4343559E+01
 3.4442501E+00  3.4528355E+01
 3.4557502E+00  3.4648609E+01
 3.4672501E+00  3.4797493E+01
 3.4787502E+00  3.5004921E+01
 3.4902501E+00  3.5077831E+01
 3.5017502E+00  3.4991467E+01
 3.5132501E+00  3.4586720E+01
 3.5247502E+00  3.4284031E+01
 3.5362501E+00  3.4425884E+01
 3.5477502E+00  3.4361023E+01
 3.5592501E+00  3.4460655E+01
 3.5707502E+00  3.3898071E+01
 3.5822501E+00  3.3542423E+01
 3.5937502E+00  3.3057743E+01
 3.6052501E+00  3.2846291E+01
 3.6167502E+00  3.2813835E+01
 3.6282501E+00  3.2888172E+01
 3.6397502E+00  3.3068138E+01
 3.6512501E+00  3.3291378E+01
 3.6627502E+00  3.3399784E+01
 3.6742501E+00  3.3373047E+01
 3.6857502E+00  3.3285759E+01
 3.6972501E+00  3.3241016E+01
 3.7087502E+00  3.3079632E+01
 3.7202501E+00  3.2910534E+01
 3.7317502E+00  3.2833408E+01
 3.7432501E+00  3.2921227E+01
 3.7547503E+00  3.3013657E+01
 3.7662501E+00  3.2935692E+01
 3.7777503E+00  3.2779499E+01
 3.7892501E+00  3.2729595E+01
 3.8007503E+00  3.2610046E+01
 3.8122501E+00  3.2509983E+01
 3.8237503E+00  3.2404682E+01
 3.8352501E+00  3.2235981E+01
 3.8467503E+00  3.2089100E+01
 3.8582501E+00  3.1972900E+01
 3.8697503E+00  3.1930805E+01
 3.8812501E+00  3.2018551E+01
 3.8927503E+00  3.2114166E+01
 3.9042501E+00  3.2105148E+01
 3.9157503E+00  3.2359310E+01
 3.9272501E+00  3.2294640E+01
 3.9387503E+00  3.2293655E+01
 3.9502501E+00  3.2202980E+01
 3.9617503E+00  3.2288147E+01
 3.9732502E+00  3.2376850E+01
 3.9847503E+00  3.2538216E+01
 3.9962502E+00  3.2585236E+01
 4.0077500E+00  3.2665447E+01
 4.0192504E+00  3.2590473E+01
 4.0307503E+00  3.2217270E+01
 4.0422502E+00  3.2150429E+01
 4.0537500E+00  3.1855894E+01
 4.0652504E+00  3.1952738E+01
 4.0767503E+00  3.1927305E+01
 4.0882502E+00  3.2051006E+01
 4.0997500E+00  3.2059853E+01
 4.1112504E+00  3.2120029E+01
 4.1227503E+00  3.2021030E+01
 4.1342502E+00  3.2128300E+01
 4.1457500E+00  3.2286194E+01
 4.1572504E+00  3.2372112E+01
 4.1687503E+00  3.2368843E+01
 4.1802502E+00  3.2160789E+01
 4.1917500E+00  3.1964928E+01
 4.2032504E+00  3.1871525E+01
 4.2147503E+00  3.1950983E+01
 4.2262502E+00  3.2023373E+01
 4.2377501E+00  3.2113869E+01
 4.2492504E+00  3.2084675E+01
 4.2607503E+00  3.2218796E+01
 4.2722502E+00  3.2078671E+01
 4.2837501E+00  3.1998018E+01
 4.2952504E+00  3.1898441E+01
 4.3067503E+00  3.1766850E+01
 4.3182502E+00  3.1901890E+01
 4.3297501E+00  3.1919884E+01
 4.3412504E+00  3.2088123E+01
 4.3527503E+00  3.2078953E+01
 4.3642502E+00  3.1848206E+01
 4.3757501E+00  3.1938541E+01
 4.3872504E+00  3.1904654E+01
 4.3987503E+00  3.2068459E+01
 4.4102502E+00  3.2190575E+01
 4.4217501E+00  3.2121273E+01
 4.4332504E+00  3.2101429E+01
 4.4447503E+00  3.1967665E+01
 4.4562502E+00  3.1958881E+01
 4.4677501E+00  3.2034866E+01
 4.4792504E+00  3.2100605E+01
 4.4907503E+00  3.2058838E+01
 4.5022502E+00  3.2140873E+01
 4.5137501E+00  3.2250690E+01
 4.5252504E+00  3.2421970E+01
 4.5367503E+00  3.2444592E+01
 4.5482502E+00  3.2342506E+01
 4.5597501E+00  3.2267689E+01
 4.5712504E+00  3.2265617E+01
 4.5827503E+00  3.2319912E+01
 4.5942502E+00  3.2549187E+01
 4.6057501E+00  3.2642353E+01
 4.6172504E+00  3.2795692E+01
 4.6287503E+00  3.2717117E+01
 4.6402502E+00  3.2672455E+01
 4.6517501E+00  3.2586102E+01
 4.6632504E+00  3.2505154E+01
 4.6747503E+00  3.2529160E+01
 4.6862502E+00  3.2574249E+01
 4.6977501E+00  3.2578979E+01
 4.7092505E+00  3.2593739E+01
 4.7207503E+00  3.2421497E+01
 4.7322502E+00  3.2326126E+01
 4.7437501E+00  3.2075375E+01
 4.7552505E+00  3.2001400E+01
 4.7667503E+00  3.1941154E+01
 4.7782502E+00  3.2014259E+01
 4.7897501E+00  3.2084312E+01
 4.8012505E+00  3.2145363E+01
 4.8127503E+00  3.2280300E+01
 4.8242502E+00  3.2338100E+01
 4.8357501E+00  3.2392738E+01
 4.8472505E+00  3.2409523E+01
 4.8587503E+00  3.2578110E+01
 4.8702502E+00  3.2642929E+01
 4.8817501E+00  3.2660244E+01
 4.8932505E+00  3.2544029E+01
 4.9047503E+00  3.2434792E+01
 4.9162502E+00  3.2510090E+01
 4.9277501E+00  3.2549755E+01
 4.9392505E+00  3.2663094E+01
 4.9507504E+00  3.2606758E+01
 4.9622502E+00  3.2521477E+01
 4.9737501E+00  3.2593658E+01
 4.9852505E+00  3.2657959E+01
 4.9967504E+00  3.2782616E+01
 5.0082502E+00  3.2935371E+01
 5.0197501E+00  3.3027264E+01
 5.0312505E+00  3.3134918E+01
 5.0427504E+00  3.3093609E+01
 5.0542502E+00  3.2999416E+01
 5.0657501E+00  3.3005497E+01
 5.0772505E+00  3.2956112E+01
 5.0887504E+00  3.3028301E+01
 5.1002502E+00  3.2985550E+01
 5.1117501E+00  3.3020554E+01
 5.1232505E+00  3.3052731E+01
 5.1347504E+00  3.3216099E+01
 5.1462502E+00  3.3231239E+01
 5.1577501E+00  3.3259487E+01
 5.1692505E+00  3.3213383E+01
 5.1807504E+00  3.3271244E+01
 5.1922503E+00  3.3276161E+01
 5.2037501E+00  3.3383259E+01
 5.2152505E+00  3.3488007E+01
 5.2267504E+00  3.3610111E+01
 5.2382503E+00  3.3721981E+01
 5.2497501E+00  3.3799713E+01
 5.2612505E+00  3.3881531E+01
 5.2727504E+00  3.3746284E+01
 5.2842503E+00  3.3614326E+01
 5.2957501E+00  3.3543625E+01
 5.3072500E+00  3.3476891E+01
 5.3187504E+00  3.3615780E+01
 5.3302503E+00  3.3645950E+01
 5.3417501E+00  3.3849476E+01
 5.3532500E+00  3.3882660E+01
 5.3647504E+00  3.3949917E+01
 5.3762503E+00  3.3949265E+01
 5.3877501E+00  3.3981663E+01
 5.3992500E+00  3.4067516E+01
 5.4107504E+00  3.4059307E+01
 5.4222503E+00  3.4001530E+01
 5.4337502E+00  3.3923965E+01
 5.4452500E+00  3.3973701E+01
 5.4567504E+00  3.4155949E+01
 5.4682503E+00  3.4247562E+01
 5.4797502E+00  3.4392406E+01
 5.4912500E+00  3.4354771E+01
 5.5027504E+00  3.4401222E+01
 5.5142503E+00  3.4565823E+01
 5.5257502E+00  3.4709110E+01
 5.5372500E+00  3.4819504E+01
 5.5487504E+00  3.4793022E+01
 5.5602503E+00  3.4773735E+01
 5.5717502E+00  3.4710567E+01
 5.5832500E+00  3.4604477E+01
 5.5947504E+00  3.4550980E+01
 5.6062503E+00  3.4507782E+01
 5.6177502E+00  3.4433601E+01
 5.6292500E+00  3.4411034E+01
 5.6407504E+00  3.4486271E+01
 5.6522503E+00  3.4593731E+01
 5.6637502E+00  3.4753727E+01
 5.6752501E+00  3.4789352E+01
 5.6867504E+00  3.4816917E+01
 5.6982503E+00  3.4836399E+01
 5.7097502E+00  3.4917355E+01
 5.7212501E+00  3.4974453E+01
 5.7327504E+00  3.5078217E+01
 5.7442503E+00  3.5127831E+01
 5.7557502E+00  3.5208199E+01
 5.7672501E+00  3.5231304E+01
 5.7787504E+00  3.5307076E+01
 5.7902503E+00  3.5334564E+01
 5.8017502E+00  3.5370132E+01
 5.8132501E+00  3.5273521E+01
 5.8247504E+00  3.5247612E+01
 5.8362503E+00  3.5181053E+01
 5.8477502E+00  3.5144638E+01
 5.8592501E+00  3.5140503E+01
 5.8707504E+00  3.5216270E+01
 5.8822503E+00  3.5375317E+01
 5.8937502E+00  3.5672939E+01
 5.9052501E+00  3.5904690E+01
 5.9167504E+00  3.6099998E+01
 5.9282503E+00  3.6199974E+01
 5.9397502E+00  3.6849049E+01
 5.9512501E+00  3.7344372E+01
 5.9627504E+00  3.8220791E+01
 5.9742503E+00  3.9019093E+01
 5.9857502E+00  3.9369457E+01
 5.9972501E+00  3.9180943E+01
 6.0087504E+00  3.8523693E+01
 6.0202503E+00  3.7842670E+01
 6.0317502E+00  3.7356514E+01
 6.0432501E+00  3.6722469E+01
 6.0547504E+00  3.6434040E+01
 6.0662503E+00  3.6396748E+01
 6.0777502E+00  3.6326424E+01
 6.0892501E+00  3.6412701E+01
 6.1007504E+00  3.6398502E+01
 6.1122503E+00  3.6439625E+01
 6.1237502E+00  3.6435871E+01
 6.1352501E+00  3.6442509E+01
 6.1467505E+00  3.6441418E+01
 6.1582503E+00  3.6516182E+01
 6.1697502E+00  3.6533375E+01
 6.1812501E+00  3.6709641E+01
 6.1927505E+00  3.6906418E+01
 6.2042503E+00  3.6895943E+01
 6.2157502E+00  3.6933460E+01
 6.2272501E+00  3.6883938E+01
 6.2387505E+00  3.6854572E+01
 6.2502503E+00  3.6913467E+01
 6.2617502E+00  3.6896660E+01
 6.2732501E+00  3.7107582E+01
 6.2847505E+00  3.7212971E+01
 6.2962503E+00  3.7263500E+01
 6.3077502E+00  3.7350105E+01
 6.3192501E+00  3.7376083E+01
 6.3307505E+00  3.7481358E+01
 6.3422503E+00  3.7617786E+01
 6.3537502E+00  3.7678341E+01
 6.3652501E+00  3.7686825E+01
 6.3767505E+00  3.7608719E+01
 6.3882504E+00  3.7624939E+01
 6.3997502E+00  3.7643993E+01
 6.4112501E+00  3.7800255E+01
 6.4227505E+00  3.7964157E+01
 6.4342504E+00  3.8173481E+01
 6.4457502E+00  3.8259609E+01
 6.4572501E+00  3.8271248E+01
 6.4687505E+00  3.8296638E+01
 6.4802504E+00  3.8353043E+01
 6.4917502E+00  3.8429379E+01
 6.5032501E+00  3.8539566E+01
 6.5147505E+00  3.8629677E+01
 6.5262504E+00  3.8744858E+01
 6.5377502E+00  3.8814041E+01
 6.5492501E+00  3.8843136E+01
 6.5607505E+00  3.8837364E+01
 6.5722504E+00  3.8845947E+01
 6.5837502E+00  3.9012432E+01
 6.5952501E+00  3.9134487E+01
 6.6067505E+00  3.9367790E+01
 6.6182504E+00  3.9456879E+01
 6.6297503E+00  3.9624153E+01
 6.6412501E+00  3.9681675E+01
 6.6527505E+00  3.9635605E+01
 6.6642504E+00  3.9702301E+01
 6.6757503E+00  3.9671200E+01
 6.6872501E+00  3.9643608E+01
 6.6987505E+00  3.9623108E+01
 6.7102504E+00  3.9629654E+01
 6.7217503E+00  3.9795830E+01
 6.7332501E+00  3.9916969E+01
 6.7447505E+00  4.0066219E+01
 6.7562504E+00  4.0269764E+01
 6.7677503E+00  4.0407600E+01
 6.7792501E+00  4.0489677E+01
 6.7907505E+00  4.0564850E+01
 6.8022504E+00  4.0663761E+01
 6.8137503E+00  4.0879902E+01
 6.8252501E+00  4.0966217E+01
 6.8367505E+00  4.1082542E+01
 6.8482504E+00  4.1083191E+01
 6.8597503E+00  4.1193790E+01
 6.8712502E+00  4.1234512E+01
 6.8827505E+00  4.1258446E+01
 6.8942504E+00  4.1228062E+01
 6.9057503E+00  4.1262676E+01
 6.9172502E+00  4.1358570E+01
 6.9287505E+00  4.1330292E+01
 6.9402504E+00  4.1390598E+01
 6.9517503E+00  4.1557777E+01
 6.9632502E+00  4.1708260E+01
 6.9747505E+00  4.1774204E+01
 6.9862504E+00  4.1684841E+01
 6.9977503E+00  4.1767403E+01
 7.0092502E+00  4.1765347E+01
 7.0207505E+00  4.1865688E+01
 7.0322504E+00  4.2012264E+01
 7.0437503E+00  4.2182785E+01
 7.0552502E+00  4.2340611E+01
 7.0667505E+00  4.2424603E+01
 7.0782504E+00  4.2474888E+01
 7.0897503E+00  4.2487564E+01
 7.1012502E+00  4.2462513E+01
 7.1127505E+00  4.2540493E+01
 7.1242504E+00  4.2620522E+01
 7.1357503E+00  4.2673397E+01
 7.1472502E+00  4.2635384E+01
 7.1587505E+00  4.2665253E+01
 7.1702504E+00  4.2640797E+01
 7.1817503E+00  4.2798649E+01
 7.1932502E+00  4.2893394E+01
 7.2047505E+00  4.3007565E+01
 7.2162504E+00  4.3012482E+01
 7.2277503E+00  4.3029202E+01
 7.2392502E+00  4.3115242E+01
 7.2507505E+00  4.3145832E+01
 7.2622504E+00  4.3126301E+01
 7.2737503E+00  4.3183537E+01
 7.2852502E+00  4.3082024E+01
 7.2967505E+00  4.3155865E+01
 7.3082504E+00  4.3057667E+01
 7.3197503E+00  4.3176933E+01
 7.3312502E+00  4.3205215E+01
 7.3427505E+00  4.3206730E+01
 7.3542504E+00  4.3179344E+01
 7.3657503E+00  4.3156662E+01
 7.3772502E+00  4.3151669E+01
 7.3887506E+00  4.3135948E+01
 7.4002504E+00  4.3271397E+01
 7.4117503E+00  4.3446705E+01
 7.4232502E+00  4.3575935E+01
 7.4347506E+00  4.3547466E+01
 7.4462504E+00  4.3513462E+01
 7.4577503E+00  4.3551636E+01
 7.4692502E+00  4.3574818E+01
 7.4807506E+00  4.3562550E+01
 7.4922504E+00  4.3610691E+01
 7.5037503E+00  4.3625862E+01
 7.5152502E+00  4.3713402E+01
 7.5267506E+00  4.3764057E+01
 7.5382504E+00  4.3831207E+01
 7.5497503E+00  4.3960232E+01
 7.5612502E+00  4.3980244E+01
 7.5727506E+00  4.4067287E+01
 7.5842505E+00  4.4010895E+01
 7.5957503E+00  4.3959328E+01
 7.6072502E+00  4.3931286E+01
 7.6187506E+00  4.3800423E+01
 7.6302505E+00  4.3759975E+01
 7.6417503E+00  4.3708553E+01
 7.6532502E+00  4.3707088E+01
 7.6647506E+00  4.3721802E+01
 7.6762505E+00  4.3796623E+01
 7.6877503E+00  4.3835743E+01
 7.6992502E+00  4.3915329E+01
 7.7107506E+00  4.3870781E+01
 7.7222505E+00  4.3918766E+01
 7.7337503E+00  4.3846092E+01
 7.7452502E+00  4.3765957E+01
 7.7567506E+00  4.3723900E+01
 7.7682505E+00  4.3666500E+01
 7.7797503E+00  4.3775829E+01
 7.7912502E+00  4.3822330E+01
 7.8027506E+00  4.3887024E+01
 7.8142505E+00  4.3918602E+01
 7.8257504E+00  4.3839287E+01
 7.8372502E+00  4.3826290E+01
 7.8487506E+00  4.3790257E+01
 7.8602505E+00  4.3847256E+01
 7.8717504E+00  4.3780239E+01
 7.8832502E+00  4.3679314E+01
 7.8947506E+00  4.3590355E+01
 7.9062505E+00  4.3549446E+01
 7.9177504E+00  4.3516312E+01
 7.9292502E+00  4.3437912E+01
 7.9407506E+00  4.3424431E+01
 7.9522505E+00  4.3379749E+01
 7.9637504E+00  4.3358238E+01
 7.9752502E+00  4.3327145E+01
 7.9867506E+00  4.3290531E+01
 7.9982505E+00  4.3162582E+01
 8.0097504E+00  4.3077049E+01
 8.0212507E+00  4.2911846E+01
 8.0327501E+00  4.2880779E+01
 8.0442505E+00  4.2767021E+01
 8.0557508E+00  4.2699188E+01
 8.0672503E+00  4.2619503E+01
 8.0787506E+00  4.2563271E+01
 8.0902500E+00  4.2636204E+01
 8.1017504E+00  4.2606361E+01
 8.1132507E+00  4.2553669E+01
 8.1247501E+00  4.2385906E+01
 8.1362505E+00  4.2227028E+01
 8.1477509E+00  4.2039078E+01
 8.1592503E+00  4.1847893E+01
 8.1707506E+00  4.1698139E+01
 8.1822500E+00  4.1578014E+01
 8.1937504E+00  4.1440407E+01
 8.2052507E+00  4.1296326E+01
 8.2167501E+00  4.1125317E+01
 8.2282505E+00  4.0967670E+01
 8.2397509E+00  4.0896591E+01
 8.2512503E+00  4.0852848E+01
 8.2627506E+00  4.0877533E+01
 8.2742500E+00  4.0661049E+01
 8.2857504E+00  4.0532623E+01
 8.2972507E+00  4.0335861E+01
 8.3087502E+00  4.0222374E+01
 8.3202505E+00  4.0075283E+01
 8.3317509E+00  3.9764500E+01
 8.3432503E+00  3.9552849E+01
 8.3547506E+00  3.9275894E+01
 8.3662500E+00  3.9200836E+01
 8.3777504E+00  3.9032070E+01
 8.3892508E+00  3.8889969E+01
 8.4007502E+00  3.8748093E+01
 8.4122505E+00  3.8667221E+01
 8.4237509E+00  3.8554356E+01
 8.4352503E+00  3.8377945E+01
 8.4467506E+00  3.8221077E+01
 8.4582500E+00  3.8036041E+01
 8.4697504E+00  3.7949112E+01
 8.4812508E+00  3.7810085E+01
 8.4927502E+00  3.7723667E+01
 8.5042505E+00  3.7584122E+01
 8.5157509E+00  3.7475952E+01
 8.5272503E+00  3.7301575E+01
 8.5387506E+00  3.7133293E+01
 8.5502501E+00  3.6845150E+01
 8.5617504E+00  3.6662285E+01
 8.5732508E+00  3.6395576E+01
 8.5847502E+00  3.6179516E+01
 8.5962505E+00  3.5976582E+01
 8.6077509E+00  3.5714233E+01
 8.6192503E+00  3.5646591E+01
 8.6307507E+00  3.5488567E+01
 8.6422501E+00  3.5432194E+01
 8.6537504E+00  3.5163864E+01
 8.6652508E+00  3.5054390E+01
 8.6767502E+00  3.4829060E+01
 8.6882505E+00  3.4735004E+01
 8.6997509E+00  3.4524521E+01
 8.7112503E+00  3.4418659E+01
 8.7227507E+00  3.4239819E+01
 8.7342501E+00  3.4022453E+01
 8.7457504E+00  3.3730530E+01
 8.7572508E+00  3.3496376E+01
 8.7687502E+00  3.3340519E+01
 8.7802505E+00  3.3190155E+01
 8.7917500E+00  3.3077278E+01
 8.8032503E+00  3.2872051E+01
 8.8147507E+00  3.2788906E+01
 8.8262501E+00  3.2604950E+01
 8.8377504E+00  3.2539120E+01
 8.8492508E+00  3.2310837E+01
 8.8607502E+00  3.2203842E+01
 8.8722506E+00  3.2069366E+01
 8.8837500E+00  3.1949909E+01
 8.8952503E+00  3.1791697E+01
 8.9067507E+00  3.1669922E+01
 8.9182501E+00  3.1539654E+01
 8.9297504E+00  3.1467987E+01
 8.9412508E+00  3.1194937E+01
 8.9527502E+00  3.1061993E+01
 8.9642506E+00  3.0897381E+01
 8.9757500E+00  3.0781099E+01
 8.9872503E+00  3.0712534E+01
 8.9987507E+00  3.0565926E+01
 9.0102501E+00  3.0437378E+01
 9.0217505E+00  3.0315834E+01
 9.0332508E+00  3.0172455E+01
 9.0447502E+00  3.0050192E+01
 9.0562506E+00  2.9823875E+01
 9.0677500E+00  2.9648249E+01
 9.0792503E+00  2.9506847E+01
 9.0907507E+00  2.9362803E+01
 9.1022501E+00  2.9238354E+01
 9.1137505E+00  2.9119789E+01
 9.1252508E+00  2.9072517E+01
 9.1367502E+00  2.9041882E+01
 9.1482506E+00  2.8990435E+01
 9.1597500E+00  2.8851095E+01
 9.1712503E+00  2.8682852E+01
 9.1827507E+00  2.8562487E+01
 9.1942501E+00  2.8430540E+01
 9.2057505E+00  2.8310810E+01
 9.2172508E+00  2.8165413E+01
 9.2287502E+00  2.8069483E+01
 9.2402506E+00  2.8016550E+01
 9.2517500E+00  2.7882866E+01
 9.2632504E+00  2.7791508E+01
 9.2747507E+00  2.7683548E+01
 9.2862501E+00  2.7553825E+01
 9.2977505E+00  2.7469275E+01
 9.3092508E+00  2.7268759E+01
 9.3207502E+00  2.7212118E+01
 9.3322506E+00  2.7078886E+01
 9.3437500E+00  2.6957619E+01
 9.3552504E+00  2.6805109E+01
 9.3667507E+00  2.6734615E+01
 9.3782501E+00  2.6671942E+01
 9.3897505E+00  2.6627522E+01
 9.4012508E+00  2.6580854E+01
 9.4127502E+00  2.6533289E+01
 9.4242506E+00  2.6440588E+01
 9.4357500E+00  2.6312702E+01
 9.4472504E+00  2.6263763E+01
 9.4587507E+00  2.6239449E+01
 9.4702501E+00  2.6220291E+01
 9.4817505E+00  2.6212748E+01
 9.4932508E+00  2.6187510E+01
 9.5047503E+00  2.6138882E+01
 9.5162506E+00  2.6078850E+01
 9.5277500E+00  2.6012844E+01
 9.5392504E+00  2.5947613E+01
 9.5507507E+00  2.5795122E+01
 9.5622501E+00  2.5687405E+01
 9.5737505E+00  2.5558876E+01
 9.5852509E+00  2.5459871E+01
 9.5967503E+00  2.5420914E+01
 9.6082506E+00  2.5392597E+01
 9.6197500E+00  2.5382633E+01
 9.6312504E+00  2.5293173E+01
 9.6427507E+00  2.5249851E+01
 9.6542501E+00  2.5201456E+01
 9.6657505E+00  2.5147659E+01
 9.6772509E+00  2.5042624E+01
 9.6887503E+00  2.4942968E+01
 9.7002506E+00  2.4869909E+01
 9.7117500E+00  2.4865286E+01
 9.7232504E+00  2.4830944E+01
 9.7347507E+00  2.4789736E+01
 9.7462502E+00  2.4757433E+01
 9.7577505E+00  2.4706438E+01
 9.7692509E+00  2.4682890E+01
 9.7807503E+00  2.4596558E+01
 9.7922506E+00  2.4561001E+01
 9.8037500E+00  2.4514585E+01
 9.8152504E+00  2.4448292E+01
 9.8267508E+00  2.4405239E+01
 9.8382502E+00  2.4374985E+01
 9.8497505E+00  2.4371479E+01
 9.8612509E+00  2.4342916E+01
 9.8727503E+00  2.4332020E+01
 9.8842506E+00  2.4338057E+01
 9.8957500E+00  2.4379316E+01
 9.9072504E+00  2.4356554E+01
 9.9187508E+00  2.4292677E+01
 9.9302502E+00  2.4175890E+01
 9.9417505E+00  2.4049765E+01
 9.9532509E+00  2.3944880E+01
 9.9647503E+00  2.3900717E+01
 9.9762506E+00  2.3880215E+01
 9.9877501E+00  2.3871311E+01
 9.9992504E+00  2.3802488E+01
 1.0010751E+01  2.3791618E+01
 1.0022250E+01  2.3795771E+01
 1.0033751E+01  2.3836649E+01
 1.0045251E+01  2.3802114E+01
 1.0056750E+01  2.3777901E+01
 1.0068251E+01  2.3681408E+01
 1.0079750E+01  2.3639431E+01
 1.0091250E+01  2.3570637E+01
 1.0102751E+01  2.3553507E+01
 1.0114250E+01  2.3532038E+01
 1.0125751E+01  2.3603596E+01
 1.0137251E+01  2.3627636E+01
 1.0148750E+01  2.3664293E+01
 1.0160251E+01  2.3642061E+01
 1.0171750E+01  2.3618406E+01
 1.0183250E+01  2.3617373E+01
 1.0194751E+01  2.3552732E+01
 1.0206250E+01  2.3590654E+01
 1.0217751E+01  2.3579613E+01
 1.0229251E+01  2.3582638E+01
 1.0240750E+01  2.3547169E+01
 1.0252251E+01  2.3475168E+01
 1.0263750E+01  2.3419613E+01
 1.0275250E+01  2.3379763E+01
 1.0286751E+01  2.3376854E+01
 1.0298250E+01  2.3352709E+01
 1.0309751E+01  2.3299589E+01
 1.0321251E+01  2.3217268E+01
 1.0332750E+01  2.3194273E+01
 1.0344251E+01  2.3144817E+01
 1.0355750E+01  2.3133326E+01
 1.0367250E+01  2.3093496E+01
 1.0378751E+01  2.3134378E+01
 1.0390250E+01  2.3207504E+01
 1.0401751E+01  2.3226204E+01
 1.0413251E+01  2.3217567E+01
 1.0424750E+01  2.3137583E+01
 1.0436251E+01  2.3080820E+01
 1.0447750E+01  2.2997395E+01
 1.0459250E+01  2.2990082E+01
 1.0470751E+01  2.2984238E+01
 1.0482250E+01  2.2989037E+01
 1.0493751E+01  2.2949005E+01
 1.0505251E+01  2.2866217E+01
 1.0516750E+01  2.2837303E+01
 1.0528251E+01  2.2749420E+01
 1.0539750E+01  2.2702078E+01
 1.0551250E+01  2.2651121E+01
 1.0562751E+01  2.2671021E+01
 1.0574250E+01  2.2668177E+01
 1.0585751E+01  2.2626190E+01
 1.0597251E+01  2.2600002E+01
 1.0608750E+01  2.2640783E+01
 1.0620251E+01  2.2677837E+01
 1.0631750E+01  2.2761389E+01
 1.0643250E+01  2.2783009E+01
 1.0654751E+01  2.2785749E+01
 1.0666250E+01  2.2735785E+01
 1.0677751E+01  2.2652227E+01
 1.0689251E+01  2.2616842E+01
 1.0700750E+01  2.2601658E+01
 1.0712251E+01  2.2574406E+01
 1.0723750E+01  2.2554609E+01
 1.0735250E+01  2.2460283E+01
 1.0746751E+01  2.2471539E+01
 1.0758250E+01  2.2433014E+01
 1.0769751E+01  2.2438818E+01
 1.0781251E+01  2.2444036E+01
 1.0792750E+01  2.2436213E+01
 1.0804251E+01  2.2419039E+01
 1.0815750E+01  2.2379032E+01
 1.0827250E+01  2.2370140E+01
 1.0838751E+01  2.2349148E+01
 1.0850250E+01  2.2360943E+01
 1.0861751E+01  2.2373276E+01
 1.0873251E+01  2.2409714E+01
 1.0884750E+01  2.2399210E+01
 1.0896251E+01  2.2385323E+01
 1.0907750E+01  2.2339050E+01
 1.0919250E+01  2.2334284E+01
 1.0930751E+01  2.2305454E+01
 1.0942250E+01  2.2292681E+01
 1.0953751E+01  2.2310152E+01
 1.0965251E+01  2.2323503E+01
 1.0976750E+01  2.2359488E+01
 1.0988251E+01  2.2271652E+01
 1.0999750E+01  2.2203445E+01
 1.1011250E+01  2.2125031E+01
 1.1022751E+01  2.2115795E+01
 1.1034250E+01  2.2151350E+01
 1.1045751E+01  2.2146875E+01
 1.1057251E+01  2.2139517E+01
 1.1068750E+01  2.2175495E+01
 1.1080251E+01  2.2195017E+01
 1.1091750E+01  2.2198748E+01
 1.1103251E+01  2.2167690E+01
 1.1114751E+01  2.2171474E+01
 1.1126250E+01  2.2240908E+01
 1.1137751E+01  2.2229177E+01
 1.1149251E+01  2.2273155E+01
 1.1160750E+01  2.2278807E+01
 1.1172251E+01  2.2259174E+01
 1.1183750E+01  2.2206932E+01
 1.1195251E+01  2.2168737E+01
 1.1206751E+01  2.2189106E+01
 1.1218250E+01  2.2199114E+01
 1.1229751E+01  2.2155512E+01
 1.1241251E+01  2.2159044E+01
 1.1252750E+01  2.2177353E+01
 1.1264251E+01  2.2193922E+01
 1.1275750E+01  2.2196424E+01
 1.1287251E+01  2.2152267E+01
 1.1298751E+01  2.2168854E+01
 1.1310250E+01  2.2174490E+01
 1.1321751E+01  2.2178480E+01
 1.1333251E+01  2.2130955E+01
 1.1344750E+01  2.2068327E+01
 1.1356251E+01  2.2039179E+01
 1.1367750E+01  2.2052025E+01
 1.1379251E+01  2.2069101E+01
 1.1390751E+01  2.2129198E+01
 1.1402250E+01  2.2274384E+01
 1.1413751E+01  2.2252501E+01
 1.1425251E+01  2.2284697E+01
 1.1436750E+01  2.2238621E+01
 1.1448251E+01  2.2287806E+01
 1.1459750E+01  2.2289009E+01
 1.1471251E+01  2.2249771E+01
 1.1482751E+01  2.2216301E+01
 1.1494250E+01  2.2206516E+01
 1.1505751E+01  2.2175465E+01
 1.1517251E+01  2.2293789E+01
 1.1528750E+01  2.2319220E+01
 1.1540251E+01  2.2459028E+01
 1.1551750E+01  2.2592144E+01
 1.1563251E+01  2.2829023E+01
 1.1574751E+01  2.2990295E+01
 1.1586250E+01  2.3201035E+01
 1.1597751E+01  2.3260303E+01
 1.1609251E+01  2.3301966E+01
 1.1620750E+01  2.3117832E+01
 1.1632251E+01  2.2968927E+01
 1.1643750E+01  2.2743786E+01
 1.1655251E+01  2.2611689E+01
 1.1666751E+01  2.2424751E+01
 1.1678250E+01  2.2337580E+01
 1.1689751E+01  2.2232674E+01
 1.1701251E+01  2.2185675E+01
 1.1712750E+01  2.2100822E+01
 1.1724251E+01  2.2046875E+01
 1.1735750E+01  2.2055145E+01
 1.1747251E+01  2.2131346E+01
 1.1758751E+01  2.2224115E+01
 1.1770250E+01  2.2246382E+01
 1.1781751E+01  2.2244965E+01
 1.1793251E+01  2.2180719E+01
 1.1804750E+01  2.2146181E+01
 1.1816251E+01  2.2137779E+01
 1.1827750E+01  2.2133345E+01
 1.1839251E+01  2.2138815E+01
 1.1850751E+01  2.2085838E+01
 1.1862250E+01  2.2066332E+01
 1.1873751E+01  2.2018347E+01
 1.1885251E+01  2.1968912E+01
 1.1896750E+01  2.2000086E+01
 1.1908251E+01  2.2053070E+01
 1.1919750E+01  2.2132708E+01
 1.1931251E+01  2.2188835E+01
 1.1942751E+01  2.2262169E+01
 1.1954250E+01  2.2330177E+01
 1.1965751E+01  2.2387842E+01
 1.1977251E+01  2.2360291E+01
 1.1988750E+01  2.2370146E+01
 1.2000251E+01  2.2301876E+01
 1.2011750E+01  2.2309851E+01
 1.2023251E+01  2.2256893E+01
 1.2034751E+01  2.2228014E+01
 1.2046250E+01  2.2232719E+01
 1.2057751E+01  2.2258680E+01
 1.2069251E+01  2.2344519E+01
 1.2080750E+01  2.2395960E+01
 1.2092251E+01  2.2478464E+01
 1.2103750E+01  2.2543066E+01
 1.2115251E+01  2.2598845E+01
 1.2126751E+01  2.2618959E+01
 1.2138250E+01  2.2576513E+01
 1.2149751E+01  2.2484516E+01
 1.2161251E+01  2.2413013E+01
 1.2172750E+01  2.2282539E+01
 1.2184251E+01  2.2245426E+01
 1.2195750E+01  2.2151993E+01
 1.2207251E+01  2.2147001E+01
 1.2218751E+01  2.2080420E+01
 1.2230250E+01  2.2064623E+01
 1.2241751E+01  2.2082788E+01
 1.2253251E+01  2.2136793E+01
 1.2264750E+01  2.2240650E+01
 1.2276251E+01  2.2269665E+01
 1.2287750E+01  2.2335808E+01
 1.2299251E+01  2.2664282E+01
 1.2310751E+01  2.2693367E+01
 1.2322250E+01  2.2621107E+01
 1.2333751E+01  2.2308891E+01
 1.2345250E+01  2.2320339E+01
 1.2356750E+01  2.2344851E+01
 1.2368251E+01  2.2314363E+01
 1.2379750E+01  2.2307653E+01
 1.2391251E+01  2.2248087E+01
 1.2402751E+01  2.2203796E+01
 1.2414250E+01  2.2116253E+01
 1.2425751E+01  2.2093876E+01
 1.2437250E+01  2.2122080E+01
 1.2448750E+01  2.2133207E+01
 1.2460251E+01  2.2205975E+01
 1.2471750E+01  2.2228565E+01
 1.2483251E+01  2.2309256E+01
 1.2494751E+01  2.2379564E+01
 1.2506250E+01  2.2355814E+01
 1.2517751E+01  2.2338608E+01
 1.2529250E+01  2.2348068E+01
 1.2540751E+01  2.2379864E+01
 1.2552251E+01  2.2404156E+01
 1.2563750E+01  2.2332285E+01
 1.2575251E+01  2.2310665E+01
 1.2586751E+01  2.2287514E+01
 1.2598250E+01  2.2305573E+01
 1.2609751E+01  2.2382320E+01
 1.2621250E+01  2.2458420E+01
 1.2632751E+01  2.2539230E+01
 1.2644251E+01  2.2500940E+01
 1.2655750E+01  2.2496231E+01
 1.2667251E+01  2.2484795E+01
 1.2678751E+01  2.2542517E+01
 1.2690250E+01  2.2599569E+01
 1.2701751E+01  2.2643562E+01
 1.2713250E+01  2.2757658E+01
 1.2724751E+01  2.2787613E+01
 1.2736251E+01  2.2777670E+01
 1.2747750E+01  2.2713966E+01
 1.2759251E+01  2.2720407E+01
 1.2770751E+01  2.2789793E+01
 1.2782250E+01  2.2844257E+01
 1.2793751E+01  2.2863781E+01
 1.2805250E+01  2.2910381E+01
 1.2816751E+01  2.2912853E+01
 1.2828251E+01  2.2962744E+01
 1.2839750E+01  2.2994236E+01
 1.2851251E+01  2.3068136E+01
 1.2862751E+01  2.3153795E+01
 1.2874250E+01  2.3198534E+01
 1.2885751E+01  2.3214050E+01
 1.2897250E+01  2.3177292E+01
 1.2908751E+01  2.3202599E+01
 1.2920251E+01  2.3232609E+01
 1.2931750E+01  2.3275944E+01
 1.2943251E+01  2.3324549E+01
 1.2954751E+01  2.3415285E+01
 1.2966250E+01  2.3510462E+01
 1.2977751E+01  2.3603035E+01
 1.2989250E+01  2.3655760E+01
 1.3000751E+01  2.3690912E+01
 1.3012251E+01  2.3719410E+01
 1.3023750E+01  2.3773903E+01
 1.3035251E+01  2.3869459E+01
 1.3046751E+01  2.3929117E+01
 1.3058250E+01  2.4039450E+01
 1.3069751E+01  2.4066240E+01
 1.3081250E+01  2.4199091E+01
 1.3092751E+01  2.4325850E+01
 1.3104251E+01  2.4499311E+01
 1.3115750E+01  2.4609451E+01
 1.3127251E+01  2.4651974E+01
 1.3138751E+01  2.4698500E+01
 1.3150250E+01  2.4749828E+01
 1.3161751E+01  2.4845387E+01
 1.3173250E+01  2.4984459E+01
 1.3184751E+01  2.5074009E+01
 1.3196251E+01  2.5201920E+01
 1.3207750E+01  2.5328627E+01
 1.3219251E+01  2.5528908E+01
 1.3230751E+01  2.5723351E+01
 1.3242250E+01  2.5894056E+01
 1.3253751E+01  2.6053392E+01
 1.3265250E+01  2.6227180E+01
 1.3276751E+01  2.6366077E+01
 1.3288251E+01  2.6544100E+01
 1.3299750E+01  2.6674873E+01
 1.3311251E+01  2.6799393E+01
 1.3322751E+01  2.6904356E+01
 1.3334250E+01  2.7095346E+01
 1.3345751E+01  2.7291735E+01
 1.3357250E+01  2.7450104E+01
 1.3368751E+01  2.7522173E+01
 1.3380251E+01  2.7628323E+01
 1.3391750E+01  2.7747581E+01
 1.3403251E+01  2.7903955E+01
 1.3414751E+01  2.8079721E+01
 1.3426250E+01  2.8189735E+01
 1.3437751E+01  2.8309021E+01
 1.3449250E+01  2.8394781E+01
 1.3460751E+01  2.8530565E+01
 1.3472251E+01  2.8582949E+01
 1.3483750E+01  2.8735207E+01
 1.3495251E+01  2.8765835E+01
 1.3506751E+01  2.8843855E+01
 1.3518250E+01  2.8839912E+01
 1.3529751E+01  2.8904625E+01
 1.3541250E+01  2.8968683E+01
 1.3552751E+01  2.9008333E+01
 1.3564251E+01  2.9052734E+01
 1.3575750E+01  2.9101925E+01
 1.3587251E+01  2.9132673E+01
 1.3598751E+01  2.9185946E+01
 1.3610250E+01  2.9228590E+01
 1.3621751E+01  2.9278364E+01
 1.3633250E+01  2.9300997E+01
 1.3644751E+01  2.9288521E+01
 1.3656251E+01  2.9278383E+01
 1.3667750E+01  2.9343819E+01
 1.3679251E+01  2.9334747E+01
 1.3690751E+01  2.9306610E+01
 1.3702250E+01  2.9163616E+01
 1.3713751E+01  2.9037895E+01
 1.3725250E+01  2.8929319E+01
 1.3736751E+01  2.8880386E+01
 1.3748251E+01  2.8856037E+01
 1.3759750E+01  2.8871220E+01
 1.3771251E+01  2.8871895E+01
 1.3782751E+01  2.8868010E+01
 1.3794250E+01  2.8814014E+01
 1.3805751E+01  2.8730518E+01
 1.3817250E+01  2.8611141E+01
 1.3828751E+01  2.8485806E+01
 1.3840251E+01  2.8376699E+01
 1.3851750E+01  2.8368820E+01
 1.3863251E+01  2.8376287E+01
 1.3874751E+01  2.8383802E+01
 1.3886250E+01  2.8405634E+01
 1.3897751E+01  2.8618570E+01
 1.3909250E+01  2.8838507E+01
 1.3920751E+01  2.9483269E+01
 1.3932251E+01  2.9824131E+01
 1.3943750E+01  3.0137873E+01
 1.3955251E+01  3.0742329E+01
 1.3966751E+01  3.0603907E+01
 1.3978251E+01  3.0432167E+01
 1.3989751E+01  2.9340546E+01
 1.4001250E+01  2.8846296E+01
 1.4012751E+01  2.8168047E+01
 1.4024251E+01  2.7633730E+01
 1.4035750E+01  2.7411715E+01
 1.4047251E+01  2.7248201E+01
 1.4058751E+01  2.7228872E+01
 1.4070251E+01  2.7230068E+01
 1.4081751E+01  2.7156618E+01
 1.4093250E+01  2.7000145E+01
 1.4104751E+01  2.6856895E+01
 1.4116251E+01  2.6702244E+01
 1.4127750E+01  2.6690250E+01
 1.4139251E+01  2.6624311E+01
 1.4150751E+01  2.6606041E+01
 1.4162251E+01  2.6546507E+01
 1.4173751E+01  2.6504274E+01
 1.4185250E+01  2.6471460E+01
 1.4196751E+01  2.6411219E+01
 1.4208251E+01  2.6376102E+01
 1.4219750E+01  2.6275440E+01
 1.4231251E+01  2.6164330E+01
 1.4242751E+01  2.6043016E+01
 1.4254251E+01  2.5978363E+01
 1.4265751E+01  2.5966455E+01
 1.4277250E+01  2.5954311E+01
 1.4288751E+01  2.6004215E+01
 1.4300251E+01  2.5978960E+01
 1.4311750E+01  2.5943983E+01
 1.4323251E+01  2.5874119E+01
 1.4334751E+01  2.5833456E+01
 1.4346251E+01  2.5838428E+01
 1.4357751E+01  2.5756214E+01
 1.4369250E+01  2.5740074E+01
 1.4380751E+01  2.5672092E+01
 1.4392251E+01  2.5673723E+01
 1.4403750E+01  2.5579950E+01
 1.4415251E+01  2.5535196E+01
 1.4426751E+01  2.5522144E+01
 1.4438251E+01  2.5448095E+01
 1.4449751E+01  2.5358559E+01
 1.4461250E+01  2.5239994E+01
 1.4472751E+01  2.5223526E+01
 1.4484251E+01  2.5191965E+01
 1.4495750E+01  2.5229115E+01
 1.4507251E+01  2.5234272E+01
 1.4518751E+01  2.5236668E+01
 1.4530251E+01  2.5158278E+01
 1.4541751E+01  2.5242229E+01
 1.4553250E+01  2.5332186E+01
 1.4564751E+01  2.5403761E+01
 1.4576251E+01  2.5577080E+01
 1.4587750E+01  2.5481050E+01
 1.4599251E+01  2.5329086E+01
 1.4610751E+01  2.4986105E+01
 1.4622251E+01  2.4957312E+01
 1.4633751E+01  2.4935423E+01
 1.4645250E+01  2.4925013E+01
 1.4656751E+01  2.4880619E+01
 1.4668251E+01  2.4899673E+01
 1.4679750E+01  2.4870943E+01
 1.4691251E+01  2.4923218E+01
 1.4702751E+01  2.4929419E+01
 1.4714251E+01  2.4885679E+01
 1.4725751E+01  2.4817282E+01
 1.4737250E+01  2.4724258E+01
 1.4748751E+01  2.4708973E+01
 1.4760251E+01  2.4649080E+01
 1.4771750E+01  2.4694563E+01
 1.4783251E+01  2.4675920E+01
 1.4794751E+01  2.4710136E+01
 1.4806251E+01  2.4673801E+01
 1.4817751E+01  2.4619850E+01
 1.4829250E+01  2.4544912E+01
 1.4840751E+01  2.4529095E+01
 1.4852251E+01  2.4564499E+01
 1.4863750E+01  2.4535231E+01
 1.4875251E+01  2.4534304E+01
 1.4886751E+01  2.4578726E+01
 1.4898251E+01  2.4713863E+01
 1.4909751E+01  2.4807091E+01
 1.4921250E+01  2.4811827E+01
 1.4932751E+01  2.4767248E+01
 1.4944251E+01  2.4681438E+01
 1.4955750E+01  2.4606005E+01
 1.4967251E+01  2.4523827E+01
 1.4978751E+01  2.4459057E+01
 1.4990251E+01  2.4422535E+01
 1.5001751E+01  2.4380175E+01
 1.5013250E+01  2.4362253E+01
 1.5024751E+01  2.4374884E+01
 1.5036251E+01  2.4370054E+01
 1.5047750E+01  2.4381117E+01
 1.5059251E+01  2.4412575E+01
 1.5070751E+01  2.4411016E+01
 1.5082251E+01  2.4426193E+01
 1.5093751E+01  2.4413481E+01
 1.5105250E+01  2.4484871E+01
 1.5116751E+01  2.4500328E+01
 1.5128251E+01  2.4514269E+01
 1.5139750E+01  2.4551199E+01
 1.5151251E+01  2.4681017E+01
 1.5162751E+01  2.4771467E+01
 1.5174251E+01  2.4881866E+01
 1.5185751E+01  2.4863991E+01
 1.5197250E+01  2.4835751E+01
 1.5208751E+01  2.4726229E+01
 1.5220251E+01  2.4618431E+01
 1.5231750E+01  2.4508801E+01
 1.5243251E+01  2.4329372E+01
 1.5254751E+01  2.4216759E+01
 1.5266251E+01  2.4049891E+01
 1.5277751E+01  2.4004417E+01
 1.5289250E+01  2.3984058E+01
 1.5300751E+01  2.4034193E+01
 1.5312251E+01  2.4102306E+01
 1.5323750E+01  2.4126816E+01
 1.5335251E+01  2.4119936E+01
 1.5346751E+01  2.4087732E+01
 1.5358251E+01  2.4075855E+01
 1.5369751E+01  2.4099251E+01
 1.5381250E+01  2.4138144E+01
 1.5392751E+01  2.4166496E+01
 1.5404251E+01  2.4193499E+01
 1.5415751E+01  2.4140369E+01
 1.5427251E+01  2.4137503E+01
 1.5438751E+01  2.4109238E+01
 1.5450251E+01  2.4138357E+01
 1.5461751E+01  2.4129736E+01
 1.5473250E+01  2.4116646E+01
 1.5484751E+01  2.4133101E+01
 1.5496251E+01  2.4120039E+01
 1.5507751E+01  2.4107950E+01
 1.5519251E+01  2.4084711E+01
 1.5530751E+01  2.4081915E+01
 1.5542251E+01  2.4094696E+01
 1.5553751E+01  2.4083969E+01
 1.5565250E+01  2.4107286E+01
 1.5576751E+01  2.4113800E+01
 1.5588251E+01  2.4175257E+01
 1.5599751E+01  2.4163839E+01
 1.5611251E+01  2.4162447E+01
 1.5622751E+01  2.4127434E+01
 1.5634251E+01  2.4135586E+01
 1.5645751E+01  2.4155523E+01
 1.5657250E+01  2.4201437E+01
 1.5668751E+01  2.4266512E+01
 1.5680251E+01  2.4335453E+01
 1.5691751E+01  2.4319859E+01
 1.5703251E+01  2.4342506E+01
 1.5714751E+01  2.4277349E+01
 1.5726251E+01  2.4232462E+01
 1.5737751E+01  2.4160223E+01
 1.5749250E+01  2.4166372E+01
 1.5760751E+01  2.4205317E+01
 1.5772251E+01  2.4239483E+01
 1.5783751E+01  2.4201649E+01
 1.5795251E+01  2.4188551E+01
 1.5806751E+01  2.4157578E+01
 1.5818251E+01  2.4157845E+01
 1.5829751E+01  2.4133726E+01
 1.5841250E+01  2.4123011E+01
 1.5852751E+01  2.4179161E+01
 1.5864251E+01  2.4161150E+01
 1.5875751E+01  2.4294594E+01
 1.5887251E+01  2.4363710E+01
 1.5898750E+01  2.4427425E+01
 1.5910251E+01  2.4322599E+01
 1.5921751E+01  2.4255671E+01
 1.5933250E+01  2.4207096E+01
 1.5944751E+01  2.4118435E+01
 1.5956251E+01  2.4066597E+01
 1.5967751E+01  2.4062233E+01
 1.5979251E+01  2.4088083E+01
 1.5990750E+01  2.4154434E+01
 1.6002251E+01  2.4155582E+01
 1.6013750E+01  2.4167305E+01
 1.6025251E+01  2.4160765E+01
 1.6036751E+01  2.4210962E+01
 1.6048250E+01  2.4257952E+01
 1.6059752E+01  2.4379181E+01
 1.6071251E+01  2.4436852E+01
 1.6082750E+01  2.4502882E+01
 1.6094252E+01  2.4392458E+01
 1.6105751E+01  2.4447775E+01
 1.6117250E+01  2.4437698E+01
 1.6128750E+01  2.4456438E+01
 1.6140251E+01  2.4477934E+01
 1.6151751E+01  2.4563452E+01
 1.6163250E+01  2.4597672E+01
 1.6174751E+01  2.4536835E+01
 1.6186251E+01  2.4544886E+01
 1.6197750E+01  2.4480782E+01
 1.6209251E+01  2.4600094E+01
 1.6220751E+01  2.4527596E+01
 1.6232250E+01  2.4593700E+01
 1.6243752E+01  2.4538622E+01
 1.6255251E+01  2.4663721E+01
 1.6266750E+01  2.4822720E+01
 1.6278252E+01  2.4826426E+01
 1.6289751E+01  2.4906769E+01
 1.6301250E+01  2.4677610E+01
 1.6312750E+01  2.4758274E+01
 1.6324251E+01  2.4531780E+01
 1.6335751E+01  2.4568926E+01
 1.6347250E+01  2.4415939E+01
 1.6358751E+01  2.4450048E+01
 1.6370251E+01  2.4377125E+01
 1.6381750E+01  2.4384207E+01
 1.6393251E+01  2.4364616E+01
 1.6404751E+01  2.4348495E+01
 1.6416250E+01  2.4347328E+01
 1.6427752E+01  2.4318584E+01
 1.6439251E+01  2.4352827E+01
 1.6450750E+01  2.4303421E+01
 1.6462252E+01  2.4362696E+01
 1.6473751E+01  2.4363808E+01
 1.6485250E+01  2.4451559E+01
 1.6496750E+01  2.4457163E+01
 1.6508251E+01  2.4499912E+01
 1.6519751E+01  2.4426764E+01
 1.6531250E+01  2.4362457E+01
 1.6542751E+01  2.4282894E+01
 1.6554251E+01  2.4253317E+01
 1.6565750E+01  2.4234238E+01
 1.6577251E+01  2.4243702E+01
 1.6588751E+01  2.4264124E+01
 1.6600250E+01  2.4303429E+01
 1.6611752E+01  2.4343493E+01
 1.6623251E+01  2.4281422E+01
 1.6634750E+01  2.4267601E+01
 1.6646252E+01  2.4199039E+01
 1.6657751E+01  2.4156805E+01
 1.6669250E+01  2.4147177E+01
 1.6680750E+01  2.4172867E+01
 1.6692251E+01  2.4262640E+01
 1.6703751E+01  2.4236181E+01
 1.6715250E+01  2.4262609E+01
 1.6726751E+01  2.4172377E+01
 1.6738251E+01  2.4214724E+01
 1.6749750E+01  2.4175425E+01
 1.6761251E+01  2.4186934E+01
 1.6772751E+01  2.4145155E+01
 1.6784250E+01  2.4104877E+01
 1.6795752E+01  2.4097918E+01
 1.6807251E+01  2.4084940E+01
 1.6818750E+01  2.4123890E+01
 1.6830252E+01  2.4107018E+01
 1.6841751E+01  2.4104612E+01
 1.6853251E+01  2.4066069E+01
 1.6864750E+01  2.3997387E+01
 1.6876251E+01  2.3951975E+01
 1.6887751E+01  2.3911699E+01
 1.6899250E+01  2.3958277E+01
 1.6910751E+01  2.3935991E+01
 1.6922251E+01  2.3920977E+01
 1.6933750E+01  2.3877056E+01
 1.6945251E+01  2.3874344E+01
 1.6956751E+01  2.3879618E+01
 1.6968250E+01  2.3909756E+01
 1.6979752E+01  2.3938053E+01
 1.6991251E+01  2.3956841E+01
 1.7002750E+01  2.3905540E+01
 1.7014252E+01  2.3922668E+01
 1.7025751E+01  2.3911537E+01
 1.7037251E+01  2.3884487E+01
 1.7048750E+01  2.3807360E+01
 1.7060251E+01  2.3815069E+01
 1.7071751E+01  2.3828213E+01
 1.7083250E+01  2.3861355E+01
 1.7094751E+01  2.3833521E+01
 1.7106251E+01  2.3799730E+01
 1.7117750E+01  2.3825001E+01
 1.7129251E+01  2.3849714E+01
 1.7140751E+01  2.3859123E+01
 1.7152250E+01  2.3808744E+01
 1.7163752E+01  2.3797617E+01
 1.7175251E+01  2.3792326E+01
 1.7186750E+01  2.3808966E+01
 1.7198252E+01  2.3870701E+01
 1.7209751E+01  2.3899014E+01
 1.7221251E+01  2.3861828E+01
 1.7232750E+01  2.3796465E+01
 1.7244251E+01  2.3756159E+01
 1.7255751E+01  2.3758820E+01
 1.7267250E+01  2.3768467E+01
 1.7278751E+01  2.3745548E+01
 1.7290251E+01  2.3713200E+01
 1.7301750E+01  2.3684031E+01
 1.7313251E+01  2.3645426E+01
 1.7324751E+01  2.3612122E+01
 1.7336250E+01  2.3622761E+01
 1.7347752E+01  2.3690081E+01
 1.7359251E+01  2.3739048E+01
 1.7370750E+01  2.3723303E+01
 1.7382252E+01  2.3645071E+01
 1.7393751E+01  2.3599489E+01
 1.7405251E+01  2.3557302E+01
 1.7416750E+01  2.3533218E+01
 1.7428251E+01  2.3481733E+01
 1.7439751E+01  2.3493090E+01
 1.7451250E+01  2.3524099E+01
 1.7462751E+01  2.3563108E+01
 1.7474251E+01  2.3619234E+01
 1.7485750E+01  2.3661385E+01
 1.7497252E+01  2.3692917E+01
 1.7508751E+01  2.3675486E+01
 1.7520250E+01  2.3662029E+01
 1.7531752E+01  2.3628265E+01
 1.7543251E+01  2.3588833E+01
 1.7554750E+01  2.3525742E+01
 1.7566252E+01  2.3510702E+01
 1.7577751E+01  2.3521549E+01
 1.7589251E+01  2.3494234E+01
 1.7600750E+01  2.3497034E+01
 1.7612251E+01  2.3466717E+01
 1.7623751E+01  2.3532742E+01
 1.7635250E+01  2.3497089E+01
 1.7646751E+01  2.3475805E+01
 1.7658251E+01  2.3444551E+01
 1.7669750E+01  2.3458088E+01
 1.7681252E+01  2.3486788E+01
 1.7692751E+01  2.3500694E+01
 1.7704250E+01  2.3483658E+01
 1.7715752E+01  2.3480127E+01
 1.7727251E+01  2.3412462E+01
 1.7738750E+01  2.3409693E+01
 1.7750252E+01  2.3436981E+01
 1.7761751E+01  2.3481239E+01
 1.7773251E+01  2.3541683E+01
 1.7784750E+01  2.3490484E+01
 1.7796251E+01  2.3477613E+01
 1.7807751E+01  2.3423729E+01
 1.7819250E+01  2.3475040E+01
 1.7830751E+01  2.3476200E+01
 1.7842251E+01  2.3459990E+01
 1.7853750E+01  2.3443851E+01
 1.7865252E+01  2.3445841E+01
 1.7876751E+01  2.3444317E+01
 1.7888250E+01  2.3403399E+01
 1.7899752E+01  2.3379564E+01
 1.7911251E+01  2.3363703E+01
 1.7922750E+01  2.3380234E+01
 1.7934252E+01  2.3355434E+01
 1.7945751E+01  2.3388348E+01
 1.7957251E+01  2.3365385E+01
 1.7968750E+01  2.3372856E+01
 1.7980251E+01  2.3379164E+01
 1.7991751E+01  2.3446054E+01
 1.8003250E+01  2.3500561E+01
 1.8014751E+01  2.3521162E+01
 1.8026251E+01  2.3532921E+01
 1.8037750E+01  2.3531250E+01
 1.8049252E+01  2.3529598E+01
 1.8060751E+01  2.3552010E+01
 1.8072250E+01  2.3620020E+01
 1.8083752E+01  2.3741901E+01
 1.8095251E+01  2.3834841E+01
 1.8106750E+01  2.3881269E+01
 1.8118252E+01  2.3840435E+01
 1.8129751E+01  2.3749182E+01
 1.8141251E+01  2.3590679E+01
 1.8152750E+01  2.3432709E+01
 1.8164251E+01  2.3337898E+01
 1.8175751E+01  2.3268105E+01
 1.8187250E+01  2.3201612E+01
 1.8198751E+01  2.3175961E+01
 1.8210251E+01  2.3174120E+01
 1.8221750E+01  2.3156046E+01
 1.8233252E+01  2.3108995E+01
 1.8244751E+01  2.3092495E+01
 1.8256250E+01  2.3124527E+01
 1.8267752E+01  2.3167437E+01
 1.8279251E+01  2.3191744E+01
 1.8290751E+01  2.3249271E+01
 1.8302252E+01  2.3256723E+01
 1.8313751E+01  2.3277184E+01
 1.8325251E+01  2.3201584E+01
 1.8336750E+01  2.3201332E+01
 1.8348251E+01  2.3202532E+01
 1.8359751E+01  2.3253464E+01
 1.8371250E+01  2.3237600E+01
 1.8382751E+01  2.3239441E+01
 1.8394251E+01  2.3226948E+01
 1.8405750E+01  2.3254438E+01
 1.8417252E+01  2.3248762E+01
 1.8428751E+01  2.3245989E+01
 1.8440250E+01  2.3237001E+01
 1.8451752E+01  2.3209051E+01
 1.8463251E+01  2.3228464E+01
 1.8474751E+01  2.3251854E+01
 1.8486252E+01  2.3268572E+01
 1.8497751E+01  2.3276377E+01
 1.8509251E+01  2.3248243E+01
 1.8520750E+01  2.3204973E+01
 1.8532251E+01  2.3199631E+01
 1.8543751E+01  2.3171181E+01
 1.8555250E+01  2.3182043E+01
 1.8566751E+01  2.3135590E+01
 1.8578251E+01  2.3171774E+01
 1.8589750E+01  2.3156925E+01
 1.8601252E+01  2.3151054E+01
 1.8612751E+01  2.3176823E+01
 1.8624250E+01  2.3181339E+01
 1.8635752E+01  2.3239210E+01
 1.8647251E+01  2.3226152E+01
 1.8658751E+01  2.3205408E+01
 1.8670252E+01  2.3125797E+01
 1.8681751E+01  2.3135164E+01
 1.8693251E+01  2.3158796E+01
 1.8704750E+01  2.3175722E+01
 1.8716251E+01  2.3125351E+01
 1.8727751E+01  2.3126032E+01
 1.8739250E+01  2.3070574E+01
 1.8750751E+01  2.3076359E+01
 1.8762251E+01  2.3056183E+01
 1.8773750E+01  2.3104273E+01
 1.8785252E+01  2.3173546E+01
 1.8796751E+01  2.3210390E+01
 1.8808250E+01  2.3209051E+01
 1.8819752E+01  2.3172682E+01
 1.8831251E+01  2.3169643E+01
 1.8842751E+01  2.3134481E+01
 1.8854252E+01  2.3082527E+01
 1.8865751E+01  2.3059649E+01
 1.8877251E+01  2.3080675E+01
 1.8888750E+01  2.3089794E+01
 1.8900251E+01  2.3095129E+01
 1.8911751E+01  2.3109396E+01
 1.8923250E+01  2.3176474E+01
 1.8934752E+01  2.3188396E+01
 1.8946251E+01  2.3237185E+01
 1.8957750E+01  2.3239769E+01
 1.8969252E+01  2.3211618E+01
 1.8980751E+01  2.3125725E+01
 1.8992250E+01  2.3057449E+01
 1.9003752E+01  2.3057720E+01
 1.9015251E+01  2.3068708E+01
 1.9026751E+01  2.3094511E+01
 1.9038252E+01  2.3093599E+01
 1.9049751E+01  2.3095751E+01
 1.9061251E+01  2.3151632E+01
 1.9072750E+01  2.3187090E+01
 1.9084251E+01  2.3204514E+01
 1.9095751E+01  2.3166859E+01
 1.9107250E+01  2.3146427E+01
 1.9118752E+01  2.3122284E+01
 1.9130251E+01  2.3153412E+01
 1.9141750E+01  2.3148586E+01
 1.9153252E+01  2.3137888E+01
 1.9164751E+01  2.3086264E+01
 1.9176250E+01  2.3050928E+01
 1.9187752E+01  2.3072372E+01
 1.9199251E+01  2.3071243E+01
 1.9210751E+01  2.3082895E+01
 1.9222252E+01  2.3074661E+01
 1.9233751E+01  2.3057608E+01
 1.9245251E+01  2.3097237E+01
 1.9256750E+01  2.3148149E+01
 1.9268251E+01  2.3145252E+01
 1.9279751E+01  2.3110043E+01
 1.9291250E+01  2.3085266E+01
 1.9302752E+01  2.3126886E+01
 1.9314251E+01  2.3111809E+01
 1.9325750E+01  2.3088387E+01
 1.9337252E+01  2.3067423E+01
 1.9348751E+01  2.3086117E+01
 1.9360250E+01  2.3111609E+01
 1.9371752E+01  2.3133450E+01
 1.9383251E+01  2.3165588E+01
 1.9394751E+01  2.3200975E+01
 1.9406250E+01  2.3184774E+01
 1.9417751E+01  2.3152060E+01
 1.9429251E+01  2.3127533E+01
 1.9440750E+01  2.3118835E+01
 1.9452251E+01  2.3245775E+01
 1.9463751E+01  2.3386061E+01
 1.9475250E+01  2.3449455E+01
 1.9486752E+01  2.3322813E+01
 1.9498251E+01  2.3213835E+01
 1.9509750E+01  2.3160067E+01
 1.9521252E+01  2.3185181E+01
 1.9532751E+01  2.3209465E+01
 1.9544250E+01  2.3251301E+01
 1.9555752E+01  2.3241808E+01
 1.9567251E+01  2.3270931E+01
 1.9578751E+01  2.3266586E+01
 1.9590250E+01  2.3245588E+01
 1.9601751E+01  2.3203428E+01
 1.9613251E+01  2.3183298E+01
 1.9624750E+01  2.3181379E+01
 1.9636251E+01  2.3243967E+01
 1.9647751E+01  2.3282341E+01
 1.9659250E+01  2.3463623E+01
 1.9670752E+01  2.3505632E+01
 1.9682251E+01  2.3629045E+01
 1.9693750E+01  2.3722437E+01
 1.9705252E+01  2.3808487E+01
 1.9716751E+01  2.3834408E+01
 1.9728251E+01  2.3744631E+01
 1.9739752E+01  2.3672247E+01
 1.9751251E+01  2.3617466E+01
 1.9762751E+01  2.3617344E+01
 1.9774250E+01  2.3578403E+01
 1.9785751E+01  2.3516291E+01
 1.9797251E+01  2.3483631E+01
 1.9808750E+01  2.3489021E+01
 1.9820251E+01  2.3505890E+01
 1.9831751E+01  2.3622099E+01
 1.9843250E+01  2.3664398E+01
 1.9854752E+01  2.3750042E+01
 1.9866251E+01  2.3732206E+01
 1.9877750E+01  2.3702700E+01
 1.9889252E+01  2.3605902E+01
 1.9900751E+01  2.3590477E+01
 1.9912251E+01  2.3559282E+01
 1.9923752E+01  2.3466032E+01
 1.9935251E+01  2.3378159E+01
 1.9946751E+01  2.3332552E+01
 1.9958250E+01  2.3284908E+01
 1.9969751E+01  2.3297495E+01
 1.9981251E+01  2.3298468E+01
 1.9992750E+01  2.3280165E+01
 2.0004251E+01  2.3263557E+01
 2.0015751E+01  2.3224014E+01
 2.0027250E+01  2.3238211E+01
 2.0038752E+01  2.3268871E+01
 2.0050251E+01  2.3343285E+01
 2.0061750E+01  2.3304686E+01
 2.0073252E+01  2.3298923E+01
 2.0084751E+01  2.3278713E+01
 2.0096251E+01  2.3266876E+01
 2.0107752E+01  2.3181614E+01
 2.0119251E+01  2.3171810E+01
 2.0130751E+01  2.3150620E+01
 2.0142250E+01  2.3193781E+01
 2.0153751E+01  2.3207188E+01
 2.0165251E+01  2.3242105E+01
 2.0176750E+01  2.3287870E+01
 2.0188251E+01  2.3322783E+01
 2.0199751E+01  2.3358139E+01
 2.0211250E+01  2.3320158E+01
 2.0222752E+01  2.3319557E+01
 2.0234251E+01  2.3307678E+01
 2.0245750E+01  2.3269039E+01
 2.0257252E+01  2.3193914E+01
 2.0268751E+01  2.3171396E+01
 2.0280251E+01  2.3217354E+01
 2.0291752E+01  2.3278124E+01
 2.0303251E+01  2.3210447E+01
 2.0314751E+01  2.3160707E+01
 2.0326250E+01  2.3136557E+01
 2.0337751E+01  2.3173712E+01
 2.0349251E+01  2.3189615E+01
 2.0360750E+01  2.3265146E+01
 2.0372252E+01  2.3326334E+01
 2.0383751E+01  2.3372690E+01
 2.0395250E+01  2.3366449E+01
 2.0406752E+01  2.3426624E+01
 2.0418251E+01  2.3493607E+01
 2.0429750E+01  2.3556244E+01
 2.0441252E+01  2.3539860E+01
 2.0452751E+01  2.3483431E+01
 2.0464251E+01  2.3413610E+01
 2.0475752E+01  2.3355776E+01
 2.0487251E+01  2.3347273E+01
 2.0498751E+01  2.3336838E+01
 2.0510250E+01  2.3324230E+01
 2.0521751E+01  2.3247959E+01
 2.0533251E+01  2.3330849E+01
 2.0544750E+01  2.3346247E+01
 2.0556252E+01  2.3500811E+01
 2.0567751E+01  2.3456455E+01
 2.0579250E+01  2.3462984E+01
 2.0590752E+01  2.3392448E+01
 2.0602251E+01  2.3414120E+01
 2.0613750E+01  2.3426167E+01
 2.0625252E+01  2.3426163E+01
 2.0636751E+01  2.3416534E+01
 2.0648251E+01  2.3408922E+01
 2.0659752E+01  2.3383585E+01
 2.0671251E+01  2.3430876E+01
 2.0682751E+01  2.3521431E+01
 2.0694250E+01  2.3550591E+01
 2.0705751E+01  2.3682400E+01
 2.0717251E+01  2.3744848E+01
 2.0728750E+01  2.3792353E+01
 2.0740252E+01  2.3738504E+01
 2.0751751E+01  2.3818434E+01
 2.0763250E+01  2.3852367E+01
 2.0774752E+01  2.3837605E+01
 2.0786251E+01  2.3777802E+01
 2.0797750E+01  2.3697899E+01
 2.0809252E+01  2.3620335E+01
 2.0820751E+01  2.3548830E+01
 2.0832251E+01  2.3550625E+01
 2.0843752E+01  2.3542421E+01
 2.0855251E+01  2.3535954E+01
 2.0866751E+01  2.3504560E+01
 2.0878250E+01  2.3500177E+01
 2.0889751E+01  2.3510498E+01
 2.0901251E+01  2.3534208E+01
 2.0912750E+01  2.3532030E+01
 2.0924252E+01  2.3548216E+01
 2.0935751E+01  2.3499748E+01
 2.0947250E+01  2.3499187E+01
 2.0958752E+01  2.3456221E+01
 2.0970251E+01  2.3492430E+01
 2.0981750E+01  2.3506514E+01
 2.0993252E+01  2.3527802E+01
 2.1004751E+01  2.3501753E+01
 2.1016251E+01  2.3444740E+01
 2.1027752E+01  2.3432213E+01
 2.1039251E+01  2.3397243E+01
 2.1050751E+01  2.3389597E+01
 2.1062250E+01  2.3402412E+01
 2.1073751E+01  2.3450405E+01
 2.1085251E+01  2.3457624E+01
 2.1096750E+01  2.3425198E+01
 2.1108252E+01  2.3447205E+01
 2.1119751E+01  2.3528368E+01
 2.1131250E+01  2.3583933E+01
 2.1142752E+01  2.3579405E+01
 2.1154251E+01  2.3514751E+01
 2.1165751E+01  2.3476763E+01
 2.1177252E+01  2.3488777E+01
 2.1188751E+01  2.3559710E+01
 2.1200251E+01  2.3571348E+01
 2.1211752E+01  2.3588863E+01
 2.1223251E+01  2.3582146E+01
 2.1234751E+01  2.3588167E+01
 2.1246250E+01  2.3610123E+01
 2.1257751E+01  2.3614065E+01
 2.1269251E+01  2.3619547E+01
 2.1280750E+01  2.3563662E+01
 2.1292252E+01  2.3559343E+01
 2.1303751E+01  2.3515444E+01
 2.1315250E+01  2.3518906E+01
 2.1326752E+01  2.3536774E+01
 2.1338251E+01  2.3591808E+01
 2.1349751E+01  2.3540863E+01
 2.1361252E+01  2.3490437E+01
 2.1372751E+01  2.3471258E+01
 2.1384251E+01  2.3508774E+01
 2.1395752E+01  2.3569193E+01
 2.1407251E+01  2.3613699E+01
 2.1418751E+01  2.3641726E+01
 2.1430250E+01  2.3628765E+01
 2.1441751E+01  2.3596613E+01
 2.1453251E+01  2.3580545E+01
 2.1464750E+01  2.3555815E+01
 2.1476252E+01  2.3520672E+01
 2.1487751E+01  2.3576786E+01
 2.1499250E+01  2.3618061E+01
 2.1510752E+01  2.3664421E+01
 2.1522251E+01  2.3667583E+01
 2.1533751E+01  2.3694866E+01
 2.1545252E+01  2.3733904E+01
 2.1556751E+01  2.3778774E+01
 2.1568251E+01  2.3749935E+01
 2.1579752E+01  2.3744579E+01
 2.1591251E+01  2.3748823E+01
 2.1602751E+01  2.3767902E+01
 2.1614250E+01  2.3718624E+01
 2.1625751E+01  2.3740414E+01
 2.1637251E+01  2.3774279E+01
 2.1648750E+01  2.3816519E+01
 2.1660252E+01  2.3808159E+01
 2.1671751E+01  2.3767868E+01
 2.1683250E+01  2.3738899E+01
 2.1694752E+01  2.3713097E+01
 2.1706251E+01  2.3718435E+01
 2.1717751E+01  2.3703478E+01
 2.1729252E+01  2.3711311E+01
 2.1740751E+01  2.3719761E+01
 2.1752251E+01  2.3718443E+01
 2.1763752E+01  2.3681194E+01
 2.1775251E+01  2.3668318E+01
 2.1786751E+01  2.3660137E+01
 2.1798250E+01  2.3701122E+01
 2.1809752E+01  2.3736567E+01
 2.1821251E+01  2.3798784E+01
 2.1832750E+01  2.3751614E+01
 2.1844252E+01  2.3735483E+01
 2.1855751E+01  2.3761213E+01
 2.1867250E+01  2.3782194E+01
 2.1878752E+01  2.3798004E+01
 2.1890251E+01  2.3790525E+01
 2.1901751E+01  2.3832195E+01
 2.1913252E+01  2.3846340E+01
 2.1924751E+01  2.3940071E+01
 2.1936251E+01  2.3942698E+01
 2.1947752E+01  2.3973293E+01
 2.1959251E+01  2.3886730E+01
 2.1970751E+01  2.3862171E+01
 2.1982250E+01  2.3796497E+01
 2.1993752E+01  2.3789345E+01
 2.2005251E+01  2.3762133E+01
 2.2016750E+01  2.3853134E+01
 2.2028252E+01  2.3918909E+01
 2.2039751E+01  2.3906435E+01
 2.2051250E+01  2.3862749E+01
 2.2062752E+01  2.3870169E+01
 2.2074251E+01  2.3935701E+01
 2.2085751E+01  2.3916039E+01
 2.2097252E+01  2.3987238E+01
 2.2108751E+01  2.3975666E+01
 2.2120251E+01  2.4005808E+01
 2.2131752E+01  2.3958385E+01
 2.2143251E+01  2.3949331E+01
 2.2154751E+01  2.3971775E+01
 2.2166250E+01  2.3972219E+01
 2.2177752E+01  2.3947092E+01
 2.2189251E+01  2.3942368E+01
 2.2200750E+01  2.4000942E+01
 2.2212252E+01  2.4082996E+01
 2.2223751E+01  2.4133709E+01
 2.2235250E+01  2.4144253E+01
 2.2246752E+01  2.4132671E+01
 2.2258251E+01  2.4123487E+01
 2.2269751E+01  2.4124258E+01
 2.2281252E+01  2.4148815E+01
 2.2292751E+01  2.4127350E+01
 2.2304251E+01  2.4137562E+01
 2.2315752E+01  2.4146366E+01
 2.2327251E+01  2.4194151E+01
 2.2338751E+01  2.4192469E+01
 2.2350250E+01  2.4200083E+01
 2.2361752E+01  2.4157232E+01
 2.2373251E+01  2.4155729E+01
 2.2384750E+01  2.4151472E+01
 2.2396252E+01  2.4219200E+01
 2.2407751E+01  2.4262245E+01
 2.2419250E+01  2.4236320E+01
 2.2430752E+01  2.4264343E+01
 2.2442251E+01  2.4293444E+01
 2.2453751E+01  2.4343538E+01
 2.2465252E+01  2.4309990E+01
 2.2476751E+01  2.4278200E+01
 2.2488251E+01  2.4327299E+01
 2.2499752E+01  2.4420635E+01
 2.2511251E+01  2.4526865E+01
 2.2522751E+01  2.4569508E+01
 2.2534250E+01  2.4577105E+01
 2.2545752E+01  2.4574238E+01
 2.2557251E+01  2.4520922E+01
 2.2568750E+01  2.4500729E+01
 2.2580252E+01  2.4557137E+01
 2.2591751E+01  2.4574160E+01
 2.2603251E+01  2.4611317E+01
 2.2614752E+01  2.4622309E+01
 2.2626251E+01  2.4666862E+01
 2.2637751E+01  2.4661037E+01
 2.2649252E+01  2.4663727E+01
 2.2660751E+01  2.4674463E+01
 2.2672251E+01  2.4691996E+01
 2.2683752E+01  2.4700014E+01
 2.2695251E+01  2.4748083E+01
 2.2706751E+01  2.4743320E+01
 2.2718250E+01  2.4749596E+01
 2.2729752E+01  2.4723101E+01
 2.2741251E+01  2.4751459E+01
 2.2752750E+01  2.4852089E+01
 2.2764252E+01  2.4968996E+01
 2.2775751E+01  2.4998184E+01
 2.2787251E+01  2.4945213E+01
 2.2798752E+01  2.4933874E+01
 2.2810251E+01  2.4967875E+01
 2.2821751E+01  2.5015013E+01
 2.2833252E+01  2.5062414E+01
 2.2844751E+01  2.5079678E+01
 2.2856251E+01  2.5134460E+01
 2.2867750E+01  2.5227076E+01
 2.2879251E+01  2.5295301E+01
 2.2890751E+01  2.5337248E+01
 2.2902250E+01  2.5349003E+01
 2.2913752E+01  2.5427057E+01
 2.2925251E+01  2.5482384E+01
 2.2936750E+01  2.5503519E+01
 2.2948252E+01  2.5511377E+01
 2.2959751E+01  2.5517439E+01
 2.2971251E+01  2.5655270E+01
 2.2982752E+01  2.5760683E+01
 2.2994251E+01  2.5885004E+01
