F:\20151113_APS_34IDE\\Brian\Particle1\OCV\Data_0029.tif
2-Theta Angle (Degrees)
Intensity
       2000
 5.7500005E-03  0.0000000E+00
 1.7250001E-02  0.0000000E+00
 2.8750001E-02  0.0000000E+00
 4.0250003E-02  0.0000000E+00
 5.1750004E-02  0.0000000E+00
 6.3250005E-02  0.0000000E+00
 7.4750006E-02  0.0000000E+00
 8.6250007E-02  0.0000000E+00
 9.7750008E-02  0.0000000E+00
 1.0925001E-01  0.0000000E+00
 1.2075000E-01  0.0000000E+00
 1.3225001E-01  0.0000000E+00
 1.4375001E-01  0.0000000E+00
 1.5525001E-01  0.0000000E+00
 1.6675001E-01  0.0000000E+00
 1.7825001E-01  0.0000000E+00
 1.8975002E-01  0.0000000E+00
 2.0125002E-01  0.0000000E+00
 2.1275002E-01  0.0000000E+00
 2.2425000E-01  0.0000000E+00
 2.3575000E-01  0.0000000E+00
 2.4725001E-01  0.0000000E+00
 2.5875002E-01  0.0000000E+00
 2.7025002E-01  0.0000000E+00
 2.8175002E-01  0.0000000E+00
 2.9325002E-01  0.0000000E+00
 3.0475003E-01  0.0000000E+00
 3.1625003E-01  0.0000000E+00
 3.2775003E-01  0.0000000E+00
 3.3925003E-01  0.0000000E+00
 3.5075003E-01  0.0000000E+00
 3.6225003E-01  0.0000000E+00
 3.7375003E-01  0.0000000E+00
 3.8525003E-01  0.0000000E+00
 3.9675003E-01  0.0000000E+00
 4.0825003E-01  0.0000000E+00
 4.1975003E-01  0.0000000E+00
 4.3125004E-01  0.0000000E+00
 4.4275001E-01  0.0000000E+00
 4.5425001E-01  0.0000000E+00
 4.6575001E-01  0.0000000E+00
 4.7725001E-01  0.0000000E+00
 4.8875001E-01  0.0000000E+00
 5.0025004E-01  0.0000000E+00
 5.1175004E-01  0.0000000E+00
 5.2325004E-01  0.0000000E+00
 5.3475004E-01  0.0000000E+00
 5.4625005E-01  0.0000000E+00
 5.5775005E-01  0.0000000E+00
 5.6925005E-01  0.0000000E+00
 5.8075005E-01  0.0000000E+00
 5.9225005E-01  0.0000000E+00
 6.0375005E-01  0.0000000E+00
 6.1525005E-01  0.0000000E+00
 6.2675005E-01  0.0000000E+00
 6.3825005E-01  0.0000000E+00
 6.4975005E-01  0.0000000E+00
 6.6125005E-01  0.0000000E+00
 6.7275006E-01  0.0000000E+00
 6.8425006E-01  0.0000000E+00
 6.9575006E-01  0.0000000E+00
 7.0725006E-01  0.0000000E+00
 7.1875006E-01  0.0000000E+00
 7.3025006E-01  0.0000000E+00
 7.4175006E-01  0.0000000E+00
 7.5325006E-01  0.0000000E+00
 7.6475006E-01  0.0000000E+00
 7.7625006E-01  0.0000000E+00
 7.8775007E-01  0.0000000E+00
 7.9925007E-01  0.0000000E+00
 8.1075007E-01  0.0000000E+00
 8.2225007E-01  0.0000000E+00
 8.3375007E-01  0.0000000E+00
 8.4525007E-01  0.0000000E+00
 8.5675007E-01  0.0000000E+00
 8.6825007E-01  0.0000000E+00
 8.7975001E-01  0.0000000E+00
 8.9125001E-01  0.0000000E+00
 9.0275002E-01  0.0000000E+00
 9.1425002E-01  0.0000000E+00
 9.2575002E-01  0.0000000E+00
 9.3725002E-01  0.0000000E+00
 9.4875002E-01  0.0000000E+00
 9.6025002E-01  0.0000000E+00
 9.7175002E-01  0.0000000E+00
 9.8325002E-01  0.0000000E+00
 9.9475002E-01  0.0000000E+00
 1.0062500E+00  0.0000000E+00
 1.0177500E+00  0.0000000E+00
 1.0292500E+00  0.0000000E+00
 1.0407500E+00  0.0000000E+00
 1.0522500E+00  0.0000000E+00
 1.0637500E+00  0.0000000E+00
 1.0752500E+00  0.0000000E+00
 1.0867500E+00  0.0000000E+00
 1.0982500E+00  0.0000000E+00
 1.1097500E+00  0.0000000E+00
 1.1212500E+00  0.0000000E+00
 1.1327500E+00  0.0000000E+00
 1.1442500E+00  0.0000000E+00
 1.1557500E+00  0.0000000E+00
 1.1672500E+00  0.0000000E+00
 1.1787500E+00  0.0000000E+00
 1.1902500E+00  0.0000000E+00
 1.2017500E+00  0.0000000E+00
 1.2132500E+00  0.0000000E+00
 1.2247500E+00  0.0000000E+00
 1.2362500E+00  0.0000000E+00
 1.2477500E+00  0.0000000E+00
 1.2592500E+00  0.0000000E+00
 1.2707500E+00  0.0000000E+00
 1.2822500E+00  0.0000000E+00
 1.2937500E+00  0.0000000E+00
 1.3052500E+00  0.0000000E+00
 1.3167500E+00  0.0000000E+00
 1.3282501E+00  0.0000000E+00
 1.3397501E+00  0.0000000E+00
 1.3512501E+00  0.0000000E+00
 1.3627501E+00  0.0000000E+00
 1.3742501E+00  0.0000000E+00
 1.3857501E+00  0.0000000E+00
 1.3972501E+00  0.0000000E+00
 1.4087501E+00  0.0000000E+00
 1.4202501E+00  0.0000000E+00
 1.4317501E+00  0.0000000E+00
 1.4432501E+00  0.0000000E+00
 1.4547501E+00  0.0000000E+00
 1.4662501E+00  0.0000000E+00
 1.4777501E+00  0.0000000E+00
 1.4892501E+00  0.0000000E+00
 1.5007501E+00  0.0000000E+00
 1.5122501E+00  0.0000000E+00
 1.5237501E+00  0.0000000E+00
 1.5352501E+00  0.0000000E+00
 1.5467501E+00  0.0000000E+00
 1.5582501E+00  0.0000000E+00
 1.5697501E+00  0.0000000E+00
 1.5812501E+00  0.0000000E+00
 1.5927501E+00  0.0000000E+00
 1.6042501E+00  0.0000000E+00
 1.6157501E+00  0.0000000E+00
 1.6272501E+00  0.0000000E+00
 1.6387501E+00  0.0000000E+00
 1.6502501E+00  0.0000000E+00
 1.6617501E+00  0.0000000E+00
 1.6732501E+00  0.0000000E+00
 1.6847501E+00  0.0000000E+00
 1.6962501E+00  0.0000000E+00
 1.7077501E+00  0.0000000E+00
 1.7192501E+00  0.0000000E+00
 1.7307501E+00  0.0000000E+00
 1.7422501E+00  0.0000000E+00
 1.7537501E+00  0.0000000E+00
 1.7652501E+00  0.0000000E+00
 1.7767501E+00  0.0000000E+00
 1.7882501E+00  0.0000000E+00
 1.7997501E+00  0.0000000E+00
 1.8112501E+00  0.0000000E+00
 1.8227501E+00  0.0000000E+00
 1.8342501E+00  0.0000000E+00
 1.8457501E+00  0.0000000E+00
 1.8572501E+00  0.0000000E+00
 1.8687501E+00  0.0000000E+00
 1.8802501E+00  0.0000000E+00
 1.8917501E+00  0.0000000E+00
 1.9032501E+00  0.0000000E+00
 1.9147501E+00  0.0000000E+00
 1.9262501E+00  0.0000000E+00
 1.9377501E+00  0.0000000E+00
 1.9492501E+00  0.0000000E+00
 1.9607501E+00  0.0000000E+00
 1.9722501E+00  0.0000000E+00
 1.9837501E+00  0.0000000E+00
 1.9952501E+00  0.0000000E+00
 2.0067501E+00  0.0000000E+00
 2.0182500E+00  0.0000000E+00
 2.0297501E+00  0.0000000E+00
 2.0412500E+00  0.0000000E+00
 2.0527501E+00  0.0000000E+00
 2.0642500E+00  0.0000000E+00
 2.0757501E+00  0.0000000E+00
 2.0872500E+00  0.0000000E+00
 2.0987501E+00  0.0000000E+00
 2.1102500E+00  0.0000000E+00
 2.1217501E+00  0.0000000E+00
 2.1332500E+00  0.0000000E+00
 2.1447501E+00  0.0000000E+00
 2.1562500E+00  0.0000000E+00
 2.1677501E+00  0.0000000E+00
 2.1792500E+00  0.0000000E+00
 2.1907501E+00  0.0000000E+00
 2.2022500E+00  0.0000000E+00
 2.2137501E+00  0.0000000E+00
 2.2252500E+00  0.0000000E+00
 2.2367501E+00  0.0000000E+00
 2.2482500E+00  0.0000000E+00
 2.2597501E+00  0.0000000E+00
 2.2712500E+00  0.0000000E+00
 2.2827501E+00  0.0000000E+00
 2.2942500E+00  0.0000000E+00
 2.3057501E+00  0.0000000E+00
 2.3172500E+00  0.0000000E+00
 2.3287501E+00  0.0000000E+00
 2.3402500E+00  0.0000000E+00
 2.3517501E+00  0.0000000E+00
 2.3632500E+00  0.0000000E+00
 2.3747501E+00  0.0000000E+00
 2.3862500E+00  0.0000000E+00
 2.3977501E+00  0.0000000E+00
 2.4092500E+00  0.0000000E+00
 2.4207501E+00  0.0000000E+00
 2.4322500E+00  0.0000000E+00
 2.4437501E+00  0.0000000E+00
 2.4552500E+00  0.0000000E+00
 2.4667501E+00  0.0000000E+00
 2.4782500E+00  0.0000000E+00
 2.4897501E+00  0.0000000E+00
 2.5012500E+00  0.0000000E+00
 2.5127501E+00  0.0000000E+00
 2.5242500E+00  0.0000000E+00
 2.5357502E+00  0.0000000E+00
 2.5472500E+00  0.0000000E+00
 2.5587502E+00  0.0000000E+00
 2.5702500E+00  0.0000000E+00
 2.5817502E+00  0.0000000E+00
 2.5932500E+00  0.0000000E+00
 2.6047502E+00  0.0000000E+00
 2.6162500E+00  0.0000000E+00
 2.6277502E+00  0.0000000E+00
 2.6392500E+00  0.0000000E+00
 2.6507502E+00  0.0000000E+00
 2.6622500E+00  0.0000000E+00
 2.6737502E+00  0.0000000E+00
 2.6852500E+00  0.0000000E+00
 2.6967502E+00  0.0000000E+00
 2.7082500E+00  0.0000000E+00
 2.7197502E+00  0.0000000E+00
 2.7312500E+00  0.0000000E+00
 2.7427502E+00  0.0000000E+00
 2.7542500E+00  0.0000000E+00
 2.7657502E+00  0.0000000E+00
 2.7772501E+00  0.0000000E+00
 2.7887502E+00  0.0000000E+00
 2.8002501E+00  0.0000000E+00
 2.8117502E+00  0.0000000E+00
 2.8232501E+00  3.3467003E+01
 2.8347502E+00  3.2439812E+01
 2.8462501E+00  3.3222359E+01
 2.8577502E+00  3.3448982E+01
 2.8692501E+00  3.4506828E+01
 2.8807502E+00  3.5427940E+01
 2.8922501E+00  3.5944534E+01
 2.9037502E+00  3.6464306E+01
 2.9152501E+00  3.5978386E+01
 2.9267502E+00  3.5789543E+01
 2.9382501E+00  3.5261040E+01
 2.9497502E+00  3.5340679E+01
 2.9612501E+00  3.5507587E+01
 2.9727502E+00  3.5415455E+01
 2.9842501E+00  3.5562206E+01
 2.9957502E+00  3.5866913E+01
 3.0072501E+00  3.6344360E+01
 3.0187502E+00  3.6570145E+01
 3.0302501E+00  3.6691116E+01
 3.0417502E+00  3.6514709E+01
 3.0532501E+00  3.5947315E+01
 3.0647502E+00  3.5077156E+01
 3.0762501E+00  3.4835556E+01
 3.0877502E+00  3.5087101E+01
 3.0992501E+00  3.5942425E+01
 3.1107502E+00  3.6354443E+01
 3.1222501E+00  3.6783817E+01
 3.1337502E+00  3.6832649E+01
 3.1452501E+00  3.6976654E+01
 3.1567502E+00  3.7087200E+01
 3.1682501E+00  3.7055405E+01
 3.1797502E+00  3.6948391E+01
 3.1912501E+00  3.6746593E+01
 3.2027502E+00  3.6335308E+01
 3.2142501E+00  3.6065994E+01
 3.2257502E+00  3.5917782E+01
 3.2372501E+00  3.5353722E+01
 3.2487502E+00  3.5210735E+01
 3.2602501E+00  3.5010704E+01
 3.2717502E+00  3.4974049E+01
 3.2832501E+00  3.5050034E+01
 3.2947502E+00  3.4746120E+01
 3.3062501E+00  3.4905922E+01
 3.3177502E+00  3.4449486E+01
 3.3292501E+00  3.4620117E+01
 3.3407502E+00  3.4511120E+01
 3.3522501E+00  3.4546913E+01
 3.3637502E+00  3.4388680E+01
 3.3752501E+00  3.4239964E+01
 3.3867502E+00  3.4189266E+01
 3.3982501E+00  3.4066238E+01
 3.4097502E+00  3.4121346E+01
 3.4212501E+00  3.4431252E+01
 3.4327502E+00  3.4464142E+01
 3.4442501E+00  3.4571808E+01
 3.4557502E+00  3.4513340E+01
 3.4672501E+00  3.4558895E+01
 3.4787502E+00  3.4514000E+01
 3.4902501E+00  3.4436684E+01
 3.5017502E+00  3.4249310E+01
 3.5132501E+00  3.4298439E+01
 3.5247502E+00  3.4468338E+01
 3.5362501E+00  3.4812511E+01
 3.5477502E+00  3.4757339E+01
 3.5592501E+00  3.4709797E+01
 3.5707502E+00  3.4355984E+01
 3.5822501E+00  3.4104931E+01
 3.5937502E+00  3.3874249E+01
 3.6052501E+00  3.3618279E+01
 3.6167502E+00  3.3562752E+01
 3.6282501E+00  3.3560871E+01
 3.6397502E+00  3.3737839E+01
 3.6512501E+00  3.3992783E+01
 3.6627502E+00  3.3960136E+01
 3.6742501E+00  3.3946716E+01
 3.6857502E+00  3.4059120E+01
 3.6972501E+00  3.4008671E+01
 3.7087502E+00  3.3936268E+01
 3.7202501E+00  3.3884460E+01
 3.7317502E+00  3.3921082E+01
 3.7432501E+00  3.3870667E+01
 3.7547503E+00  3.3753635E+01
 3.7662501E+00  3.3610367E+01
 3.7777503E+00  3.3568779E+01
 3.7892501E+00  3.3261486E+01
 3.8007503E+00  3.3111584E+01
 3.8122501E+00  3.3133987E+01
 3.8237503E+00  3.3066963E+01
 3.8352501E+00  3.2976597E+01
 3.8467503E+00  3.2686455E+01
 3.8582501E+00  3.2625790E+01
 3.8697503E+00  3.2735027E+01
 3.8812501E+00  3.2892830E+01
 3.8927503E+00  3.3079502E+01
 3.9042501E+00  3.2984329E+01
 3.9157503E+00  3.3159367E+01
 3.9272501E+00  3.3317463E+01
 3.9387503E+00  3.3381439E+01
 3.9502501E+00  3.3333027E+01
 3.9617503E+00  3.3327522E+01
 3.9732502E+00  3.3251736E+01
 3.9847503E+00  3.3090572E+01
 3.9962502E+00  3.2973274E+01
 4.0077500E+00  3.2924625E+01
 4.0192504E+00  3.3091351E+01
 4.0307503E+00  3.3023548E+01
 4.0422502E+00  3.3145790E+01
 4.0537500E+00  3.3124435E+01
 4.0652504E+00  3.2840866E+01
 4.0767503E+00  3.2818760E+01
 4.0882502E+00  3.2734264E+01
 4.0997500E+00  3.2981354E+01
 4.1112504E+00  3.3023396E+01
 4.1227503E+00  3.2962872E+01
 4.1342502E+00  3.2994801E+01
 4.1457500E+00  3.2928360E+01
 4.1572504E+00  3.2801907E+01
 4.1687503E+00  3.2561886E+01
 4.1802502E+00  3.2377563E+01
 4.1917500E+00  3.2376423E+01
 4.2032504E+00  3.2320072E+01
 4.2147503E+00  3.2393421E+01
 4.2262502E+00  3.2361691E+01
 4.2377501E+00  3.2551014E+01
 4.2492504E+00  3.2493336E+01
 4.2607503E+00  3.2634953E+01
 4.2722502E+00  3.2620335E+01
 4.2837501E+00  3.2783215E+01
 4.2952504E+00  3.2750736E+01
 4.3067503E+00  3.2784863E+01
 4.3182502E+00  3.2718311E+01
 4.3297501E+00  3.2696205E+01
 4.3412504E+00  3.2681034E+01
 4.3527503E+00  3.2664314E+01
 4.3642502E+00  3.2639584E+01
 4.3757501E+00  3.2491131E+01
 4.3872504E+00  3.2364826E+01
 4.3987503E+00  3.2234783E+01
 4.4102502E+00  3.2194721E+01
 4.4217501E+00  3.2172932E+01
 4.4332504E+00  3.2211189E+01
 4.4447503E+00  3.2184376E+01
 4.4562502E+00  3.2338596E+01
 4.4677501E+00  3.2448814E+01
 4.4792504E+00  3.2690586E+01
 4.4907503E+00  3.2729824E+01
 4.5022502E+00  3.2693600E+01
 4.5137501E+00  3.2594707E+01
 4.5252504E+00  3.2555656E+01
 4.5367503E+00  3.2540695E+01
 4.5482502E+00  3.2453644E+01
 4.5597501E+00  3.2423641E+01
 4.5712504E+00  3.2494328E+01
 4.5827503E+00  3.2681278E+01
 4.5942502E+00  3.2861301E+01
 4.6057501E+00  3.2985161E+01
 4.6172504E+00  3.2963776E+01
 4.6287503E+00  3.2879219E+01
 4.6402502E+00  3.2927834E+01
 4.6517501E+00  3.2862514E+01
 4.6632504E+00  3.2989620E+01
 4.6747503E+00  3.3018139E+01
 4.6862502E+00  3.3145653E+01
 4.6977501E+00  3.3355194E+01
 4.7092505E+00  3.3273922E+01
 4.7207503E+00  3.3272888E+01
 4.7322502E+00  3.3025444E+01
 4.7437501E+00  3.3006302E+01
 4.7552505E+00  3.3027760E+01
 4.7667503E+00  3.3155006E+01
 4.7782502E+00  3.3074284E+01
 4.7897501E+00  3.3164391E+01
 4.8012505E+00  3.3029171E+01
 4.8127503E+00  3.3048672E+01
 4.8242502E+00  3.2923798E+01
 4.8357501E+00  3.2891411E+01
 4.8472505E+00  3.2833412E+01
 4.8587503E+00  3.2857151E+01
 4.8702502E+00  3.2746628E+01
 4.8817501E+00  3.2862682E+01
 4.8932505E+00  3.2903896E+01
 4.9047503E+00  3.3064392E+01
 4.9162502E+00  3.3123405E+01
 4.9277501E+00  3.3154350E+01
 4.9392505E+00  3.3169228E+01
 4.9507504E+00  3.3160889E+01
 4.9622502E+00  3.3025219E+01
 4.9737501E+00  3.3047684E+01
 4.9852505E+00  3.3080399E+01
 4.9967504E+00  3.3304287E+01
 5.0082502E+00  3.3406052E+01
 5.0197501E+00  3.3441425E+01
 5.0312505E+00  3.3438286E+01
 5.0427504E+00  3.3520126E+01
 5.0542502E+00  3.3480679E+01
 5.0657501E+00  3.3508011E+01
 5.0772505E+00  3.3511719E+01
 5.0887504E+00  3.3656124E+01
 5.1002502E+00  3.3898933E+01
 5.1117501E+00  3.4015625E+01
 5.1232505E+00  3.4130207E+01
 5.1347504E+00  3.4151974E+01
 5.1462502E+00  3.4155491E+01
 5.1577501E+00  3.4129852E+01
 5.1692505E+00  3.4102001E+01
 5.1807504E+00  3.4231422E+01
 5.1922503E+00  3.4341324E+01
 5.2037501E+00  3.4273556E+01
 5.2152505E+00  3.4205711E+01
 5.2267504E+00  3.4162548E+01
 5.2382503E+00  3.4284122E+01
 5.2497501E+00  3.4302357E+01
 5.2612505E+00  3.4398026E+01
 5.2727504E+00  3.4398827E+01
 5.2842503E+00  3.4495605E+01
 5.2957501E+00  3.4561630E+01
 5.3072500E+00  3.4590691E+01
 5.3187504E+00  3.4645508E+01
 5.3302503E+00  3.4681782E+01
 5.3417501E+00  3.4775089E+01
 5.3532500E+00  3.4695568E+01
 5.3647504E+00  3.4627289E+01
 5.3762503E+00  3.4666264E+01
 5.3877501E+00  3.4790947E+01
 5.3992500E+00  3.4952389E+01
 5.4107504E+00  3.4939201E+01
 5.4222503E+00  3.4949184E+01
 5.4337502E+00  3.4791256E+01
 5.4452500E+00  3.4830383E+01
 5.4567504E+00  3.4785362E+01
 5.4682503E+00  3.4846210E+01
 5.4797502E+00  3.4906391E+01
 5.4912500E+00  3.4906158E+01
 5.5027504E+00  3.5031818E+01
 5.5142503E+00  3.5125751E+01
 5.5257502E+00  3.5338104E+01
 5.5372500E+00  3.5471214E+01
 5.5487504E+00  3.5517044E+01
 5.5602503E+00  3.5505627E+01
 5.5717502E+00  3.5322845E+01
 5.5832500E+00  3.5226772E+01
 5.5947504E+00  3.5172878E+01
 5.6062503E+00  3.5302303E+01
 5.6177502E+00  3.5483093E+01
 5.6292500E+00  3.5572128E+01
 5.6407504E+00  3.5723186E+01
 5.6522503E+00  3.5834557E+01
 5.6637502E+00  3.6013573E+01
 5.6752501E+00  3.6138130E+01
 5.6867504E+00  3.6140053E+01
 5.6982503E+00  3.6120708E+01
 5.7097502E+00  3.6100136E+01
 5.7212501E+00  3.6059479E+01
 5.7327504E+00  3.6061306E+01
 5.7442503E+00  3.5993031E+01
 5.7557502E+00  3.6012047E+01
 5.7672501E+00  3.5981628E+01
 5.7787504E+00  3.6011765E+01
 5.7902503E+00  3.6088978E+01
 5.8017502E+00  3.6167328E+01
 5.8132501E+00  3.6273663E+01
 5.8247504E+00  3.6245369E+01
 5.8362503E+00  3.6389076E+01
 5.8477502E+00  3.6396477E+01
 5.8592501E+00  3.6557915E+01
 5.8707504E+00  3.6543457E+01
 5.8822503E+00  3.6697449E+01
 5.8937502E+00  3.6915764E+01
 5.9052501E+00  3.7336945E+01
 5.9167504E+00  3.7761204E+01
 5.9282503E+00  3.8908085E+01
 5.9397502E+00  3.9733208E+01
 5.9512501E+00  4.1390839E+01
 5.9627504E+00  4.3202530E+01
 5.9742503E+00  4.4005432E+01
 5.9857502E+00  4.4533653E+01
 5.9972501E+00  4.3745033E+01
 6.0087504E+00  4.2879383E+01
 6.0202503E+00  4.1400707E+01
 6.0317502E+00  3.9562386E+01
 6.0432501E+00  3.8576645E+01
 6.0547504E+00  3.7909271E+01
 6.0662503E+00  3.7407509E+01
 6.0777502E+00  3.7239342E+01
 6.0892501E+00  3.7131145E+01
 6.1007504E+00  3.7133675E+01
 6.1122503E+00  3.7131660E+01
 6.1237502E+00  3.7169888E+01
 6.1352501E+00  3.7126671E+01
 6.1467505E+00  3.7089584E+01
 6.1582503E+00  3.7132214E+01
 6.1697502E+00  3.7214779E+01
 6.1812501E+00  3.7359848E+01
 6.1927505E+00  3.7371304E+01
 6.2042503E+00  3.7303036E+01
 6.2157502E+00  3.7358315E+01
 6.2272501E+00  3.7438858E+01
 6.2387505E+00  3.7487419E+01
 6.2502503E+00  3.7622543E+01
 6.2617502E+00  3.7611141E+01
 6.2732501E+00  3.7822994E+01
 6.2847505E+00  3.7901455E+01
 6.2962503E+00  3.7929520E+01
 6.3077502E+00  3.7921909E+01
 6.3192501E+00  3.7888050E+01
 6.3307505E+00  3.7982979E+01
 6.3422503E+00  3.8192619E+01
 6.3537502E+00  3.8273315E+01
 6.3652501E+00  3.8381565E+01
 6.3767505E+00  3.8334293E+01
 6.3882504E+00  3.8431751E+01
 6.3997502E+00  3.8508575E+01
 6.4112501E+00  3.8620327E+01
 6.4227505E+00  3.8708305E+01
 6.4342504E+00  3.8811981E+01
 6.4457502E+00  3.8871975E+01
 6.4572501E+00  3.8891041E+01
 6.4687505E+00  3.8909885E+01
 6.4802504E+00  3.8901035E+01
 6.4917502E+00  3.8992870E+01
 6.5032501E+00  3.9138607E+01
 6.5147505E+00  3.9415028E+01
 6.5262504E+00  3.9552822E+01
 6.5377502E+00  3.9700050E+01
 6.5492501E+00  3.9716728E+01
 6.5607505E+00  3.9770874E+01
 6.5722504E+00  3.9789822E+01
 6.5837502E+00  3.9871239E+01
 6.5952501E+00  4.0033569E+01
 6.6067505E+00  4.0198074E+01
 6.6182504E+00  4.0369389E+01
 6.6297503E+00  4.0478638E+01
 6.6412501E+00  4.0522213E+01
 6.6527505E+00  4.0432865E+01
 6.6642504E+00  4.0365768E+01
 6.6757503E+00  4.0351139E+01
 6.6872501E+00  4.0366627E+01
 6.6987505E+00  4.0459522E+01
 6.7102504E+00  4.0545380E+01
 6.7217503E+00  4.0747322E+01
 6.7332501E+00  4.0837521E+01
 6.7447505E+00  4.0985588E+01
 6.7562504E+00  4.1119446E+01
 6.7677503E+00  4.1393719E+01
 6.7792501E+00  4.1614330E+01
 6.7907505E+00  4.1760002E+01
 6.8022504E+00  4.1866070E+01
 6.8137503E+00  4.1796074E+01
 6.8252501E+00  4.1781364E+01
 6.8367505E+00  4.1695023E+01
 6.8482504E+00  4.1705788E+01
 6.8597503E+00  4.1794708E+01
 6.8712502E+00  4.1840538E+01
 6.8827505E+00  4.1957237E+01
 6.8942504E+00  4.2018063E+01
 6.9057503E+00  4.2091930E+01
 6.9172502E+00  4.2281071E+01
 6.9287505E+00  4.2300167E+01
 6.9402504E+00  4.2423336E+01
 6.9517503E+00  4.2348785E+01
 6.9632502E+00  4.2386250E+01
 6.9747505E+00  4.2387287E+01
 6.9862504E+00  4.2398193E+01
 6.9977503E+00  4.2453278E+01
 7.0092502E+00  4.2525799E+01
 7.0207505E+00  4.2501022E+01
 7.0322504E+00  4.2523674E+01
 7.0437503E+00  4.2570190E+01
 7.0552502E+00  4.2706284E+01
 7.0667505E+00  4.2855652E+01
 7.0782504E+00  4.2899982E+01
 7.0897503E+00  4.3095142E+01
 7.1012502E+00  4.3075363E+01
 7.1127505E+00  4.3199387E+01
 7.1242504E+00  4.3180649E+01
 7.1357503E+00  4.3297432E+01
 7.1472502E+00  4.3387669E+01
 7.1587505E+00  4.3492214E+01
 7.1702504E+00  4.3693523E+01
 7.1817503E+00  4.3859642E+01
 7.1932502E+00  4.3936234E+01
 7.2047505E+00  4.3927177E+01
 7.2162504E+00  4.3792439E+01
 7.2277503E+00  4.3781048E+01
 7.2392502E+00  4.3835636E+01
 7.2507505E+00  4.3971294E+01
 7.2622504E+00  4.3955261E+01
 7.2737503E+00  4.4037865E+01
 7.2852502E+00  4.4057968E+01
 7.2967505E+00  4.4115715E+01
 7.3082504E+00  4.4157455E+01
 7.3197503E+00  4.4213573E+01
 7.3312502E+00  4.4329136E+01
 7.3427505E+00  4.4331402E+01
 7.3542504E+00  4.4336826E+01
 7.3657503E+00  4.4331779E+01
 7.3772502E+00  4.4339264E+01
 7.3887506E+00  4.4379452E+01
 7.4002504E+00  4.4460712E+01
 7.4117503E+00  4.4515381E+01
 7.4232502E+00  4.4580498E+01
 7.4347506E+00  4.4602852E+01
 7.4462504E+00  4.4645008E+01
 7.4577503E+00  4.4614094E+01
 7.4692502E+00  4.4541737E+01
 7.4807506E+00  4.4562481E+01
 7.4922504E+00  4.4613007E+01
 7.5037503E+00  4.4698318E+01
 7.5152502E+00  4.4747524E+01
 7.5267506E+00  4.4854641E+01
 7.5382504E+00  4.4917416E+01
 7.5497503E+00  4.4959446E+01
 7.5612502E+00  4.4912098E+01
 7.5727506E+00  4.4907394E+01
 7.5842505E+00  4.4880695E+01
 7.5957503E+00  4.4894226E+01
 7.6072502E+00  4.4923412E+01
 7.6187506E+00  4.4821819E+01
 7.6302505E+00  4.4834396E+01
 7.6417503E+00  4.4743687E+01
 7.6532502E+00  4.4764229E+01
 7.6647506E+00  4.4742802E+01
 7.6762505E+00  4.4747913E+01
 7.6877503E+00  4.4869129E+01
 7.6992502E+00  4.4779636E+01
 7.7107506E+00  4.4755924E+01
 7.7222505E+00  4.4721722E+01
 7.7337503E+00  4.4699448E+01
 7.7452502E+00  4.4630646E+01
 7.7567506E+00  4.4522430E+01
 7.7682505E+00  4.4510963E+01
 7.7797503E+00  4.4568588E+01
 7.7912502E+00  4.4623058E+01
 7.8027506E+00  4.4630821E+01
 7.8142505E+00  4.4652130E+01
 7.8257504E+00  4.4738071E+01
 7.8372502E+00  4.4780201E+01
 7.8487506E+00  4.4834187E+01
 7.8602505E+00  4.4806881E+01
 7.8717504E+00  4.4759415E+01
 7.8832502E+00  4.4658051E+01
 7.8947506E+00  4.4572456E+01
 7.9062505E+00  4.4475670E+01
 7.9177504E+00  4.4407944E+01
 7.9292502E+00  4.4257771E+01
 7.9407506E+00  4.4252728E+01
 7.9522505E+00  4.4125572E+01
 7.9637504E+00  4.4049149E+01
 7.9752502E+00  4.3958546E+01
 7.9867506E+00  4.4027184E+01
 7.9982505E+00  4.4123344E+01
 8.0097504E+00  4.4176571E+01
 8.0212507E+00  4.4145096E+01
 8.0327501E+00  4.4092518E+01
 8.0442505E+00  4.3966385E+01
 8.0557508E+00  4.3815487E+01
 8.0672503E+00  4.3643116E+01
 8.0787506E+00  4.3509937E+01
 8.0902500E+00  4.3341179E+01
 8.1017504E+00  4.3158684E+01
 8.1132507E+00  4.3001343E+01
 8.1247501E+00  4.2766842E+01
 8.1362505E+00  4.2641151E+01
 8.1477509E+00  4.2543915E+01
 8.1592503E+00  4.2564606E+01
 8.1707506E+00  4.2572063E+01
 8.1822500E+00  4.2530071E+01
 8.1937504E+00  4.2491875E+01
 8.2052507E+00  4.2330238E+01
 8.2167501E+00  4.2168934E+01
 8.2282505E+00  4.2032722E+01
 8.2397509E+00  4.1861721E+01
 8.2512503E+00  4.1722397E+01
 8.2627506E+00  4.1569450E+01
 8.2742500E+00  4.1403294E+01
 8.2857504E+00  4.1255733E+01
 8.2972507E+00  4.1037308E+01
 8.3087502E+00  4.0957630E+01
 8.3202505E+00  4.0828297E+01
 8.3317509E+00  4.0728935E+01
 8.3432503E+00  4.0612404E+01
 8.3547506E+00  4.0535278E+01
 8.3662500E+00  4.0412960E+01
 8.3777504E+00  4.0297203E+01
 8.3892508E+00  4.0144825E+01
 8.4007502E+00  4.0001110E+01
 8.4122505E+00  3.9862930E+01
 8.4237509E+00  3.9680344E+01
 8.4352503E+00  3.9446796E+01
 8.4467506E+00  3.9229797E+01
 8.4582500E+00  3.8970074E+01
 8.4697504E+00  3.8856056E+01
 8.4812508E+00  3.8573364E+01
 8.4927502E+00  3.8377937E+01
 8.5042505E+00  3.8195908E+01
 8.5157509E+00  3.8058002E+01
 8.5272503E+00  3.7908504E+01
 8.5387506E+00  3.7733299E+01
 8.5502501E+00  3.7560799E+01
 8.5617504E+00  3.7444740E+01
 8.5732508E+00  3.7233433E+01
 8.5847502E+00  3.7092590E+01
 8.5962505E+00  3.6838890E+01
 8.6077509E+00  3.6677422E+01
 8.6192503E+00  3.6516090E+01
 8.6307507E+00  3.6398979E+01
 8.6422501E+00  3.6238026E+01
 8.6537504E+00  3.6033939E+01
 8.6652508E+00  3.5921341E+01
 8.6767502E+00  3.5699539E+01
 8.6882505E+00  3.5623386E+01
 8.6997509E+00  3.5483566E+01
 8.7112503E+00  3.5437984E+01
 8.7227507E+00  3.5246559E+01
 8.7342501E+00  3.5030380E+01
 8.7457504E+00  3.4845001E+01
 8.7572508E+00  3.4673321E+01
 8.7687502E+00  3.4571095E+01
 8.7802505E+00  3.4360939E+01
 8.7917500E+00  3.4158905E+01
 8.8032503E+00  3.3935757E+01
 8.8147507E+00  3.3706223E+01
 8.8262501E+00  3.3469730E+01
 8.8377504E+00  3.3251732E+01
 8.8492508E+00  3.3013180E+01
 8.8607502E+00  3.2818386E+01
 8.8722506E+00  3.2668407E+01
 8.8837500E+00  3.2547089E+01
 8.8952503E+00  3.2463688E+01
 8.9067507E+00  3.2326077E+01
 8.9182501E+00  3.2205006E+01
 8.9297504E+00  3.2069363E+01
 8.9412508E+00  3.1899000E+01
 8.9527502E+00  3.1775337E+01
 8.9642506E+00  3.1621771E+01
 8.9757500E+00  3.1448425E+01
 8.9872503E+00  3.1290707E+01
 8.9987507E+00  3.1135416E+01
 9.0102501E+00  3.1002928E+01
 9.0217505E+00  3.0831331E+01
 9.0332508E+00  3.0709684E+01
 9.0447502E+00  3.0545300E+01
 9.0562506E+00  3.0430853E+01
 9.0677500E+00  3.0400162E+01
 9.0792503E+00  3.0381035E+01
 9.0907507E+00  3.0369814E+01
 9.1022501E+00  3.0265238E+01
 9.1137505E+00  3.0104252E+01
 9.1252508E+00  2.9911795E+01
 9.1367502E+00  2.9723810E+01
 9.1482506E+00  2.9637972E+01
 9.1597500E+00  2.9576021E+01
 9.1712503E+00  2.9476482E+01
 9.1827507E+00  2.9355530E+01
 9.1942501E+00  2.9271666E+01
 9.2057505E+00  2.9162758E+01
 9.2172508E+00  2.9077915E+01
 9.2287502E+00  2.8873421E+01
 9.2402506E+00  2.8737650E+01
 9.2517500E+00  2.8559530E+01
 9.2632504E+00  2.8443327E+01
 9.2747507E+00  2.8275383E+01
 9.2862501E+00  2.8159855E+01
 9.2977505E+00  2.8070433E+01
 9.3092508E+00  2.8000130E+01
 9.3207502E+00  2.7876097E+01
 9.3322506E+00  2.7808544E+01
 9.3437500E+00  2.7691336E+01
 9.3552504E+00  2.7648800E+01
 9.3667507E+00  2.7505278E+01
 9.3782501E+00  2.7423063E+01
 9.3897505E+00  2.7316708E+01
 9.4012508E+00  2.7213852E+01
 9.4127502E+00  2.7113455E+01
 9.4242506E+00  2.7071014E+01
 9.4357500E+00  2.7058302E+01
 9.4472504E+00  2.7011633E+01
 9.4587507E+00  2.6929033E+01
 9.4702501E+00  2.6884516E+01
 9.4817505E+00  2.6887800E+01
 9.4932508E+00  2.6825777E+01
 9.5047503E+00  2.6719013E+01
 9.5162506E+00  2.6630243E+01
 9.5277500E+00  2.6550627E+01
 9.5392504E+00  2.6522390E+01
 9.5507507E+00  2.6496090E+01
 9.5622501E+00  2.6485092E+01
 9.5737505E+00  2.6442959E+01
 9.5852509E+00  2.6377901E+01
 9.5967503E+00  2.6298748E+01
 9.6082506E+00  2.6237263E+01
 9.6197500E+00  2.6107647E+01
 9.6312504E+00  2.6024187E+01
 9.6427507E+00  2.5905376E+01
 9.6542501E+00  2.5802757E+01
 9.6657505E+00  2.5722101E+01
 9.6772509E+00  2.5642790E+01
 9.6887503E+00  2.5718500E+01
 9.7002506E+00  2.5676531E+01
 9.7117500E+00  2.5758831E+01
 9.7232504E+00  2.5798525E+01
 9.7347507E+00  2.5787022E+01
 9.7462502E+00  2.5688263E+01
 9.7577505E+00  2.5419300E+01
 9.7692509E+00  2.5362654E+01
 9.7807503E+00  2.5314062E+01
 9.7922506E+00  2.5294653E+01
 9.8037500E+00  2.5301254E+01
 9.8152504E+00  2.5217340E+01
 9.8267508E+00  2.5144964E+01
 9.8382502E+00  2.5122768E+01
 9.8497505E+00  2.5056843E+01
 9.8612509E+00  2.5031023E+01
 9.8727503E+00  2.4932264E+01
 9.8842506E+00  2.4877945E+01
 9.8957500E+00  2.4952826E+01
 9.9072504E+00  2.5076126E+01
 9.9187508E+00  2.5290209E+01
 9.9302502E+00  2.5545549E+01
 9.9417505E+00  2.5764429E+01
 9.9532509E+00  2.5953384E+01
 9.9647503E+00  2.6008755E+01
 9.9762506E+00  2.5834087E+01
 9.9877501E+00  2.5687574E+01
 9.9992504E+00  2.5318174E+01
 1.0010751E+01  2.5108662E+01
 1.0022250E+01  2.4883518E+01
 1.0033751E+01  2.4768671E+01
 1.0045251E+01  2.4690596E+01
 1.0056750E+01  2.4543333E+01
 1.0068251E+01  2.4516214E+01
 1.0079750E+01  2.4431746E+01
 1.0091250E+01  2.4415565E+01
 1.0102751E+01  2.4338486E+01
 1.0114250E+01  2.4337526E+01
 1.0125751E+01  2.4322489E+01
 1.0137251E+01  2.4301975E+01
 1.0148750E+01  2.4300686E+01
 1.0160251E+01  2.4241205E+01
 1.0171750E+01  2.4223526E+01
 1.0183250E+01  2.4133459E+01
 1.0194751E+01  2.4051687E+01
 1.0206250E+01  2.4064863E+01
 1.0217751E+01  2.4056063E+01
 1.0229251E+01  2.4098404E+01
 1.0240750E+01  2.3987720E+01
 1.0252251E+01  2.3913050E+01
 1.0263750E+01  2.3815443E+01
 1.0275250E+01  2.3832954E+01
 1.0286751E+01  2.3941238E+01
 1.0298250E+01  2.4010075E+01
 1.0309751E+01  2.4020376E+01
 1.0321251E+01  2.3909628E+01
 1.0332750E+01  2.3856642E+01
 1.0344251E+01  2.3803017E+01
 1.0355750E+01  2.3727804E+01
 1.0367250E+01  2.3640858E+01
 1.0378751E+01  2.3630201E+01
 1.0390250E+01  2.3694139E+01
 1.0401751E+01  2.3817091E+01
 1.0413251E+01  2.3828600E+01
 1.0424750E+01  2.3787636E+01
 1.0436251E+01  2.3675587E+01
 1.0447750E+01  2.3621201E+01
 1.0459250E+01  2.3580532E+01
 1.0470751E+01  2.3590311E+01
 1.0482250E+01  2.3593306E+01
 1.0493751E+01  2.3617151E+01
 1.0505251E+01  2.3588034E+01
 1.0516750E+01  2.3540308E+01
 1.0528251E+01  2.3516016E+01
 1.0539750E+01  2.3496773E+01
 1.0551250E+01  2.3535009E+01
 1.0562751E+01  2.3522415E+01
 1.0574250E+01  2.3535646E+01
 1.0585751E+01  2.3490080E+01
 1.0597251E+01  2.3496046E+01
 1.0608750E+01  2.3405954E+01
 1.0620251E+01  2.3362482E+01
 1.0631750E+01  2.3265368E+01
 1.0643250E+01  2.3219778E+01
 1.0654751E+01  2.3193619E+01
 1.0666250E+01  2.3179766E+01
 1.0677751E+01  2.3160944E+01
 1.0689251E+01  2.3123333E+01
 1.0700750E+01  2.3120008E+01
 1.0712251E+01  2.3102879E+01
 1.0723750E+01  2.3158516E+01
 1.0735250E+01  2.3147295E+01
 1.0746751E+01  2.3196798E+01
 1.0758250E+01  2.3134930E+01
 1.0769751E+01  2.3109447E+01
 1.0781251E+01  2.3059401E+01
 1.0792750E+01  2.2971634E+01
 1.0804251E+01  2.2912638E+01
 1.0815750E+01  2.2869478E+01
 1.0827250E+01  2.2934027E+01
 1.0838751E+01  2.2973186E+01
 1.0850250E+01  2.3008770E+01
 1.0861751E+01  2.3000332E+01
 1.0873251E+01  2.2945385E+01
 1.0884750E+01  2.2903688E+01
 1.0896251E+01  2.2830879E+01
 1.0907750E+01  2.2847311E+01
 1.0919250E+01  2.2845503E+01
 1.0930751E+01  2.2896383E+01
 1.0942250E+01  2.2899721E+01
 1.0953751E+01  2.2958105E+01
 1.0965251E+01  2.2996370E+01
 1.0976750E+01  2.3028439E+01
 1.0988251E+01  2.2965990E+01
 1.0999750E+01  2.2904150E+01
 1.1011250E+01  2.2863777E+01
 1.1022751E+01  2.2828165E+01
 1.1034250E+01  2.2864923E+01
 1.1045751E+01  2.2863577E+01
 1.1057251E+01  2.2960709E+01
 1.1068750E+01  2.2973434E+01
 1.1080251E+01  2.2973274E+01
 1.1091750E+01  2.2860773E+01
 1.1103251E+01  2.2826521E+01
 1.1114751E+01  2.2815922E+01
 1.1126250E+01  2.2869856E+01
 1.1137751E+01  2.2845381E+01
 1.1149251E+01  2.2856558E+01
 1.1160750E+01  2.2796856E+01
 1.1172251E+01  2.2758135E+01
 1.1183750E+01  2.2703957E+01
 1.1195251E+01  2.2706076E+01
 1.1206751E+01  2.2743822E+01
 1.1218250E+01  2.2761091E+01
 1.1229751E+01  2.2773661E+01
 1.1241251E+01  2.2757065E+01
 1.1252750E+01  2.2737953E+01
 1.1264251E+01  2.2780659E+01
 1.1275750E+01  2.2775118E+01
 1.1287251E+01  2.2786303E+01
 1.1298751E+01  2.2743614E+01
 1.1310250E+01  2.2832708E+01
 1.1321751E+01  2.2874788E+01
 1.1333251E+01  2.2862495E+01
 1.1344750E+01  2.2853273E+01
 1.1356251E+01  2.2860104E+01
 1.1367750E+01  2.2902838E+01
 1.1379251E+01  2.2935160E+01
 1.1390751E+01  2.2988562E+01
 1.1402250E+01  2.3292961E+01
 1.1413751E+01  2.3318764E+01
 1.1425251E+01  2.3373640E+01
 1.1436750E+01  2.3221848E+01
 1.1448251E+01  2.3154949E+01
 1.1459750E+01  2.3090845E+01
 1.1471251E+01  2.3058228E+01
 1.1482751E+01  2.3095695E+01
 1.1494250E+01  2.3214605E+01
 1.1505751E+01  2.3340204E+01
 1.1517251E+01  2.3751122E+01
 1.1528750E+01  2.4433920E+01
 1.1540251E+01  2.5173721E+01
 1.1551750E+01  2.6782728E+01
 1.1563251E+01  2.7984722E+01
 1.1574751E+01  2.9786963E+01
 1.1586250E+01  3.0727907E+01
 1.1597751E+01  3.1364906E+01
 1.1609251E+01  3.0417700E+01
 1.1620750E+01  2.9083923E+01
 1.1632251E+01  2.7198755E+01
 1.1643750E+01  2.5954762E+01
 1.1655251E+01  2.4602430E+01
 1.1666751E+01  2.3994030E+01
 1.1678250E+01  2.3576878E+01
 1.1689751E+01  2.3296392E+01
 1.1701251E+01  2.3153824E+01
 1.1712750E+01  2.3008610E+01
 1.1724251E+01  2.3028397E+01
 1.1735750E+01  2.2985846E+01
 1.1747251E+01  2.3011944E+01
 1.1758751E+01  2.2970253E+01
 1.1770250E+01  2.2913118E+01
 1.1781751E+01  2.2869104E+01
 1.1793251E+01  2.2886618E+01
 1.1804750E+01  2.2939285E+01
 1.1816251E+01  2.2970516E+01
 1.1827750E+01  2.2959761E+01
 1.1839251E+01  2.3018436E+01
 1.1850751E+01  2.3045061E+01
 1.1862250E+01  2.3062872E+01
 1.1873751E+01  2.3034824E+01
 1.1885251E+01  2.2977127E+01
 1.1896750E+01  2.2954184E+01
 1.1908251E+01  2.2972956E+01
 1.1919750E+01  2.3078030E+01
 1.1931251E+01  2.3186544E+01
 1.1942751E+01  2.3354860E+01
 1.1954250E+01  2.3506899E+01
 1.1965751E+01  2.3730253E+01
 1.1977251E+01  2.3889929E+01
 1.1988750E+01  2.4012930E+01
 1.2000251E+01  2.4066395E+01
 1.2011750E+01  2.4120275E+01
 1.2023251E+01  2.4273027E+01
 1.2034751E+01  2.4848509E+01
 1.2046250E+01  2.5702274E+01
 1.2057751E+01  2.7623594E+01
 1.2069251E+01  3.1126787E+01
 1.2080750E+01  3.3095146E+01
 1.2092251E+01  3.7399357E+01
 1.2103750E+01  3.8689777E+01
 1.2115251E+01  3.7703381E+01
 1.2126751E+01  3.3587097E+01
 1.2138250E+01  2.9379009E+01
 1.2149751E+01  2.7629309E+01
 1.2161251E+01  2.5446302E+01
 1.2172750E+01  2.4244682E+01
 1.2184251E+01  2.3828655E+01
 1.2195750E+01  2.3357101E+01
 1.2207251E+01  2.3281298E+01
 1.2218751E+01  2.3236111E+01
 1.2230250E+01  2.3237877E+01
 1.2241751E+01  2.3144873E+01
 1.2253251E+01  2.3061104E+01
 1.2264750E+01  2.3035543E+01
 1.2276251E+01  2.2974539E+01
 1.2287750E+01  2.2966871E+01
 1.2299251E+01  2.2875025E+01
 1.2310751E+01  2.2926935E+01
 1.2322250E+01  2.2902874E+01
 1.2333751E+01  2.2983912E+01
 1.2345250E+01  2.2929264E+01
 1.2356750E+01  2.2990051E+01
 1.2368251E+01  2.2928965E+01
 1.2379750E+01  2.3007143E+01
 1.2391251E+01  2.2980103E+01
 1.2402751E+01  2.2986504E+01
 1.2414250E+01  2.2928488E+01
 1.2425751E+01  2.2846306E+01
 1.2437250E+01  2.2819033E+01
 1.2448750E+01  2.2805801E+01
 1.2460251E+01  2.2883999E+01
 1.2471750E+01  2.2975216E+01
 1.2483251E+01  2.3022480E+01
 1.2494751E+01  2.2983709E+01
 1.2506250E+01  2.2939474E+01
 1.2517751E+01  2.2916504E+01
 1.2529250E+01  2.2942846E+01
 1.2540751E+01  2.2903345E+01
 1.2552251E+01  2.2885452E+01
 1.2563750E+01  2.2845881E+01
 1.2575251E+01  2.2847252E+01
 1.2586751E+01  2.2915028E+01
 1.2598250E+01  2.2971096E+01
 1.2609751E+01  2.3026150E+01
 1.2621250E+01  2.3055111E+01
 1.2632751E+01  2.3045441E+01
 1.2644251E+01  2.3056883E+01
 1.2655750E+01  2.3090530E+01
 1.2667251E+01  2.3167673E+01
 1.2678751E+01  2.3216425E+01
 1.2690250E+01  2.3219847E+01
 1.2701751E+01  2.3218775E+01
 1.2713250E+01  2.3272385E+01
 1.2724751E+01  2.3283953E+01
 1.2736251E+01  2.3290354E+01
 1.2747750E+01  2.3298906E+01
 1.2759251E+01  2.3305090E+01
 1.2770751E+01  2.3259798E+01
 1.2782250E+01  2.3230059E+01
 1.2793751E+01  2.3160952E+01
 1.2805250E+01  2.3260612E+01
 1.2816751E+01  2.3318476E+01
 1.2828251E+01  2.3468252E+01
 1.2839750E+01  2.3504316E+01
 1.2851251E+01  2.3579638E+01
 1.2862751E+01  2.3612190E+01
 1.2874250E+01  2.3683449E+01
 1.2885751E+01  2.3655701E+01
 1.2897250E+01  2.3680174E+01
 1.2908751E+01  2.3736662E+01
 1.2920251E+01  2.3843279E+01
 1.2931750E+01  2.3909376E+01
 1.2943251E+01  2.3983688E+01
 1.2954751E+01  2.4075897E+01
 1.2966250E+01  2.4149822E+01
 1.2977751E+01  2.4218096E+01
 1.2989250E+01  2.4249159E+01
 1.3000751E+01  2.4242113E+01
 1.3012251E+01  2.4233332E+01
 1.3023750E+01  2.4241436E+01
 1.3035251E+01  2.4333513E+01
 1.3046751E+01  2.4448242E+01
 1.3058250E+01  2.4580481E+01
 1.3069751E+01  2.4703083E+01
 1.3081250E+01  2.4798750E+01
 1.3092751E+01  2.4927179E+01
 1.3104251E+01  2.5068840E+01
 1.3115750E+01  2.5209393E+01
 1.3127251E+01  2.5301270E+01
 1.3138751E+01  2.5429064E+01
 1.3150250E+01  2.5536545E+01
 1.3161751E+01  2.5602924E+01
 1.3173250E+01  2.5732119E+01
 1.3184751E+01  2.5809933E+01
 1.3196251E+01  2.5947889E+01
 1.3207750E+01  2.6023134E+01
 1.3219251E+01  2.6187393E+01
 1.3230751E+01  2.6324221E+01
 1.3242250E+01  2.6491848E+01
 1.3253751E+01  2.6599291E+01
 1.3265250E+01  2.6735289E+01
 1.3276751E+01  2.6874569E+01
 1.3288251E+01  2.6990782E+01
 1.3299750E+01  2.7124861E+01
 1.3311251E+01  2.7101980E+01
 1.3322751E+01  2.7220118E+01
 1.3334250E+01  2.7361317E+01
 1.3345751E+01  2.7599598E+01
 1.3357250E+01  2.7789619E+01
 1.3368751E+01  2.7949568E+01
 1.3380251E+01  2.8148594E+01
 1.3391750E+01  2.8378300E+01
 1.3403251E+01  2.8589285E+01
 1.3414751E+01  2.8724203E+01
 1.3426250E+01  2.8748762E+01
 1.3437751E+01  2.8907700E+01
 1.3449250E+01  2.9035620E+01
 1.3460751E+01  2.9234175E+01
 1.3472251E+01  2.9320047E+01
 1.3483750E+01  2.9473011E+01
 1.3495251E+01  2.9551128E+01
 1.3506751E+01  2.9659527E+01
 1.3518250E+01  2.9744322E+01
 1.3529751E+01  2.9806812E+01
 1.3541250E+01  2.9854660E+01
 1.3552751E+01  2.9881039E+01
 1.3564251E+01  2.9936501E+01
 1.3575750E+01  2.9976700E+01
 1.3587251E+01  3.0025713E+01
 1.3598751E+01  3.0102123E+01
 1.3610250E+01  3.0162287E+01
 1.3621751E+01  3.0245159E+01
 1.3633250E+01  3.0259201E+01
 1.3644751E+01  3.0268366E+01
 1.3656251E+01  3.0253695E+01
 1.3667750E+01  3.0334408E+01
 1.3679251E+01  3.0329803E+01
 1.3690751E+01  3.0269270E+01
 1.3702250E+01  3.0167189E+01
 1.3713751E+01  3.0099876E+01
 1.3725250E+01  3.0101051E+01
 1.3736751E+01  3.0097176E+01
 1.3748251E+01  3.0091331E+01
 1.3759750E+01  3.0063135E+01
 1.3771251E+01  3.0050028E+01
 1.3782751E+01  3.0046310E+01
 1.3794250E+01  3.0069494E+01
 1.3805751E+01  3.0115379E+01
 1.3817250E+01  3.0172939E+01
 1.3828751E+01  3.0286158E+01
 1.3840251E+01  3.0440798E+01
 1.3851750E+01  3.0891764E+01
 1.3863251E+01  3.1215693E+01
 1.3874751E+01  3.2460171E+01
 1.3886250E+01  3.3512486E+01
 1.3897751E+01  3.6736202E+01
 1.3909250E+01  3.9478119E+01
 1.3920751E+01  4.4283123E+01
 1.3932251E+01  4.7824787E+01
 1.3943750E+01  5.1712025E+01
 1.3955251E+01  5.1764145E+01
 1.3966751E+01  5.0234169E+01
 1.3978251E+01  4.5946449E+01
 1.3989751E+01  4.1536724E+01
 1.4001250E+01  3.7285530E+01
 1.4012751E+01  3.3927200E+01
 1.4024251E+01  3.2068729E+01
 1.4035750E+01  3.0529829E+01
 1.4047251E+01  2.9780260E+01
 1.4058751E+01  2.9200045E+01
 1.4070251E+01  2.8837906E+01
 1.4081751E+01  2.8522655E+01
 1.4093250E+01  2.8331095E+01
 1.4104751E+01  2.8190718E+01
 1.4116251E+01  2.8056677E+01
 1.4127750E+01  2.7966728E+01
 1.4139251E+01  2.7815161E+01
 1.4150751E+01  2.7693352E+01
 1.4162251E+01  2.7546061E+01
 1.4173751E+01  2.7434141E+01
 1.4185250E+01  2.7340776E+01
 1.4196751E+01  2.7292255E+01
 1.4208251E+01  2.7216980E+01
 1.4219750E+01  2.7129637E+01
 1.4231251E+01  2.7002420E+01
 1.4242751E+01  2.6899982E+01
 1.4254251E+01  2.6790979E+01
 1.4265751E+01  2.6740376E+01
 1.4277250E+01  2.6683241E+01
 1.4288751E+01  2.6706024E+01
 1.4300251E+01  2.6685581E+01
 1.4311750E+01  2.6659620E+01
 1.4323251E+01  2.6565676E+01
 1.4334751E+01  2.6458282E+01
 1.4346251E+01  2.6426126E+01
 1.4357751E+01  2.6357771E+01
 1.4369250E+01  2.6321892E+01
 1.4380751E+01  2.6280945E+01
 1.4392251E+01  2.6236235E+01
 1.4403750E+01  2.6142950E+01
 1.4415251E+01  2.6078960E+01
 1.4426751E+01  2.6076750E+01
 1.4438251E+01  2.6136984E+01
 1.4449751E+01  2.6098438E+01
 1.4461250E+01  2.6052197E+01
 1.4472751E+01  2.5931702E+01
 1.4484251E+01  2.5916468E+01
 1.4495750E+01  2.5891562E+01
 1.4507251E+01  2.5900785E+01
 1.4518751E+01  2.5872267E+01
 1.4530251E+01  2.5890417E+01
 1.4541751E+01  2.5900360E+01
 1.4553250E+01  2.5877026E+01
 1.4564751E+01  2.5863710E+01
 1.4576251E+01  2.5788883E+01
 1.4587750E+01  2.5760931E+01
 1.4599251E+01  2.5685114E+01
 1.4610751E+01  2.5666042E+01
 1.4622251E+01  2.5629427E+01
 1.4633751E+01  2.5591715E+01
 1.4645250E+01  2.5573467E+01
 1.4656751E+01  2.5565042E+01
 1.4668251E+01  2.5581030E+01
 1.4679750E+01  2.5649929E+01
 1.4691251E+01  2.5680773E+01
 1.4702751E+01  2.5670979E+01
 1.4714251E+01  2.5597832E+01
 1.4725751E+01  2.5504217E+01
 1.4737250E+01  2.5474037E+01
 1.4748751E+01  2.5491463E+01
 1.4760251E+01  2.5504980E+01
 1.4771750E+01  2.5514755E+01
 1.4783251E+01  2.5477602E+01
 1.4794751E+01  2.5467258E+01
 1.4806251E+01  2.5372009E+01
 1.4817751E+01  2.5329025E+01
 1.4829250E+01  2.5256916E+01
 1.4840751E+01  2.5270761E+01
 1.4852251E+01  2.5295218E+01
 1.4863750E+01  2.5298820E+01
 1.4875251E+01  2.5248905E+01
 1.4886751E+01  2.5221003E+01
 1.4898251E+01  2.5257048E+01
 1.4909751E+01  2.5251259E+01
 1.4921250E+01  2.5268526E+01
 1.4932751E+01  2.5230742E+01
 1.4944251E+01  2.5206810E+01
 1.4955750E+01  2.5169882E+01
 1.4967251E+01  2.5114832E+01
 1.4978751E+01  2.5146255E+01
 1.4990251E+01  2.5151520E+01
 1.5001751E+01  2.5234795E+01
 1.5013250E+01  2.5252052E+01
 1.5024751E+01  2.5250513E+01
 1.5036251E+01  2.5233110E+01
 1.5047750E+01  2.5209524E+01
 1.5059251E+01  2.5198563E+01
 1.5070751E+01  2.5184275E+01
 1.5082251E+01  2.5259029E+01
 1.5093751E+01  2.5332396E+01
 1.5105250E+01  2.5442394E+01
 1.5116751E+01  2.5547453E+01
 1.5128251E+01  2.5598255E+01
 1.5139750E+01  2.5855238E+01
 1.5151251E+01  2.6077911E+01
 1.5162751E+01  2.6481127E+01
 1.5174251E+01  2.7087362E+01
 1.5185751E+01  2.7332626E+01
 1.5197250E+01  2.8459841E+01
 1.5208751E+01  2.8605806E+01
 1.5220251E+01  2.8481050E+01
 1.5231750E+01  2.7515188E+01
 1.5243251E+01  2.6672817E+01
 1.5254751E+01  2.6280054E+01
 1.5266251E+01  2.5411554E+01
 1.5277751E+01  2.5226418E+01
 1.5289250E+01  2.5041735E+01
 1.5300751E+01  2.4905624E+01
 1.5312251E+01  2.4862730E+01
 1.5323750E+01  2.4808485E+01
 1.5335251E+01  2.4855442E+01
 1.5346751E+01  2.4897467E+01
 1.5358251E+01  2.4918684E+01
 1.5369751E+01  2.4865162E+01
 1.5381250E+01  2.4838970E+01
 1.5392751E+01  2.4781305E+01
 1.5404251E+01  2.4798512E+01
 1.5415751E+01  2.4754435E+01
 1.5427251E+01  2.4738884E+01
 1.5438751E+01  2.4729301E+01
 1.5450251E+01  2.4728617E+01
 1.5461751E+01  2.4719337E+01
 1.5473250E+01  2.4674002E+01
 1.5484751E+01  2.4673014E+01
 1.5496251E+01  2.4709053E+01
 1.5507751E+01  2.4759653E+01
 1.5519251E+01  2.4759174E+01
 1.5530751E+01  2.4775267E+01
 1.5542251E+01  2.4783945E+01
 1.5553751E+01  2.4798220E+01
 1.5565250E+01  2.4795271E+01
 1.5576751E+01  2.4730383E+01
 1.5588251E+01  2.4720671E+01
 1.5599751E+01  2.4669621E+01
 1.5611251E+01  2.4680079E+01
 1.5622751E+01  2.4640759E+01
 1.5634251E+01  2.4641899E+01
 1.5645751E+01  2.4682699E+01
 1.5657250E+01  2.4747408E+01
 1.5668751E+01  2.4807339E+01
 1.5680251E+01  2.4813051E+01
 1.5691751E+01  2.4803450E+01
 1.5703251E+01  2.4788691E+01
 1.5714751E+01  2.4738110E+01
 1.5726251E+01  2.4738390E+01
 1.5737751E+01  2.4718107E+01
 1.5749250E+01  2.4772724E+01
 1.5760751E+01  2.4805115E+01
 1.5772251E+01  2.4824600E+01
 1.5783751E+01  2.4781496E+01
 1.5795251E+01  2.4817299E+01
 1.5806751E+01  2.4851948E+01
 1.5818251E+01  2.4871700E+01
 1.5829751E+01  2.4843761E+01
 1.5841250E+01  2.4822935E+01
 1.5852751E+01  2.4834898E+01
 1.5864251E+01  2.4782839E+01
 1.5875751E+01  2.4788254E+01
 1.5887251E+01  2.4783579E+01
 1.5898750E+01  2.4759813E+01
 1.5910251E+01  2.4803202E+01
 1.5921751E+01  2.4804720E+01
 1.5933250E+01  2.4912617E+01
 1.5944751E+01  2.4916931E+01
 1.5956251E+01  2.4992212E+01
 1.5967751E+01  2.4955158E+01
 1.5979251E+01  2.4939007E+01
 1.5990750E+01  2.4872183E+01
 1.6002251E+01  2.4817066E+01
 1.6013750E+01  2.4796131E+01
 1.6025251E+01  2.4797199E+01
 1.6036751E+01  2.4858036E+01
 1.6048250E+01  2.4904398E+01
 1.6059752E+01  2.4967964E+01
 1.6071251E+01  2.4944544E+01
 1.6082750E+01  2.4974121E+01
 1.6094252E+01  2.4959797E+01
 1.6105751E+01  2.4972050E+01
 1.6117250E+01  2.4941444E+01
 1.6128750E+01  2.4938194E+01
 1.6140251E+01  2.5034750E+01
 1.6151751E+01  2.5038580E+01
 1.6163250E+01  2.5069727E+01
 1.6174751E+01  2.5007288E+01
 1.6186251E+01  2.5113651E+01
 1.6197750E+01  2.5020981E+01
 1.6209251E+01  2.5247196E+01
 1.6220751E+01  2.5251381E+01
 1.6232250E+01  2.5551622E+01
 1.6243752E+01  2.5668465E+01
 1.6255251E+01  2.5889874E+01
 1.6266750E+01  2.6089407E+01
 1.6278252E+01  2.5956976E+01
 1.6289751E+01  2.6059351E+01
 1.6301250E+01  2.5601938E+01
 1.6312750E+01  2.5651825E+01
 1.6324251E+01  2.5289650E+01
 1.6335751E+01  2.5355801E+01
 1.6347250E+01  2.5200075E+01
 1.6358751E+01  2.5392963E+01
 1.6370251E+01  2.5334532E+01
 1.6381750E+01  2.5433489E+01
 1.6393251E+01  2.5191532E+01
 1.6404751E+01  2.5180092E+01
 1.6416250E+01  2.5061392E+01
 1.6427752E+01  2.5004913E+01
 1.6439251E+01  2.4945829E+01
 1.6450750E+01  2.4879883E+01
 1.6462252E+01  2.4873388E+01
 1.6473751E+01  2.4827417E+01
 1.6485250E+01  2.4889212E+01
 1.6496750E+01  2.4921556E+01
 1.6508251E+01  2.4964525E+01
 1.6519751E+01  2.4926975E+01
 1.6531250E+01  2.4890768E+01
 1.6542751E+01  2.4873146E+01
 1.6554251E+01  2.4846676E+01
 1.6565750E+01  2.4854397E+01
 1.6577251E+01  2.4819782E+01
 1.6588751E+01  2.4821148E+01
 1.6600250E+01  2.4765795E+01
 1.6611752E+01  2.4776569E+01
 1.6623251E+01  2.4741405E+01
 1.6634750E+01  2.4798653E+01
 1.6646252E+01  2.4831816E+01
 1.6657751E+01  2.4903536E+01
 1.6669250E+01  2.4882299E+01
 1.6680750E+01  2.4910595E+01
 1.6692251E+01  2.4919846E+01
 1.6703751E+01  2.4930002E+01
 1.6715250E+01  2.4918774E+01
 1.6726751E+01  2.4871483E+01
 1.6738251E+01  2.4898624E+01
 1.6749750E+01  2.4876900E+01
 1.6761251E+01  2.4844654E+01
 1.6772751E+01  2.4790283E+01
 1.6784250E+01  2.4699064E+01
 1.6795752E+01  2.4647743E+01
 1.6807251E+01  2.4552362E+01
 1.6818750E+01  2.4544102E+01
 1.6830252E+01  2.4515656E+01
 1.6841751E+01  2.4560926E+01
 1.6853251E+01  2.4601864E+01
 1.6864750E+01  2.4628025E+01
 1.6876251E+01  2.4615261E+01
 1.6887751E+01  2.4579672E+01
 1.6899250E+01  2.4581255E+01
 1.6910751E+01  2.4577286E+01
 1.6922251E+01  2.4570385E+01
 1.6933750E+01  2.4543953E+01
 1.6945251E+01  2.4575096E+01
 1.6956751E+01  2.4605797E+01
 1.6968250E+01  2.4608589E+01
 1.6979752E+01  2.4613991E+01
 1.6991251E+01  2.4651840E+01
 1.7002750E+01  2.4679934E+01
 1.7014252E+01  2.4672367E+01
 1.7025751E+01  2.4637873E+01
 1.7037251E+01  2.4547432E+01
 1.7048750E+01  2.4440775E+01
 1.7060251E+01  2.4390251E+01
 1.7071751E+01  2.4376999E+01
 1.7083250E+01  2.4388641E+01
 1.7094751E+01  2.4376284E+01
 1.7106251E+01  2.4374540E+01
 1.7117750E+01  2.4340984E+01
 1.7129251E+01  2.4341814E+01
 1.7140751E+01  2.4402071E+01
 1.7152250E+01  2.4476337E+01
 1.7163752E+01  2.4517859E+01
 1.7175251E+01  2.4512499E+01
 1.7186750E+01  2.4516357E+01
 1.7198252E+01  2.4524534E+01
 1.7209751E+01  2.4529535E+01
 1.7221251E+01  2.4555676E+01
 1.7232750E+01  2.4583126E+01
 1.7244251E+01  2.4577522E+01
 1.7255751E+01  2.4419859E+01
 1.7267250E+01  2.4327597E+01
 1.7278751E+01  2.4268726E+01
 1.7290251E+01  2.4325951E+01
 1.7301750E+01  2.4373503E+01
 1.7313251E+01  2.4364180E+01
 1.7324751E+01  2.4374683E+01
 1.7336250E+01  2.4311949E+01
 1.7347752E+01  2.4297197E+01
 1.7359251E+01  2.4257563E+01
 1.7370750E+01  2.4263765E+01
 1.7382252E+01  2.4255661E+01
 1.7393751E+01  2.4242054E+01
 1.7405251E+01  2.4214041E+01
 1.7416750E+01  2.4190626E+01
 1.7428251E+01  2.4215418E+01
 1.7439751E+01  2.4249010E+01
 1.7451250E+01  2.4250032E+01
 1.7462751E+01  2.4221304E+01
 1.7474251E+01  2.4182888E+01
 1.7485750E+01  2.4169941E+01
 1.7497252E+01  2.4130775E+01
 1.7508751E+01  2.4120613E+01
 1.7520250E+01  2.4129852E+01
 1.7531752E+01  2.4159550E+01
 1.7543251E+01  2.4135071E+01
 1.7554750E+01  2.4078226E+01
 1.7566252E+01  2.4028603E+01
 1.7577751E+01  2.4018169E+01
 1.7589251E+01  2.4012827E+01
 1.7600750E+01  2.4005285E+01
 1.7612251E+01  2.3999306E+01
 1.7623751E+01  2.4023561E+01
 1.7635250E+01  2.3990269E+01
 1.7646751E+01  2.3990181E+01
 1.7658251E+01  2.3949209E+01
 1.7669750E+01  2.3951315E+01
 1.7681252E+01  2.3949171E+01
 1.7692751E+01  2.4001974E+01
 1.7704250E+01  2.4013229E+01
 1.7715752E+01  2.3995859E+01
 1.7727251E+01  2.3965500E+01
 1.7738750E+01  2.3958097E+01
 1.7750252E+01  2.3947079E+01
 1.7761751E+01  2.3973677E+01
 1.7773251E+01  2.4006998E+01
 1.7784750E+01  2.4057158E+01
 1.7796251E+01  2.4081234E+01
 1.7807751E+01  2.4032932E+01
 1.7819250E+01  2.3979948E+01
 1.7830751E+01  2.3916628E+01
 1.7842251E+01  2.3928631E+01
 1.7853750E+01  2.3932156E+01
 1.7865252E+01  2.3956415E+01
 1.7876751E+01  2.3973995E+01
 1.7888250E+01  2.3916332E+01
 1.7899752E+01  2.3831762E+01
 1.7911251E+01  2.3814764E+01
 1.7922750E+01  2.3835579E+01
 1.7934252E+01  2.3901596E+01
 1.7945751E+01  2.3922941E+01
 1.7957251E+01  2.3964680E+01
 1.7968750E+01  2.3993275E+01
 1.7980251E+01  2.4032129E+01
 1.7991751E+01  2.4194948E+01
 1.8003250E+01  2.4367376E+01
 1.8014751E+01  2.4699881E+01
 1.8026251E+01  2.4881369E+01
 1.8037750E+01  2.5170357E+01
 1.8049252E+01  2.5201897E+01
 1.8060751E+01  2.5224918E+01
 1.8072250E+01  2.5103395E+01
 1.8083752E+01  2.5045719E+01
 1.8095251E+01  2.5015030E+01
 1.8106750E+01  2.4953325E+01
 1.8118252E+01  2.4911154E+01
 1.8129751E+01  2.4788382E+01
 1.8141251E+01  2.4637346E+01
 1.8152750E+01  2.4433489E+01
 1.8164251E+01  2.4318550E+01
 1.8175751E+01  2.4199472E+01
 1.8187250E+01  2.4088329E+01
 1.8198751E+01  2.4032537E+01
 1.8210251E+01  2.3995022E+01
 1.8221750E+01  2.3986568E+01
 1.8233252E+01  2.3905441E+01
 1.8244751E+01  2.3829233E+01
 1.8256250E+01  2.3787458E+01
 1.8267752E+01  2.3786495E+01
 1.8279251E+01  2.3807371E+01
 1.8290751E+01  2.3805904E+01
 1.8302252E+01  2.3814522E+01
 1.8313751E+01  2.3796322E+01
 1.8325251E+01  2.3777771E+01
 1.8336750E+01  2.3790388E+01
 1.8348251E+01  2.3827477E+01
 1.8359751E+01  2.3860542E+01
 1.8371250E+01  2.3842566E+01
 1.8382751E+01  2.3811914E+01
 1.8394251E+01  2.3755379E+01
 1.8405750E+01  2.3714733E+01
 1.8417252E+01  2.3718840E+01
 1.8428751E+01  2.3755131E+01
 1.8440250E+01  2.3798597E+01
 1.8451752E+01  2.3800987E+01
 1.8463251E+01  2.3822285E+01
 1.8474751E+01  2.3794683E+01
 1.8486252E+01  2.3772253E+01
 1.8497751E+01  2.3745459E+01
 1.8509251E+01  2.3753038E+01
 1.8520750E+01  2.3781977E+01
 1.8532251E+01  2.3776546E+01
 1.8543751E+01  2.3739199E+01
 1.8555250E+01  2.3716537E+01
 1.8566751E+01  2.3698378E+01
 1.8578251E+01  2.3750116E+01
 1.8589750E+01  2.3749956E+01
 1.8601252E+01  2.3772486E+01
 1.8612751E+01  2.3775414E+01
 1.8624250E+01  2.3783001E+01
 1.8635752E+01  2.3822304E+01
 1.8647251E+01  2.3808975E+01
 1.8658751E+01  2.3803432E+01
 1.8670252E+01  2.3795834E+01
 1.8681751E+01  2.3847174E+01
 1.8693251E+01  2.3916252E+01
 1.8704750E+01  2.3937113E+01
 1.8716251E+01  2.3925716E+01
 1.8727751E+01  2.3841803E+01
 1.8739250E+01  2.3773586E+01
 1.8750751E+01  2.3752562E+01
 1.8762251E+01  2.3732903E+01
 1.8773750E+01  2.3762428E+01
 1.8785252E+01  2.3749559E+01
 1.8796751E+01  2.3817808E+01
 1.8808250E+01  2.3832813E+01
 1.8819752E+01  2.3860985E+01
 1.8831251E+01  2.3800058E+01
 1.8842751E+01  2.3754557E+01
 1.8854252E+01  2.3697124E+01
 1.8865751E+01  2.3691944E+01
 1.8877251E+01  2.3708540E+01
 1.8888750E+01  2.3744991E+01
 1.8900251E+01  2.3768950E+01
 1.8911751E+01  2.3739780E+01
 1.8923250E+01  2.3740669E+01
 1.8934752E+01  2.3733755E+01
 1.8946251E+01  2.3739368E+01
 1.8957750E+01  2.3676069E+01
 1.8969252E+01  2.3595865E+01
 1.8980751E+01  2.3555378E+01
 1.8992250E+01  2.3530949E+01
 1.9003752E+01  2.3530750E+01
 1.9015251E+01  2.3606279E+01
 1.9026751E+01  2.3686762E+01
 1.9038252E+01  2.3723927E+01
 1.9049751E+01  2.3662184E+01
 1.9061251E+01  2.3648323E+01
 1.9072750E+01  2.3673365E+01
 1.9084251E+01  2.3729708E+01
 1.9095751E+01  2.3729406E+01
 1.9107250E+01  2.3780296E+01
 1.9118752E+01  2.3755501E+01
 1.9130251E+01  2.3771605E+01
 1.9141750E+01  2.3735275E+01
 1.9153252E+01  2.3757807E+01
 1.9164751E+01  2.3706264E+01
 1.9176250E+01  2.3671476E+01
 1.9187752E+01  2.3666426E+01
 1.9199251E+01  2.3667561E+01
 1.9210751E+01  2.3692884E+01
 1.9222252E+01  2.3689135E+01
 1.9233751E+01  2.3719843E+01
 1.9245251E+01  2.3747391E+01
 1.9256750E+01  2.3761145E+01
 1.9268251E+01  2.3810213E+01
 1.9279751E+01  2.3787285E+01
 1.9291250E+01  2.3836180E+01
 1.9302752E+01  2.3854994E+01
 1.9314251E+01  2.3891689E+01
 1.9325750E+01  2.3806524E+01
 1.9337252E+01  2.3772284E+01
 1.9348751E+01  2.3773659E+01
 1.9360250E+01  2.3815773E+01
 1.9371752E+01  2.3848927E+01
 1.9383251E+01  2.3834139E+01
 1.9394751E+01  2.3853067E+01
 1.9406250E+01  2.3831594E+01
 1.9417751E+01  2.3870129E+01
 1.9429251E+01  2.3855492E+01
 1.9440750E+01  2.3907543E+01
 1.9452251E+01  2.3911512E+01
 1.9463751E+01  2.3905151E+01
 1.9475250E+01  2.3867239E+01
 1.9486752E+01  2.3836227E+01
 1.9498251E+01  2.3779406E+01
 1.9509750E+01  2.3727692E+01
 1.9521252E+01  2.3719469E+01
 1.9532751E+01  2.3725166E+01
 1.9544250E+01  2.3794462E+01
 1.9555752E+01  2.3840406E+01
 1.9567251E+01  2.3886093E+01
 1.9578751E+01  2.3942667E+01
 1.9590250E+01  2.3991556E+01
 1.9601751E+01  2.4030268E+01
 1.9613251E+01  2.4024204E+01
 1.9624750E+01  2.4054379E+01
 1.9636251E+01  2.4115568E+01
 1.9647751E+01  2.4220448E+01
 1.9659250E+01  2.4414797E+01
 1.9670752E+01  2.4654381E+01
 1.9682251E+01  2.5009706E+01
 1.9693750E+01  2.5352600E+01
 1.9705252E+01  2.5658012E+01
 1.9716751E+01  2.5742731E+01
 1.9728251E+01  2.5662933E+01
 1.9739752E+01  2.5433207E+01
 1.9751251E+01  2.5173307E+01
 1.9762751E+01  2.4911545E+01
 1.9774250E+01  2.4712473E+01
 1.9785751E+01  2.4590948E+01
 1.9797251E+01  2.4654982E+01
 1.9808750E+01  2.4812910E+01
 1.9820251E+01  2.5067730E+01
 1.9831751E+01  2.5481697E+01
 1.9843250E+01  2.5876596E+01
 1.9854752E+01  2.6232796E+01
 1.9866251E+01  2.6346064E+01
 1.9877750E+01  2.6237267E+01
 1.9889252E+01  2.5940685E+01
 1.9900751E+01  2.5505234E+01
 1.9912251E+01  2.5076309E+01
 1.9923752E+01  2.4726536E+01
 1.9935251E+01  2.4455431E+01
 1.9946751E+01  2.4277573E+01
 1.9958250E+01  2.4138609E+01
 1.9969751E+01  2.4074635E+01
 1.9981251E+01  2.3984833E+01
 1.9992750E+01  2.3967323E+01
 2.0004251E+01  2.3957098E+01
 2.0015751E+01  2.3931841E+01
 2.0027250E+01  2.3915272E+01
 2.0038752E+01  2.3886816E+01
 2.0050251E+01  2.3917200E+01
 2.0061750E+01  2.3880592E+01
 2.0073252E+01  2.3865053E+01
 2.0084751E+01  2.3857359E+01
 2.0096251E+01  2.3878513E+01
 2.0107752E+01  2.3914217E+01
 2.0119251E+01  2.3930786E+01
 2.0130751E+01  2.3923622E+01
 2.0142250E+01  2.3922243E+01
 2.0153751E+01  2.3927816E+01
 2.0165251E+01  2.3915291E+01
 2.0176750E+01  2.3927036E+01
 2.0188251E+01  2.3961367E+01
 2.0199751E+01  2.3950121E+01
 2.0211250E+01  2.3951382E+01
 2.0222752E+01  2.3918758E+01
 2.0234251E+01  2.3867987E+01
 2.0245750E+01  2.3868164E+01
 2.0257252E+01  2.3878674E+01
 2.0268751E+01  2.3918610E+01
 2.0280251E+01  2.3914627E+01
 2.0291752E+01  2.3917196E+01
 2.0303251E+01  2.3909298E+01
 2.0314751E+01  2.3923584E+01
 2.0326250E+01  2.3936764E+01
 2.0337751E+01  2.3920702E+01
 2.0349251E+01  2.3865698E+01
 2.0360750E+01  2.3870977E+01
 2.0372252E+01  2.3895039E+01
 2.0383751E+01  2.3884830E+01
 2.0395250E+01  2.3922836E+01
 2.0406752E+01  2.3956306E+01
 2.0418251E+01  2.3998003E+01
 2.0429750E+01  2.3985504E+01
 2.0441252E+01  2.3936003E+01
 2.0452751E+01  2.3947515E+01
 2.0464251E+01  2.3927782E+01
 2.0475752E+01  2.3954981E+01
 2.0487251E+01  2.3953547E+01
 2.0498751E+01  2.3978720E+01
 2.0510250E+01  2.3997572E+01
 2.0521751E+01  2.3963255E+01
 2.0533251E+01  2.3894226E+01
 2.0544750E+01  2.3868694E+01
 2.0556252E+01  2.3928707E+01
 2.0567751E+01  2.4002615E+01
 2.0579250E+01  2.4080101E+01
 2.0590752E+01  2.4123198E+01
 2.0602251E+01  2.4150608E+01
 2.0613750E+01  2.4152149E+01
 2.0625252E+01  2.4190022E+01
 2.0636751E+01  2.4225796E+01
 2.0648251E+01  2.4251406E+01
 2.0659752E+01  2.4308701E+01
 2.0671251E+01  2.4376451E+01
 2.0682751E+01  2.4489668E+01
 2.0694250E+01  2.4764595E+01
 2.0705751E+01  2.5023790E+01
 2.0717251E+01  2.5517433E+01
 2.0728750E+01  2.6124414E+01
 2.0740252E+01  2.6601301E+01
 2.0751751E+01  2.7075378E+01
 2.0763250E+01  2.7292807E+01
 2.0774752E+01  2.7263147E+01
 2.0786251E+01  2.6714596E+01
 2.0797750E+01  2.6269556E+01
 2.0809252E+01  2.5665600E+01
 2.0820751E+01  2.5067732E+01
 2.0832251E+01  2.4734177E+01
 2.0843752E+01  2.4511482E+01
 2.0855251E+01  2.4397694E+01
 2.0866751E+01  2.4311064E+01
 2.0878250E+01  2.4316662E+01
 2.0889751E+01  2.4303881E+01
 2.0901251E+01  2.4314976E+01
 2.0912750E+01  2.4332468E+01
 2.0924252E+01  2.4270561E+01
 2.0935751E+01  2.4157703E+01
 2.0947250E+01  2.4071861E+01
 2.0958752E+01  2.4031715E+01
 2.0970251E+01  2.4035744E+01
 2.0981750E+01  2.4035606E+01
 2.0993252E+01  2.4037817E+01
 2.1004751E+01  2.4037128E+01
 2.1016251E+01  2.4034117E+01
 2.1027752E+01  2.4072512E+01
 2.1039251E+01  2.4069603E+01
 2.1050751E+01  2.4018557E+01
 2.1062250E+01  2.3978703E+01
 2.1073751E+01  2.3985094E+01
 2.1085251E+01  2.3992636E+01
 2.1096750E+01  2.3999569E+01
 2.1108252E+01  2.4032129E+01
 2.1119751E+01  2.4067673E+01
 2.1131250E+01  2.4066452E+01
 2.1142752E+01  2.4017475E+01
 2.1154251E+01  2.3947987E+01
 2.1165751E+01  2.3984869E+01
 2.1177252E+01  2.4037561E+01
 2.1188751E+01  2.4036379E+01
 2.1200251E+01  2.4002571E+01
 2.1211752E+01  2.3957245E+01
 2.1223251E+01  2.3941133E+01
 2.1234751E+01  2.3983866E+01
 2.1246250E+01  2.4068407E+01
 2.1257751E+01  2.4192640E+01
 2.1269251E+01  2.4245335E+01
 2.1280750E+01  2.4236799E+01
 2.1292252E+01  2.4196703E+01
 2.1303751E+01  2.4205002E+01
 2.1315250E+01  2.4225912E+01
 2.1326752E+01  2.4227476E+01
 2.1338251E+01  2.4219444E+01
 2.1349751E+01  2.4199965E+01
 2.1361252E+01  2.4187555E+01
 2.1372751E+01  2.4194290E+01
 2.1384251E+01  2.4150545E+01
 2.1395752E+01  2.4100487E+01
 2.1407251E+01  2.4076975E+01
 2.1418751E+01  2.4113569E+01
 2.1430250E+01  2.4121984E+01
 2.1441751E+01  2.4136732E+01
 2.1453251E+01  2.4124706E+01
 2.1464750E+01  2.4132439E+01
 2.1476252E+01  2.4072577E+01
 2.1487751E+01  2.4127260E+01
 2.1499250E+01  2.4161280E+01
 2.1510752E+01  2.4187218E+01
 2.1522251E+01  2.4208282E+01
 2.1533751E+01  2.4199049E+01
 2.1545252E+01  2.4168285E+01
 2.1556751E+01  2.4045500E+01
 2.1568251E+01  2.3963293E+01
 2.1579752E+01  2.3988083E+01
 2.1591251E+01  2.4073502E+01
 2.1602751E+01  2.4176369E+01
 2.1614250E+01  2.4222551E+01
 2.1625751E+01  2.4258801E+01
 2.1637251E+01  2.4244736E+01
 2.1648750E+01  2.4252256E+01
 2.1660252E+01  2.4244890E+01
 2.1671751E+01  2.4260393E+01
 2.1683250E+01  2.4265661E+01
 2.1694752E+01  2.4252626E+01
 2.1706251E+01  2.4258709E+01
 2.1717751E+01  2.4215897E+01
 2.1729252E+01  2.4231575E+01
 2.1740751E+01  2.4229614E+01
 2.1752251E+01  2.4265522E+01
 2.1763752E+01  2.4275106E+01
 2.1775251E+01  2.4320984E+01
 2.1786751E+01  2.4368689E+01
 2.1798250E+01  2.4365927E+01
 2.1809752E+01  2.4353052E+01
 2.1821251E+01  2.4322647E+01
 2.1832750E+01  2.4276960E+01
 2.1844252E+01  2.4247913E+01
 2.1855751E+01  2.4248753E+01
 2.1867250E+01  2.4322693E+01
 2.1878752E+01  2.4358978E+01
 2.1890251E+01  2.4370642E+01
 2.1901751E+01  2.4370701E+01
 2.1913252E+01  2.4355816E+01
 2.1924751E+01  2.4357832E+01
 2.1936251E+01  2.4327215E+01
 2.1947752E+01  2.4336464E+01
 2.1959251E+01  2.4314625E+01
 2.1970751E+01  2.4356701E+01
 2.1982250E+01  2.4378172E+01
 2.1993752E+01  2.4388529E+01
 2.2005251E+01  2.4407305E+01
 2.2016750E+01  2.4425676E+01
 2.2028252E+01  2.4437250E+01
 2.2039751E+01  2.4431023E+01
 2.2051250E+01  2.4476307E+01
 2.2062752E+01  2.4475117E+01
 2.2074251E+01  2.4496431E+01
 2.2085751E+01  2.4509947E+01
 2.2097252E+01  2.4546686E+01
 2.2108751E+01  2.4523203E+01
 2.2120251E+01  2.4511259E+01
 2.2131752E+01  2.4502520E+01
 2.2143251E+01  2.4528025E+01
 2.2154751E+01  2.4558826E+01
 2.2166250E+01  2.4524143E+01
 2.2177752E+01  2.4523163E+01
 2.2189251E+01  2.4539721E+01
 2.2200750E+01  2.4573061E+01
 2.2212252E+01  2.4566261E+01
 2.2223751E+01  2.4597639E+01
 2.2235250E+01  2.4667858E+01
 2.2246752E+01  2.4694511E+01
 2.2258251E+01  2.4686975E+01
 2.2269751E+01  2.4684282E+01
 2.2281252E+01  2.4733353E+01
 2.2292751E+01  2.5005508E+01
 2.2304251E+01  2.5064304E+01
 2.2315752E+01  2.5070274E+01
 2.2327251E+01  2.4873556E+01
 2.2338751E+01  2.4843803E+01
 2.2350250E+01  2.4769884E+01
 2.2361752E+01  2.4779963E+01
 2.2373251E+01  2.4733412E+01
 2.2384750E+01  2.4731274E+01
 2.2396252E+01  2.4722975E+01
 2.2407751E+01  2.4698294E+01
 2.2419250E+01  2.4705553E+01
 2.2430752E+01  2.4733679E+01
 2.2442251E+01  2.4783861E+01
 2.2453751E+01  2.4819336E+01
 2.2465252E+01  2.4869137E+01
 2.2476751E+01  2.4829367E+01
 2.2488251E+01  2.4837847E+01
 2.2499752E+01  2.4837646E+01
 2.2511251E+01  2.4925627E+01
 2.2522751E+01  2.4990486E+01
 2.2534250E+01  2.5032982E+01
 2.2545752E+01  2.5072689E+01
 2.2557251E+01  2.5121595E+01
 2.2568750E+01  2.5163622E+01
 2.2580252E+01  2.5239252E+01
 2.2591751E+01  2.5305702E+01
 2.2603251E+01  2.5355810E+01
 2.2614752E+01  2.5372311E+01
 2.2626251E+01  2.5360294E+01
 2.2637751E+01  2.5301523E+01
 2.2649252E+01  2.5192114E+01
 2.2660751E+01  2.5173178E+01
 2.2672251E+01  2.5209087E+01
 2.2683752E+01  2.5302549E+01
 2.2695251E+01  2.5402439E+01
 2.2706751E+01  2.5462284E+01
 2.2718250E+01  2.5509613E+01
 2.2729752E+01  2.5509281E+01
 2.2741251E+01  2.5645311E+01
 2.2752750E+01  2.5682198E+01
 2.2764252E+01  2.5724714E+01
 2.2775751E+01  2.5670965E+01
 2.2787251E+01  2.5668896E+01
 2.2798752E+01  2.5691296E+01
 2.2810251E+01  2.5728815E+01
 2.2821751E+01  2.5812248E+01
 2.2833252E+01  2.5870739E+01
 2.2844751E+01  2.5916151E+01
 2.2856251E+01  2.5924667E+01
 2.2867750E+01  2.5920835E+01
 2.2879251E+01  2.5938934E+01
 2.2890751E+01  2.5982164E+01
 2.2902250E+01  2.6064398E+01
 2.2913752E+01  2.6192738E+01
 2.2925251E+01  2.6320505E+01
 2.2936750E+01  2.6496149E+01
 2.2948252E+01  2.6551468E+01
 2.2959751E+01  2.7116241E+01
 2.2971251E+01  2.7243198E+01
 2.2982752E+01  2.7964993E+01
 2.2994251E+01  2.8817228E+01
