F:\20151113_APS_34IDE\\Brian\Particle1\OCV\Data_0096.tif
2-Theta Angle (Degrees)
Intensity
       2000
 5.7500005E-03  0.0000000E+00
 1.7250001E-02  0.0000000E+00
 2.8750001E-02  0.0000000E+00
 4.0250003E-02  0.0000000E+00
 5.1750004E-02  0.0000000E+00
 6.3250005E-02  0.0000000E+00
 7.4750006E-02  0.0000000E+00
 8.6250007E-02  0.0000000E+00
 9.7750008E-02  0.0000000E+00
 1.0925001E-01  0.0000000E+00
 1.2075000E-01  0.0000000E+00
 1.3225001E-01  0.0000000E+00
 1.4375001E-01  0.0000000E+00
 1.5525001E-01  0.0000000E+00
 1.6675001E-01  0.0000000E+00
 1.7825001E-01  0.0000000E+00
 1.8975002E-01  0.0000000E+00
 2.0125002E-01  0.0000000E+00
 2.1275002E-01  0.0000000E+00
 2.2425000E-01  0.0000000E+00
 2.3575000E-01  0.0000000E+00
 2.4725001E-01  0.0000000E+00
 2.5875002E-01  0.0000000E+00
 2.7025002E-01  0.0000000E+00
 2.8175002E-01  0.0000000E+00
 2.9325002E-01  0.0000000E+00
 3.0475003E-01  0.0000000E+00
 3.1625003E-01  0.0000000E+00
 3.2775003E-01  0.0000000E+00
 3.3925003E-01  0.0000000E+00
 3.5075003E-01  0.0000000E+00
 3.6225003E-01  0.0000000E+00
 3.7375003E-01  0.0000000E+00
 3.8525003E-01  0.0000000E+00
 3.9675003E-01  0.0000000E+00
 4.0825003E-01  0.0000000E+00
 4.1975003E-01  0.0000000E+00
 4.3125004E-01  0.0000000E+00
 4.4275001E-01  0.0000000E+00
 4.5425001E-01  0.0000000E+00
 4.6575001E-01  0.0000000E+00
 4.7725001E-01  0.0000000E+00
 4.8875001E-01  0.0000000E+00
 5.0025004E-01  0.0000000E+00
 5.1175004E-01  0.0000000E+00
 5.2325004E-01  0.0000000E+00
 5.3475004E-01  0.0000000E+00
 5.4625005E-01  0.0000000E+00
 5.5775005E-01  0.0000000E+00
 5.6925005E-01  0.0000000E+00
 5.8075005E-01  0.0000000E+00
 5.9225005E-01  0.0000000E+00
 6.0375005E-01  0.0000000E+00
 6.1525005E-01  0.0000000E+00
 6.2675005E-01  0.0000000E+00
 6.3825005E-01  0.0000000E+00
 6.4975005E-01  0.0000000E+00
 6.6125005E-01  0.0000000E+00
 6.7275006E-01  0.0000000E+00
 6.8425006E-01  0.0000000E+00
 6.9575006E-01  0.0000000E+00
 7.0725006E-01  0.0000000E+00
 7.1875006E-01  0.0000000E+00
 7.3025006E-01  0.0000000E+00
 7.4175006E-01  0.0000000E+00
 7.5325006E-01  0.0000000E+00
 7.6475006E-01  0.0000000E+00
 7.7625006E-01  0.0000000E+00
 7.8775007E-01  0.0000000E+00
 7.9925007E-01  0.0000000E+00
 8.1075007E-01  0.0000000E+00
 8.2225007E-01  0.0000000E+00
 8.3375007E-01  0.0000000E+00
 8.4525007E-01  0.0000000E+00
 8.5675007E-01  0.0000000E+00
 8.6825007E-01  0.0000000E+00
 8.7975001E-01  0.0000000E+00
 8.9125001E-01  0.0000000E+00
 9.0275002E-01  0.0000000E+00
 9.1425002E-01  0.0000000E+00
 9.2575002E-01  0.0000000E+00
 9.3725002E-01  0.0000000E+00
 9.4875002E-01  0.0000000E+00
 9.6025002E-01  0.0000000E+00
 9.7175002E-01  0.0000000E+00
 9.8325002E-01  0.0000000E+00
 9.9475002E-01  0.0000000E+00
 1.0062500E+00  0.0000000E+00
 1.0177500E+00  0.0000000E+00
 1.0292500E+00  0.0000000E+00
 1.0407500E+00  0.0000000E+00
 1.0522500E+00  0.0000000E+00
 1.0637500E+00  0.0000000E+00
 1.0752500E+00  0.0000000E+00
 1.0867500E+00  0.0000000E+00
 1.0982500E+00  0.0000000E+00
 1.1097500E+00  0.0000000E+00
 1.1212500E+00  0.0000000E+00
 1.1327500E+00  0.0000000E+00
 1.1442500E+00  0.0000000E+00
 1.1557500E+00  0.0000000E+00
 1.1672500E+00  0.0000000E+00
 1.1787500E+00  0.0000000E+00
 1.1902500E+00  0.0000000E+00
 1.2017500E+00  0.0000000E+00
 1.2132500E+00  0.0000000E+00
 1.2247500E+00  0.0000000E+00
 1.2362500E+00  0.0000000E+00
 1.2477500E+00  0.0000000E+00
 1.2592500E+00  0.0000000E+00
 1.2707500E+00  0.0000000E+00
 1.2822500E+00  0.0000000E+00
 1.2937500E+00  0.0000000E+00
 1.3052500E+00  0.0000000E+00
 1.3167500E+00  0.0000000E+00
 1.3282501E+00  0.0000000E+00
 1.3397501E+00  0.0000000E+00
 1.3512501E+00  0.0000000E+00
 1.3627501E+00  0.0000000E+00
 1.3742501E+00  0.0000000E+00
 1.3857501E+00  0.0000000E+00
 1.3972501E+00  0.0000000E+00
 1.4087501E+00  0.0000000E+00
 1.4202501E+00  0.0000000E+00
 1.4317501E+00  0.0000000E+00
 1.4432501E+00  0.0000000E+00
 1.4547501E+00  0.0000000E+00
 1.4662501E+00  0.0000000E+00
 1.4777501E+00  0.0000000E+00
 1.4892501E+00  0.0000000E+00
 1.5007501E+00  0.0000000E+00
 1.5122501E+00  0.0000000E+00
 1.5237501E+00  0.0000000E+00
 1.5352501E+00  0.0000000E+00
 1.5467501E+00  0.0000000E+00
 1.5582501E+00  0.0000000E+00
 1.5697501E+00  0.0000000E+00
 1.5812501E+00  0.0000000E+00
 1.5927501E+00  0.0000000E+00
 1.6042501E+00  0.0000000E+00
 1.6157501E+00  0.0000000E+00
 1.6272501E+00  0.0000000E+00
 1.6387501E+00  0.0000000E+00
 1.6502501E+00  0.0000000E+00
 1.6617501E+00  0.0000000E+00
 1.6732501E+00  0.0000000E+00
 1.6847501E+00  0.0000000E+00
 1.6962501E+00  0.0000000E+00
 1.7077501E+00  0.0000000E+00
 1.7192501E+00  0.0000000E+00
 1.7307501E+00  0.0000000E+00
 1.7422501E+00  0.0000000E+00
 1.7537501E+00  0.0000000E+00
 1.7652501E+00  0.0000000E+00
 1.7767501E+00  0.0000000E+00
 1.7882501E+00  0.0000000E+00
 1.7997501E+00  0.0000000E+00
 1.8112501E+00  0.0000000E+00
 1.8227501E+00  0.0000000E+00
 1.8342501E+00  0.0000000E+00
 1.8457501E+00  0.0000000E+00
 1.8572501E+00  0.0000000E+00
 1.8687501E+00  0.0000000E+00
 1.8802501E+00  0.0000000E+00
 1.8917501E+00  0.0000000E+00
 1.9032501E+00  0.0000000E+00
 1.9147501E+00  0.0000000E+00
 1.9262501E+00  0.0000000E+00
 1.9377501E+00  0.0000000E+00
 1.9492501E+00  0.0000000E+00
 1.9607501E+00  0.0000000E+00
 1.9722501E+00  0.0000000E+00
 1.9837501E+00  0.0000000E+00
 1.9952501E+00  0.0000000E+00
 2.0067501E+00  0.0000000E+00
 2.0182500E+00  0.0000000E+00
 2.0297501E+00  0.0000000E+00
 2.0412500E+00  0.0000000E+00
 2.0527501E+00  0.0000000E+00
 2.0642500E+00  0.0000000E+00
 2.0757501E+00  0.0000000E+00
 2.0872500E+00  0.0000000E+00
 2.0987501E+00  0.0000000E+00
 2.1102500E+00  0.0000000E+00
 2.1217501E+00  0.0000000E+00
 2.1332500E+00  0.0000000E+00
 2.1447501E+00  0.0000000E+00
 2.1562500E+00  0.0000000E+00
 2.1677501E+00  0.0000000E+00
 2.1792500E+00  0.0000000E+00
 2.1907501E+00  0.0000000E+00
 2.2022500E+00  0.0000000E+00
 2.2137501E+00  0.0000000E+00
 2.2252500E+00  0.0000000E+00
 2.2367501E+00  0.0000000E+00
 2.2482500E+00  0.0000000E+00
 2.2597501E+00  0.0000000E+00
 2.2712500E+00  0.0000000E+00
 2.2827501E+00  0.0000000E+00
 2.2942500E+00  0.0000000E+00
 2.3057501E+00  0.0000000E+00
 2.3172500E+00  0.0000000E+00
 2.3287501E+00  0.0000000E+00
 2.3402500E+00  0.0000000E+00
 2.3517501E+00  0.0000000E+00
 2.3632500E+00  0.0000000E+00
 2.3747501E+00  0.0000000E+00
 2.3862500E+00  0.0000000E+00
 2.3977501E+00  0.0000000E+00
 2.4092500E+00  0.0000000E+00
 2.4207501E+00  0.0000000E+00
 2.4322500E+00  0.0000000E+00
 2.4437501E+00  0.0000000E+00
 2.4552500E+00  0.0000000E+00
 2.4667501E+00  0.0000000E+00
 2.4782500E+00  0.0000000E+00
 2.4897501E+00  0.0000000E+00
 2.5012500E+00  0.0000000E+00
 2.5127501E+00  0.0000000E+00
 2.5242500E+00  0.0000000E+00
 2.5357502E+00  0.0000000E+00
 2.5472500E+00  0.0000000E+00
 2.5587502E+00  0.0000000E+00
 2.5702500E+00  0.0000000E+00
 2.5817502E+00  0.0000000E+00
 2.5932500E+00  0.0000000E+00
 2.6047502E+00  0.0000000E+00
 2.6162500E+00  0.0000000E+00
 2.6277502E+00  0.0000000E+00
 2.6392500E+00  0.0000000E+00
 2.6507502E+00  0.0000000E+00
 2.6622500E+00  0.0000000E+00
 2.6737502E+00  0.0000000E+00
 2.6852500E+00  0.0000000E+00
 2.6967502E+00  0.0000000E+00
 2.7082500E+00  0.0000000E+00
 2.7197502E+00  0.0000000E+00
 2.7312500E+00  0.0000000E+00
 2.7427502E+00  0.0000000E+00
 2.7542500E+00  0.0000000E+00
 2.7657502E+00  0.0000000E+00
 2.7772501E+00  0.0000000E+00
 2.7887502E+00  0.0000000E+00
 2.8002501E+00  0.0000000E+00
 2.8117502E+00  0.0000000E+00
 2.8232501E+00  4.1188869E+01
 2.8347502E+00  3.6823872E+01
 2.8462501E+00  3.5188213E+01
 2.8577502E+00  3.4649624E+01
 2.8692501E+00  3.4207748E+01
 2.8807502E+00  3.4667435E+01
 2.8922501E+00  3.5028534E+01
 2.9037502E+00  3.5250648E+01
 2.9152501E+00  3.5637726E+01
 2.9267502E+00  3.5714417E+01
 2.9382501E+00  3.5837769E+01
 2.9497502E+00  3.5718117E+01
 2.9612501E+00  3.5673748E+01
 2.9727502E+00  3.5343311E+01
 2.9842501E+00  3.5480316E+01
 2.9957502E+00  3.5568596E+01
 3.0072501E+00  3.6140736E+01
 3.0187502E+00  3.6340599E+01
 3.0302501E+00  3.6220177E+01
 3.0417502E+00  3.6271763E+01
 3.0532501E+00  3.5982128E+01
 3.0647502E+00  3.5967842E+01
 3.0762501E+00  3.5482647E+01
 3.0877502E+00  3.5264210E+01
 3.0992501E+00  3.5343231E+01
 3.1107502E+00  3.5268696E+01
 3.1222501E+00  3.5324520E+01
 3.1337502E+00  3.4950939E+01
 3.1452501E+00  3.4980858E+01
 3.1567502E+00  3.4926281E+01
 3.1682501E+00  3.4887230E+01
 3.1797502E+00  3.4729393E+01
 3.1912501E+00  3.4817867E+01
 3.2027502E+00  3.4651134E+01
 3.2142501E+00  3.4843479E+01
 3.2257502E+00  3.4811314E+01
 3.2372501E+00  3.4722275E+01
 3.2487502E+00  3.4532776E+01
 3.2602501E+00  3.4353397E+01
 3.2717502E+00  3.4323997E+01
 3.2832501E+00  3.4471958E+01
 3.2947502E+00  3.4592777E+01
 3.3062501E+00  3.4798275E+01
 3.3177502E+00  3.4844219E+01
 3.3292501E+00  3.4943398E+01
 3.3407502E+00  3.4991135E+01
 3.3522501E+00  3.5021080E+01
 3.3637502E+00  3.4768105E+01
 3.3752501E+00  3.5016468E+01
 3.3867502E+00  3.4879436E+01
 3.3982501E+00  3.4939705E+01
 3.4097502E+00  3.4664196E+01
 3.4212501E+00  3.4664200E+01
 3.4327502E+00  3.4394909E+01
 3.4442501E+00  3.4353313E+01
 3.4557502E+00  3.4227543E+01
 3.4672501E+00  3.4150047E+01
 3.4787502E+00  3.4113506E+01
 3.4902501E+00  3.4297150E+01
 3.5017502E+00  3.4390888E+01
 3.5132501E+00  3.4358162E+01
 3.5247502E+00  3.4214764E+01
 3.5362501E+00  3.4409626E+01
 3.5477502E+00  3.4272690E+01
 3.5592501E+00  3.4034096E+01
 3.5707502E+00  3.3650856E+01
 3.5822501E+00  3.3454647E+01
 3.5937502E+00  3.3455288E+01
 3.6052501E+00  3.3382465E+01
 3.6167502E+00  3.3592545E+01
 3.6282501E+00  3.3723370E+01
 3.6397502E+00  3.3743786E+01
 3.6512501E+00  3.3677895E+01
 3.6627502E+00  3.3622910E+01
 3.6742501E+00  3.3611053E+01
 3.6857502E+00  3.3788780E+01
 3.6972501E+00  3.3663197E+01
 3.7087502E+00  3.3747879E+01
 3.7202501E+00  3.3491959E+01
 3.7317502E+00  3.3469440E+01
 3.7432501E+00  3.3318127E+01
 3.7547503E+00  3.3423649E+01
 3.7662501E+00  3.3350960E+01
 3.7777503E+00  3.3523209E+01
 3.7892501E+00  3.3443317E+01
 3.8007503E+00  3.3437191E+01
 3.8122501E+00  3.3316254E+01
 3.8237503E+00  3.3220825E+01
 3.8352501E+00  3.3143932E+01
 3.8467503E+00  3.3115467E+01
 3.8582501E+00  3.3007095E+01
 3.8697503E+00  3.3097244E+01
 3.8812501E+00  3.3230553E+01
 3.8927503E+00  3.3457787E+01
 3.9042501E+00  3.3604630E+01
 3.9157503E+00  3.3552551E+01
 3.9272501E+00  3.3383007E+01
 3.9387503E+00  3.3247952E+01
 3.9502501E+00  3.3063786E+01
 3.9617503E+00  3.2964710E+01
 3.9732502E+00  3.2879765E+01
 3.9847503E+00  3.2817459E+01
 3.9962502E+00  3.2884892E+01
 4.0077500E+00  3.2866646E+01
 4.0192504E+00  3.3010338E+01
 4.0307503E+00  3.3087448E+01
 4.0422502E+00  3.3066978E+01
 4.0537500E+00  3.3071541E+01
 4.0652504E+00  3.3048237E+01
 4.0767503E+00  3.2929268E+01
 4.0882502E+00  3.2893604E+01
 4.0997500E+00  3.2963127E+01
 4.1112504E+00  3.3036709E+01
 4.1227503E+00  3.3038616E+01
 4.1342502E+00  3.2898106E+01
 4.1457500E+00  3.2963352E+01
 4.1572504E+00  3.2978973E+01
 4.1687503E+00  3.2798023E+01
 4.1802502E+00  3.2656750E+01
 4.1917500E+00  3.2551685E+01
 4.2032504E+00  3.2620903E+01
 4.2147503E+00  3.2767887E+01
 4.2262502E+00  3.2682236E+01
 4.2377501E+00  3.2541138E+01
 4.2492504E+00  3.2114902E+01
 4.2607503E+00  3.2093151E+01
 4.2722502E+00  3.2031384E+01
 4.2837501E+00  3.2131210E+01
 4.2952504E+00  3.2069141E+01
 4.3067503E+00  3.2149220E+01
 4.3182502E+00  3.2234142E+01
 4.3297501E+00  3.2326736E+01
 4.3412504E+00  3.2310272E+01
 4.3527503E+00  3.2334469E+01
 4.3642502E+00  3.2408295E+01
 4.3757501E+00  3.2463718E+01
 4.3872504E+00  3.2578861E+01
 4.3987503E+00  3.2579853E+01
 4.4102502E+00  3.2534420E+01
 4.4217501E+00  3.2458679E+01
 4.4332504E+00  3.2501999E+01
 4.4447503E+00  3.2623528E+01
 4.4562502E+00  3.2831726E+01
 4.4677501E+00  3.2832199E+01
 4.4792504E+00  3.2968300E+01
 4.4907503E+00  3.2939903E+01
 4.5022502E+00  3.2987236E+01
 4.5137501E+00  3.2933136E+01
 4.5252504E+00  3.2867531E+01
 4.5367503E+00  3.2863216E+01
 4.5482502E+00  3.2942760E+01
 4.5597501E+00  3.2949108E+01
 4.5712504E+00  3.3043537E+01
 4.5827503E+00  3.3123482E+01
 4.5942502E+00  3.3241497E+01
 4.6057501E+00  3.3365223E+01
 4.6172504E+00  3.3294037E+01
 4.6287503E+00  3.3256248E+01
 4.6402502E+00  3.3099342E+01
 4.6517501E+00  3.3040836E+01
 4.6632504E+00  3.3017250E+01
 4.6747503E+00  3.3049568E+01
 4.6862502E+00  3.2951382E+01
 4.6977501E+00  3.2912193E+01
 4.7092505E+00  3.2932629E+01
 4.7207503E+00  3.2949371E+01
 4.7322502E+00  3.2926506E+01
 4.7437501E+00  3.2963379E+01
 4.7552505E+00  3.2939495E+01
 4.7667503E+00  3.3062977E+01
 4.7782502E+00  3.3028370E+01
 4.7897501E+00  3.3103390E+01
 4.8012505E+00  3.2947048E+01
 4.8127503E+00  3.2935360E+01
 4.8242502E+00  3.2835819E+01
 4.8357501E+00  3.2932606E+01
 4.8472505E+00  3.2999088E+01
 4.8587503E+00  3.3198879E+01
 4.8702502E+00  3.3300987E+01
 4.8817501E+00  3.3338547E+01
 4.8932505E+00  3.3321529E+01
 4.9047503E+00  3.3390114E+01
 4.9162502E+00  3.3523212E+01
 4.9277501E+00  3.3539658E+01
 4.9392505E+00  3.3445972E+01
 4.9507504E+00  3.3200306E+01
 4.9622502E+00  3.3102421E+01
 4.9737501E+00  3.3155388E+01
 4.9852505E+00  3.3239887E+01
 4.9967504E+00  3.3263351E+01
 5.0082502E+00  3.3385796E+01
 5.0197501E+00  3.3415844E+01
 5.0312505E+00  3.3629230E+01
 5.0427504E+00  3.3562824E+01
 5.0542502E+00  3.3599789E+01
 5.0657501E+00  3.3585930E+01
 5.0772505E+00  3.3676693E+01
 5.0887504E+00  3.3747269E+01
 5.1002502E+00  3.3694847E+01
 5.1117501E+00  3.3735981E+01
 5.1232505E+00  3.3660667E+01
 5.1347504E+00  3.3867477E+01
 5.1462502E+00  3.3891140E+01
 5.1577501E+00  3.4047596E+01
 5.1692505E+00  3.4053658E+01
 5.1807504E+00  3.4229153E+01
 5.1922503E+00  3.4363426E+01
 5.2037501E+00  3.4410728E+01
 5.2152505E+00  3.4343575E+01
 5.2267504E+00  3.4405468E+01
 5.2382503E+00  3.4414112E+01
 5.2497501E+00  3.4502686E+01
 5.2612505E+00  3.4518372E+01
 5.2727504E+00  3.4435562E+01
 5.2842503E+00  3.4489883E+01
 5.2957501E+00  3.4439732E+01
 5.3072500E+00  3.4530010E+01
 5.3187504E+00  3.4523907E+01
 5.3302503E+00  3.4517040E+01
 5.3417501E+00  3.4616467E+01
 5.3532500E+00  3.4612995E+01
 5.3647504E+00  3.4654461E+01
 5.3762503E+00  3.4693493E+01
 5.3877501E+00  3.4742599E+01
 5.3992500E+00  3.4804928E+01
 5.4107504E+00  3.4642170E+01
 5.4222503E+00  3.4577297E+01
 5.4337502E+00  3.4522629E+01
 5.4452500E+00  3.4664646E+01
 5.4567504E+00  3.4816277E+01
 5.4682503E+00  3.4922302E+01
 5.4797502E+00  3.5048553E+01
 5.4912500E+00  3.5017269E+01
 5.5027504E+00  3.4986053E+01
 5.5142503E+00  3.4962372E+01
 5.5257502E+00  3.4986721E+01
 5.5372500E+00  3.5062645E+01
 5.5487504E+00  3.5174740E+01
 5.5602503E+00  3.5381298E+01
 5.5717502E+00  3.5594868E+01
 5.5832500E+00  3.5628475E+01
 5.5947504E+00  3.5693413E+01
 5.6062503E+00  3.5683365E+01
 5.6177502E+00  3.5668446E+01
 5.6292500E+00  3.5672176E+01
 5.6407504E+00  3.5619259E+01
 5.6522503E+00  3.5689594E+01
 5.6637502E+00  3.5777927E+01
 5.6752501E+00  3.5865379E+01
 5.6867504E+00  3.6040428E+01
 5.6982503E+00  3.6096184E+01
 5.7097502E+00  3.6115967E+01
 5.7212501E+00  3.6016312E+01
 5.7327504E+00  3.6102570E+01
 5.7442503E+00  3.6188332E+01
 5.7557502E+00  3.6394257E+01
 5.7672501E+00  3.6470631E+01
 5.7787504E+00  3.6537464E+01
 5.7902503E+00  3.6574818E+01
 5.8017502E+00  3.6535519E+01
 5.8132501E+00  3.6566395E+01
 5.8247504E+00  3.6564396E+01
 5.8362503E+00  3.6551205E+01
 5.8477502E+00  3.6513206E+01
 5.8592501E+00  3.6569374E+01
 5.8707504E+00  3.6712460E+01
 5.8822503E+00  3.7046471E+01
 5.8937502E+00  3.7358849E+01
 5.9052501E+00  3.7958084E+01
 5.9167504E+00  3.8376198E+01
 5.9282503E+00  3.9847965E+01
 5.9397502E+00  4.1205757E+01
 5.9512501E+00  4.5440830E+01
 5.9627504E+00  4.7935112E+01
 5.9742503E+00  5.2310192E+01
 5.9857502E+00  5.4690189E+01
 5.9972501E+00  5.5796398E+01
 6.0087504E+00  5.2596161E+01
 6.0202503E+00  5.2941925E+01
 6.0317502E+00  4.8363678E+01
 6.0432501E+00  4.6584557E+01
 6.0547504E+00  4.0289196E+01
 6.0662503E+00  3.9360058E+01
 6.0777502E+00  3.8607170E+01
 6.0892501E+00  3.8008522E+01
 6.1007504E+00  3.7801022E+01
 6.1122503E+00  3.7663177E+01
 6.1237502E+00  3.7655869E+01
 6.1352501E+00  3.7688370E+01
 6.1467505E+00  3.7754219E+01
 6.1582503E+00  3.7679638E+01
 6.1697502E+00  3.7660870E+01
 6.1812501E+00  3.7712154E+01
 6.1927505E+00  3.7645454E+01
 6.2042503E+00  3.7691265E+01
 6.2157502E+00  3.7709759E+01
 6.2272501E+00  3.7888466E+01
 6.2387505E+00  3.7933437E+01
 6.2502503E+00  3.7914490E+01
 6.2617502E+00  3.7885071E+01
 6.2732501E+00  3.7971245E+01
 6.2847505E+00  3.8127689E+01
 6.2962503E+00  3.8209923E+01
 6.3077502E+00  3.8297161E+01
 6.3192501E+00  3.8262791E+01
 6.3307505E+00  3.8384731E+01
 6.3422503E+00  3.8374470E+01
 6.3537502E+00  3.8472225E+01
 6.3652501E+00  3.8539955E+01
 6.3767505E+00  3.8614037E+01
 6.3882504E+00  3.8749870E+01
 6.3997502E+00  3.8781883E+01
 6.4112501E+00  3.8953003E+01
 6.4227505E+00  3.9009312E+01
 6.4342504E+00  3.9035362E+01
 6.4457502E+00  3.9037182E+01
 6.4572501E+00  3.9088730E+01
 6.4687505E+00  3.9203335E+01
 6.4802504E+00  3.9309132E+01
 6.4917502E+00  3.9335144E+01
 6.5032501E+00  3.9550640E+01
 6.5147505E+00  3.9617657E+01
 6.5262504E+00  3.9712097E+01
 6.5377502E+00  3.9750019E+01
 6.5492501E+00  3.9911469E+01
 6.5607505E+00  4.0047531E+01
 6.5722504E+00  4.0219757E+01
 6.5837502E+00  4.0284447E+01
 6.5952501E+00  4.0437424E+01
 6.6067505E+00  4.0460033E+01
 6.6182504E+00  4.0460461E+01
 6.6297503E+00  4.0427063E+01
 6.6412501E+00  4.0418228E+01
 6.6527505E+00  4.0432835E+01
 6.6642504E+00  4.0555782E+01
 6.6757503E+00  4.0659191E+01
 6.6872501E+00  4.0761734E+01
 6.6987505E+00  4.0778080E+01
 6.7102504E+00  4.0794743E+01
 6.7217503E+00  4.0878639E+01
 6.7332501E+00  4.0894890E+01
 6.7447505E+00  4.1039570E+01
 6.7562504E+00  4.1188370E+01
 6.7677503E+00  4.1407810E+01
 6.7792501E+00  4.1510399E+01
 6.7907505E+00  4.1624111E+01
 6.8022504E+00  4.1718380E+01
 6.8137503E+00  4.1797974E+01
 6.8252501E+00  4.1791409E+01
 6.8367505E+00  4.1775101E+01
 6.8482504E+00  4.1824097E+01
 6.8597503E+00  4.1895359E+01
 6.8712502E+00  4.1939274E+01
 6.8827505E+00  4.2024284E+01
 6.8942504E+00  4.2087978E+01
 6.9057503E+00  4.2195896E+01
 6.9172502E+00  4.2209305E+01
 6.9287505E+00  4.2163857E+01
 6.9402504E+00  4.2288116E+01
 6.9517503E+00  4.2353168E+01
 6.9632502E+00  4.2548298E+01
 6.9747505E+00  4.2658749E+01
 6.9862504E+00  4.2800892E+01
 6.9977503E+00  4.2889179E+01
 7.0092502E+00  4.2928761E+01
 7.0207505E+00  4.2899540E+01
 7.0322504E+00  4.3013226E+01
 7.0437503E+00  4.2976254E+01
 7.0552502E+00  4.3029736E+01
 7.0667505E+00  4.2963871E+01
 7.0782504E+00  4.2948383E+01
 7.0897503E+00  4.2949986E+01
 7.1012502E+00  4.2924358E+01
 7.1127505E+00  4.3086010E+01
 7.1242504E+00  4.3321785E+01
 7.1357503E+00  4.3487843E+01
 7.1472502E+00  4.3544014E+01
 7.1587505E+00  4.3649147E+01
 7.1702504E+00  4.3723866E+01
 7.1817503E+00  4.3930367E+01
 7.1932502E+00  4.4017662E+01
 7.2047505E+00  4.4155556E+01
 7.2162504E+00  4.4238865E+01
 7.2277503E+00  4.4187359E+01
 7.2392502E+00  4.4145580E+01
 7.2507505E+00  4.4122185E+01
 7.2622504E+00  4.4084896E+01
 7.2737503E+00  4.4144897E+01
 7.2852502E+00  4.4123623E+01
 7.2967505E+00  4.4131058E+01
 7.3082504E+00  4.4155243E+01
 7.3197503E+00  4.4196312E+01
 7.3312502E+00  4.4268623E+01
 7.3427505E+00  4.4349213E+01
 7.3542504E+00  4.4388165E+01
 7.3657503E+00  4.4404484E+01
 7.3772502E+00  4.4393082E+01
 7.3887506E+00  4.4344265E+01
 7.4002504E+00  4.4369499E+01
 7.4117503E+00  4.4497246E+01
 7.4232502E+00  4.4649288E+01
 7.4347506E+00  4.4663658E+01
 7.4462504E+00  4.4699230E+01
 7.4577503E+00  4.4723850E+01
 7.4692502E+00  4.4761597E+01
 7.4807506E+00  4.4836140E+01
 7.4922504E+00  4.4836426E+01
 7.5037503E+00  4.4871964E+01
 7.5152502E+00  4.4798294E+01
 7.5267506E+00  4.4723778E+01
 7.5382504E+00  4.4789398E+01
 7.5497503E+00  4.4741341E+01
 7.5612502E+00  4.4863705E+01
 7.5727506E+00  4.4869091E+01
 7.5842505E+00  4.5064339E+01
 7.5957503E+00  4.5028423E+01
 7.6072502E+00  4.5054436E+01
 7.6187506E+00  4.4891300E+01
 7.6302505E+00  4.4819157E+01
 7.6417503E+00  4.4792255E+01
 7.6532502E+00  4.4785625E+01
 7.6647506E+00  4.4794804E+01
 7.6762505E+00  4.4754314E+01
 7.6877503E+00  4.4666222E+01
 7.6992502E+00  4.4616310E+01
 7.7107506E+00  4.4597332E+01
 7.7222505E+00  4.4608627E+01
 7.7337503E+00  4.4639183E+01
 7.7452502E+00  4.4641342E+01
 7.7567506E+00  4.4664726E+01
 7.7682505E+00  4.4706398E+01
 7.7797503E+00  4.4732319E+01
 7.7912502E+00  4.4841228E+01
 7.8027506E+00  4.4811520E+01
 7.8142505E+00  4.4889343E+01
 7.8257504E+00  4.4873852E+01
 7.8372502E+00  4.4969967E+01
 7.8487506E+00  4.4906284E+01
 7.8602505E+00  4.4744232E+01
 7.8717504E+00  4.4570183E+01
 7.8832502E+00  4.4333729E+01
 7.8947506E+00  4.4232986E+01
 7.9062505E+00  4.4102932E+01
 7.9177504E+00  4.4051842E+01
 7.9292502E+00  4.4026310E+01
 7.9407506E+00  4.3989128E+01
 7.9522505E+00  4.3995594E+01
 7.9637504E+00  4.4013050E+01
 7.9752502E+00  4.4027332E+01
 7.9867506E+00  4.4079426E+01
 7.9982505E+00  4.4063526E+01
 8.0097504E+00  4.3953949E+01
 8.0212507E+00  4.3837219E+01
 8.0327501E+00  4.3688751E+01
 8.0442505E+00  4.3623608E+01
 8.0557508E+00  4.3538673E+01
 8.0672503E+00  4.3436184E+01
 8.0787506E+00  4.3354954E+01
 8.0902500E+00  4.3284683E+01
 8.1017504E+00  4.3191345E+01
 8.1132507E+00  4.3125603E+01
 8.1247501E+00  4.2979267E+01
 8.1362505E+00  4.2928173E+01
 8.1477509E+00  4.2888397E+01
 8.1592503E+00  4.2749622E+01
 8.1707506E+00  4.2613945E+01
 8.1822500E+00  4.2431339E+01
 8.1937504E+00  4.2376827E+01
 8.2052507E+00  4.2319153E+01
 8.2167501E+00  4.2142044E+01
 8.2282505E+00  4.2005241E+01
 8.2397509E+00  4.1810184E+01
 8.2512503E+00  4.1664833E+01
 8.2627506E+00  4.1481949E+01
 8.2742500E+00  4.1301830E+01
 8.2857504E+00  4.1229153E+01
 8.2972507E+00  4.1166332E+01
 8.3087502E+00  4.1034798E+01
 8.3202505E+00  4.1058037E+01
 8.3317509E+00  4.0875183E+01
 8.3432503E+00  4.0814312E+01
 8.3547506E+00  4.0586975E+01
 8.3662500E+00  4.0451962E+01
 8.3777504E+00  4.0179245E+01
 8.3892508E+00  3.9983959E+01
 8.4007502E+00  3.9806789E+01
 8.4122505E+00  3.9617195E+01
 8.4237509E+00  3.9467125E+01
 8.4352503E+00  3.9302734E+01
 8.4467506E+00  3.9305969E+01
 8.4582500E+00  3.9123478E+01
 8.4697504E+00  3.8957203E+01
 8.4812508E+00  3.8693985E+01
 8.4927502E+00  3.8478249E+01
 8.5042505E+00  3.8267540E+01
 8.5157509E+00  3.8136238E+01
 8.5272503E+00  3.7992420E+01
 8.5387506E+00  3.7909847E+01
 8.5502501E+00  3.7710911E+01
 8.5617504E+00  3.7519691E+01
 8.5732508E+00  3.7274670E+01
 8.5847502E+00  3.7126701E+01
 8.5962505E+00  3.6886078E+01
 8.6077509E+00  3.6675591E+01
 8.6192503E+00  3.6396137E+01
 8.6307507E+00  3.6317829E+01
 8.6422501E+00  3.6124928E+01
 8.6537504E+00  3.5990307E+01
 8.6652508E+00  3.5775143E+01
 8.6767502E+00  3.5574520E+01
 8.6882505E+00  3.5408310E+01
 8.6997509E+00  3.5243729E+01
 8.7112503E+00  3.5079453E+01
 8.7227507E+00  3.4868660E+01
 8.7342501E+00  3.4624199E+01
 8.7457504E+00  3.4447388E+01
 8.7572508E+00  3.4299072E+01
 8.7687502E+00  3.4139725E+01
 8.7802505E+00  3.4009884E+01
 8.7917500E+00  3.3906242E+01
 8.8032503E+00  3.3831036E+01
 8.8147507E+00  3.3721146E+01
 8.8262501E+00  3.3598274E+01
 8.8377504E+00  3.3426640E+01
 8.8492508E+00  3.3207809E+01
 8.8607502E+00  3.3009331E+01
 8.8722506E+00  3.2869484E+01
 8.8837500E+00  3.2692989E+01
 8.8952503E+00  3.2483391E+01
 8.9067507E+00  3.2299118E+01
 8.9182501E+00  3.2140800E+01
 8.9297504E+00  3.2010326E+01
 8.9412508E+00  3.1800312E+01
 8.9527502E+00  3.1714762E+01
 8.9642506E+00  3.1562452E+01
 8.9757500E+00  3.1428606E+01
 8.9872503E+00  3.1271894E+01
 8.9987507E+00  3.1119936E+01
 9.0102501E+00  3.0963827E+01
 9.0217505E+00  3.0752935E+01
 9.0332508E+00  3.0613405E+01
 9.0447502E+00  3.0477365E+01
 9.0562506E+00  3.0331184E+01
 9.0677500E+00  3.0248688E+01
 9.0792503E+00  3.0120747E+01
 9.0907507E+00  3.0005512E+01
 9.1022501E+00  2.9841341E+01
 9.1137505E+00  2.9711681E+01
 9.1252508E+00  2.9607742E+01
 9.1367502E+00  2.9504038E+01
 9.1482506E+00  2.9399902E+01
 9.1597500E+00  2.9272972E+01
 9.1712503E+00  2.9135918E+01
 9.1827507E+00  2.8996675E+01
 9.1942501E+00  2.8887039E+01
 9.2057505E+00  2.8779768E+01
 9.2172508E+00  2.8687353E+01
 9.2287502E+00  2.8534939E+01
 9.2402506E+00  2.8496115E+01
 9.2517500E+00  2.8430912E+01
 9.2632504E+00  2.8399292E+01
 9.2747507E+00  2.8258001E+01
 9.2862501E+00  2.8141771E+01
 9.2977505E+00  2.8032251E+01
 9.3092508E+00  2.7885723E+01
 9.3207502E+00  2.7733522E+01
 9.3322506E+00  2.7696177E+01
 9.3437500E+00  2.7584564E+01
 9.3552504E+00  2.7561586E+01
 9.3667507E+00  2.7489662E+01
 9.3782501E+00  2.7534510E+01
 9.3897505E+00  2.7471388E+01
 9.4012508E+00  2.7318483E+01
 9.4127502E+00  2.7161142E+01
 9.4242506E+00  2.7079136E+01
 9.4357500E+00  2.7004070E+01
 9.4472504E+00  2.6977358E+01
 9.4587507E+00  2.6932577E+01
 9.4702501E+00  2.6898983E+01
 9.4817505E+00  2.6888422E+01
 9.4932508E+00  2.6782040E+01
 9.5047503E+00  2.6713301E+01
 9.5162506E+00  2.6545774E+01
 9.5277500E+00  2.6471687E+01
 9.5392504E+00  2.6352011E+01
 9.5507507E+00  2.6267862E+01
 9.5622501E+00  2.6135994E+01
 9.5737505E+00  2.6113630E+01
 9.5852509E+00  2.6040771E+01
 9.5967503E+00  2.6055361E+01
 9.6082506E+00  2.6030203E+01
 9.6197500E+00  2.6017904E+01
 9.6312504E+00  2.5919338E+01
 9.6427507E+00  2.5812450E+01
 9.6542501E+00  2.5739929E+01
 9.6657505E+00  2.5667202E+01
 9.6772509E+00  2.5592007E+01
 9.6887503E+00  2.5514643E+01
 9.7002506E+00  2.5499243E+01
 9.7117500E+00  2.5468981E+01
 9.7232504E+00  2.5393316E+01
 9.7347507E+00  2.5312393E+01
 9.7462502E+00  2.5276505E+01
 9.7577505E+00  2.5256287E+01
 9.7692509E+00  2.5286945E+01
 9.7807503E+00  2.5239975E+01
 9.7922506E+00  2.5212465E+01
 9.8037500E+00  2.5076696E+01
 9.8152504E+00  2.4992159E+01
 9.8267508E+00  2.4914333E+01
 9.8382502E+00  2.4836380E+01
 9.8497505E+00  2.4827782E+01
 9.8612509E+00  2.4814507E+01
 9.8727503E+00  2.4848459E+01
 9.8842506E+00  2.4808756E+01
 9.8957500E+00  2.4752243E+01
 9.9072504E+00  2.4761173E+01
 9.9187508E+00  2.4738403E+01
 9.9302502E+00  2.4704695E+01
 9.9417505E+00  2.4617193E+01
 9.9532509E+00  2.4514717E+01
 9.9647503E+00  2.4448263E+01
 9.9762506E+00  2.4377623E+01
 9.9877501E+00  2.4398344E+01
 9.9992504E+00  2.4399992E+01
 1.0010751E+01  2.4386244E+01
 1.0022250E+01  2.4368383E+01
 1.0033751E+01  2.4329590E+01
 1.0045251E+01  2.4390785E+01
 1.0056750E+01  2.4405682E+01
 1.0068251E+01  2.4442492E+01
 1.0079750E+01  2.4417635E+01
 1.0091250E+01  2.4305218E+01
 1.0102751E+01  2.4268517E+01
 1.0114250E+01  2.4193260E+01
 1.0125751E+01  2.4193438E+01
 1.0137251E+01  2.4139708E+01
 1.0148750E+01  2.4092918E+01
 1.0160251E+01  2.4062107E+01
 1.0171750E+01  2.4002384E+01
 1.0183250E+01  2.4010511E+01
 1.0194751E+01  2.3952847E+01
 1.0206250E+01  2.3954376E+01
 1.0217751E+01  2.3871782E+01
 1.0229251E+01  2.3801544E+01
 1.0240750E+01  2.3688908E+01
 1.0252251E+01  2.3591894E+01
 1.0263750E+01  2.3519135E+01
 1.0275250E+01  2.3509455E+01
 1.0286751E+01  2.3505575E+01
 1.0298250E+01  2.3519091E+01
 1.0309751E+01  2.3524248E+01
 1.0321251E+01  2.3540680E+01
 1.0332750E+01  2.3541206E+01
 1.0344251E+01  2.3540009E+01
 1.0355750E+01  2.3529367E+01
 1.0367250E+01  2.3516865E+01
 1.0378751E+01  2.3457775E+01
 1.0390250E+01  2.3499739E+01
 1.0401751E+01  2.3480173E+01
 1.0413251E+01  2.3535204E+01
 1.0424750E+01  2.3477697E+01
 1.0436251E+01  2.3486828E+01
 1.0447750E+01  2.3468567E+01
 1.0459250E+01  2.3458004E+01
 1.0470751E+01  2.3474461E+01
 1.0482250E+01  2.3453531E+01
 1.0493751E+01  2.3375874E+01
 1.0505251E+01  2.3295547E+01
 1.0516750E+01  2.3237715E+01
 1.0528251E+01  2.3149933E+01
 1.0539750E+01  2.3089602E+01
 1.0551250E+01  2.3075628E+01
 1.0562751E+01  2.3152046E+01
 1.0574250E+01  2.3136442E+01
 1.0585751E+01  2.3113483E+01
 1.0597251E+01  2.3018335E+01
 1.0608750E+01  2.3026239E+01
 1.0620251E+01  2.2994341E+01
 1.0631750E+01  2.3038290E+01
 1.0643250E+01  2.3049305E+01
 1.0654751E+01  2.3109735E+01
 1.0666250E+01  2.3076624E+01
 1.0677751E+01  2.3060333E+01
 1.0689251E+01  2.2994102E+01
 1.0700750E+01  2.3024916E+01
 1.0712251E+01  2.2952734E+01
 1.0723750E+01  2.2923008E+01
 1.0735250E+01  2.2883286E+01
 1.0746751E+01  2.2892355E+01
 1.0758250E+01  2.2871227E+01
 1.0769751E+01  2.2839874E+01
 1.0781251E+01  2.2870291E+01
 1.0792750E+01  2.2852663E+01
 1.0804251E+01  2.2850204E+01
 1.0815750E+01  2.2847979E+01
 1.0827250E+01  2.2903913E+01
 1.0838751E+01  2.2923508E+01
 1.0850250E+01  2.2949484E+01
 1.0861751E+01  2.2972536E+01
 1.0873251E+01  2.2955610E+01
 1.0884750E+01  2.2879547E+01
 1.0896251E+01  2.2790287E+01
 1.0907750E+01  2.2802906E+01
 1.0919250E+01  2.2831703E+01
 1.0930751E+01  2.2819572E+01
 1.0942250E+01  2.2779087E+01
 1.0953751E+01  2.2735935E+01
 1.0965251E+01  2.2741905E+01
 1.0976750E+01  2.2797548E+01
 1.0988251E+01  2.2798964E+01
 1.0999750E+01  2.2806507E+01
 1.1011250E+01  2.2735298E+01
 1.1022751E+01  2.2705084E+01
 1.1034250E+01  2.2650593E+01
 1.1045751E+01  2.2591003E+01
 1.1057251E+01  2.2537058E+01
 1.1068750E+01  2.2538942E+01
 1.1080251E+01  2.2569933E+01
 1.1091750E+01  2.2632841E+01
 1.1103251E+01  2.2690720E+01
 1.1114751E+01  2.2723881E+01
 1.1126250E+01  2.2751028E+01
 1.1137751E+01  2.2718710E+01
 1.1149251E+01  2.2731825E+01
 1.1160750E+01  2.2719311E+01
 1.1172251E+01  2.2705208E+01
 1.1183750E+01  2.2710636E+01
 1.1195251E+01  2.2715851E+01
 1.1206751E+01  2.2683537E+01
 1.1218250E+01  2.2618971E+01
 1.1229751E+01  2.2621801E+01
 1.1241251E+01  2.2654236E+01
 1.1252750E+01  2.2699789E+01
 1.1264251E+01  2.2682266E+01
 1.1275750E+01  2.2690022E+01
 1.1287251E+01  2.2654184E+01
 1.1298751E+01  2.2660397E+01
 1.1310250E+01  2.2648958E+01
 1.1321751E+01  2.2716827E+01
 1.1333251E+01  2.2757231E+01
 1.1344750E+01  2.2821369E+01
 1.1356251E+01  2.2831532E+01
 1.1367750E+01  2.2876841E+01
 1.1379251E+01  2.2955816E+01
 1.1390751E+01  2.3027565E+01
 1.1402250E+01  2.3141970E+01
 1.1413751E+01  2.3093113E+01
 1.1425251E+01  2.3129465E+01
 1.1436750E+01  2.3207659E+01
 1.1448251E+01  2.3247084E+01
 1.1459750E+01  2.3456068E+01
 1.1471251E+01  2.3433167E+01
 1.1482751E+01  2.3548542E+01
 1.1494250E+01  2.3746294E+01
 1.1505751E+01  2.3941347E+01
 1.1517251E+01  2.4580980E+01
 1.1528750E+01  2.5519382E+01
 1.1540251E+01  2.7050104E+01
 1.1551750E+01  2.8504160E+01
 1.1563251E+01  3.0714941E+01
 1.1574751E+01  3.2067226E+01
 1.1586250E+01  3.3658390E+01
 1.1597751E+01  3.2969448E+01
 1.1609251E+01  3.2601131E+01
 1.1620750E+01  3.0675041E+01
 1.1632251E+01  2.9163115E+01
 1.1643750E+01  2.7062044E+01
 1.1655251E+01  2.5601274E+01
 1.1666751E+01  2.4476427E+01
 1.1678250E+01  2.3845863E+01
 1.1689751E+01  2.3506958E+01
 1.1701251E+01  2.3218540E+01
 1.1712750E+01  2.3077221E+01
 1.1724251E+01  2.2907721E+01
 1.1735750E+01  2.2852156E+01
 1.1747251E+01  2.2829880E+01
 1.1758751E+01  2.2797253E+01
 1.1770250E+01  2.2729849E+01
 1.1781751E+01  2.2685835E+01
 1.1793251E+01  2.2678730E+01
 1.1804750E+01  2.2700926E+01
 1.1816251E+01  2.2694113E+01
 1.1827750E+01  2.2684874E+01
 1.1839251E+01  2.2663439E+01
 1.1850751E+01  2.2587093E+01
 1.1862250E+01  2.2581144E+01
 1.1873751E+01  2.2589779E+01
 1.1885251E+01  2.2638264E+01
 1.1896750E+01  2.2749006E+01
 1.1908251E+01  2.2846094E+01
 1.1919750E+01  2.2903194E+01
 1.1931251E+01  2.2906733E+01
 1.1942751E+01  2.2883139E+01
 1.1954250E+01  2.2930988E+01
 1.1965751E+01  2.3003311E+01
 1.1977251E+01  2.3041000E+01
 1.1988750E+01  2.3101488E+01
 1.2000251E+01  2.3101835E+01
 1.2011750E+01  2.3088121E+01
 1.2023251E+01  2.3098122E+01
 1.2034751E+01  2.3079693E+01
 1.2046250E+01  2.3264196E+01
 1.2057751E+01  2.3554081E+01
 1.2069251E+01  2.3904556E+01
 1.2080750E+01  2.4465368E+01
 1.2092251E+01  2.4779154E+01
 1.2103750E+01  2.5284674E+01
 1.2115251E+01  2.5137844E+01
 1.2126751E+01  2.5145407E+01
 1.2138250E+01  2.4457739E+01
 1.2149751E+01  2.4110493E+01
 1.2161251E+01  2.3424564E+01
 1.2172750E+01  2.3212152E+01
 1.2184251E+01  2.2871120E+01
 1.2195750E+01  2.2811205E+01
 1.2207251E+01  2.2723183E+01
 1.2218751E+01  2.2747721E+01
 1.2230250E+01  2.2720619E+01
 1.2241751E+01  2.2692736E+01
 1.2253251E+01  2.2701965E+01
 1.2264750E+01  2.2714624E+01
 1.2276251E+01  2.2735037E+01
 1.2287750E+01  2.2722006E+01
 1.2299251E+01  2.2789268E+01
 1.2310751E+01  2.2839495E+01
 1.2322250E+01  2.2796120E+01
 1.2333751E+01  2.2732340E+01
 1.2345250E+01  2.2679041E+01
 1.2356750E+01  2.2698616E+01
 1.2368251E+01  2.2632647E+01
 1.2379750E+01  2.2628345E+01
 1.2391251E+01  2.2599279E+01
 1.2402751E+01  2.2638195E+01
 1.2414250E+01  2.2635500E+01
 1.2425751E+01  2.2680428E+01
 1.2437250E+01  2.2742216E+01
 1.2448750E+01  2.2765211E+01
 1.2460251E+01  2.2770845E+01
 1.2471750E+01  2.2771490E+01
 1.2483251E+01  2.2833025E+01
 1.2494751E+01  2.2807804E+01
 1.2506250E+01  2.2743738E+01
 1.2517751E+01  2.2669355E+01
 1.2529250E+01  2.2698717E+01
 1.2540751E+01  2.2738039E+01
 1.2552251E+01  2.2820610E+01
 1.2563750E+01  2.2821936E+01
 1.2575251E+01  2.2838440E+01
 1.2586751E+01  2.2806698E+01
 1.2598250E+01  2.2846041E+01
 1.2609751E+01  2.2859426E+01
 1.2621250E+01  2.2908886E+01
 1.2632751E+01  2.2958647E+01
 1.2644251E+01  2.2965271E+01
 1.2655750E+01  2.2937433E+01
 1.2667251E+01  2.2945122E+01
 1.2678751E+01  2.2975042E+01
 1.2690250E+01  2.2995974E+01
 1.2701751E+01  2.2982573E+01
 1.2713250E+01  2.3009905E+01
 1.2724751E+01  2.3026695E+01
 1.2736251E+01  2.3030502E+01
 1.2747750E+01  2.3038355E+01
 1.2759251E+01  2.3075867E+01
 1.2770751E+01  2.3106680E+01
 1.2782250E+01  2.3266279E+01
 1.2793751E+01  2.3302856E+01
 1.2805250E+01  2.3465582E+01
 1.2816751E+01  2.3474604E+01
 1.2828251E+01  2.3582069E+01
 1.2839750E+01  2.3536642E+01
 1.2851251E+01  2.3545567E+01
 1.2862751E+01  2.3486105E+01
 1.2874250E+01  2.3481972E+01
 1.2885751E+01  2.3454344E+01
 1.2897250E+01  2.3513439E+01
 1.2908751E+01  2.3602091E+01
 1.2920251E+01  2.3686647E+01
 1.2931750E+01  2.3805000E+01
 1.2943251E+01  2.3848328E+01
 1.2954751E+01  2.3911839E+01
 1.2966250E+01  2.3934580E+01
 1.2977751E+01  2.4008810E+01
 1.2989250E+01  2.4043051E+01
 1.3000751E+01  2.4142281E+01
 1.3012251E+01  2.4193363E+01
 1.3023750E+01  2.4275953E+01
 1.3035251E+01  2.4284914E+01
 1.3046751E+01  2.4370888E+01
 1.3058250E+01  2.4430761E+01
 1.3069751E+01  2.4535521E+01
 1.3081250E+01  2.4624075E+01
 1.3092751E+01  2.4740715E+01
 1.3104251E+01  2.4924612E+01
 1.3115750E+01  2.5054804E+01
 1.3127251E+01  2.5171349E+01
 1.3138751E+01  2.5229097E+01
 1.3150250E+01  2.5339981E+01
 1.3161751E+01  2.5461153E+01
 1.3173250E+01  2.5547834E+01
 1.3184751E+01  2.5669506E+01
 1.3196251E+01  2.5736609E+01
 1.3207750E+01  2.5846853E+01
 1.3219251E+01  2.5933083E+01
 1.3230751E+01  2.6101135E+01
 1.3242250E+01  2.6322222E+01
 1.3253751E+01  2.6466869E+01
 1.3265250E+01  2.6629585E+01
 1.3276751E+01  2.6804056E+01
 1.3288251E+01  2.7011395E+01
 1.3299750E+01  2.7201246E+01
 1.3311251E+01  2.7289251E+01
 1.3322751E+01  2.7440899E+01
 1.3334250E+01  2.7620962E+01
 1.3345751E+01  2.7743139E+01
 1.3357250E+01  2.7928049E+01
 1.3368751E+01  2.8013220E+01
 1.3380251E+01  2.8171606E+01
 1.3391750E+01  2.8289804E+01
 1.3403251E+01  2.8435396E+01
 1.3414751E+01  2.8568087E+01
 1.3426250E+01  2.8659966E+01
 1.3437751E+01  2.8808855E+01
 1.3449250E+01  2.8946150E+01
 1.3460751E+01  2.9040617E+01
 1.3472251E+01  2.9099415E+01
 1.3483750E+01  2.9222410E+01
 1.3495251E+01  2.9391932E+01
 1.3506751E+01  2.9564142E+01
 1.3518250E+01  2.9694639E+01
 1.3529751E+01  2.9821196E+01
 1.3541250E+01  2.9939674E+01
 1.3552751E+01  2.9998083E+01
 1.3564251E+01  3.0022123E+01
 1.3575750E+01  3.0062422E+01
 1.3587251E+01  3.0077824E+01
 1.3598751E+01  3.0075310E+01
 1.3610250E+01  3.0041977E+01
 1.3621751E+01  3.0026236E+01
 1.3633250E+01  3.0046522E+01
 1.3644751E+01  3.0003328E+01
 1.3656251E+01  3.0022783E+01
 1.3667750E+01  3.0023270E+01
 1.3679251E+01  3.0068670E+01
 1.3690751E+01  3.0079702E+01
 1.3702250E+01  3.0067047E+01
 1.3713751E+01  3.0028534E+01
 1.3725250E+01  3.0046881E+01
 1.3736751E+01  3.0002726E+01
 1.3748251E+01  2.9969929E+01
 1.3759750E+01  2.9909452E+01
 1.3771251E+01  2.9920450E+01
 1.3782751E+01  2.9993906E+01
 1.3794250E+01  3.0005791E+01
 1.3805751E+01  3.0090509E+01
 1.3817250E+01  3.0085846E+01
 1.3828751E+01  3.0243376E+01
 1.3840251E+01  3.0356283E+01
 1.3851750E+01  3.0586023E+01
 1.3863251E+01  3.0859480E+01
 1.3874751E+01  3.1441488E+01
 1.3886250E+01  3.2251518E+01
 1.3897751E+01  3.3846691E+01
 1.3909250E+01  3.6560875E+01
 1.3920751E+01  3.9303940E+01
 1.3932251E+01  4.3522030E+01
 1.3943750E+01  4.7405552E+01
 1.3955251E+01  5.0561604E+01
 1.3966751E+01  5.3298973E+01
 1.3978251E+01  5.3697231E+01
 1.3989751E+01  5.2401375E+01
 1.4001250E+01  4.8311050E+01
 1.4012751E+01  4.3020763E+01
 1.4024251E+01  3.8712692E+01
 1.4035750E+01  3.4141777E+01
 1.4047251E+01  3.1832163E+01
 1.4058751E+01  3.0213966E+01
 1.4070251E+01  2.9383488E+01
 1.4081751E+01  2.8935547E+01
 1.4093250E+01  2.8626003E+01
 1.4104751E+01  2.8390390E+01
 1.4116251E+01  2.8220390E+01
 1.4127750E+01  2.8070084E+01
 1.4139251E+01  2.7927397E+01
 1.4150751E+01  2.7786671E+01
 1.4162251E+01  2.7639526E+01
 1.4173751E+01  2.7498236E+01
 1.4185250E+01  2.7320639E+01
 1.4196751E+01  2.7227539E+01
 1.4208251E+01  2.7159386E+01
 1.4219750E+01  2.7109789E+01
 1.4231251E+01  2.6986151E+01
 1.4242751E+01  2.6934244E+01
 1.4254251E+01  2.6886482E+01
 1.4265751E+01  2.6812979E+01
 1.4277250E+01  2.6653503E+01
 1.4288751E+01  2.6607674E+01
 1.4300251E+01  2.6521212E+01
 1.4311750E+01  2.6461777E+01
 1.4323251E+01  2.6358397E+01
 1.4334751E+01  2.6337822E+01
 1.4346251E+01  2.6326687E+01
 1.4357751E+01  2.6336273E+01
 1.4369250E+01  2.6329113E+01
 1.4380751E+01  2.6330025E+01
 1.4392251E+01  2.6257145E+01
 1.4403750E+01  2.6214609E+01
 1.4415251E+01  2.6173887E+01
 1.4426751E+01  2.6159719E+01
 1.4438251E+01  2.6177597E+01
 1.4449751E+01  2.6168228E+01
 1.4461250E+01  2.6047966E+01
 1.4472751E+01  2.5934917E+01
 1.4484251E+01  2.5780695E+01
 1.4495750E+01  2.5787563E+01
 1.4507251E+01  2.5745924E+01
 1.4518751E+01  2.5753893E+01
 1.4530251E+01  2.5733593E+01
 1.4541751E+01  2.5708939E+01
 1.4553250E+01  2.5733253E+01
 1.4564751E+01  2.5705112E+01
 1.4576251E+01  2.5724552E+01
 1.4587750E+01  2.5671331E+01
 1.4599251E+01  2.5635395E+01
 1.4610751E+01  2.5549438E+01
 1.4622251E+01  2.5546888E+01
 1.4633751E+01  2.5530060E+01
 1.4645250E+01  2.5511782E+01
 1.4656751E+01  2.5472383E+01
 1.4668251E+01  2.5441605E+01
 1.4679750E+01  2.5460257E+01
 1.4691251E+01  2.5517506E+01
 1.4702751E+01  2.5551151E+01
 1.4714251E+01  2.5560038E+01
 1.4725751E+01  2.5503242E+01
 1.4737250E+01  2.5424925E+01
 1.4748751E+01  2.5372871E+01
 1.4760251E+01  2.5311584E+01
 1.4771750E+01  2.5322048E+01
 1.4783251E+01  2.5299335E+01
 1.4794751E+01  2.5295261E+01
 1.4806251E+01  2.5222738E+01
 1.4817751E+01  2.5161436E+01
 1.4829250E+01  2.5133654E+01
 1.4840751E+01  2.5187332E+01
 1.4852251E+01  2.5222292E+01
 1.4863750E+01  2.5216072E+01
 1.4875251E+01  2.5159454E+01
 1.4886751E+01  2.5123999E+01
 1.4898251E+01  2.5136135E+01
 1.4909751E+01  2.5167330E+01
 1.4921250E+01  2.5127241E+01
 1.4932751E+01  2.5068810E+01
 1.4944251E+01  2.4982435E+01
 1.4955750E+01  2.4982138E+01
 1.4967251E+01  2.4979673E+01
 1.4978751E+01  2.5046011E+01
 1.4990251E+01  2.5049419E+01
 1.5001751E+01  2.5099710E+01
 1.5013250E+01  2.5108288E+01
 1.5024751E+01  2.5152252E+01
 1.5036251E+01  2.5104633E+01
 1.5047750E+01  2.5088181E+01
 1.5059251E+01  2.5087040E+01
 1.5070751E+01  2.5171135E+01
 1.5082251E+01  2.5168049E+01
 1.5093751E+01  2.5209044E+01
 1.5105250E+01  2.5253807E+01
 1.5116751E+01  2.5364397E+01
 1.5128251E+01  2.5456116E+01
 1.5139750E+01  2.5686459E+01
 1.5151251E+01  2.6016844E+01
 1.5162751E+01  2.6589865E+01
 1.5174251E+01  2.7206564E+01
 1.5185751E+01  2.8004374E+01
 1.5197250E+01  2.8381348E+01
 1.5208751E+01  2.8589417E+01
 1.5220251E+01  2.8296780E+01
 1.5231750E+01  2.7685658E+01
 1.5243251E+01  2.6988661E+01
 1.5254751E+01  2.6323954E+01
 1.5266251E+01  2.5861418E+01
 1.5277751E+01  2.5493904E+01
 1.5289250E+01  2.5262583E+01
 1.5300751E+01  2.5113657E+01
 1.5312251E+01  2.5016375E+01
 1.5323750E+01  2.4975264E+01
 1.5335251E+01  2.4950516E+01
 1.5346751E+01  2.4885313E+01
 1.5358251E+01  2.4829277E+01
 1.5369751E+01  2.4792690E+01
 1.5381250E+01  2.4743099E+01
 1.5392751E+01  2.4759172E+01
 1.5404251E+01  2.4832672E+01
 1.5415751E+01  2.4846853E+01
 1.5427251E+01  2.4858225E+01
 1.5438751E+01  2.4839911E+01
 1.5450251E+01  2.4878695E+01
 1.5461751E+01  2.4863400E+01
 1.5473250E+01  2.4855263E+01
 1.5484751E+01  2.4861128E+01
 1.5496251E+01  2.4797337E+01
 1.5507751E+01  2.4754356E+01
 1.5519251E+01  2.4660334E+01
 1.5530751E+01  2.4652243E+01
 1.5542251E+01  2.4600327E+01
 1.5553751E+01  2.4570541E+01
 1.5565250E+01  2.4530104E+01
 1.5576751E+01  2.4521206E+01
 1.5588251E+01  2.4527082E+01
 1.5599751E+01  2.4570124E+01
 1.5611251E+01  2.4593588E+01
 1.5622751E+01  2.4657249E+01
 1.5634251E+01  2.4664831E+01
 1.5645751E+01  2.4711243E+01
 1.5657250E+01  2.4752785E+01
 1.5668751E+01  2.4733253E+01
 1.5680251E+01  2.4660458E+01
 1.5691751E+01  2.4592859E+01
 1.5703251E+01  2.4633108E+01
 1.5714751E+01  2.4639833E+01
 1.5726251E+01  2.4670488E+01
 1.5737751E+01  2.4661118E+01
 1.5749250E+01  2.4674583E+01
 1.5760751E+01  2.4642027E+01
 1.5772251E+01  2.4654451E+01
 1.5783751E+01  2.4656902E+01
 1.5795251E+01  2.4700947E+01
 1.5806751E+01  2.4758348E+01
 1.5818251E+01  2.4775354E+01
 1.5829751E+01  2.4745285E+01
 1.5841250E+01  2.4719912E+01
 1.5852751E+01  2.4713011E+01
 1.5864251E+01  2.4672709E+01
 1.5875751E+01  2.4677612E+01
 1.5887251E+01  2.4756390E+01
 1.5898750E+01  2.4820314E+01
 1.5910251E+01  2.4854979E+01
 1.5921751E+01  2.4864214E+01
 1.5933250E+01  2.4859648E+01
 1.5944751E+01  2.4835766E+01
 1.5956251E+01  2.4809570E+01
 1.5967751E+01  2.4790174E+01
 1.5979251E+01  2.4762352E+01
 1.5990750E+01  2.4725512E+01
 1.6002251E+01  2.4712955E+01
 1.6013750E+01  2.4742161E+01
 1.6025251E+01  2.4736776E+01
 1.6036751E+01  2.4733959E+01
 1.6048250E+01  2.4729448E+01
 1.6059752E+01  2.4759588E+01
 1.6071251E+01  2.4734785E+01
 1.6082750E+01  2.4767981E+01
 1.6094252E+01  2.4783112E+01
 1.6105751E+01  2.4854811E+01
 1.6117250E+01  2.4830023E+01
 1.6128750E+01  2.4861296E+01
 1.6140251E+01  2.4942474E+01
 1.6151751E+01  2.4991507E+01
 1.6163250E+01  2.5050842E+01
 1.6174751E+01  2.5023798E+01
 1.6186251E+01  2.5151743E+01
 1.6197750E+01  2.5103844E+01
 1.6209251E+01  2.5297022E+01
 1.6220751E+01  2.5264223E+01
 1.6232250E+01  2.5524857E+01
 1.6243752E+01  2.5604700E+01
 1.6255251E+01  2.5753214E+01
 1.6266750E+01  2.5863913E+01
 1.6278252E+01  2.5690920E+01
 1.6289751E+01  2.5800777E+01
 1.6301250E+01  2.5398909E+01
 1.6312750E+01  2.5479746E+01
 1.6324251E+01  2.5114029E+01
 1.6335751E+01  2.5142559E+01
 1.6347250E+01  2.4973173E+01
 1.6358751E+01  2.4947725E+01
 1.6370251E+01  2.4826311E+01
 1.6381750E+01  2.4804457E+01
 1.6393251E+01  2.4822836E+01
 1.6404751E+01  2.4848377E+01
 1.6416250E+01  2.4895996E+01
 1.6427752E+01  2.4908958E+01
 1.6439251E+01  2.4923542E+01
 1.6450750E+01  2.4890652E+01
 1.6462252E+01  2.4863348E+01
 1.6473751E+01  2.4839302E+01
 1.6485250E+01  2.4833553E+01
 1.6496750E+01  2.4826616E+01
 1.6508251E+01  2.4829208E+01
 1.6519751E+01  2.4819319E+01
 1.6531250E+01  2.4828093E+01
 1.6542751E+01  2.4859329E+01
 1.6554251E+01  2.4844273E+01
 1.6565750E+01  2.4814167E+01
 1.6577251E+01  2.4781530E+01
 1.6588751E+01  2.4753952E+01
 1.6600250E+01  2.4730244E+01
 1.6611752E+01  2.4730461E+01
 1.6623251E+01  2.4676476E+01
 1.6634750E+01  2.4641403E+01
 1.6646252E+01  2.4622940E+01
 1.6657751E+01  2.4661549E+01
 1.6669250E+01  2.4684856E+01
 1.6680750E+01  2.4639824E+01
 1.6692251E+01  2.4630419E+01
 1.6703751E+01  2.4586338E+01
 1.6715250E+01  2.4612360E+01
 1.6726751E+01  2.4594669E+01
 1.6738251E+01  2.4630751E+01
 1.6749750E+01  2.4646151E+01
 1.6761251E+01  2.4671642E+01
 1.6772751E+01  2.4617321E+01
 1.6784250E+01  2.4522741E+01
 1.6795752E+01  2.4500761E+01
 1.6807251E+01  2.4546320E+01
 1.6818750E+01  2.4598936E+01
 1.6830252E+01  2.4648455E+01
 1.6841751E+01  2.4626486E+01
 1.6853251E+01  2.4628189E+01
 1.6864750E+01  2.4598074E+01
 1.6876251E+01  2.4563019E+01
 1.6887751E+01  2.4523542E+01
 1.6899250E+01  2.4511486E+01
 1.6910751E+01  2.4550821E+01
 1.6922251E+01  2.4535006E+01
 1.6933750E+01  2.4513447E+01
 1.6945251E+01  2.4453360E+01
 1.6956751E+01  2.4450686E+01
 1.6968250E+01  2.4479095E+01
 1.6979752E+01  2.4485306E+01
 1.6991251E+01  2.4459478E+01
 1.7002750E+01  2.4392149E+01
 1.7014252E+01  2.4394356E+01
 1.7025751E+01  2.4375704E+01
 1.7037251E+01  2.4384668E+01
 1.7048750E+01  2.4366350E+01
 1.7060251E+01  2.4355391E+01
 1.7071751E+01  2.4385406E+01
 1.7083250E+01  2.4396126E+01
 1.7094751E+01  2.4406418E+01
 1.7106251E+01  2.4357803E+01
 1.7117750E+01  2.4312426E+01
 1.7129251E+01  2.4272249E+01
 1.7140751E+01  2.4265665E+01
 1.7152250E+01  2.4257746E+01
 1.7163752E+01  2.4296030E+01
 1.7175251E+01  2.4292034E+01
 1.7186750E+01  2.4290012E+01
 1.7198252E+01  2.4281782E+01
 1.7209751E+01  2.4330778E+01
 1.7221251E+01  2.4329433E+01
 1.7232750E+01  2.4348392E+01
 1.7244251E+01  2.4250721E+01
 1.7255751E+01  2.4201241E+01
 1.7267250E+01  2.4092577E+01
 1.7278751E+01  2.4105049E+01
 1.7290251E+01  2.4137505E+01
 1.7301750E+01  2.4196106E+01
 1.7313251E+01  2.4205681E+01
 1.7324751E+01  2.4239309E+01
 1.7336250E+01  2.4252632E+01
 1.7347752E+01  2.4281776E+01
 1.7359251E+01  2.4294937E+01
 1.7370750E+01  2.4273031E+01
 1.7382252E+01  2.4277697E+01
 1.7393751E+01  2.4274097E+01
 1.7405251E+01  2.4268370E+01
 1.7416750E+01  2.4282429E+01
 1.7428251E+01  2.4220205E+01
 1.7439751E+01  2.4161007E+01
 1.7451250E+01  2.4058352E+01
 1.7462751E+01  2.4054970E+01
 1.7474251E+01  2.4079241E+01
 1.7485750E+01  2.4102093E+01
 1.7497252E+01  2.4113256E+01
 1.7508751E+01  2.4095818E+01
 1.7520250E+01  2.4031734E+01
 1.7531752E+01  2.4016794E+01
 1.7543251E+01  2.4048124E+01
 1.7554750E+01  2.4087231E+01
 1.7566252E+01  2.4059961E+01
 1.7577751E+01  2.3985315E+01
 1.7589251E+01  2.3917429E+01
 1.7600750E+01  2.3878695E+01
 1.7612251E+01  2.3901577E+01
 1.7623751E+01  2.3944332E+01
 1.7635250E+01  2.4000246E+01
 1.7646751E+01  2.4020174E+01
 1.7658251E+01  2.4011717E+01
 1.7669750E+01  2.3971117E+01
 1.7681252E+01  2.3956892E+01
 1.7692751E+01  2.3940214E+01
 1.7704250E+01  2.3951212E+01
 1.7715752E+01  2.3959057E+01
 1.7727251E+01  2.3951754E+01
 1.7738750E+01  2.3934799E+01
 1.7750252E+01  2.3912231E+01
 1.7761751E+01  2.3925779E+01
 1.7773251E+01  2.3951786E+01
 1.7784750E+01  2.3977638E+01
 1.7796251E+01  2.3983675E+01
 1.7807751E+01  2.3957457E+01
 1.7819250E+01  2.3944996E+01
 1.7830751E+01  2.3900953E+01
 1.7842251E+01  2.3879179E+01
 1.7853750E+01  2.3867815E+01
 1.7865252E+01  2.3890793E+01
 1.7876751E+01  2.3895685E+01
 1.7888250E+01  2.3886002E+01
 1.7899752E+01  2.3873892E+01
 1.7911251E+01  2.3917343E+01
 1.7922750E+01  2.3932203E+01
 1.7934252E+01  2.3931124E+01
 1.7945751E+01  2.3910822E+01
 1.7957251E+01  2.3926670E+01
 1.7968750E+01  2.3969641E+01
 1.7980251E+01  2.4090092E+01
 1.7991751E+01  2.4215973E+01
 1.8003250E+01  2.4355974E+01
 1.8014751E+01  2.4465487E+01
 1.8026251E+01  2.4568115E+01
 1.8037750E+01  2.4667791E+01
 1.8049252E+01  2.4819204E+01
 1.8060751E+01  2.4947206E+01
 1.8072250E+01  2.4993912E+01
 1.8083752E+01  2.5103298E+01
 1.8095251E+01  2.5203602E+01
 1.8106750E+01  2.5215765E+01
 1.8118252E+01  2.5178827E+01
 1.8129751E+01  2.5038176E+01
 1.8141251E+01  2.4895157E+01
 1.8152750E+01  2.4619074E+01
 1.8164251E+01  2.4450624E+01
 1.8175751E+01  2.4248751E+01
 1.8187250E+01  2.4111032E+01
 1.8198751E+01  2.4022747E+01
 1.8210251E+01  2.4030621E+01
 1.8221750E+01  2.3979517E+01
 1.8233252E+01  2.3926844E+01
 1.8244751E+01  2.3862976E+01
 1.8256250E+01  2.3857355E+01
 1.8267752E+01  2.3834185E+01
 1.8279251E+01  2.3836710E+01
 1.8290751E+01  2.3838530E+01
 1.8302252E+01  2.3811453E+01
 1.8313751E+01  2.3754845E+01
 1.8325251E+01  2.3719839E+01
 1.8336750E+01  2.3758821E+01
 1.8348251E+01  2.3794746E+01
 1.8359751E+01  2.3802479E+01
 1.8371250E+01  2.3753717E+01
 1.8382751E+01  2.3726635E+01
 1.8394251E+01  2.3795021E+01
 1.8405750E+01  2.3795696E+01
 1.8417252E+01  2.3744390E+01
 1.8428751E+01  2.3585827E+01
 1.8440250E+01  2.3538857E+01
 1.8451752E+01  2.3494507E+01
 1.8463251E+01  2.3558119E+01
 1.8474751E+01  2.3589497E+01
 1.8486252E+01  2.3627855E+01
 1.8497751E+01  2.3640722E+01
 1.8509251E+01  2.3676538E+01
 1.8520750E+01  2.3683027E+01
 1.8532251E+01  2.3672762E+01
 1.8543751E+01  2.3636459E+01
 1.8555250E+01  2.3657869E+01
 1.8566751E+01  2.3663359E+01
 1.8578251E+01  2.3675224E+01
 1.8589750E+01  2.3653622E+01
 1.8601252E+01  2.3609077E+01
 1.8612751E+01  2.3571630E+01
 1.8624250E+01  2.3551231E+01
 1.8635752E+01  2.3561859E+01
 1.8647251E+01  2.3582129E+01
 1.8658751E+01  2.3600252E+01
 1.8670252E+01  2.3658686E+01
 1.8681751E+01  2.3666767E+01
 1.8693251E+01  2.3678181E+01
 1.8704750E+01  2.3681831E+01
 1.8716251E+01  2.3677919E+01
 1.8727751E+01  2.3674067E+01
 1.8739250E+01  2.3670021E+01
 1.8750751E+01  2.3634361E+01
 1.8762251E+01  2.3568647E+01
 1.8773750E+01  2.3497313E+01
 1.8785252E+01  2.3539696E+01
 1.8796751E+01  2.3577339E+01
 1.8808250E+01  2.3645140E+01
 1.8819752E+01  2.3663609E+01
 1.8831251E+01  2.3669579E+01
 1.8842751E+01  2.3661341E+01
 1.8854252E+01  2.3627039E+01
 1.8865751E+01  2.3591074E+01
 1.8877251E+01  2.3543728E+01
 1.8888750E+01  2.3566345E+01
 1.8900251E+01  2.3593870E+01
 1.8911751E+01  2.3642216E+01
 1.8923250E+01  2.3665833E+01
 1.8934752E+01  2.3690550E+01
 1.8946251E+01  2.3708134E+01
 1.8957750E+01  2.3692148E+01
 1.8969252E+01  2.3642050E+01
 1.8980751E+01  2.3617233E+01
 1.8992250E+01  2.3606468E+01
 1.9003752E+01  2.3573816E+01
 1.9015251E+01  2.3595364E+01
 1.9026751E+01  2.3607996E+01
 1.9038252E+01  2.3639538E+01
 1.9049751E+01  2.3648222E+01
 1.9061251E+01  2.3715355E+01
 1.9072750E+01  2.3758356E+01
 1.9084251E+01  2.3773947E+01
 1.9095751E+01  2.3742731E+01
 1.9107250E+01  2.3663906E+01
 1.9118752E+01  2.3587082E+01
 1.9130251E+01  2.3561895E+01
 1.9141750E+01  2.3576633E+01
 1.9153252E+01  2.3623842E+01
 1.9164751E+01  2.3620850E+01
 1.9176250E+01  2.3630209E+01
 1.9187752E+01  2.3710585E+01
 1.9199251E+01  2.3757349E+01
 1.9210751E+01  2.3763941E+01
 1.9222252E+01  2.3737564E+01
 1.9233751E+01  2.3711521E+01
 1.9245251E+01  2.3717245E+01
 1.9256750E+01  2.3731052E+01
 1.9268251E+01  2.3831114E+01
 1.9279751E+01  2.3829107E+01
 1.9291250E+01  2.3900213E+01
 1.9302752E+01  2.3916824E+01
 1.9314251E+01  2.3950827E+01
 1.9325750E+01  2.4010355E+01
 1.9337252E+01  2.4032553E+01
 1.9348751E+01  2.4045382E+01
 1.9360250E+01  2.3976412E+01
 1.9371752E+01  2.3975229E+01
 1.9383251E+01  2.3967516E+01
 1.9394751E+01  2.4076452E+01
 1.9406250E+01  2.4010822E+01
 1.9417751E+01  2.3994162E+01
 1.9429251E+01  2.3954830E+01
 1.9440750E+01  2.3889448E+01
 1.9452251E+01  2.3836626E+01
 1.9463751E+01  2.3801775E+01
 1.9475250E+01  2.3842808E+01
 1.9486752E+01  2.3874651E+01
 1.9498251E+01  2.3841171E+01
 1.9509750E+01  2.3862675E+01
 1.9521252E+01  2.3862946E+01
 1.9532751E+01  2.3890059E+01
 1.9544250E+01  2.3904612E+01
 1.9555752E+01  2.3860086E+01
 1.9567251E+01  2.3880430E+01
 1.9578751E+01  2.3915878E+01
 1.9590250E+01  2.3961723E+01
 1.9601751E+01  2.3986475E+01
 1.9613251E+01  2.4082418E+01
 1.9624750E+01  2.4271223E+01
 1.9636251E+01  2.4490801E+01
 1.9647751E+01  2.4769436E+01
 1.9659250E+01  2.5109045E+01
 1.9670752E+01  2.5559706E+01
 1.9682251E+01  2.6170927E+01
 1.9693750E+01  2.6713108E+01
 1.9705252E+01  2.7535547E+01
 1.9716751E+01  2.7908018E+01
 1.9728251E+01  2.8248856E+01
 1.9739752E+01  2.8264791E+01
 1.9751251E+01  2.7557268E+01
 1.9762751E+01  2.7260336E+01
 1.9774250E+01  2.6341225E+01
 1.9785751E+01  2.6276480E+01
 1.9797251E+01  2.6148769E+01
 1.9808750E+01  2.6537085E+01
 1.9820251E+01  2.7118225E+01
 1.9831751E+01  2.7825397E+01
 1.9843250E+01  2.8300360E+01
 1.9854752E+01  2.8658022E+01
 1.9866251E+01  2.8534410E+01
 1.9877750E+01  2.8185154E+01
 1.9889252E+01  2.7418781E+01
 1.9900751E+01  2.6718290E+01
 1.9912251E+01  2.5931936E+01
 1.9923752E+01  2.5239532E+01
 1.9935251E+01  2.4715349E+01
 1.9946751E+01  2.4451624E+01
 1.9958250E+01  2.4281019E+01
 1.9969751E+01  2.4171474E+01
 1.9981251E+01  2.4100153E+01
 1.9992750E+01  2.4068283E+01
 2.0004251E+01  2.4000559E+01
 2.0015751E+01  2.3952190E+01
 2.0027250E+01  2.3926704E+01
 2.0038752E+01  2.3953302E+01
 2.0050251E+01  2.3946150E+01
 2.0061750E+01  2.3907761E+01
 2.0073252E+01  2.3911947E+01
 2.0084751E+01  2.3889393E+01
 2.0096251E+01  2.4029215E+01
 2.0107752E+01  2.4081726E+01
 2.0119251E+01  2.4180759E+01
 2.0130751E+01  2.4091896E+01
 2.0142250E+01  2.4055065E+01
 2.0153751E+01  2.3924892E+01
 2.0165251E+01  2.3899195E+01
 2.0176750E+01  2.3838932E+01
 2.0188251E+01  2.3777313E+01
 2.0199751E+01  2.3725330E+01
 2.0211250E+01  2.3774389E+01
 2.0222752E+01  2.3841227E+01
 2.0234251E+01  2.3913544E+01
 2.0245750E+01  2.3900976E+01
 2.0257252E+01  2.3855583E+01
 2.0268751E+01  2.3771368E+01
 2.0280251E+01  2.3742767E+01
 2.0291752E+01  2.3714138E+01
 2.0303251E+01  2.3674992E+01
 2.0314751E+01  2.3666283E+01
 2.0326250E+01  2.3718754E+01
 2.0337751E+01  2.3782999E+01
 2.0349251E+01  2.3861048E+01
 2.0360750E+01  2.3871431E+01
 2.0372252E+01  2.3855322E+01
 2.0383751E+01  2.3790304E+01
 2.0395250E+01  2.3800795E+01
 2.0406752E+01  2.3783003E+01
 2.0418251E+01  2.3812128E+01
 2.0429750E+01  2.3801870E+01
 2.0441252E+01  2.3761921E+01
 2.0452751E+01  2.3762331E+01
 2.0464251E+01  2.3751623E+01
 2.0475752E+01  2.3837828E+01
 2.0487251E+01  2.3823740E+01
 2.0498751E+01  2.3892584E+01
 2.0510250E+01  2.3855122E+01
 2.0521751E+01  2.3819309E+01
 2.0533251E+01  2.3719685E+01
 2.0544750E+01  2.3682932E+01
 2.0556252E+01  2.3713139E+01
 2.0567751E+01  2.3777599E+01
 2.0579250E+01  2.3779509E+01
 2.0590752E+01  2.3853910E+01
 2.0602251E+01  2.3931179E+01
 2.0613750E+01  2.3982744E+01
 2.0625252E+01  2.3967638E+01
 2.0636751E+01  2.4012783E+01
 2.0648251E+01  2.4024221E+01
 2.0659752E+01  2.4071171E+01
 2.0671251E+01  2.4158461E+01
 2.0682751E+01  2.4370314E+01
 2.0694250E+01  2.4592697E+01
 2.0705751E+01  2.4879351E+01
 2.0717251E+01  2.5204817E+01
 2.0728750E+01  2.5587637E+01
 2.0740252E+01  2.5824265E+01
 2.0751751E+01  2.6190662E+01
 2.0763250E+01  2.6230083E+01
 2.0774752E+01  2.6232450E+01
 2.0786251E+01  2.5982775E+01
 2.0797750E+01  2.5603804E+01
 2.0809252E+01  2.5277269E+01
 2.0820751E+01  2.4831913E+01
 2.0832251E+01  2.4559809E+01
 2.0843752E+01  2.4333714E+01
 2.0855251E+01  2.4194080E+01
 2.0866751E+01  2.4105965E+01
 2.0878250E+01  2.4033667E+01
 2.0889751E+01  2.4036602E+01
 2.0901251E+01  2.4059458E+01
 2.0912750E+01  2.4086784E+01
 2.0924252E+01  2.4116678E+01
 2.0935751E+01  2.4117832E+01
 2.0947250E+01  2.4115690E+01
 2.0958752E+01  2.4022663E+01
 2.0970251E+01  2.3984793E+01
 2.0981750E+01  2.3972553E+01
 2.0993252E+01  2.4017244E+01
 2.1004751E+01  2.4052330E+01
 2.1016251E+01  2.4062822E+01
 2.1027752E+01  2.4101477E+01
 2.1039251E+01  2.4066572E+01
 2.1050751E+01  2.3994867E+01
 2.1062250E+01  2.3959166E+01
 2.1073751E+01  2.3989641E+01
 2.1085251E+01  2.4043455E+01
 2.1096750E+01  2.3990252E+01
 2.1108252E+01  2.3949486E+01
 2.1119751E+01  2.3928114E+01
 2.1131250E+01  2.3944498E+01
 2.1142752E+01  2.3963858E+01
 2.1154251E+01  2.3919088E+01
 2.1165751E+01  2.3919121E+01
 2.1177252E+01  2.3927834E+01
 2.1188751E+01  2.3940161E+01
 2.1200251E+01  2.3959406E+01
 2.1211752E+01  2.3936443E+01
 2.1223251E+01  2.3912176E+01
 2.1234751E+01  2.3912859E+01
 2.1246250E+01  2.3941427E+01
 2.1257751E+01  2.3936537E+01
 2.1269251E+01  2.3919487E+01
 2.1280750E+01  2.3922430E+01
 2.1292252E+01  2.3911203E+01
 2.1303751E+01  2.3886145E+01
 2.1315250E+01  2.3900179E+01
 2.1326752E+01  2.3936089E+01
 2.1338251E+01  2.3978842E+01
 2.1349751E+01  2.3994125E+01
 2.1361252E+01  2.4025885E+01
 2.1372751E+01  2.4035337E+01
 2.1384251E+01  2.4031509E+01
 2.1395752E+01  2.3980734E+01
 2.1407251E+01  2.3945091E+01
 2.1418751E+01  2.3961935E+01
 2.1430250E+01  2.4010391E+01
 2.1441751E+01  2.4024372E+01
 2.1453251E+01  2.4072779E+01
 2.1464750E+01  2.4082287E+01
 2.1476252E+01  2.4056465E+01
 2.1487751E+01  2.4088148E+01
 2.1499250E+01  2.4143156E+01
 2.1510752E+01  2.4165874E+01
 2.1522251E+01  2.4189507E+01
 2.1533751E+01  2.4181263E+01
 2.1545252E+01  2.4147455E+01
 2.1556751E+01  2.4096657E+01
 2.1568251E+01  2.4125109E+01
 2.1579752E+01  2.4132021E+01
 2.1591251E+01  2.4136806E+01
 2.1602751E+01  2.4121969E+01
 2.1614250E+01  2.4144695E+01
 2.1625751E+01  2.4165363E+01
 2.1637251E+01  2.4181789E+01
 2.1648750E+01  2.4216915E+01
 2.1660252E+01  2.4247589E+01
 2.1671751E+01  2.4248165E+01
 2.1683250E+01  2.4192213E+01
 2.1694752E+01  2.4149174E+01
 2.1706251E+01  2.4170946E+01
 2.1717751E+01  2.4199686E+01
 2.1729252E+01  2.4198881E+01
 2.1740751E+01  2.4218477E+01
 2.1752251E+01  2.4189220E+01
 2.1763752E+01  2.4180702E+01
 2.1775251E+01  2.4169548E+01
 2.1786751E+01  2.4207729E+01
 2.1798250E+01  2.4237341E+01
 2.1809752E+01  2.4242844E+01
 2.1821251E+01  2.4268267E+01
 2.1832750E+01  2.4213579E+01
 2.1844252E+01  2.4166161E+01
 2.1855751E+01  2.4189880E+01
 2.1867250E+01  2.4225775E+01
 2.1878752E+01  2.4238935E+01
 2.1890251E+01  2.4156975E+01
 2.1901751E+01  2.4131655E+01
 2.1913252E+01  2.4131334E+01
 2.1924751E+01  2.4166340E+01
 2.1936251E+01  2.4155523E+01
 2.1947752E+01  2.4168461E+01
 2.1959251E+01  2.4165394E+01
 2.1970751E+01  2.4229626E+01
 2.1982250E+01  2.4274139E+01
 2.1993752E+01  2.4297132E+01
 2.2005251E+01  2.4302879E+01
 2.2016750E+01  2.4346945E+01
 2.2028252E+01  2.4359793E+01
 2.2039751E+01  2.4334354E+01
 2.2051250E+01  2.4379204E+01
 2.2062752E+01  2.4395470E+01
 2.2074251E+01  2.4439232E+01
 2.2085751E+01  2.4398567E+01
 2.2097252E+01  2.4394495E+01
 2.2108751E+01  2.4365177E+01
 2.2120251E+01  2.4401058E+01
 2.2131752E+01  2.4430012E+01
 2.2143251E+01  2.4442940E+01
 2.2154751E+01  2.4413488E+01
 2.2166250E+01  2.4447557E+01
 2.2177752E+01  2.4393513E+01
 2.2189251E+01  2.4333305E+01
 2.2200750E+01  2.4288227E+01
 2.2212252E+01  2.4287424E+01
 2.2223751E+01  2.4357615E+01
 2.2235250E+01  2.4454556E+01
 2.2246752E+01  2.4574802E+01
 2.2258251E+01  2.4612671E+01
 2.2269751E+01  2.4583418E+01
 2.2281252E+01  2.4558134E+01
 2.2292751E+01  2.4581169E+01
 2.2304251E+01  2.4664091E+01
 2.2315752E+01  2.4697031E+01
 2.2327251E+01  2.4665483E+01
 2.2338751E+01  2.4655556E+01
 2.2350250E+01  2.4690851E+01
 2.2361752E+01  2.4696791E+01
 2.2373251E+01  2.4698736E+01
 2.2384750E+01  2.4649488E+01
 2.2396252E+01  2.4664488E+01
 2.2407751E+01  2.4650763E+01
 2.2419250E+01  2.4658592E+01
 2.2430752E+01  2.4636597E+01
 2.2442251E+01  2.4665285E+01
 2.2453751E+01  2.4705776E+01
 2.2465252E+01  2.4723738E+01
 2.2476751E+01  2.4732084E+01
 2.2488251E+01  2.4782192E+01
 2.2499752E+01  2.4858303E+01
 2.2511251E+01  2.4877106E+01
 2.2522751E+01  2.4941006E+01
 2.2534250E+01  2.4953726E+01
 2.2545752E+01  2.4945162E+01
 2.2557251E+01  2.4870768E+01
 2.2568750E+01  2.4850395E+01
 2.2580252E+01  2.4826952E+01
 2.2591751E+01  2.4872063E+01
 2.2603251E+01  2.4918486E+01
 2.2614752E+01  2.5006710E+01
 2.2626251E+01  2.5057379E+01
 2.2637751E+01  2.5083769E+01
 2.2649252E+01  2.5026192E+01
 2.2660751E+01  2.4969881E+01
 2.2672251E+01  2.4989363E+01
 2.2683752E+01  2.5099480E+01
 2.2695251E+01  2.5222578E+01
 2.2706751E+01  2.5251276E+01
 2.2718250E+01  2.5235958E+01
 2.2729752E+01  2.5260143E+01
 2.2741251E+01  2.5308317E+01
 2.2752750E+01  2.5321880E+01
 2.2764252E+01  2.5352905E+01
 2.2775751E+01  2.5359539E+01
 2.2787251E+01  2.5450764E+01
 2.2798752E+01  2.5549646E+01
 2.2810251E+01  2.5654591E+01
 2.2821751E+01  2.5703346E+01
 2.2833252E+01  2.5716503E+01
 2.2844751E+01  2.5657789E+01
 2.2856251E+01  2.5647091E+01
 2.2867750E+01  2.5694670E+01
 2.2879251E+01  2.5736107E+01
 2.2890751E+01  2.5815239E+01
 2.2902250E+01  2.5815281E+01
 2.2913752E+01  2.5920231E+01
 2.2925251E+01  2.5971127E+01
 2.2936750E+01  2.6108088E+01
 2.2948252E+01  2.6231016E+01
 2.2959751E+01  2.6334805E+01
 2.2971251E+01  2.6464624E+01
 2.2982752E+01  2.6669521E+01
 2.2994251E+01  2.6848928E+01
