F:\20151113_APS_34IDE\\Brian\Particle1\OCV\Data_0074.tif
2-Theta Angle (Degrees)
Intensity
       2000
 5.7500005E-03  0.0000000E+00
 1.7250001E-02  0.0000000E+00
 2.8750001E-02  0.0000000E+00
 4.0250003E-02  0.0000000E+00
 5.1750004E-02  0.0000000E+00
 6.3250005E-02  0.0000000E+00
 7.4750006E-02  0.0000000E+00
 8.6250007E-02  0.0000000E+00
 9.7750008E-02  0.0000000E+00
 1.0925001E-01  0.0000000E+00
 1.2075000E-01  0.0000000E+00
 1.3225001E-01  0.0000000E+00
 1.4375001E-01  0.0000000E+00
 1.5525001E-01  0.0000000E+00
 1.6675001E-01  0.0000000E+00
 1.7825001E-01  0.0000000E+00
 1.8975002E-01  0.0000000E+00
 2.0125002E-01  0.0000000E+00
 2.1275002E-01  0.0000000E+00
 2.2425000E-01  0.0000000E+00
 2.3575000E-01  0.0000000E+00
 2.4725001E-01  0.0000000E+00
 2.5875002E-01  0.0000000E+00
 2.7025002E-01  0.0000000E+00
 2.8175002E-01  0.0000000E+00
 2.9325002E-01  0.0000000E+00
 3.0475003E-01  0.0000000E+00
 3.1625003E-01  0.0000000E+00
 3.2775003E-01  0.0000000E+00
 3.3925003E-01  0.0000000E+00
 3.5075003E-01  0.0000000E+00
 3.6225003E-01  0.0000000E+00
 3.7375003E-01  0.0000000E+00
 3.8525003E-01  0.0000000E+00
 3.9675003E-01  0.0000000E+00
 4.0825003E-01  0.0000000E+00
 4.1975003E-01  0.0000000E+00
 4.3125004E-01  0.0000000E+00
 4.4275001E-01  0.0000000E+00
 4.5425001E-01  0.0000000E+00
 4.6575001E-01  0.0000000E+00
 4.7725001E-01  0.0000000E+00
 4.8875001E-01  0.0000000E+00
 5.0025004E-01  0.0000000E+00
 5.1175004E-01  0.0000000E+00
 5.2325004E-01  0.0000000E+00
 5.3475004E-01  0.0000000E+00
 5.4625005E-01  0.0000000E+00
 5.5775005E-01  0.0000000E+00
 5.6925005E-01  0.0000000E+00
 5.8075005E-01  0.0000000E+00
 5.9225005E-01  0.0000000E+00
 6.0375005E-01  0.0000000E+00
 6.1525005E-01  0.0000000E+00
 6.2675005E-01  0.0000000E+00
 6.3825005E-01  0.0000000E+00
 6.4975005E-01  0.0000000E+00
 6.6125005E-01  0.0000000E+00
 6.7275006E-01  0.0000000E+00
 6.8425006E-01  0.0000000E+00
 6.9575006E-01  0.0000000E+00
 7.0725006E-01  0.0000000E+00
 7.1875006E-01  0.0000000E+00
 7.3025006E-01  0.0000000E+00
 7.4175006E-01  0.0000000E+00
 7.5325006E-01  0.0000000E+00
 7.6475006E-01  0.0000000E+00
 7.7625006E-01  0.0000000E+00
 7.8775007E-01  0.0000000E+00
 7.9925007E-01  0.0000000E+00
 8.1075007E-01  0.0000000E+00
 8.2225007E-01  0.0000000E+00
 8.3375007E-01  0.0000000E+00
 8.4525007E-01  0.0000000E+00
 8.5675007E-01  0.0000000E+00
 8.6825007E-01  0.0000000E+00
 8.7975001E-01  0.0000000E+00
 8.9125001E-01  0.0000000E+00
 9.0275002E-01  0.0000000E+00
 9.1425002E-01  0.0000000E+00
 9.2575002E-01  0.0000000E+00
 9.3725002E-01  0.0000000E+00
 9.4875002E-01  0.0000000E+00
 9.6025002E-01  0.0000000E+00
 9.7175002E-01  0.0000000E+00
 9.8325002E-01  0.0000000E+00
 9.9475002E-01  0.0000000E+00
 1.0062500E+00  0.0000000E+00
 1.0177500E+00  0.0000000E+00
 1.0292500E+00  0.0000000E+00
 1.0407500E+00  0.0000000E+00
 1.0522500E+00  0.0000000E+00
 1.0637500E+00  0.0000000E+00
 1.0752500E+00  0.0000000E+00
 1.0867500E+00  0.0000000E+00
 1.0982500E+00  0.0000000E+00
 1.1097500E+00  0.0000000E+00
 1.1212500E+00  0.0000000E+00
 1.1327500E+00  0.0000000E+00
 1.1442500E+00  0.0000000E+00
 1.1557500E+00  0.0000000E+00
 1.1672500E+00  0.0000000E+00
 1.1787500E+00  0.0000000E+00
 1.1902500E+00  0.0000000E+00
 1.2017500E+00  0.0000000E+00
 1.2132500E+00  0.0000000E+00
 1.2247500E+00  0.0000000E+00
 1.2362500E+00  0.0000000E+00
 1.2477500E+00  0.0000000E+00
 1.2592500E+00  0.0000000E+00
 1.2707500E+00  0.0000000E+00
 1.2822500E+00  0.0000000E+00
 1.2937500E+00  0.0000000E+00
 1.3052500E+00  0.0000000E+00
 1.3167500E+00  0.0000000E+00
 1.3282501E+00  0.0000000E+00
 1.3397501E+00  0.0000000E+00
 1.3512501E+00  0.0000000E+00
 1.3627501E+00  0.0000000E+00
 1.3742501E+00  0.0000000E+00
 1.3857501E+00  0.0000000E+00
 1.3972501E+00  0.0000000E+00
 1.4087501E+00  0.0000000E+00
 1.4202501E+00  0.0000000E+00
 1.4317501E+00  0.0000000E+00
 1.4432501E+00  0.0000000E+00
 1.4547501E+00  0.0000000E+00
 1.4662501E+00  0.0000000E+00
 1.4777501E+00  0.0000000E+00
 1.4892501E+00  0.0000000E+00
 1.5007501E+00  0.0000000E+00
 1.5122501E+00  0.0000000E+00
 1.5237501E+00  0.0000000E+00
 1.5352501E+00  0.0000000E+00
 1.5467501E+00  0.0000000E+00
 1.5582501E+00  0.0000000E+00
 1.5697501E+00  0.0000000E+00
 1.5812501E+00  0.0000000E+00
 1.5927501E+00  0.0000000E+00
 1.6042501E+00  0.0000000E+00
 1.6157501E+00  0.0000000E+00
 1.6272501E+00  0.0000000E+00
 1.6387501E+00  0.0000000E+00
 1.6502501E+00  0.0000000E+00
 1.6617501E+00  0.0000000E+00
 1.6732501E+00  0.0000000E+00
 1.6847501E+00  0.0000000E+00
 1.6962501E+00  0.0000000E+00
 1.7077501E+00  0.0000000E+00
 1.7192501E+00  0.0000000E+00
 1.7307501E+00  0.0000000E+00
 1.7422501E+00  0.0000000E+00
 1.7537501E+00  0.0000000E+00
 1.7652501E+00  0.0000000E+00
 1.7767501E+00  0.0000000E+00
 1.7882501E+00  0.0000000E+00
 1.7997501E+00  0.0000000E+00
 1.8112501E+00  0.0000000E+00
 1.8227501E+00  0.0000000E+00
 1.8342501E+00  0.0000000E+00
 1.8457501E+00  0.0000000E+00
 1.8572501E+00  0.0000000E+00
 1.8687501E+00  0.0000000E+00
 1.8802501E+00  0.0000000E+00
 1.8917501E+00  0.0000000E+00
 1.9032501E+00  0.0000000E+00
 1.9147501E+00  0.0000000E+00
 1.9262501E+00  0.0000000E+00
 1.9377501E+00  0.0000000E+00
 1.9492501E+00  0.0000000E+00
 1.9607501E+00  0.0000000E+00
 1.9722501E+00  0.0000000E+00
 1.9837501E+00  0.0000000E+00
 1.9952501E+00  0.0000000E+00
 2.0067501E+00  0.0000000E+00
 2.0182500E+00  0.0000000E+00
 2.0297501E+00  0.0000000E+00
 2.0412500E+00  0.0000000E+00
 2.0527501E+00  0.0000000E+00
 2.0642500E+00  0.0000000E+00
 2.0757501E+00  0.0000000E+00
 2.0872500E+00  0.0000000E+00
 2.0987501E+00  0.0000000E+00
 2.1102500E+00  0.0000000E+00
 2.1217501E+00  0.0000000E+00
 2.1332500E+00  0.0000000E+00
 2.1447501E+00  0.0000000E+00
 2.1562500E+00  0.0000000E+00
 2.1677501E+00  0.0000000E+00
 2.1792500E+00  0.0000000E+00
 2.1907501E+00  0.0000000E+00
 2.2022500E+00  0.0000000E+00
 2.2137501E+00  0.0000000E+00
 2.2252500E+00  0.0000000E+00
 2.2367501E+00  0.0000000E+00
 2.2482500E+00  0.0000000E+00
 2.2597501E+00  0.0000000E+00
 2.2712500E+00  0.0000000E+00
 2.2827501E+00  0.0000000E+00
 2.2942500E+00  0.0000000E+00
 2.3057501E+00  0.0000000E+00
 2.3172500E+00  0.0000000E+00
 2.3287501E+00  0.0000000E+00
 2.3402500E+00  0.0000000E+00
 2.3517501E+00  0.0000000E+00
 2.3632500E+00  0.0000000E+00
 2.3747501E+00  0.0000000E+00
 2.3862500E+00  0.0000000E+00
 2.3977501E+00  0.0000000E+00
 2.4092500E+00  0.0000000E+00
 2.4207501E+00  0.0000000E+00
 2.4322500E+00  0.0000000E+00
 2.4437501E+00  0.0000000E+00
 2.4552500E+00  0.0000000E+00
 2.4667501E+00  0.0000000E+00
 2.4782500E+00  0.0000000E+00
 2.4897501E+00  0.0000000E+00
 2.5012500E+00  0.0000000E+00
 2.5127501E+00  0.0000000E+00
 2.5242500E+00  0.0000000E+00
 2.5357502E+00  0.0000000E+00
 2.5472500E+00  0.0000000E+00
 2.5587502E+00  0.0000000E+00
 2.5702500E+00  0.0000000E+00
 2.5817502E+00  0.0000000E+00
 2.5932500E+00  0.0000000E+00
 2.6047502E+00  0.0000000E+00
 2.6162500E+00  0.0000000E+00
 2.6277502E+00  0.0000000E+00
 2.6392500E+00  0.0000000E+00
 2.6507502E+00  0.0000000E+00
 2.6622500E+00  0.0000000E+00
 2.6737502E+00  0.0000000E+00
 2.6852500E+00  0.0000000E+00
 2.6967502E+00  0.0000000E+00
 2.7082500E+00  0.0000000E+00
 2.7197502E+00  0.0000000E+00
 2.7312500E+00  0.0000000E+00
 2.7427502E+00  0.0000000E+00
 2.7542500E+00  0.0000000E+00
 2.7657502E+00  0.0000000E+00
 2.7772501E+00  0.0000000E+00
 2.7887502E+00  0.0000000E+00
 2.8002501E+00  0.0000000E+00
 2.8117502E+00  0.0000000E+00
 2.8232501E+00  3.3705826E+01
 2.8347502E+00  3.4419353E+01
 2.8462501E+00  3.4679379E+01
 2.8577502E+00  3.5442562E+01
 2.8692501E+00  3.5950779E+01
 2.8807502E+00  3.6652428E+01
 2.8922501E+00  3.6646183E+01
 2.9037502E+00  3.6868351E+01
 2.9152501E+00  3.6804195E+01
 2.9267502E+00  3.6623745E+01
 2.9382501E+00  3.6440807E+01
 2.9497502E+00  3.6071167E+01
 2.9612501E+00  3.6059906E+01
 2.9727502E+00  3.6029079E+01
 2.9842501E+00  3.6211552E+01
 2.9957502E+00  3.6431427E+01
 3.0072501E+00  3.6422646E+01
 3.0187502E+00  3.5889679E+01
 3.0302501E+00  3.5473240E+01
 3.0417502E+00  3.5025879E+01
 3.0532501E+00  3.4466152E+01
 3.0647502E+00  3.4137177E+01
 3.0762501E+00  3.4051357E+01
 3.0877502E+00  3.4331284E+01
 3.0992501E+00  3.4948570E+01
 3.1107502E+00  3.4969997E+01
 3.1222501E+00  3.5290344E+01
 3.1337502E+00  3.5084911E+01
 3.1452501E+00  3.5118416E+01
 3.1567502E+00  3.5099079E+01
 3.1682501E+00  3.5372040E+01
 3.1797502E+00  3.5294277E+01
 3.1912501E+00  3.5342449E+01
 3.2027502E+00  3.5033291E+01
 3.2142501E+00  3.4729084E+01
 3.2257502E+00  3.4454678E+01
 3.2372501E+00  3.4208096E+01
 3.2487502E+00  3.4120796E+01
 3.2602501E+00  3.4309937E+01
 3.2717502E+00  3.3963398E+01
 3.2832501E+00  3.3709324E+01
 3.2947502E+00  3.3193756E+01
 3.3062501E+00  3.3070438E+01
 3.3177502E+00  3.2956074E+01
 3.3292501E+00  3.3234776E+01
 3.3407502E+00  3.3466000E+01
 3.3522501E+00  3.3879337E+01
 3.3637502E+00  3.4038734E+01
 3.3752501E+00  3.4390182E+01
 3.3867502E+00  3.4216198E+01
 3.3982501E+00  3.4233433E+01
 3.4097502E+00  3.3983418E+01
 3.4212501E+00  3.4041817E+01
 3.4327502E+00  3.4174793E+01
 3.4442501E+00  3.4213020E+01
 3.4557502E+00  3.4366894E+01
 3.4672501E+00  3.4137062E+01
 3.4787502E+00  3.3937908E+01
 3.4902501E+00  3.3956989E+01
 3.5017502E+00  3.3808689E+01
 3.5132501E+00  3.3721729E+01
 3.5247502E+00  3.3428177E+01
 3.5362501E+00  3.3516045E+01
 3.5477502E+00  3.3314438E+01
 3.5592501E+00  3.3402985E+01
 3.5707502E+00  3.3366985E+01
 3.5822501E+00  3.3456123E+01
 3.5937502E+00  3.3487461E+01
 3.6052501E+00  3.3232841E+01
 3.6167502E+00  3.3174206E+01
 3.6282501E+00  3.3088745E+01
 3.6397502E+00  3.3041523E+01
 3.6512501E+00  3.3110909E+01
 3.6627502E+00  3.3079056E+01
 3.6742501E+00  3.3041508E+01
 3.6857502E+00  3.3013885E+01
 3.6972501E+00  3.2996376E+01
 3.7087502E+00  3.2836285E+01
 3.7202501E+00  3.2691204E+01
 3.7317502E+00  3.2584415E+01
 3.7432501E+00  3.2713604E+01
 3.7547503E+00  3.3050026E+01
 3.7662501E+00  3.3260040E+01
 3.7777503E+00  3.3334904E+01
 3.7892501E+00  3.3033993E+01
 3.8007503E+00  3.2732685E+01
 3.8122501E+00  3.2675861E+01
 3.8237503E+00  3.2776321E+01
 3.8352501E+00  3.2845947E+01
 3.8467503E+00  3.2758179E+01
 3.8582501E+00  3.2782543E+01
 3.8697503E+00  3.2722176E+01
 3.8812501E+00  3.2716888E+01
 3.8927503E+00  3.2458252E+01
 3.9042501E+00  3.2468945E+01
 3.9157503E+00  3.2295109E+01
 3.9272501E+00  3.2295155E+01
 3.9387503E+00  3.2190254E+01
 3.9502501E+00  3.2232395E+01
 3.9617503E+00  3.2377575E+01
 3.9732502E+00  3.2397984E+01
 3.9847503E+00  3.2613201E+01
 3.9962502E+00  3.2773399E+01
 4.0077500E+00  3.2951046E+01
 4.0192504E+00  3.3054123E+01
 4.0307503E+00  3.2961609E+01
 4.0422502E+00  3.2849400E+01
 4.0537500E+00  3.2734238E+01
 4.0652504E+00  3.2688484E+01
 4.0767503E+00  3.2812862E+01
 4.0882502E+00  3.2863491E+01
 4.0997500E+00  3.2829777E+01
 4.1112504E+00  3.2553062E+01
 4.1227503E+00  3.2226891E+01
 4.1342502E+00  3.2051609E+01
 4.1457500E+00  3.2094139E+01
 4.1572504E+00  3.2111412E+01
 4.1687503E+00  3.2160267E+01
 4.1802502E+00  3.2154091E+01
 4.1917500E+00  3.2257294E+01
 4.2032504E+00  3.2338585E+01
 4.2147503E+00  3.2485332E+01
 4.2262502E+00  3.2616383E+01
 4.2377501E+00  3.2596233E+01
 4.2492504E+00  3.2362976E+01
 4.2607503E+00  3.2227028E+01
 4.2722502E+00  3.2109940E+01
 4.2837501E+00  3.2206818E+01
 4.2952504E+00  3.2173161E+01
 4.3067503E+00  3.2080254E+01
 4.3182502E+00  3.2077797E+01
 4.3297501E+00  3.2030228E+01
 4.3412504E+00  3.2207962E+01
 4.3527503E+00  3.2289215E+01
 4.3642502E+00  3.2607368E+01
 4.3757501E+00  3.2752705E+01
 4.3872504E+00  3.2818150E+01
 4.3987503E+00  3.2633465E+01
 4.4102502E+00  3.2459385E+01
 4.4217501E+00  3.2254906E+01
 4.4332504E+00  3.2212547E+01
 4.4447503E+00  3.2145176E+01
 4.4562502E+00  3.2192028E+01
 4.4677501E+00  3.2201759E+01
 4.4792504E+00  3.2335735E+01
 4.4907503E+00  3.2423061E+01
 4.5022502E+00  3.2474026E+01
 4.5137501E+00  3.2383106E+01
 4.5252504E+00  3.2416168E+01
 4.5367503E+00  3.2385429E+01
 4.5482502E+00  3.2568287E+01
 4.5597501E+00  3.2680367E+01
 4.5712504E+00  3.2822079E+01
 4.5827503E+00  3.2819607E+01
 4.5942502E+00  3.2877388E+01
 4.6057501E+00  3.2844093E+01
 4.6172504E+00  3.2851017E+01
 4.6287503E+00  3.2788322E+01
 4.6402502E+00  3.2866459E+01
 4.6517501E+00  3.3070992E+01
 4.6632504E+00  3.3218452E+01
 4.6747503E+00  3.3220062E+01
 4.6862502E+00  3.3046581E+01
 4.6977501E+00  3.2935440E+01
 4.7092505E+00  3.2807339E+01
 4.7207503E+00  3.2752884E+01
 4.7322502E+00  3.2609444E+01
 4.7437501E+00  3.2544800E+01
 4.7552505E+00  3.2436867E+01
 4.7667503E+00  3.2425488E+01
 4.7782502E+00  3.2340733E+01
 4.7897501E+00  3.2324219E+01
 4.8012505E+00  3.2262611E+01
 4.8127503E+00  3.2418282E+01
 4.8242502E+00  3.2425034E+01
 4.8357501E+00  3.2556732E+01
 4.8472505E+00  3.2601269E+01
 4.8587503E+00  3.2750290E+01
 4.8702502E+00  3.2872646E+01
 4.8817501E+00  3.2811043E+01
 4.8932505E+00  3.2811287E+01
 4.9047503E+00  3.2717716E+01
 4.9162502E+00  3.2812111E+01
 4.9277501E+00  3.2826908E+01
 4.9392505E+00  3.2871246E+01
 4.9507504E+00  3.2842236E+01
 4.9622502E+00  3.2756027E+01
 4.9737501E+00  3.2785904E+01
 4.9852505E+00  3.2729145E+01
 4.9967504E+00  3.2756340E+01
 5.0082502E+00  3.2777580E+01
 5.0197501E+00  3.2809151E+01
 5.0312505E+00  3.2995197E+01
 5.0427504E+00  3.3098846E+01
 5.0542502E+00  3.3169682E+01
 5.0657501E+00  3.3138084E+01
 5.0772505E+00  3.3096409E+01
 5.0887504E+00  3.3046291E+01
 5.1002502E+00  3.3061512E+01
 5.1117501E+00  3.3226879E+01
 5.1232505E+00  3.3334213E+01
 5.1347504E+00  3.3525776E+01
 5.1462502E+00  3.3582172E+01
 5.1577501E+00  3.3617031E+01
 5.1692505E+00  3.3626530E+01
 5.1807504E+00  3.3631390E+01
 5.1922503E+00  3.3663555E+01
 5.2037501E+00  3.3657715E+01
 5.2152505E+00  3.3602768E+01
 5.2267504E+00  3.3620338E+01
 5.2382503E+00  3.3639198E+01
 5.2497501E+00  3.3621868E+01
 5.2612505E+00  3.3671577E+01
 5.2727504E+00  3.3731171E+01
 5.2842503E+00  3.3834343E+01
 5.2957501E+00  3.3918449E+01
 5.3072500E+00  3.3950256E+01
 5.3187504E+00  3.3972878E+01
 5.3302503E+00  3.3892315E+01
 5.3417501E+00  3.3930481E+01
 5.3532500E+00  3.3945923E+01
 5.3647504E+00  3.4057365E+01
 5.3762503E+00  3.4090794E+01
 5.3877501E+00  3.4200863E+01
 5.3992500E+00  3.4291008E+01
 5.4107504E+00  3.4364704E+01
 5.4222503E+00  3.4335686E+01
 5.4337502E+00  3.4345612E+01
 5.4452500E+00  3.4365559E+01
 5.4567504E+00  3.4509979E+01
 5.4682503E+00  3.4546825E+01
 5.4797502E+00  3.4595913E+01
 5.4912500E+00  3.4554016E+01
 5.5027504E+00  3.4488293E+01
 5.5142503E+00  3.4519665E+01
 5.5257502E+00  3.4487339E+01
 5.5372500E+00  3.4571667E+01
 5.5487504E+00  3.4551765E+01
 5.5602503E+00  3.4592072E+01
 5.5717502E+00  3.4726673E+01
 5.5832500E+00  3.4841423E+01
 5.5947504E+00  3.4954800E+01
 5.6062503E+00  3.5020710E+01
 5.6177502E+00  3.4936749E+01
 5.6292500E+00  3.4899372E+01
 5.6407504E+00  3.4815090E+01
 5.6522503E+00  3.4825203E+01
 5.6637502E+00  3.4891197E+01
 5.6752501E+00  3.5042953E+01
 5.6867504E+00  3.5116394E+01
 5.6982503E+00  3.5157600E+01
 5.7097502E+00  3.5134354E+01
 5.7212501E+00  3.5158253E+01
 5.7327504E+00  3.5249012E+01
 5.7442503E+00  3.5317932E+01
 5.7557502E+00  3.5362614E+01
 5.7672501E+00  3.5391888E+01
 5.7787504E+00  3.5391216E+01
 5.7902503E+00  3.5493649E+01
 5.8017502E+00  3.5445271E+01
 5.8132501E+00  3.5343872E+01
 5.8247504E+00  3.5384792E+01
 5.8362503E+00  3.5435574E+01
 5.8477502E+00  3.5584595E+01
 5.8592501E+00  3.5686947E+01
 5.8707504E+00  3.5847317E+01
 5.8822503E+00  3.6079285E+01
 5.8937502E+00  3.6257767E+01
 5.9052501E+00  3.6583122E+01
 5.9167504E+00  3.6987366E+01
 5.9282503E+00  3.7776527E+01
 5.9397502E+00  3.8688183E+01
 5.9512501E+00  4.0471508E+01
 5.9627504E+00  4.2076675E+01
 5.9742503E+00  4.3786930E+01
 5.9857502E+00  4.4727695E+01
 5.9972501E+00  4.4861824E+01
 6.0087504E+00  4.3767090E+01
 6.0202503E+00  4.2238968E+01
 6.0317502E+00  4.0332493E+01
 6.0432501E+00  3.9038425E+01
 6.0547504E+00  3.7729031E+01
 6.0662503E+00  3.7161118E+01
 6.0777502E+00  3.6731060E+01
 6.0892501E+00  3.6584625E+01
 6.1007504E+00  3.6427197E+01
 6.1122503E+00  3.6440834E+01
 6.1237502E+00  3.6419334E+01
 6.1352501E+00  3.6482254E+01
 6.1467505E+00  3.6515881E+01
 6.1582503E+00  3.6573612E+01
 6.1697502E+00  3.6705444E+01
 6.1812501E+00  3.6833469E+01
 6.1927505E+00  3.7030361E+01
 6.2042503E+00  3.7155136E+01
 6.2157502E+00  3.7204807E+01
 6.2272501E+00  3.7152061E+01
 6.2387505E+00  3.7112724E+01
 6.2502503E+00  3.7102650E+01
 6.2617502E+00  3.7212921E+01
 6.2732501E+00  3.7331131E+01
 6.2847505E+00  3.7468430E+01
 6.2962503E+00  3.7623489E+01
 6.3077502E+00  3.7809124E+01
 6.3192501E+00  3.7954395E+01
 6.3307505E+00  3.8097908E+01
 6.3422503E+00  3.8177383E+01
 6.3537502E+00  3.8279579E+01
 6.3652501E+00  3.8312931E+01
 6.3767505E+00  3.8269588E+01
 6.3882504E+00  3.8328827E+01
 6.3997502E+00  3.8325752E+01
 6.4112501E+00  3.8398445E+01
 6.4227505E+00  3.8411263E+01
 6.4342504E+00  3.8454033E+01
 6.4457502E+00  3.8598618E+01
 6.4572501E+00  3.8624737E+01
 6.4687505E+00  3.8746765E+01
 6.4802504E+00  3.8751648E+01
 6.4917502E+00  3.8913773E+01
 6.5032501E+00  3.9009102E+01
 6.5147505E+00  3.9132011E+01
 6.5262504E+00  3.9163818E+01
 6.5377502E+00  3.9214722E+01
 6.5492501E+00  3.9192848E+01
 6.5607505E+00  3.9228939E+01
 6.5722504E+00  3.9312805E+01
 6.5837502E+00  3.9337688E+01
 6.5952501E+00  3.9455299E+01
 6.6067505E+00  3.9527328E+01
 6.6182504E+00  3.9696842E+01
 6.6297503E+00  3.9812340E+01
 6.6412501E+00  3.9954983E+01
 6.6527505E+00  4.0029350E+01
 6.6642504E+00  4.0079563E+01
 6.6757503E+00  4.0004604E+01
 6.6872501E+00  3.9993202E+01
 6.6987505E+00  3.9993557E+01
 6.7102504E+00  4.0143734E+01
 6.7217503E+00  4.0321926E+01
 6.7332501E+00  4.0372753E+01
 6.7447505E+00  4.0347950E+01
 6.7562504E+00  4.0396667E+01
 6.7677503E+00  4.0505959E+01
 6.7792501E+00  4.0758202E+01
 6.7907505E+00  4.0896206E+01
 6.8022504E+00  4.1135342E+01
 6.8137503E+00  4.1347366E+01
 6.8252501E+00  4.1535976E+01
 6.8367505E+00  4.1593872E+01
 6.8482504E+00  4.1626209E+01
 6.8597503E+00  4.1616203E+01
 6.8712502E+00  4.1660107E+01
 6.8827505E+00  4.1618137E+01
 6.8942504E+00  4.1578342E+01
 6.9057503E+00  4.1500568E+01
 6.9172502E+00  4.1488419E+01
 6.9287505E+00  4.1507923E+01
 6.9402504E+00  4.1704258E+01
 6.9517503E+00  4.1780514E+01
 6.9632502E+00  4.2000202E+01
 6.9747505E+00  4.2097023E+01
 6.9862504E+00  4.2301727E+01
 6.9977503E+00  4.2344143E+01
 7.0092502E+00  4.2315723E+01
 7.0207505E+00  4.2298866E+01
 7.0322504E+00  4.2297935E+01
 7.0437503E+00  4.2370644E+01
 7.0552502E+00  4.2471413E+01
 7.0667505E+00  4.2451077E+01
 7.0782504E+00  4.2491707E+01
 7.0897503E+00  4.2472054E+01
 7.1012502E+00  4.2589424E+01
 7.1127505E+00  4.2732552E+01
 7.1242504E+00  4.2828785E+01
 7.1357503E+00  4.2926003E+01
 7.1472502E+00  4.2998154E+01
 7.1587505E+00  4.3021969E+01
 7.1702504E+00  4.3050381E+01
 7.1817503E+00  4.3029999E+01
 7.1932502E+00  4.3000957E+01
 7.2047505E+00  4.3035606E+01
 7.2162504E+00  4.2929485E+01
 7.2277503E+00  4.2971008E+01
 7.2392502E+00  4.2946819E+01
 7.2507505E+00  4.3052536E+01
 7.2622504E+00  4.3082916E+01
 7.2737503E+00  4.3269016E+01
 7.2852502E+00  4.3386189E+01
 7.2967505E+00  4.3585522E+01
 7.3082504E+00  4.3654156E+01
 7.3197503E+00  4.3747364E+01
 7.3312502E+00  4.3770180E+01
 7.3427505E+00  4.3693245E+01
 7.3542504E+00  4.3641872E+01
 7.3657503E+00  4.3595020E+01
 7.3772502E+00  4.3595787E+01
 7.3887506E+00  4.3568027E+01
 7.4002504E+00  4.3636055E+01
 7.4117503E+00  4.3789165E+01
 7.4232502E+00  4.3797009E+01
 7.4347506E+00  4.3777275E+01
 7.4462504E+00  4.3766350E+01
 7.4577503E+00  4.3806305E+01
 7.4692502E+00  4.3845360E+01
 7.4807506E+00  4.3864677E+01
 7.4922504E+00  4.4034107E+01
 7.5037503E+00  4.4072292E+01
 7.5152502E+00  4.4110676E+01
 7.5267506E+00  4.4127335E+01
 7.5382504E+00  4.4214912E+01
 7.5497503E+00  4.4365707E+01
 7.5612502E+00  4.4452579E+01
 7.5727506E+00  4.4575760E+01
 7.5842505E+00  4.4572334E+01
 7.5957503E+00  4.4534893E+01
 7.6072502E+00  4.4499454E+01
 7.6187506E+00  4.4479542E+01
 7.6302505E+00  4.4329647E+01
 7.6417503E+00  4.4305302E+01
 7.6532502E+00  4.4157097E+01
 7.6647506E+00  4.4118099E+01
 7.6762505E+00  4.3973492E+01
 7.6877503E+00  4.4003559E+01
 7.6992502E+00  4.4105541E+01
 7.7107506E+00  4.4214695E+01
 7.7222505E+00  4.4315132E+01
 7.7337503E+00  4.4302696E+01
 7.7452502E+00  4.4324051E+01
 7.7567506E+00  4.4258961E+01
 7.7682505E+00  4.4397705E+01
 7.7797503E+00  4.4397900E+01
 7.7912502E+00  4.4503864E+01
 7.8027506E+00  4.4450863E+01
 7.8142505E+00  4.4363884E+01
 7.8257504E+00  4.4134888E+01
 7.8372502E+00  4.4014187E+01
 7.8487506E+00  4.4176384E+01
 7.8602505E+00  4.4182415E+01
 7.8717504E+00  4.4163483E+01
 7.8832502E+00  4.4005798E+01
 7.8947506E+00  4.3901398E+01
 7.9062505E+00  4.3788082E+01
 7.9177504E+00  4.3674751E+01
 7.9292502E+00  4.3646587E+01
 7.9407506E+00  4.3617931E+01
 7.9522505E+00  4.3466473E+01
 7.9637504E+00  4.3420807E+01
 7.9752502E+00  4.3387741E+01
 7.9867506E+00  4.3373058E+01
 7.9982505E+00  4.3437649E+01
 8.0097504E+00  4.3369061E+01
 8.0212507E+00  4.3394272E+01
 8.0327501E+00  4.3353695E+01
 8.0442505E+00  4.3411530E+01
 8.0557508E+00  4.3351547E+01
 8.0672503E+00  4.3173500E+01
 8.0787506E+00  4.2974590E+01
 8.0902500E+00  4.2826263E+01
 8.1017504E+00  4.2744801E+01
 8.1132507E+00  4.2654644E+01
 8.1247501E+00  4.2583328E+01
 8.1362505E+00  4.2529636E+01
 8.1477509E+00  4.2401058E+01
 8.1592503E+00  4.2335644E+01
 8.1707506E+00  4.2202999E+01
 8.1822500E+00  4.2120098E+01
 8.1937504E+00  4.2053112E+01
 8.2052507E+00  4.1952522E+01
 8.2167501E+00  4.1814945E+01
 8.2282505E+00  4.1594177E+01
 8.2397509E+00  4.1441872E+01
 8.2512503E+00  4.1301186E+01
 8.2627506E+00  4.1105385E+01
 8.2742500E+00  4.0936863E+01
 8.2857504E+00  4.0746284E+01
 8.2972507E+00  4.0665779E+01
 8.3087502E+00  4.0541256E+01
 8.3202505E+00  4.0508926E+01
 8.3317509E+00  4.0421581E+01
 8.3432503E+00  4.0302391E+01
 8.3547506E+00  4.0167881E+01
 8.3662500E+00  4.0121418E+01
 8.3777504E+00  3.9950661E+01
 8.3892508E+00  3.9784664E+01
 8.4007502E+00  3.9575279E+01
 8.4122505E+00  3.9381783E+01
 8.4237509E+00  3.9236530E+01
 8.4352503E+00  3.8978775E+01
 8.4467506E+00  3.8769714E+01
 8.4582500E+00  3.8511631E+01
 8.4697504E+00  3.8348499E+01
 8.4812508E+00  3.8170216E+01
 8.4927502E+00  3.8012280E+01
 8.5042505E+00  3.7802460E+01
 8.5157509E+00  3.7729992E+01
 8.5272503E+00  3.7605846E+01
 8.5387506E+00  3.7442074E+01
 8.5502501E+00  3.7200428E+01
 8.5617504E+00  3.6913315E+01
 8.5732508E+00  3.6789345E+01
 8.5847502E+00  3.6575268E+01
 8.5962505E+00  3.6446156E+01
 8.6077509E+00  3.6175224E+01
 8.6192503E+00  3.6071472E+01
 8.6307507E+00  3.5893757E+01
 8.6422501E+00  3.5773308E+01
 8.6537504E+00  3.5554985E+01
 8.6652508E+00  3.5430443E+01
 8.6767502E+00  3.5285007E+01
 8.6882505E+00  3.5213615E+01
 8.6997509E+00  3.5112122E+01
 8.7112503E+00  3.4911667E+01
 8.7227507E+00  3.4733910E+01
 8.7342501E+00  3.4573994E+01
 8.7457504E+00  3.4432301E+01
 8.7572508E+00  3.4298798E+01
 8.7687502E+00  3.4149055E+01
 8.7802505E+00  3.4034248E+01
 8.7917500E+00  3.3790501E+01
 8.8032503E+00  3.3500664E+01
 8.8147507E+00  3.3234253E+01
 8.8262501E+00  3.3087475E+01
 8.8377504E+00  3.3018200E+01
 8.8492508E+00  3.2936447E+01
 8.8607502E+00  3.2773125E+01
 8.8722506E+00  3.2545685E+01
 8.8837500E+00  3.2273472E+01
 8.8952503E+00  3.2029633E+01
 8.9067507E+00  3.1808661E+01
 8.9182501E+00  3.1672230E+01
 8.9297504E+00  3.1540148E+01
 8.9412508E+00  3.1425417E+01
 8.9527502E+00  3.1241697E+01
 8.9642506E+00  3.1148886E+01
 8.9757500E+00  3.0979361E+01
 8.9872503E+00  3.0945221E+01
 8.9987507E+00  3.0804142E+01
 9.0102501E+00  3.0740177E+01
 9.0217505E+00  3.0557192E+01
 9.0332508E+00  3.0449451E+01
 9.0447502E+00  3.0329697E+01
 9.0562506E+00  3.0187958E+01
 9.0677500E+00  3.0086889E+01
 9.0792503E+00  2.9971838E+01
 9.0907507E+00  2.9910799E+01
 9.1022501E+00  2.9818653E+01
 9.1137505E+00  2.9654423E+01
 9.1252508E+00  2.9479481E+01
 9.1367502E+00  2.9330788E+01
 9.1482506E+00  2.9220047E+01
 9.1597500E+00  2.9200893E+01
 9.1712503E+00  2.9024693E+01
 9.1827507E+00  2.8914223E+01
 9.1942501E+00  2.8780737E+01
 9.2057505E+00  2.8663654E+01
 9.2172508E+00  2.8539265E+01
 9.2287502E+00  2.8359133E+01
 9.2402506E+00  2.8236282E+01
 9.2517500E+00  2.8231384E+01
 9.2632504E+00  2.8175335E+01
 9.2747507E+00  2.8186777E+01
 9.2862501E+00  2.8082308E+01
 9.2977505E+00  2.7944660E+01
 9.3092508E+00  2.7783411E+01
 9.3207502E+00  2.7618433E+01
 9.3322506E+00  2.7542231E+01
 9.3437500E+00  2.7492393E+01
 9.3552504E+00  2.7404993E+01
 9.3667507E+00  2.7320816E+01
 9.3782501E+00  2.7188227E+01
 9.3897505E+00  2.7086206E+01
 9.4012508E+00  2.7008499E+01
 9.4127502E+00  2.6918125E+01
 9.4242506E+00  2.6828062E+01
 9.4357500E+00  2.6770712E+01
 9.4472504E+00  2.6720392E+01
 9.4587507E+00  2.6647076E+01
 9.4702501E+00  2.6598875E+01
 9.4817505E+00  2.6615820E+01
 9.4932508E+00  2.6559664E+01
 9.5047503E+00  2.6507734E+01
 9.5162506E+00  2.6405752E+01
 9.5277500E+00  2.6388594E+01
 9.5392504E+00  2.6326273E+01
 9.5507507E+00  2.6223448E+01
 9.5622501E+00  2.6182560E+01
 9.5737505E+00  2.6063286E+01
 9.5852509E+00  2.5996721E+01
 9.5967503E+00  2.5864573E+01
 9.6082506E+00  2.5806641E+01
 9.6197500E+00  2.5758560E+01
 9.6312504E+00  2.5700958E+01
 9.6427507E+00  2.5680950E+01
 9.6542501E+00  2.5553846E+01
 9.6657505E+00  2.5443335E+01
 9.6772509E+00  2.5313457E+01
 9.6887503E+00  2.5185320E+01
 9.7002506E+00  2.5145056E+01
 9.7117500E+00  2.5163137E+01
 9.7232504E+00  2.5264921E+01
 9.7347507E+00  2.5234013E+01
 9.7462502E+00  2.5157637E+01
 9.7577505E+00  2.5025572E+01
 9.7692509E+00  2.4920658E+01
 9.7807503E+00  2.4858221E+01
 9.7922506E+00  2.4783110E+01
 9.8037500E+00  2.4833652E+01
 9.8152504E+00  2.4772137E+01
 9.8267508E+00  2.4741638E+01
 9.8382502E+00  2.4689230E+01
 9.8497505E+00  2.4659374E+01
 9.8612509E+00  2.4684906E+01
 9.8727503E+00  2.4666376E+01
 9.8842506E+00  2.4701571E+01
 9.8957500E+00  2.4635490E+01
 9.9072504E+00  2.4656898E+01
 9.9187508E+00  2.4573225E+01
 9.9302502E+00  2.4637247E+01
 9.9417505E+00  2.4573408E+01
 9.9532509E+00  2.4576593E+01
 9.9647503E+00  2.4509254E+01
 9.9762506E+00  2.4483368E+01
 9.9877501E+00  2.4456385E+01
 9.9992504E+00  2.4460022E+01
 1.0010751E+01  2.4433096E+01
 1.0022250E+01  2.4433424E+01
 1.0033751E+01  2.4405685E+01
 1.0045251E+01  2.4324669E+01
 1.0056750E+01  2.4194687E+01
 1.0068251E+01  2.4119383E+01
 1.0079750E+01  2.4062969E+01
 1.0091250E+01  2.4088593E+01
 1.0102751E+01  2.4028933E+01
 1.0114250E+01  2.4045601E+01
 1.0125751E+01  2.4070332E+01
 1.0137251E+01  2.4055565E+01
 1.0148750E+01  2.4032372E+01
 1.0160251E+01  2.4009111E+01
 1.0171750E+01  2.3996355E+01
 1.0183250E+01  2.4001507E+01
 1.0194751E+01  2.3906189E+01
 1.0206250E+01  2.3860115E+01
 1.0217751E+01  2.3803772E+01
 1.0229251E+01  2.3784456E+01
 1.0240750E+01  2.3803961E+01
 1.0252251E+01  2.3795464E+01
 1.0263750E+01  2.3750078E+01
 1.0275250E+01  2.3761015E+01
 1.0286751E+01  2.3785803E+01
 1.0298250E+01  2.3884335E+01
 1.0309751E+01  2.3901480E+01
 1.0321251E+01  2.3882999E+01
 1.0332750E+01  2.3821106E+01
 1.0344251E+01  2.3730274E+01
 1.0355750E+01  2.3627150E+01
 1.0367250E+01  2.3547428E+01
 1.0378751E+01  2.3494761E+01
 1.0390250E+01  2.3512987E+01
 1.0401751E+01  2.3514410E+01
 1.0413251E+01  2.3492580E+01
 1.0424750E+01  2.3426065E+01
 1.0436251E+01  2.3349939E+01
 1.0447750E+01  2.3263222E+01
 1.0459250E+01  2.3186056E+01
 1.0470751E+01  2.3074177E+01
 1.0482250E+01  2.3049809E+01
 1.0493751E+01  2.3018198E+01
 1.0505251E+01  2.3011185E+01
 1.0516750E+01  2.3038450E+01
 1.0528251E+01  2.3064199E+01
 1.0539750E+01  2.3179213E+01
 1.0551250E+01  2.3229008E+01
 1.0562751E+01  2.3274284E+01
 1.0574250E+01  2.3248802E+01
 1.0585751E+01  2.3207165E+01
 1.0597251E+01  2.3149902E+01
 1.0608750E+01  2.3157940E+01
 1.0620251E+01  2.3092247E+01
 1.0631750E+01  2.3127354E+01
 1.0643250E+01  2.3097685E+01
 1.0654751E+01  2.3107090E+01
 1.0666250E+01  2.3075205E+01
 1.0677751E+01  2.2984930E+01
 1.0689251E+01  2.2906580E+01
 1.0700750E+01  2.2834406E+01
 1.0712251E+01  2.2820641E+01
 1.0723750E+01  2.2846069E+01
 1.0735250E+01  2.2800949E+01
 1.0746751E+01  2.2823189E+01
 1.0758250E+01  2.2767208E+01
 1.0769751E+01  2.2783276E+01
 1.0781251E+01  2.2793200E+01
 1.0792750E+01  2.2810257E+01
 1.0804251E+01  2.2836452E+01
 1.0815750E+01  2.2808617E+01
 1.0827250E+01  2.2808071E+01
 1.0838751E+01  2.2753330E+01
 1.0850250E+01  2.2730667E+01
 1.0861751E+01  2.2718651E+01
 1.0873251E+01  2.2759130E+01
 1.0884750E+01  2.2723778E+01
 1.0896251E+01  2.2724670E+01
 1.0907750E+01  2.2744335E+01
 1.0919250E+01  2.2792410E+01
 1.0930751E+01  2.2827717E+01
 1.0942250E+01  2.2835442E+01
 1.0953751E+01  2.2844477E+01
 1.0965251E+01  2.2781572E+01
 1.0976750E+01  2.2742773E+01
 1.0988251E+01  2.2684797E+01
 1.0999750E+01  2.2684698E+01
 1.1011250E+01  2.2642660E+01
 1.1022751E+01  2.2619982E+01
 1.1034250E+01  2.2628796E+01
 1.1045751E+01  2.2607973E+01
 1.1057251E+01  2.2569586E+01
 1.1068750E+01  2.2587553E+01
 1.1080251E+01  2.2607168E+01
 1.1091750E+01  2.2643845E+01
 1.1103251E+01  2.2618052E+01
 1.1114751E+01  2.2620644E+01
 1.1126250E+01  2.2583824E+01
 1.1137751E+01  2.2534008E+01
 1.1149251E+01  2.2569351E+01
 1.1160750E+01  2.2655361E+01
 1.1172251E+01  2.2748766E+01
 1.1183750E+01  2.2767729E+01
 1.1195251E+01  2.2761770E+01
 1.1206751E+01  2.2713562E+01
 1.1218250E+01  2.2673748E+01
 1.1229751E+01  2.2631294E+01
 1.1241251E+01  2.2606419E+01
 1.1252750E+01  2.2542681E+01
 1.1264251E+01  2.2542540E+01
 1.1275750E+01  2.2531836E+01
 1.1287251E+01  2.2552172E+01
 1.1298751E+01  2.2574123E+01
 1.1310250E+01  2.2652796E+01
 1.1321751E+01  2.2678934E+01
 1.1333251E+01  2.2697824E+01
 1.1344750E+01  2.2654444E+01
 1.1356251E+01  2.2633139E+01
 1.1367750E+01  2.2663784E+01
 1.1379251E+01  2.2723843E+01
 1.1390751E+01  2.2801985E+01
 1.1402250E+01  2.2896114E+01
 1.1413751E+01  2.2899727E+01
 1.1425251E+01  2.2934460E+01
 1.1436750E+01  2.2842831E+01
 1.1448251E+01  2.2891569E+01
 1.1459750E+01  2.2890486E+01
 1.1471251E+01  2.2962893E+01
 1.1482751E+01  2.3007061E+01
 1.1494250E+01  2.3103294E+01
 1.1505751E+01  2.3321898E+01
 1.1517251E+01  2.3711472E+01
 1.1528750E+01  2.4350401E+01
 1.1540251E+01  2.5340322E+01
 1.1551750E+01  2.6626411E+01
 1.1563251E+01  2.8040443E+01
 1.1574751E+01  2.9784779E+01
 1.1586250E+01  3.0667063E+01
 1.1597751E+01  3.1229073E+01
 1.1609251E+01  3.0331276E+01
 1.1620750E+01  2.9544266E+01
 1.1632251E+01  2.7742697E+01
 1.1643750E+01  2.6512066E+01
 1.1655251E+01  2.4978365E+01
 1.1666751E+01  2.4177433E+01
 1.1678250E+01  2.3350033E+01
 1.1689751E+01  2.3025305E+01
 1.1701251E+01  2.2858328E+01
 1.1712750E+01  2.2787680E+01
 1.1724251E+01  2.2743010E+01
 1.1735750E+01  2.2727715E+01
 1.1747251E+01  2.2682493E+01
 1.1758751E+01  2.2644575E+01
 1.1770250E+01  2.2607143E+01
 1.1781751E+01  2.2604483E+01
 1.1793251E+01  2.2595436E+01
 1.1804750E+01  2.2556591E+01
 1.1816251E+01  2.2593201E+01
 1.1827750E+01  2.2591381E+01
 1.1839251E+01  2.2594124E+01
 1.1850751E+01  2.2496130E+01
 1.1862250E+01  2.2479462E+01
 1.1873751E+01  2.2442993E+01
 1.1885251E+01  2.2429798E+01
 1.1896750E+01  2.2442026E+01
 1.1908251E+01  2.2467735E+01
 1.1919750E+01  2.2565292E+01
 1.1931251E+01  2.2649832E+01
 1.1942751E+01  2.2780859E+01
 1.1954250E+01  2.2827843E+01
 1.1965751E+01  2.2942165E+01
 1.1977251E+01  2.3077551E+01
 1.1988750E+01  2.3139296E+01
 1.2000251E+01  2.3164793E+01
 1.2011750E+01  2.3056273E+01
 1.2023251E+01  2.3034790E+01
 1.2034751E+01  2.3008415E+01
 1.2046250E+01  2.3095585E+01
 1.2057751E+01  2.3270655E+01
 1.2069251E+01  2.3555609E+01
 1.2080750E+01  2.3824289E+01
 1.2092251E+01  2.4132811E+01
 1.2103750E+01  2.4179623E+01
 1.2115251E+01  2.4129864E+01
 1.2126751E+01  2.3886635E+01
 1.2138250E+01  2.3637444E+01
 1.2149751E+01  2.3405735E+01
 1.2161251E+01  2.3182142E+01
 1.2172750E+01  2.3069284E+01
 1.2184251E+01  2.2931284E+01
 1.2195750E+01  2.2841326E+01
 1.2207251E+01  2.2725601E+01
 1.2218751E+01  2.2638863E+01
 1.2230250E+01  2.2552446E+01
 1.2241751E+01  2.2471863E+01
 1.2253251E+01  2.2452763E+01
 1.2264750E+01  2.2462271E+01
 1.2276251E+01  2.2522017E+01
 1.2287750E+01  2.2617161E+01
 1.2299251E+01  2.2667013E+01
 1.2310751E+01  2.2765965E+01
 1.2322250E+01  2.2709789E+01
 1.2333751E+01  2.2702974E+01
 1.2345250E+01  2.2624327E+01
 1.2356750E+01  2.2628611E+01
 1.2368251E+01  2.2574860E+01
 1.2379750E+01  2.2586201E+01
 1.2391251E+01  2.2622871E+01
 1.2402751E+01  2.2647684E+01
 1.2414250E+01  2.2647650E+01
 1.2425751E+01  2.2624504E+01
 1.2437250E+01  2.2656599E+01
 1.2448750E+01  2.2664719E+01
 1.2460251E+01  2.2676506E+01
 1.2471750E+01  2.2668110E+01
 1.2483251E+01  2.2668438E+01
 1.2494751E+01  2.2659016E+01
 1.2506250E+01  2.2615330E+01
 1.2517751E+01  2.2572124E+01
 1.2529250E+01  2.2545839E+01
 1.2540751E+01  2.2586498E+01
 1.2552251E+01  2.2631964E+01
 1.2563750E+01  2.2689394E+01
 1.2575251E+01  2.2700886E+01
 1.2586751E+01  2.2683802E+01
 1.2598250E+01  2.2714367E+01
 1.2609751E+01  2.2768225E+01
 1.2621250E+01  2.2850895E+01
 1.2632751E+01  2.2896936E+01
 1.2644251E+01  2.2926292E+01
 1.2655750E+01  2.2943638E+01
 1.2667251E+01  2.2939655E+01
 1.2678751E+01  2.2969299E+01
 1.2690250E+01  2.2953976E+01
 1.2701751E+01  2.3036158E+01
 1.2713250E+01  2.3092407E+01
 1.2724751E+01  2.3154142E+01
 1.2736251E+01  2.3118353E+01
 1.2747750E+01  2.3085083E+01
 1.2759251E+01  2.3085268E+01
 1.2770751E+01  2.3070292E+01
 1.2782250E+01  2.3099924E+01
 1.2793751E+01  2.3071423E+01
 1.2805250E+01  2.3158859E+01
 1.2816751E+01  2.3175529E+01
 1.2828251E+01  2.3267349E+01
 1.2839750E+01  2.3240385E+01
 1.2851251E+01  2.3324841E+01
 1.2862751E+01  2.3303825E+01
 1.2874250E+01  2.3366962E+01
 1.2885751E+01  2.3368921E+01
 1.2897250E+01  2.3426229E+01
 1.2908751E+01  2.3473894E+01
 1.2920251E+01  2.3516663E+01
 1.2931750E+01  2.3591358E+01
 1.2943251E+01  2.3621849E+01
 1.2954751E+01  2.3650452E+01
 1.2966250E+01  2.3701483E+01
 1.2977751E+01  2.3790951E+01
 1.2989250E+01  2.3872013E+01
 1.3000751E+01  2.3958557E+01
 1.3012251E+01  2.4001394E+01
 1.3023750E+01  2.4054886E+01
 1.3035251E+01  2.4105492E+01
 1.3046751E+01  2.4164083E+01
 1.3058250E+01  2.4275272E+01
 1.3069751E+01  2.4340460E+01
 1.3081250E+01  2.4428747E+01
 1.3092751E+01  2.4514723E+01
 1.3104251E+01  2.4669456E+01
 1.3115750E+01  2.4794764E+01
 1.3127251E+01  2.4886349E+01
 1.3138751E+01  2.5034477E+01
 1.3150250E+01  2.5191637E+01
 1.3161751E+01  2.5285444E+01
 1.3173250E+01  2.5360746E+01
 1.3184751E+01  2.5443670E+01
 1.3196251E+01  2.5587446E+01
 1.3207750E+01  2.5749716E+01
 1.3219251E+01  2.5924511E+01
 1.3230751E+01  2.6121889E+01
 1.3242250E+01  2.6278086E+01
 1.3253751E+01  2.6356071E+01
 1.3265250E+01  2.6400654E+01
 1.3276751E+01  2.6460876E+01
 1.3288251E+01  2.6640781E+01
 1.3299750E+01  2.6861464E+01
 1.3311251E+01  2.6997250E+01
 1.3322751E+01  2.7170670E+01
 1.3334250E+01  2.7290213E+01
 1.3345751E+01  2.7444220E+01
 1.3357250E+01  2.7514410E+01
 1.3368751E+01  2.7547794E+01
 1.3380251E+01  2.7646881E+01
 1.3391750E+01  2.7757790E+01
 1.3403251E+01  2.7946932E+01
 1.3414751E+01  2.8108000E+01
 1.3426250E+01  2.8256367E+01
 1.3437751E+01  2.8415674E+01
 1.3449250E+01  2.8548157E+01
 1.3460751E+01  2.8683123E+01
 1.3472251E+01  2.8806749E+01
 1.3483750E+01  2.8952524E+01
 1.3495251E+01  2.9070227E+01
 1.3506751E+01  2.9216822E+01
 1.3518250E+01  2.9334978E+01
 1.3529751E+01  2.9475304E+01
 1.3541250E+01  2.9517633E+01
 1.3552751E+01  2.9619011E+01
 1.3564251E+01  2.9671951E+01
 1.3575750E+01  2.9719307E+01
 1.3587251E+01  2.9705177E+01
 1.3598751E+01  2.9668846E+01
 1.3610250E+01  2.9614080E+01
 1.3621751E+01  2.9625111E+01
 1.3633250E+01  2.9647129E+01
 1.3644751E+01  2.9710413E+01
 1.3656251E+01  2.9665508E+01
 1.3667750E+01  2.9723179E+01
 1.3679251E+01  2.9715366E+01
 1.3690751E+01  2.9715151E+01
 1.3702250E+01  2.9652390E+01
 1.3713751E+01  2.9575556E+01
 1.3725250E+01  2.9537981E+01
 1.3736751E+01  2.9565052E+01
 1.3748251E+01  2.9715693E+01
 1.3759750E+01  2.9757597E+01
 1.3771251E+01  2.9916233E+01
 1.3782751E+01  3.0018145E+01
 1.3794250E+01  2.9993925E+01
 1.3805751E+01  2.9865046E+01
 1.3817250E+01  3.0142483E+01
 1.3828751E+01  3.0227688E+01
 1.3840251E+01  3.0303183E+01
 1.3851750E+01  3.0118578E+01
 1.3863251E+01  3.0318596E+01
 1.3874751E+01  3.0580202E+01
 1.3886250E+01  3.1153011E+01
 1.3897751E+01  3.2226040E+01
 1.3909250E+01  3.3788898E+01
 1.3920751E+01  3.6123772E+01
 1.3932251E+01  3.9410419E+01
 1.3943750E+01  4.2964825E+01
 1.3955251E+01  4.6157604E+01
 1.3966751E+01  4.7963058E+01
 1.3978251E+01  4.6532276E+01
 1.3989751E+01  4.2831802E+01
 1.4001250E+01  3.8024208E+01
 1.4012751E+01  3.4232327E+01
 1.4024251E+01  3.1731112E+01
 1.4035750E+01  3.0081362E+01
 1.4047251E+01  2.9166985E+01
 1.4058751E+01  2.8633726E+01
 1.4070251E+01  2.8311991E+01
 1.4081751E+01  2.8109459E+01
 1.4093250E+01  2.7958599E+01
 1.4104751E+01  2.7867870E+01
 1.4116251E+01  2.7738491E+01
 1.4127750E+01  2.7610888E+01
 1.4139251E+01  2.7415049E+01
 1.4150751E+01  2.7233465E+01
 1.4162251E+01  2.7144047E+01
 1.4173751E+01  2.7048569E+01
 1.4185250E+01  2.6982061E+01
 1.4196751E+01  2.6861746E+01
 1.4208251E+01  2.6820621E+01
 1.4219750E+01  2.6785334E+01
 1.4231251E+01  2.6669449E+01
 1.4242751E+01  2.6549814E+01
 1.4254251E+01  2.6388298E+01
 1.4265751E+01  2.6359634E+01
 1.4277250E+01  2.6326561E+01
 1.4288751E+01  2.6352070E+01
 1.4300251E+01  2.6369402E+01
 1.4311750E+01  2.6357576E+01
 1.4323251E+01  2.6293739E+01
 1.4334751E+01  2.6220062E+01
 1.4346251E+01  2.6170843E+01
 1.4357751E+01  2.6149557E+01
 1.4369250E+01  2.6112709E+01
 1.4380751E+01  2.6097635E+01
 1.4392251E+01  2.6037102E+01
 1.4403750E+01  2.6009312E+01
 1.4415251E+01  2.5911306E+01
 1.4426751E+01  2.5856169E+01
 1.4438251E+01  2.5798124E+01
 1.4449751E+01  2.5801043E+01
 1.4461250E+01  2.5801550E+01
 1.4472751E+01  2.5779030E+01
 1.4484251E+01  2.5766556E+01
 1.4495750E+01  2.5721996E+01
 1.4507251E+01  2.5690351E+01
 1.4518751E+01  2.5652967E+01
 1.4530251E+01  2.5647377E+01
 1.4541751E+01  2.5630114E+01
 1.4553250E+01  2.5650181E+01
 1.4564751E+01  2.5631535E+01
 1.4576251E+01  2.5603411E+01
 1.4587750E+01  2.5529345E+01
 1.4599251E+01  2.5460657E+01
 1.4610751E+01  2.5393747E+01
 1.4622251E+01  2.5356346E+01
 1.4633751E+01  2.5329466E+01
 1.4645250E+01  2.5353897E+01
 1.4656751E+01  2.5318951E+01
 1.4668251E+01  2.5314487E+01
 1.4679750E+01  2.5285622E+01
 1.4691251E+01  2.5329641E+01
 1.4702751E+01  2.5286840E+01
 1.4714251E+01  2.5220476E+01
 1.4725751E+01  2.5131218E+01
 1.4737250E+01  2.5116972E+01
 1.4748751E+01  2.5110424E+01
 1.4760251E+01  2.5099394E+01
 1.4771750E+01  2.5049501E+01
 1.4783251E+01  2.5024197E+01
 1.4794751E+01  2.5033417E+01
 1.4806251E+01  2.4990530E+01
 1.4817751E+01  2.4972374E+01
 1.4829250E+01  2.4954210E+01
 1.4840751E+01  2.4986534E+01
 1.4852251E+01  2.4968473E+01
 1.4863750E+01  2.4925781E+01
 1.4875251E+01  2.4912010E+01
 1.4886751E+01  2.4871691E+01
 1.4898251E+01  2.4899036E+01
 1.4909751E+01  2.4949854E+01
 1.4921250E+01  2.4972338E+01
 1.4932751E+01  2.4985306E+01
 1.4944251E+01  2.4930880E+01
 1.4955750E+01  2.4908142E+01
 1.4967251E+01  2.4893389E+01
 1.4978751E+01  2.4881607E+01
 1.4990251E+01  2.4899782E+01
 1.5001751E+01  2.4911777E+01
 1.5013250E+01  2.4989059E+01
 1.5024751E+01  2.5025404E+01
 1.5036251E+01  2.5030962E+01
 1.5047750E+01  2.5019772E+01
 1.5059251E+01  2.5011625E+01
 1.5070751E+01  2.4988274E+01
 1.5082251E+01  2.4988628E+01
 1.5093751E+01  2.5027758E+01
 1.5105250E+01  2.5120546E+01
 1.5116751E+01  2.5275803E+01
 1.5128251E+01  2.5524769E+01
 1.5139750E+01  2.5921724E+01
 1.5151251E+01  2.6590899E+01
 1.5162751E+01  2.7682007E+01
 1.5174251E+01  2.8667448E+01
 1.5185751E+01  2.9982632E+01
 1.5197250E+01  3.0327066E+01
 1.5208751E+01  3.0614841E+01
 1.5220251E+01  2.9686331E+01
 1.5231750E+01  2.8825548E+01
 1.5243251E+01  2.7494061E+01
 1.5254751E+01  2.6477512E+01
 1.5266251E+01  2.5722084E+01
 1.5277751E+01  2.5285482E+01
 1.5289250E+01  2.5069778E+01
 1.5300751E+01  2.4950615E+01
 1.5312251E+01  2.4933176E+01
 1.5323750E+01  2.4842501E+01
 1.5335251E+01  2.4820679E+01
 1.5346751E+01  2.4779032E+01
 1.5358251E+01  2.4777693E+01
 1.5369751E+01  2.4788279E+01
 1.5381250E+01  2.4718815E+01
 1.5392751E+01  2.4643387E+01
 1.5404251E+01  2.4615709E+01
 1.5415751E+01  2.4603931E+01
 1.5427251E+01  2.4635719E+01
 1.5438751E+01  2.4577463E+01
 1.5450251E+01  2.4591856E+01
 1.5461751E+01  2.4559412E+01
 1.5473250E+01  2.4520193E+01
 1.5484751E+01  2.4488186E+01
 1.5496251E+01  2.4474405E+01
 1.5507751E+01  2.4531597E+01
 1.5519251E+01  2.4544003E+01
 1.5530751E+01  2.4551722E+01
 1.5542251E+01  2.4535255E+01
 1.5553751E+01  2.4495173E+01
 1.5565250E+01  2.4534170E+01
 1.5576751E+01  2.4552845E+01
 1.5588251E+01  2.4592585E+01
 1.5599751E+01  2.4567900E+01
 1.5611251E+01  2.4554956E+01
 1.5622751E+01  2.4560585E+01
 1.5634251E+01  2.4566450E+01
 1.5645751E+01  2.4582775E+01
 1.5657250E+01  2.4553215E+01
 1.5668751E+01  2.4558002E+01
 1.5680251E+01  2.4523947E+01
 1.5691751E+01  2.4543814E+01
 1.5703251E+01  2.4538471E+01
 1.5714751E+01  2.4523857E+01
 1.5726251E+01  2.4528936E+01
 1.5737751E+01  2.4505426E+01
 1.5749250E+01  2.4516554E+01
 1.5760751E+01  2.4516613E+01
 1.5772251E+01  2.4544641E+01
 1.5783751E+01  2.4570751E+01
 1.5795251E+01  2.4637278E+01
 1.5806751E+01  2.4699381E+01
 1.5818251E+01  2.4691774E+01
 1.5829751E+01  2.4620007E+01
 1.5841250E+01  2.4551870E+01
 1.5852751E+01  2.4513655E+01
 1.5864251E+01  2.4464397E+01
 1.5875751E+01  2.4445837E+01
 1.5887251E+01  2.4479458E+01
 1.5898750E+01  2.4561302E+01
 1.5910251E+01  2.4625845E+01
 1.5921751E+01  2.4687038E+01
 1.5933250E+01  2.4686878E+01
 1.5944751E+01  2.4599211E+01
 1.5956251E+01  2.4495037E+01
 1.5967751E+01  2.4425432E+01
 1.5979251E+01  2.4432138E+01
 1.5990750E+01  2.4498930E+01
 1.6002251E+01  2.4520403E+01
 1.6013750E+01  2.4581688E+01
 1.6025251E+01  2.4590790E+01
 1.6036751E+01  2.4660589E+01
 1.6048250E+01  2.4690634E+01
 1.6059752E+01  2.4725676E+01
 1.6071251E+01  2.4721725E+01
 1.6082750E+01  2.4699970E+01
 1.6094252E+01  2.4703585E+01
 1.6105751E+01  2.4752483E+01
 1.6117250E+01  2.4775286E+01
 1.6128750E+01  2.4769594E+01
 1.6140251E+01  2.4792540E+01
 1.6151751E+01  2.4800425E+01
 1.6163250E+01  2.4839069E+01
 1.6174751E+01  2.4765984E+01
 1.6186251E+01  2.4874857E+01
 1.6197750E+01  2.4830988E+01
 1.6209251E+01  2.5069757E+01
 1.6220751E+01  2.5061687E+01
 1.6232250E+01  2.5308334E+01
 1.6243752E+01  2.5317194E+01
 1.6255251E+01  2.5424162E+01
 1.6266750E+01  2.5505774E+01
 1.6278252E+01  2.5386850E+01
 1.6289751E+01  2.5492977E+01
 1.6301250E+01  2.5080084E+01
 1.6312750E+01  2.5159536E+01
 1.6324251E+01  2.4855457E+01
 1.6335751E+01  2.4939007E+01
 1.6347250E+01  2.4784533E+01
 1.6358751E+01  2.4745724E+01
 1.6370251E+01  2.4695265E+01
 1.6381750E+01  2.4646362E+01
 1.6393251E+01  2.4656958E+01
 1.6404751E+01  2.4662973E+01
 1.6416250E+01  2.4752401E+01
 1.6427752E+01  2.4735971E+01
 1.6439251E+01  2.4760893E+01
 1.6450750E+01  2.4683262E+01
 1.6462252E+01  2.4670387E+01
 1.6473751E+01  2.4611149E+01
 1.6485250E+01  2.4650211E+01
 1.6496750E+01  2.4693037E+01
 1.6508251E+01  2.4698221E+01
 1.6519751E+01  2.4696362E+01
 1.6531250E+01  2.4698809E+01
 1.6542751E+01  2.4731251E+01
 1.6554251E+01  2.4704256E+01
 1.6565750E+01  2.4707584E+01
 1.6577251E+01  2.4695728E+01
 1.6588751E+01  2.4663954E+01
 1.6600250E+01  2.4630104E+01
 1.6611752E+01  2.4653658E+01
 1.6623251E+01  2.4560940E+01
 1.6634750E+01  2.4529245E+01
 1.6646252E+01  2.4501532E+01
 1.6657751E+01  2.4557880E+01
 1.6669250E+01  2.4613836E+01
 1.6680750E+01  2.4599947E+01
 1.6692251E+01  2.4683388E+01
 1.6703751E+01  2.4625729E+01
 1.6715250E+01  2.4674883E+01
 1.6726751E+01  2.4602619E+01
 1.6738251E+01  2.4607773E+01
 1.6749750E+01  2.4590767E+01
 1.6761251E+01  2.4553497E+01
 1.6772751E+01  2.4527979E+01
 1.6784250E+01  2.4461872E+01
 1.6795752E+01  2.4456322E+01
 1.6807251E+01  2.4427858E+01
 1.6818750E+01  2.4373947E+01
 1.6830252E+01  2.4308132E+01
 1.6841751E+01  2.4317183E+01
 1.6853251E+01  2.4328806E+01
 1.6864750E+01  2.4346338E+01
 1.6876251E+01  2.4356945E+01
 1.6887751E+01  2.4366940E+01
 1.6899250E+01  2.4387516E+01
 1.6910751E+01  2.4376610E+01
 1.6922251E+01  2.4416569E+01
 1.6933750E+01  2.4418163E+01
 1.6945251E+01  2.4387077E+01
 1.6956751E+01  2.4381922E+01
 1.6968250E+01  2.4364971E+01
 1.6979752E+01  2.4363256E+01
 1.6991251E+01  2.4341253E+01
 1.7002750E+01  2.4323278E+01
 1.7014252E+01  2.4349058E+01
 1.7025751E+01  2.4336849E+01
 1.7037251E+01  2.4316349E+01
 1.7048750E+01  2.4257486E+01
 1.7060251E+01  2.4230684E+01
 1.7071751E+01  2.4256536E+01
 1.7083250E+01  2.4295799E+01
 1.7094751E+01  2.4322426E+01
 1.7106251E+01  2.4292479E+01
 1.7117750E+01  2.4213223E+01
 1.7129251E+01  2.4209368E+01
 1.7140751E+01  2.4229321E+01
 1.7152250E+01  2.4272003E+01
 1.7163752E+01  2.4241976E+01
 1.7175251E+01  2.4249268E+01
 1.7186750E+01  2.4214510E+01
 1.7198252E+01  2.4197405E+01
 1.7209751E+01  2.4152258E+01
 1.7221251E+01  2.4182970E+01
 1.7232750E+01  2.4200602E+01
 1.7244251E+01  2.4254423E+01
 1.7255751E+01  2.4220320E+01
 1.7267250E+01  2.4187185E+01
 1.7278751E+01  2.4170313E+01
 1.7290251E+01  2.4214369E+01
 1.7301750E+01  2.4242331E+01
 1.7313251E+01  2.4187698E+01
 1.7324751E+01  2.4180956E+01
 1.7336250E+01  2.4160223E+01
 1.7347752E+01  2.4160610E+01
 1.7359251E+01  2.4077181E+01
 1.7370750E+01  2.4027428E+01
 1.7382252E+01  2.3984692E+01
 1.7393751E+01  2.4024620E+01
 1.7405251E+01  2.4016941E+01
 1.7416750E+01  2.4020086E+01
 1.7428251E+01  2.4021772E+01
 1.7439751E+01  2.4033396E+01
 1.7451250E+01  2.4044804E+01
 1.7462751E+01  2.4034977E+01
 1.7474251E+01  2.4044207E+01
 1.7485750E+01  2.4027197E+01
 1.7497252E+01  2.4032398E+01
 1.7508751E+01  2.3959764E+01
 1.7520250E+01  2.3948586E+01
 1.7531752E+01  2.3923637E+01
 1.7543251E+01  2.3986231E+01
 1.7554750E+01  2.3974480E+01
 1.7566252E+01  2.3979580E+01
 1.7577751E+01  2.3916035E+01
 1.7589251E+01  2.3859940E+01
 1.7600750E+01  2.3831411E+01
 1.7612251E+01  2.3849115E+01
 1.7623751E+01  2.3893625E+01
 1.7635250E+01  2.3896536E+01
 1.7646751E+01  2.3895708E+01
 1.7658251E+01  2.3859072E+01
 1.7669750E+01  2.3876238E+01
 1.7681252E+01  2.3904945E+01
 1.7692751E+01  2.3935713E+01
 1.7704250E+01  2.3949821E+01
 1.7715752E+01  2.3932819E+01
 1.7727251E+01  2.3937426E+01
 1.7738750E+01  2.3930859E+01
 1.7750252E+01  2.3979595E+01
 1.7761751E+01  2.4016638E+01
 1.7773251E+01  2.4043154E+01
 1.7784750E+01  2.4010323E+01
 1.7796251E+01  2.4010931E+01
 1.7807751E+01  2.3975126E+01
 1.7819250E+01  2.3994953E+01
 1.7830751E+01  2.3929766E+01
 1.7842251E+01  2.3940668E+01
 1.7853750E+01  2.3888489E+01
 1.7865252E+01  2.3975193E+01
 1.7876751E+01  2.4014805E+01
 1.7888250E+01  2.4067722E+01
 1.7899752E+01  2.4127487E+01
 1.7911251E+01  2.4233717E+01
 1.7922750E+01  2.4354074E+01
 1.7934252E+01  2.4463146E+01
 1.7945751E+01  2.4643864E+01
 1.7957251E+01  2.5050112E+01
 1.7968750E+01  2.5808594E+01
 1.7980251E+01  2.7262915E+01
 1.7991751E+01  2.9450693E+01
 1.8003250E+01  3.2116844E+01
 1.8014751E+01  3.3934265E+01
 1.8026251E+01  3.5120197E+01
 1.8037750E+01  3.3776821E+01
 1.8049252E+01  3.2156445E+01
 1.8060751E+01  2.9680164E+01
 1.8072250E+01  2.7990995E+01
 1.8083752E+01  2.6862770E+01
 1.8095251E+01  2.6321466E+01
 1.8106750E+01  2.6088428E+01
 1.8118252E+01  2.5820421E+01
 1.8129751E+01  2.5609118E+01
 1.8141251E+01  2.5292463E+01
 1.8152750E+01  2.5038164E+01
 1.8164251E+01  2.4780041E+01
 1.8175751E+01  2.4566044E+01
 1.8187250E+01  2.4367577E+01
 1.8198751E+01  2.4269194E+01
 1.8210251E+01  2.4239395E+01
 1.8221750E+01  2.4194187E+01
 1.8233252E+01  2.4117355E+01
 1.8244751E+01  2.4015249E+01
 1.8256250E+01  2.3935356E+01
 1.8267752E+01  2.3857492E+01
 1.8279251E+01  2.3834110E+01
 1.8290751E+01  2.3824102E+01
 1.8302252E+01  2.3817036E+01
 1.8313751E+01  2.3834482E+01
 1.8325251E+01  2.3841770E+01
 1.8336750E+01  2.3870853E+01
 1.8348251E+01  2.3865028E+01
 1.8359751E+01  2.3851984E+01
 1.8371250E+01  2.3835051E+01
 1.8382751E+01  2.3807869E+01
 1.8394251E+01  2.3809162E+01
 1.8405750E+01  2.3796629E+01
 1.8417252E+01  2.3746235E+01
 1.8428751E+01  2.3691010E+01
 1.8440250E+01  2.3630686E+01
 1.8451752E+01  2.3643290E+01
 1.8463251E+01  2.3713305E+01
 1.8474751E+01  2.3766438E+01
 1.8486252E+01  2.3755089E+01
 1.8497751E+01  2.3681391E+01
 1.8509251E+01  2.3655453E+01
 1.8520750E+01  2.3604437E+01
 1.8532251E+01  2.3549282E+01
 1.8543751E+01  2.3478203E+01
 1.8555250E+01  2.3465069E+01
 1.8566751E+01  2.3503252E+01
 1.8578251E+01  2.3570364E+01
 1.8589750E+01  2.3656473E+01
 1.8601252E+01  2.3712744E+01
 1.8612751E+01  2.3740816E+01
 1.8624250E+01  2.3737520E+01
 1.8635752E+01  2.3733263E+01
 1.8647251E+01  2.3671152E+01
 1.8658751E+01  2.3645763E+01
 1.8670252E+01  2.3613001E+01
 1.8681751E+01  2.3614737E+01
 1.8693251E+01  2.3596983E+01
 1.8704750E+01  2.3620918E+01
 1.8716251E+01  2.3611771E+01
 1.8727751E+01  2.3642241E+01
 1.8739250E+01  2.3606569E+01
 1.8750751E+01  2.3597353E+01
 1.8762251E+01  2.3563122E+01
 1.8773750E+01  2.3559372E+01
 1.8785252E+01  2.3568563E+01
 1.8796751E+01  2.3574539E+01
 1.8808250E+01  2.3565477E+01
 1.8819752E+01  2.3528751E+01
 1.8831251E+01  2.3510208E+01
 1.8842751E+01  2.3467705E+01
 1.8854252E+01  2.3437551E+01
 1.8865751E+01  2.3418444E+01
 1.8877251E+01  2.3447439E+01
 1.8888750E+01  2.3489939E+01
 1.8900251E+01  2.3521221E+01
 1.8911751E+01  2.3566515E+01
 1.8923250E+01  2.3625744E+01
 1.8934752E+01  2.3644238E+01
 1.8946251E+01  2.3639601E+01
 1.8957750E+01  2.3591631E+01
 1.8969252E+01  2.3508347E+01
 1.8980751E+01  2.3447014E+01
 1.8992250E+01  2.3426773E+01
 1.9003752E+01  2.3445906E+01
 1.9015251E+01  2.3525370E+01
 1.9026751E+01  2.3638113E+01
 1.9038252E+01  2.3707701E+01
 1.9049751E+01  2.3699732E+01
 1.9061251E+01  2.3722219E+01
 1.9072750E+01  2.3706484E+01
 1.9084251E+01  2.3665449E+01
 1.9095751E+01  2.3542908E+01
 1.9107250E+01  2.3491455E+01
 1.9118752E+01  2.3468214E+01
 1.9130251E+01  2.3471437E+01
 1.9141750E+01  2.3502724E+01
 1.9153252E+01  2.3504662E+01
 1.9164751E+01  2.3528275E+01
 1.9176250E+01  2.3475712E+01
 1.9187752E+01  2.3479290E+01
 1.9199251E+01  2.3488848E+01
 1.9210751E+01  2.3530972E+01
 1.9222252E+01  2.3579792E+01
 1.9233751E+01  2.3621204E+01
 1.9245251E+01  2.3665731E+01
 1.9256750E+01  2.3712070E+01
 1.9268251E+01  2.3699375E+01
 1.9279751E+01  2.3660913E+01
 1.9291250E+01  2.3636938E+01
 1.9302752E+01  2.3658812E+01
 1.9314251E+01  2.3638231E+01
 1.9325750E+01  2.3632778E+01
 1.9337252E+01  2.3614750E+01
 1.9348751E+01  2.3637295E+01
 1.9360250E+01  2.3680593E+01
 1.9371752E+01  2.3734539E+01
 1.9383251E+01  2.3767035E+01
 1.9394751E+01  2.3803886E+01
 1.9406250E+01  2.3821121E+01
 1.9417751E+01  2.3866766E+01
 1.9429251E+01  2.3860943E+01
 1.9440750E+01  2.3845093E+01
 1.9452251E+01  2.3867624E+01
 1.9463751E+01  2.3927782E+01
 1.9475250E+01  2.4005821E+01
 1.9486752E+01  2.4034416E+01
 1.9498251E+01  2.4046648E+01
 1.9509750E+01  2.4039597E+01
 1.9521252E+01  2.4036165E+01
 1.9532751E+01  2.4074352E+01
 1.9544250E+01  2.4145987E+01
 1.9555752E+01  2.4188450E+01
 1.9567251E+01  2.4229902E+01
 1.9578751E+01  2.4308493E+01
 1.9590250E+01  2.4420761E+01
 1.9601751E+01  2.4600040E+01
 1.9613251E+01  2.4910765E+01
 1.9624750E+01  2.5453341E+01
 1.9636251E+01  2.6330868E+01
 1.9647751E+01  2.7805328E+01
 1.9659250E+01  2.9689472E+01
 1.9670752E+01  3.1836657E+01
 1.9682251E+01  3.3548626E+01
 1.9693750E+01  3.4484158E+01
 1.9705252E+01  3.4011772E+01
 1.9716751E+01  3.2926926E+01
 1.9728251E+01  3.1533031E+01
 1.9739752E+01  2.9949127E+01
 1.9751251E+01  2.8504875E+01
 1.9762751E+01  2.7431168E+01
 1.9774250E+01  2.6811047E+01
 1.9785751E+01  2.6463697E+01
 1.9797251E+01  2.6570379E+01
 1.9808750E+01  2.7044550E+01
 1.9820251E+01  2.7697634E+01
 1.9831751E+01  2.8871826E+01
 1.9843250E+01  3.0157982E+01
 1.9854752E+01  3.0944216E+01
 1.9866251E+01  3.1002918E+01
 1.9877750E+01  3.0404406E+01
 1.9889252E+01  2.9488129E+01
 1.9900751E+01  2.8267456E+01
 1.9912251E+01  2.7229034E+01
 1.9923752E+01  2.6201712E+01
 1.9935251E+01  2.5449368E+01
 1.9946751E+01  2.5012424E+01
 1.9958250E+01  2.4668579E+01
 1.9969751E+01  2.4467834E+01
 1.9981251E+01  2.4277554E+01
 1.9992750E+01  2.4219463E+01
 2.0004251E+01  2.4101009E+01
 2.0015751E+01  2.4041397E+01
 2.0027250E+01  2.3983458E+01
 2.0038752E+01  2.3957676E+01
 2.0050251E+01  2.3989754E+01
 2.0061750E+01  2.3960358E+01
 2.0073252E+01  2.3941544E+01
 2.0084751E+01  2.3938051E+01
 2.0096251E+01  2.3987459E+01
 2.0107752E+01  2.3966148E+01
 2.0119251E+01  2.3937593E+01
 2.0130751E+01  2.3896496E+01
 2.0142250E+01  2.3889156E+01
 2.0153751E+01  2.3856115E+01
 2.0165251E+01  2.3857428E+01
 2.0176750E+01  2.3854980E+01
 2.0188251E+01  2.3832422E+01
 2.0199751E+01  2.3803963E+01
 2.0211250E+01  2.3797632E+01
 2.0222752E+01  2.3847427E+01
 2.0234251E+01  2.3885843E+01
 2.0245750E+01  2.3916594E+01
 2.0257252E+01  2.3907906E+01
 2.0268751E+01  2.3867725E+01
 2.0280251E+01  2.3870138E+01
 2.0291752E+01  2.3839928E+01
 2.0303251E+01  2.3789249E+01
 2.0314751E+01  2.3741983E+01
 2.0326250E+01  2.3704899E+01
 2.0337751E+01  2.3705500E+01
 2.0349251E+01  2.3635567E+01
 2.0360750E+01  2.3599144E+01
 2.0372252E+01  2.3573961E+01
 2.0383751E+01  2.3562965E+01
 2.0395250E+01  2.3595469E+01
 2.0406752E+01  2.3685476E+01
 2.0418251E+01  2.3770021E+01
 2.0429750E+01  2.3818214E+01
 2.0441252E+01  2.3836960E+01
 2.0452751E+01  2.3843390E+01
 2.0464251E+01  2.3829203E+01
 2.0475752E+01  2.3825272E+01
 2.0487251E+01  2.3813911E+01
 2.0498751E+01  2.3838234E+01
 2.0510250E+01  2.3824514E+01
 2.0521751E+01  2.3798365E+01
 2.0533251E+01  2.3780590E+01
 2.0544750E+01  2.3802469E+01
 2.0556252E+01  2.3900829E+01
 2.0567751E+01  2.3940432E+01
 2.0579250E+01  2.3958633E+01
 2.0590752E+01  2.3977247E+01
 2.0602251E+01  2.4005737E+01
 2.0613750E+01  2.4034672E+01
 2.0625252E+01  2.4056892E+01
 2.0636751E+01  2.4102594E+01
 2.0648251E+01  2.4120365E+01
 2.0659752E+01  2.4199007E+01
 2.0671251E+01  2.4447321E+01
 2.0682751E+01  2.4782068E+01
 2.0694250E+01  2.5381540E+01
 2.0705751E+01  2.6135736E+01
 2.0717251E+01  2.7035837E+01
 2.0728750E+01  2.7821909E+01
 2.0740252E+01  2.8143606E+01
 2.0751751E+01  2.8371685E+01
 2.0763250E+01  2.7867569E+01
 2.0774752E+01  2.7329020E+01
 2.0786251E+01  2.6455173E+01
 2.0797750E+01  2.5878550E+01
 2.0809252E+01  2.5345228E+01
 2.0820751E+01  2.4851236E+01
 2.0832251E+01  2.4618513E+01
 2.0843752E+01  2.4406736E+01
 2.0855251E+01  2.4316128E+01
 2.0866751E+01  2.4218573E+01
 2.0878250E+01  2.4150108E+01
 2.0889751E+01  2.4104494E+01
 2.0901251E+01  2.4128693E+01
 2.0912750E+01  2.4157673E+01
 2.0924252E+01  2.4187719E+01
 2.0935751E+01  2.4189541E+01
 2.0947250E+01  2.4187227E+01
 2.0958752E+01  2.4101774E+01
 2.0970251E+01  2.4099293E+01
 2.0981750E+01  2.4069971E+01
 2.0993252E+01  2.4048388E+01
 2.1004751E+01  2.3982399E+01
 2.1016251E+01  2.3949009E+01
 2.1027752E+01  2.3939775E+01
 2.1039251E+01  2.3956257E+01
 2.1050751E+01  2.3949190E+01
 2.1062250E+01  2.3902246E+01
 2.1073751E+01  2.3868807E+01
 2.1085251E+01  2.3883787E+01
 2.1096750E+01  2.3912014E+01
 2.1108252E+01  2.3950745E+01
 2.1119751E+01  2.3996824E+01
 2.1131250E+01  2.4009010E+01
 2.1142752E+01  2.3961760E+01
 2.1154251E+01  2.3901915E+01
 2.1165751E+01  2.3893604E+01
 2.1177252E+01  2.3925486E+01
 2.1188751E+01  2.3981401E+01
 2.1200251E+01  2.3994307E+01
 2.1211752E+01  2.3989180E+01
 2.1223251E+01  2.3916681E+01
 2.1234751E+01  2.3926838E+01
 2.1246250E+01  2.3945292E+01
 2.1257751E+01  2.3966457E+01
 2.1269251E+01  2.3980158E+01
 2.1280750E+01  2.3994831E+01
 2.1292252E+01  2.4016556E+01
 2.1303751E+01  2.3979538E+01
 2.1315250E+01  2.3970976E+01
 2.1326752E+01  2.3965546E+01
 2.1338251E+01  2.3967266E+01
 2.1349751E+01  2.3971382E+01
 2.1361252E+01  2.4027422E+01
 2.1372751E+01  2.4056850E+01
 2.1384251E+01  2.4044117E+01
 2.1395752E+01  2.4066942E+01
 2.1407251E+01  2.4062347E+01
 2.1418751E+01  2.4058657E+01
 2.1430250E+01  2.4106394E+01
 2.1441751E+01  2.4082500E+01
 2.1453251E+01  2.4034092E+01
 2.1464750E+01  2.4009991E+01
 2.1476252E+01  2.3996346E+01
 2.1487751E+01  2.4015162E+01
 2.1499250E+01  2.4004610E+01
 2.1510752E+01  2.3996370E+01
 2.1522251E+01  2.3933630E+01
 2.1533751E+01  2.3924713E+01
 2.1545252E+01  2.3924887E+01
 2.1556751E+01  2.3903803E+01
 2.1568251E+01  2.3883383E+01
 2.1579752E+01  2.3905655E+01
 2.1591251E+01  2.3988674E+01
 2.1602751E+01  2.4065178E+01
 2.1614250E+01  2.4129896E+01
 2.1625751E+01  2.4205744E+01
 2.1637251E+01  2.4265266E+01
 2.1648750E+01  2.4272362E+01
 2.1660252E+01  2.4271603E+01
 2.1671751E+01  2.4273077E+01
 2.1683250E+01  2.4255796E+01
 2.1694752E+01  2.4231438E+01
 2.1706251E+01  2.4202589E+01
 2.1717751E+01  2.4174627E+01
 2.1729252E+01  2.4140085E+01
 2.1740751E+01  2.4173094E+01
 2.1752251E+01  2.4125257E+01
 2.1763752E+01  2.4131958E+01
 2.1775251E+01  2.4141333E+01
 2.1786751E+01  2.4193995E+01
 2.1798250E+01  2.4205448E+01
 2.1809752E+01  2.4232893E+01
 2.1821251E+01  2.4245173E+01
 2.1832750E+01  2.4237196E+01
 2.1844252E+01  2.4218420E+01
 2.1855751E+01  2.4197481E+01
 2.1867250E+01  2.4218168E+01
 2.1878752E+01  2.4222481E+01
 2.1890251E+01  2.4194132E+01
 2.1901751E+01  2.4176859E+01
 2.1913252E+01  2.4175112E+01
 2.1924751E+01  2.4190300E+01
 2.1936251E+01  2.4172998E+01
 2.1947752E+01  2.4168655E+01
 2.1959251E+01  2.4184046E+01
 2.1970751E+01  2.4253138E+01
 2.1982250E+01  2.4314133E+01
 2.1993752E+01  2.4344143E+01
 2.2005251E+01  2.4387272E+01
 2.2016750E+01  2.4420105E+01
 2.2028252E+01  2.4398239E+01
 2.2039751E+01  2.4320251E+01
 2.2051250E+01  2.4330156E+01
 2.2062752E+01  2.4358183E+01
 2.2074251E+01  2.4389393E+01
 2.2085751E+01  2.4337107E+01
 2.2097252E+01  2.4292072E+01
 2.2108751E+01  2.4300535E+01
 2.2120251E+01  2.4345371E+01
 2.2131752E+01  2.4427734E+01
 2.2143251E+01  2.4482376E+01
 2.2154751E+01  2.4528131E+01
 2.2166250E+01  2.4553202E+01
 2.2177752E+01  2.4530567E+01
 2.2189251E+01  2.4459738E+01
 2.2200750E+01  2.4387220E+01
 2.2212252E+01  2.4357042E+01
 2.2223751E+01  2.4430592E+01
 2.2235250E+01  2.4500868E+01
 2.2246752E+01  2.4550013E+01
 2.2258251E+01  2.4548374E+01
 2.2269751E+01  2.4526447E+01
 2.2281252E+01  2.4523151E+01
 2.2292751E+01  2.4507460E+01
 2.2304251E+01  2.4518522E+01
 2.2315752E+01  2.4544073E+01
 2.2327251E+01  2.4557402E+01
 2.2338751E+01  2.4560781E+01
 2.2350250E+01  2.4548719E+01
 2.2361752E+01  2.4549513E+01
 2.2373251E+01  2.4549660E+01
 2.2384750E+01  2.4531746E+01
 2.2396252E+01  2.4564331E+01
 2.2407751E+01  2.4533255E+01
 2.2419250E+01  2.4517107E+01
 2.2430752E+01  2.4549473E+01
 2.2442251E+01  2.4642914E+01
 2.2453751E+01  2.4673405E+01
 2.2465252E+01  2.4674114E+01
 2.2476751E+01  2.4635778E+01
 2.2488251E+01  2.4657980E+01
 2.2499752E+01  2.4633595E+01
 2.2511251E+01  2.4674145E+01
 2.2522751E+01  2.4711189E+01
 2.2534250E+01  2.4793423E+01
 2.2545752E+01  2.4813560E+01
 2.2557251E+01  2.4796333E+01
 2.2568750E+01  2.4768576E+01
 2.2580252E+01  2.4780325E+01
 2.2591751E+01  2.4795546E+01
 2.2603251E+01  2.4825720E+01
 2.2614752E+01  2.4883274E+01
 2.2626251E+01  2.4913288E+01
 2.2637751E+01  2.4946230E+01
 2.2649252E+01  2.4963753E+01
 2.2660751E+01  2.4978781E+01
 2.2672251E+01  2.5026136E+01
 2.2683752E+01  2.5066738E+01
 2.2695251E+01  2.5122040E+01
 2.2706751E+01  2.5122639E+01
 2.2718250E+01  2.5200075E+01
 2.2729752E+01  2.5231493E+01
 2.2741251E+01  2.5263058E+01
 2.2752750E+01  2.5286533E+01
 2.2764252E+01  2.5305706E+01
 2.2775751E+01  2.5311543E+01
 2.2787251E+01  2.5279392E+01
 2.2798752E+01  2.5303255E+01
 2.2810251E+01  2.5358965E+01
 2.2821751E+01  2.5418324E+01
 2.2833252E+01  2.5475729E+01
 2.2844751E+01  2.5497873E+01
 2.2856251E+01  2.5501041E+01
 2.2867750E+01  2.5517607E+01
 2.2879251E+01  2.5509872E+01
 2.2890751E+01  2.5581427E+01
 2.2902250E+01  2.5618975E+01
 2.2913752E+01  2.5770082E+01
 2.2925251E+01  2.5895880E+01
 2.2936750E+01  2.6018169E+01
 2.2948252E+01  2.6061354E+01
 2.2959751E+01  2.6085318E+01
 2.2971251E+01  2.6149950E+01
 2.2982752E+01  2.6222786E+01
 2.2994251E+01  2.6304901E+01
