F:\20151113_APS_34IDE\\Brian\Particle1\OCV\Data_0093.tif
2-Theta Angle (Degrees)
Intensity
       2000
 5.7500005E-03  0.0000000E+00
 1.7250001E-02  0.0000000E+00
 2.8750001E-02  0.0000000E+00
 4.0250003E-02  0.0000000E+00
 5.1750004E-02  0.0000000E+00
 6.3250005E-02  0.0000000E+00
 7.4750006E-02  0.0000000E+00
 8.6250007E-02  0.0000000E+00
 9.7750008E-02  0.0000000E+00
 1.0925001E-01  0.0000000E+00
 1.2075000E-01  0.0000000E+00
 1.3225001E-01  0.0000000E+00
 1.4375001E-01  0.0000000E+00
 1.5525001E-01  0.0000000E+00
 1.6675001E-01  0.0000000E+00
 1.7825001E-01  0.0000000E+00
 1.8975002E-01  0.0000000E+00
 2.0125002E-01  0.0000000E+00
 2.1275002E-01  0.0000000E+00
 2.2425000E-01  0.0000000E+00
 2.3575000E-01  0.0000000E+00
 2.4725001E-01  0.0000000E+00
 2.5875002E-01  0.0000000E+00
 2.7025002E-01  0.0000000E+00
 2.8175002E-01  0.0000000E+00
 2.9325002E-01  0.0000000E+00
 3.0475003E-01  0.0000000E+00
 3.1625003E-01  0.0000000E+00
 3.2775003E-01  0.0000000E+00
 3.3925003E-01  0.0000000E+00
 3.5075003E-01  0.0000000E+00
 3.6225003E-01  0.0000000E+00
 3.7375003E-01  0.0000000E+00
 3.8525003E-01  0.0000000E+00
 3.9675003E-01  0.0000000E+00
 4.0825003E-01  0.0000000E+00
 4.1975003E-01  0.0000000E+00
 4.3125004E-01  0.0000000E+00
 4.4275001E-01  0.0000000E+00
 4.5425001E-01  0.0000000E+00
 4.6575001E-01  0.0000000E+00
 4.7725001E-01  0.0000000E+00
 4.8875001E-01  0.0000000E+00
 5.0025004E-01  0.0000000E+00
 5.1175004E-01  0.0000000E+00
 5.2325004E-01  0.0000000E+00
 5.3475004E-01  0.0000000E+00
 5.4625005E-01  0.0000000E+00
 5.5775005E-01  0.0000000E+00
 5.6925005E-01  0.0000000E+00
 5.8075005E-01  0.0000000E+00
 5.9225005E-01  0.0000000E+00
 6.0375005E-01  0.0000000E+00
 6.1525005E-01  0.0000000E+00
 6.2675005E-01  0.0000000E+00
 6.3825005E-01  0.0000000E+00
 6.4975005E-01  0.0000000E+00
 6.6125005E-01  0.0000000E+00
 6.7275006E-01  0.0000000E+00
 6.8425006E-01  0.0000000E+00
 6.9575006E-01  0.0000000E+00
 7.0725006E-01  0.0000000E+00
 7.1875006E-01  0.0000000E+00
 7.3025006E-01  0.0000000E+00
 7.4175006E-01  0.0000000E+00
 7.5325006E-01  0.0000000E+00
 7.6475006E-01  0.0000000E+00
 7.7625006E-01  0.0000000E+00
 7.8775007E-01  0.0000000E+00
 7.9925007E-01  0.0000000E+00
 8.1075007E-01  0.0000000E+00
 8.2225007E-01  0.0000000E+00
 8.3375007E-01  0.0000000E+00
 8.4525007E-01  0.0000000E+00
 8.5675007E-01  0.0000000E+00
 8.6825007E-01  0.0000000E+00
 8.7975001E-01  0.0000000E+00
 8.9125001E-01  0.0000000E+00
 9.0275002E-01  0.0000000E+00
 9.1425002E-01  0.0000000E+00
 9.2575002E-01  0.0000000E+00
 9.3725002E-01  0.0000000E+00
 9.4875002E-01  0.0000000E+00
 9.6025002E-01  0.0000000E+00
 9.7175002E-01  0.0000000E+00
 9.8325002E-01  0.0000000E+00
 9.9475002E-01  0.0000000E+00
 1.0062500E+00  0.0000000E+00
 1.0177500E+00  0.0000000E+00
 1.0292500E+00  0.0000000E+00
 1.0407500E+00  0.0000000E+00
 1.0522500E+00  0.0000000E+00
 1.0637500E+00  0.0000000E+00
 1.0752500E+00  0.0000000E+00
 1.0867500E+00  0.0000000E+00
 1.0982500E+00  0.0000000E+00
 1.1097500E+00  0.0000000E+00
 1.1212500E+00  0.0000000E+00
 1.1327500E+00  0.0000000E+00
 1.1442500E+00  0.0000000E+00
 1.1557500E+00  0.0000000E+00
 1.1672500E+00  0.0000000E+00
 1.1787500E+00  0.0000000E+00
 1.1902500E+00  0.0000000E+00
 1.2017500E+00  0.0000000E+00
 1.2132500E+00  0.0000000E+00
 1.2247500E+00  0.0000000E+00
 1.2362500E+00  0.0000000E+00
 1.2477500E+00  0.0000000E+00
 1.2592500E+00  0.0000000E+00
 1.2707500E+00  0.0000000E+00
 1.2822500E+00  0.0000000E+00
 1.2937500E+00  0.0000000E+00
 1.3052500E+00  0.0000000E+00
 1.3167500E+00  0.0000000E+00
 1.3282501E+00  0.0000000E+00
 1.3397501E+00  0.0000000E+00
 1.3512501E+00  0.0000000E+00
 1.3627501E+00  0.0000000E+00
 1.3742501E+00  0.0000000E+00
 1.3857501E+00  0.0000000E+00
 1.3972501E+00  0.0000000E+00
 1.4087501E+00  0.0000000E+00
 1.4202501E+00  0.0000000E+00
 1.4317501E+00  0.0000000E+00
 1.4432501E+00  0.0000000E+00
 1.4547501E+00  0.0000000E+00
 1.4662501E+00  0.0000000E+00
 1.4777501E+00  0.0000000E+00
 1.4892501E+00  0.0000000E+00
 1.5007501E+00  0.0000000E+00
 1.5122501E+00  0.0000000E+00
 1.5237501E+00  0.0000000E+00
 1.5352501E+00  0.0000000E+00
 1.5467501E+00  0.0000000E+00
 1.5582501E+00  0.0000000E+00
 1.5697501E+00  0.0000000E+00
 1.5812501E+00  0.0000000E+00
 1.5927501E+00  0.0000000E+00
 1.6042501E+00  0.0000000E+00
 1.6157501E+00  0.0000000E+00
 1.6272501E+00  0.0000000E+00
 1.6387501E+00  0.0000000E+00
 1.6502501E+00  0.0000000E+00
 1.6617501E+00  0.0000000E+00
 1.6732501E+00  0.0000000E+00
 1.6847501E+00  0.0000000E+00
 1.6962501E+00  0.0000000E+00
 1.7077501E+00  0.0000000E+00
 1.7192501E+00  0.0000000E+00
 1.7307501E+00  0.0000000E+00
 1.7422501E+00  0.0000000E+00
 1.7537501E+00  0.0000000E+00
 1.7652501E+00  0.0000000E+00
 1.7767501E+00  0.0000000E+00
 1.7882501E+00  0.0000000E+00
 1.7997501E+00  0.0000000E+00
 1.8112501E+00  0.0000000E+00
 1.8227501E+00  0.0000000E+00
 1.8342501E+00  0.0000000E+00
 1.8457501E+00  0.0000000E+00
 1.8572501E+00  0.0000000E+00
 1.8687501E+00  0.0000000E+00
 1.8802501E+00  0.0000000E+00
 1.8917501E+00  0.0000000E+00
 1.9032501E+00  0.0000000E+00
 1.9147501E+00  0.0000000E+00
 1.9262501E+00  0.0000000E+00
 1.9377501E+00  0.0000000E+00
 1.9492501E+00  0.0000000E+00
 1.9607501E+00  0.0000000E+00
 1.9722501E+00  0.0000000E+00
 1.9837501E+00  0.0000000E+00
 1.9952501E+00  0.0000000E+00
 2.0067501E+00  0.0000000E+00
 2.0182500E+00  0.0000000E+00
 2.0297501E+00  0.0000000E+00
 2.0412500E+00  0.0000000E+00
 2.0527501E+00  0.0000000E+00
 2.0642500E+00  0.0000000E+00
 2.0757501E+00  0.0000000E+00
 2.0872500E+00  0.0000000E+00
 2.0987501E+00  0.0000000E+00
 2.1102500E+00  0.0000000E+00
 2.1217501E+00  0.0000000E+00
 2.1332500E+00  0.0000000E+00
 2.1447501E+00  0.0000000E+00
 2.1562500E+00  0.0000000E+00
 2.1677501E+00  0.0000000E+00
 2.1792500E+00  0.0000000E+00
 2.1907501E+00  0.0000000E+00
 2.2022500E+00  0.0000000E+00
 2.2137501E+00  0.0000000E+00
 2.2252500E+00  0.0000000E+00
 2.2367501E+00  0.0000000E+00
 2.2482500E+00  0.0000000E+00
 2.2597501E+00  0.0000000E+00
 2.2712500E+00  0.0000000E+00
 2.2827501E+00  0.0000000E+00
 2.2942500E+00  0.0000000E+00
 2.3057501E+00  0.0000000E+00
 2.3172500E+00  0.0000000E+00
 2.3287501E+00  0.0000000E+00
 2.3402500E+00  0.0000000E+00
 2.3517501E+00  0.0000000E+00
 2.3632500E+00  0.0000000E+00
 2.3747501E+00  0.0000000E+00
 2.3862500E+00  0.0000000E+00
 2.3977501E+00  0.0000000E+00
 2.4092500E+00  0.0000000E+00
 2.4207501E+00  0.0000000E+00
 2.4322500E+00  0.0000000E+00
 2.4437501E+00  0.0000000E+00
 2.4552500E+00  0.0000000E+00
 2.4667501E+00  0.0000000E+00
 2.4782500E+00  0.0000000E+00
 2.4897501E+00  0.0000000E+00
 2.5012500E+00  0.0000000E+00
 2.5127501E+00  0.0000000E+00
 2.5242500E+00  0.0000000E+00
 2.5357502E+00  0.0000000E+00
 2.5472500E+00  0.0000000E+00
 2.5587502E+00  0.0000000E+00
 2.5702500E+00  0.0000000E+00
 2.5817502E+00  0.0000000E+00
 2.5932500E+00  0.0000000E+00
 2.6047502E+00  0.0000000E+00
 2.6162500E+00  0.0000000E+00
 2.6277502E+00  0.0000000E+00
 2.6392500E+00  0.0000000E+00
 2.6507502E+00  0.0000000E+00
 2.6622500E+00  0.0000000E+00
 2.6737502E+00  0.0000000E+00
 2.6852500E+00  0.0000000E+00
 2.6967502E+00  0.0000000E+00
 2.7082500E+00  0.0000000E+00
 2.7197502E+00  0.0000000E+00
 2.7312500E+00  0.0000000E+00
 2.7427502E+00  0.0000000E+00
 2.7542500E+00  0.0000000E+00
 2.7657502E+00  0.0000000E+00
 2.7772501E+00  0.0000000E+00
 2.7887502E+00  0.0000000E+00
 2.8002501E+00  0.0000000E+00
 2.8117502E+00  0.0000000E+00
 2.8232501E+00  2.9523298E+01
 2.8347502E+00  3.3015030E+01
 2.8462501E+00  3.3105698E+01
 2.8577502E+00  3.3586258E+01
 2.8692501E+00  3.3651775E+01
 2.8807502E+00  3.3805077E+01
 2.8922501E+00  3.4015182E+01
 2.9037502E+00  3.4132595E+01
 2.9152501E+00  3.4463768E+01
 2.9267502E+00  3.4512703E+01
 2.9382501E+00  3.4601765E+01
 2.9497502E+00  3.4978600E+01
 2.9612501E+00  3.5352142E+01
 2.9727502E+00  3.5614040E+01
 2.9842501E+00  3.6110909E+01
 2.9957502E+00  3.6682884E+01
 3.0072501E+00  3.7370201E+01
 3.0187502E+00  3.7476379E+01
 3.0302501E+00  3.7481789E+01
 3.0417502E+00  3.6949623E+01
 3.0532501E+00  3.6463131E+01
 3.0647502E+00  3.5527817E+01
 3.0762501E+00  3.5474922E+01
 3.0877502E+00  3.5198635E+01
 3.0992501E+00  3.5353188E+01
 3.1107502E+00  3.5195293E+01
 3.1222501E+00  3.5136772E+01
 3.1337502E+00  3.4995201E+01
 3.1452501E+00  3.5125881E+01
 3.1567502E+00  3.5290821E+01
 3.1682501E+00  3.5507095E+01
 3.1797502E+00  3.5634350E+01
 3.1912501E+00  3.5510624E+01
 3.2027502E+00  3.5440609E+01
 3.2142501E+00  3.5038048E+01
 3.2257502E+00  3.5000023E+01
 3.2372501E+00  3.4759911E+01
 3.2487502E+00  3.4548756E+01
 3.2602501E+00  3.4451958E+01
 3.2717502E+00  3.4680355E+01
 3.2832501E+00  3.4794445E+01
 3.2947502E+00  3.4873886E+01
 3.3062501E+00  3.4981075E+01
 3.3177502E+00  3.4799549E+01
 3.3292501E+00  3.4950684E+01
 3.3407502E+00  3.4625034E+01
 3.3522501E+00  3.4818153E+01
 3.3637502E+00  3.4678589E+01
 3.3752501E+00  3.4533855E+01
 3.3867502E+00  3.4628506E+01
 3.3982501E+00  3.4382011E+01
 3.4097502E+00  3.4258190E+01
 3.4212501E+00  3.4145752E+01
 3.4327502E+00  3.4036133E+01
 3.4442501E+00  3.3931656E+01
 3.4557502E+00  3.3775097E+01
 3.4672501E+00  3.3849979E+01
 3.4787502E+00  3.4055634E+01
 3.4902501E+00  3.4370026E+01
 3.5017502E+00  3.4357185E+01
 3.5132501E+00  3.4263981E+01
 3.5247502E+00  3.4151974E+01
 3.5362501E+00  3.3951462E+01
 3.5477502E+00  3.3827522E+01
 3.5592501E+00  3.3611107E+01
 3.5707502E+00  3.3327221E+01
 3.5822501E+00  3.3214161E+01
 3.5937502E+00  3.2832539E+01
 3.6052501E+00  3.2825001E+01
 3.6167502E+00  3.2681820E+01
 3.6282501E+00  3.2690708E+01
 3.6397502E+00  3.2915142E+01
 3.6512501E+00  3.3046551E+01
 3.6627502E+00  3.3192741E+01
 3.6742501E+00  3.3254688E+01
 3.6857502E+00  3.3330315E+01
 3.6972501E+00  3.3521839E+01
 3.7087502E+00  3.3403595E+01
 3.7202501E+00  3.3394157E+01
 3.7317502E+00  3.3139507E+01
 3.7432501E+00  3.3152374E+01
 3.7547503E+00  3.3156940E+01
 3.7662501E+00  3.3134949E+01
 3.7777503E+00  3.3068539E+01
 3.7892501E+00  3.3097195E+01
 3.8007503E+00  3.3049561E+01
 3.8122501E+00  3.3019379E+01
 3.8237503E+00  3.2745728E+01
 3.8352501E+00  3.2660278E+01
 3.8467503E+00  3.2826893E+01
 3.8582501E+00  3.2800552E+01
 3.8697503E+00  3.2991806E+01
 3.8812501E+00  3.2962673E+01
 3.8927503E+00  3.2969334E+01
 3.9042501E+00  3.2868126E+01
 3.9157503E+00  3.2771450E+01
 3.9272501E+00  3.2685810E+01
 3.9387503E+00  3.2870426E+01
 3.9502501E+00  3.2709633E+01
 3.9617503E+00  3.2783672E+01
 3.9732502E+00  3.2722382E+01
 3.9847503E+00  3.2773651E+01
 3.9962502E+00  3.2819057E+01
 4.0077500E+00  3.2825626E+01
 4.0192504E+00  3.2665928E+01
 4.0307503E+00  3.2505463E+01
 4.0422502E+00  3.2318508E+01
 4.0537500E+00  3.2268085E+01
 4.0652504E+00  3.2161480E+01
 4.0767503E+00  3.2060352E+01
 4.0882502E+00  3.2138767E+01
 4.0997500E+00  3.2123260E+01
 4.1112504E+00  3.2135742E+01
 4.1227503E+00  3.2305679E+01
 4.1342502E+00  3.2552254E+01
 4.1457500E+00  3.2804871E+01
 4.1572504E+00  3.2731377E+01
 4.1687503E+00  3.2569599E+01
 4.1802502E+00  3.2261261E+01
 4.1917500E+00  3.2049183E+01
 4.2032504E+00  3.1918812E+01
 4.2147503E+00  3.1914988E+01
 4.2262502E+00  3.2010357E+01
 4.2377501E+00  3.2033489E+01
 4.2492504E+00  3.2139214E+01
 4.2607503E+00  3.2162682E+01
 4.2722502E+00  3.2154057E+01
 4.2837501E+00  3.2355598E+01
 4.2952504E+00  3.2374722E+01
 4.3067503E+00  3.2511986E+01
 4.3182502E+00  3.2437130E+01
 4.3297501E+00  3.2465313E+01
 4.3412504E+00  3.2454369E+01
 4.3527503E+00  3.2499096E+01
 4.3642502E+00  3.2529846E+01
 4.3757501E+00  3.2520271E+01
 4.3872504E+00  3.2256325E+01
 4.3987503E+00  3.2001514E+01
 4.4102502E+00  3.1887470E+01
 4.4217501E+00  3.1957609E+01
 4.4332504E+00  3.2121338E+01
 4.4447503E+00  3.2116848E+01
 4.4562502E+00  3.2111538E+01
 4.4677501E+00  3.2018574E+01
 4.4792504E+00  3.1965694E+01
 4.4907503E+00  3.2048195E+01
 4.5022502E+00  3.2188038E+01
 4.5137501E+00  3.2292751E+01
 4.5252504E+00  3.2399059E+01
 4.5367503E+00  3.2362537E+01
 4.5482502E+00  3.2453552E+01
 4.5597501E+00  3.2523155E+01
 4.5712504E+00  3.2564606E+01
 4.5827503E+00  3.2532703E+01
 4.5942502E+00  3.2513714E+01
 4.6057501E+00  3.2466949E+01
 4.6172504E+00  3.2609756E+01
 4.6287503E+00  3.2575130E+01
 4.6402502E+00  3.2746044E+01
 4.6517501E+00  3.2734966E+01
 4.6632504E+00  3.2895142E+01
 4.6747503E+00  3.2961857E+01
 4.6862502E+00  3.2941780E+01
 4.6977501E+00  3.2907661E+01
 4.7092505E+00  3.2767685E+01
 4.7207503E+00  3.2641998E+01
 4.7322502E+00  3.2521652E+01
 4.7437501E+00  3.2493328E+01
 4.7552505E+00  3.2622635E+01
 4.7667503E+00  3.2718395E+01
 4.7782502E+00  3.2730721E+01
 4.7897501E+00  3.2689808E+01
 4.8012505E+00  3.2695744E+01
 4.8127503E+00  3.2710335E+01
 4.8242502E+00  3.2667419E+01
 4.8357501E+00  3.2714890E+01
 4.8472505E+00  3.2705498E+01
 4.8587503E+00  3.2904240E+01
 4.8702502E+00  3.2788128E+01
 4.8817501E+00  3.2792370E+01
 4.8932505E+00  3.2805294E+01
 4.9047503E+00  3.2830357E+01
 4.9162502E+00  3.3018116E+01
 4.9277501E+00  3.3015003E+01
 4.9392505E+00  3.3110516E+01
 4.9507504E+00  3.3097710E+01
 4.9622502E+00  3.3118534E+01
 4.9737501E+00  3.3091106E+01
 4.9852505E+00  3.3086826E+01
 4.9967504E+00  3.2973698E+01
 5.0082502E+00  3.3073921E+01
 5.0197501E+00  3.3102348E+01
 5.0312505E+00  3.3296593E+01
 5.0427504E+00  3.3319553E+01
 5.0542502E+00  3.3326996E+01
 5.0657501E+00  3.3316990E+01
 5.0772505E+00  3.3285828E+01
 5.0887504E+00  3.3365696E+01
 5.1002502E+00  3.3352203E+01
 5.1117501E+00  3.3356937E+01
 5.1232505E+00  3.3447300E+01
 5.1347504E+00  3.3487827E+01
 5.1462502E+00  3.3656197E+01
 5.1577501E+00  3.3734695E+01
 5.1692505E+00  3.3901836E+01
 5.1807504E+00  3.4089428E+01
 5.1922503E+00  3.4167164E+01
 5.2037501E+00  3.4284470E+01
 5.2152505E+00  3.4144730E+01
 5.2267504E+00  3.4170040E+01
 5.2382503E+00  3.3980389E+01
 5.2497501E+00  3.3833035E+01
 5.2612505E+00  3.3664650E+01
 5.2727504E+00  3.3557007E+01
 5.2842503E+00  3.3718872E+01
 5.2957501E+00  3.3808792E+01
 5.3072500E+00  3.3985790E+01
 5.3187504E+00  3.4075199E+01
 5.3302503E+00  3.4154797E+01
 5.3417501E+00  3.4221455E+01
 5.3532500E+00  3.4302067E+01
 5.3647504E+00  3.4391335E+01
 5.3762503E+00  3.4504139E+01
 5.3877501E+00  3.4690861E+01
 5.3992500E+00  3.4763855E+01
 5.4107504E+00  3.4837502E+01
 5.4222503E+00  3.4806305E+01
 5.4337502E+00  3.4717598E+01
 5.4452500E+00  3.4645615E+01
 5.4567504E+00  3.4648964E+01
 5.4682503E+00  3.4701687E+01
 5.4797502E+00  3.4752880E+01
 5.4912500E+00  3.4735111E+01
 5.5027504E+00  3.4725491E+01
 5.5142503E+00  3.4771038E+01
 5.5257502E+00  3.4868027E+01
 5.5372500E+00  3.4864311E+01
 5.5487504E+00  3.4971291E+01
 5.5602503E+00  3.4987488E+01
 5.5717502E+00  3.5112591E+01
 5.5832500E+00  3.5161022E+01
 5.5947504E+00  3.5179077E+01
 5.6062503E+00  3.5226833E+01
 5.6177502E+00  3.5165932E+01
 5.6292500E+00  3.5211678E+01
 5.6407504E+00  3.5172977E+01
 5.6522503E+00  3.5256989E+01
 5.6637502E+00  3.5292618E+01
 5.6752501E+00  3.5379250E+01
 5.6867504E+00  3.5493908E+01
 5.6982503E+00  3.5431343E+01
 5.7097502E+00  3.5544319E+01
 5.7212501E+00  3.5556225E+01
 5.7327504E+00  3.5799969E+01
 5.7442503E+00  3.5923889E+01
 5.7557502E+00  3.6040649E+01
 5.7672501E+00  3.6002995E+01
 5.7787504E+00  3.6016869E+01
 5.7902503E+00  3.6017132E+01
 5.8017502E+00  3.5967907E+01
 5.8132501E+00  3.5906288E+01
 5.8247504E+00  3.5914352E+01
 5.8362503E+00  3.5948738E+01
 5.8477502E+00  3.6114147E+01
 5.8592501E+00  3.6239727E+01
 5.8707504E+00  3.6528362E+01
 5.8822503E+00  3.6750515E+01
 5.8937502E+00  3.7328701E+01
 5.9052501E+00  3.8047367E+01
 5.9167504E+00  3.9688148E+01
 5.9282503E+00  4.1696411E+01
 5.9397502E+00  4.5379555E+01
 5.9512501E+00  4.9860203E+01
 5.9627504E+00  5.3876785E+01
 5.9742503E+00  5.6928528E+01
 5.9857502E+00  5.9440807E+01
 5.9972501E+00  5.8039280E+01
 6.0087504E+00  5.5182652E+01
 6.0202503E+00  5.0288597E+01
 6.0317502E+00  4.6797146E+01
 6.0432501E+00  4.3809067E+01
 6.0547504E+00  4.0958874E+01
 6.0662503E+00  3.9602772E+01
 6.0777502E+00  3.8783798E+01
 6.0892501E+00  3.8207928E+01
 6.1007504E+00  3.7790852E+01
 6.1122503E+00  3.7646217E+01
 6.1237502E+00  3.7478554E+01
 6.1352501E+00  3.7366718E+01
 6.1467505E+00  3.7259819E+01
 6.1582503E+00  3.7250671E+01
 6.1697502E+00  3.7326317E+01
 6.1812501E+00  3.7449425E+01
 6.1927505E+00  3.7491493E+01
 6.2042503E+00  3.7467388E+01
 6.2157502E+00  3.7422146E+01
 6.2272501E+00  3.7580345E+01
 6.2387505E+00  3.7571999E+01
 6.2502503E+00  3.7690441E+01
 6.2617502E+00  3.7686539E+01
 6.2732501E+00  3.7882645E+01
 6.2847505E+00  3.7987106E+01
 6.2962503E+00  3.7991116E+01
 6.3077502E+00  3.7982040E+01
 6.3192501E+00  3.8026928E+01
 6.3307505E+00  3.8164898E+01
 6.3422503E+00  3.8311996E+01
 6.3537502E+00  3.8447151E+01
 6.3652501E+00  3.8496296E+01
 6.3767505E+00  3.8493774E+01
 6.3882504E+00  3.8530640E+01
 6.3997502E+00  3.8523338E+01
 6.4112501E+00  3.8779198E+01
 6.4227505E+00  3.8908455E+01
 6.4342504E+00  3.8960667E+01
 6.4457502E+00  3.8948231E+01
 6.4572501E+00  3.8813904E+01
 6.4687505E+00  3.8882469E+01
 6.4802504E+00  3.8834656E+01
 6.4917502E+00  3.9001705E+01
 6.5032501E+00  3.9064491E+01
 6.5147505E+00  3.9199387E+01
 6.5262504E+00  3.9184002E+01
 6.5377502E+00  3.9322464E+01
 6.5492501E+00  3.9319260E+01
 6.5607505E+00  3.9396873E+01
 6.5722504E+00  3.9439259E+01
 6.5837502E+00  3.9482296E+01
 6.5952501E+00  3.9603867E+01
 6.6067505E+00  3.9682999E+01
 6.6182504E+00  3.9882599E+01
 6.6297503E+00  4.0029110E+01
 6.6412501E+00  4.0079620E+01
 6.6527505E+00  4.0146015E+01
 6.6642504E+00  4.0210503E+01
 6.6757503E+00  4.0274372E+01
 6.6872501E+00  4.0309566E+01
 6.6987505E+00  4.0396564E+01
 6.7102504E+00  4.0560101E+01
 6.7217503E+00  4.0624466E+01
 6.7332501E+00  4.0692822E+01
 6.7447505E+00  4.0723804E+01
 6.7562504E+00  4.0892529E+01
 6.7677503E+00  4.0948692E+01
 6.7792501E+00  4.1075348E+01
 6.7907505E+00  4.1020252E+01
 6.8022504E+00  4.1146160E+01
 6.8137503E+00  4.1246525E+01
 6.8252501E+00  4.1451790E+01
 6.8367505E+00  4.1607201E+01
 6.8482504E+00  4.1847492E+01
 6.8597503E+00  4.2083561E+01
 6.8712502E+00  4.2274174E+01
 6.8827505E+00  4.2332577E+01
 6.8942504E+00  4.2352413E+01
 6.9057503E+00  4.2319725E+01
 6.9172502E+00  4.2211918E+01
 6.9287505E+00  4.2134880E+01
 6.9402504E+00  4.2116650E+01
 6.9517503E+00  4.2096325E+01
 6.9632502E+00  4.2124546E+01
 6.9747505E+00  4.2286346E+01
 6.9862504E+00  4.2469131E+01
 6.9977503E+00  4.2527733E+01
 7.0092502E+00  4.2618896E+01
 7.0207505E+00  4.2677441E+01
 7.0322504E+00  4.2830780E+01
 7.0437503E+00  4.2862694E+01
 7.0552502E+00  4.2931652E+01
 7.0667505E+00  4.3085243E+01
 7.0782504E+00  4.3150555E+01
 7.0897503E+00  4.3243542E+01
 7.1012502E+00  4.3275612E+01
 7.1127505E+00  4.3320965E+01
 7.1242504E+00  4.3283939E+01
 7.1357503E+00  4.3261482E+01
 7.1472502E+00  4.3206890E+01
 7.1587505E+00  4.3277115E+01
 7.1702504E+00  4.3276310E+01
 7.1817503E+00  4.3325615E+01
 7.1932502E+00  4.3327740E+01
 7.2047505E+00  4.3419502E+01
 7.2162504E+00  4.3524426E+01
 7.2277503E+00  4.3660149E+01
 7.2392502E+00  4.3744244E+01
 7.2507505E+00  4.3772034E+01
 7.2622504E+00  4.3838104E+01
 7.2737503E+00  4.3880890E+01
 7.2852502E+00  4.4019562E+01
 7.2967505E+00  4.3974106E+01
 7.3082504E+00  4.4022449E+01
 7.3197503E+00  4.3977875E+01
 7.3312502E+00  4.4025238E+01
 7.3427505E+00  4.3949123E+01
 7.3542504E+00  4.3947258E+01
 7.3657503E+00  4.3964729E+01
 7.3772502E+00  4.3951435E+01
 7.3887506E+00  4.4014259E+01
 7.4002504E+00  4.4023266E+01
 7.4117503E+00  4.4061928E+01
 7.4232502E+00  4.4049057E+01
 7.4347506E+00  4.4016743E+01
 7.4462504E+00  4.4166054E+01
 7.4577503E+00  4.4202858E+01
 7.4692502E+00  4.4210186E+01
 7.4807506E+00  4.4186440E+01
 7.4922504E+00  4.4161148E+01
 7.5037503E+00  4.4254463E+01
 7.5152502E+00  4.4252182E+01
 7.5267506E+00  4.4298897E+01
 7.5382504E+00  4.4253792E+01
 7.5497503E+00  4.4175411E+01
 7.5612502E+00  4.4191917E+01
 7.5727506E+00  4.4171417E+01
 7.5842505E+00  4.4252026E+01
 7.5957503E+00  4.4320801E+01
 7.6072502E+00  4.4402153E+01
 7.6187506E+00  4.4413902E+01
 7.6302505E+00  4.4353912E+01
 7.6417503E+00  4.4431702E+01
 7.6532502E+00  4.4418530E+01
 7.6647506E+00  4.4470772E+01
 7.6762505E+00  4.4423645E+01
 7.6877503E+00  4.4415989E+01
 7.6992502E+00  4.4362804E+01
 7.7107506E+00  4.4296944E+01
 7.7222505E+00  4.4327034E+01
 7.7337503E+00  4.4362934E+01
 7.7452502E+00  4.4475933E+01
 7.7567506E+00  4.4492401E+01
 7.7682505E+00  4.4556431E+01
 7.7797503E+00  4.4550426E+01
 7.7912502E+00  4.4637993E+01
 7.8027506E+00  4.4673439E+01
 7.8142505E+00  4.4656834E+01
 7.8257504E+00  4.4631557E+01
 7.8372502E+00  4.4531757E+01
 7.8487506E+00  4.4469120E+01
 7.8602505E+00  4.4352791E+01
 7.8717504E+00  4.4313084E+01
 7.8832502E+00  4.4261864E+01
 7.8947506E+00  4.4195972E+01
 7.9062505E+00  4.4131413E+01
 7.9177504E+00  4.4001461E+01
 7.9292502E+00  4.3939625E+01
 7.9407506E+00  4.3876682E+01
 7.9522505E+00  4.3840885E+01
 7.9637504E+00  4.3785450E+01
 7.9752502E+00  4.3717285E+01
 7.9867506E+00  4.3640507E+01
 7.9982505E+00  4.3643200E+01
 8.0097504E+00  4.3604870E+01
 8.0212507E+00  4.3641659E+01
 8.0327501E+00  4.3502167E+01
 8.0442505E+00  4.3438545E+01
 8.0557508E+00  4.3302383E+01
 8.0672503E+00  4.3241802E+01
 8.0787506E+00  4.3159958E+01
 8.0902500E+00  4.3041973E+01
 8.1017504E+00  4.3004898E+01
 8.1132507E+00  4.2959110E+01
 8.1247501E+00  4.2850147E+01
 8.1362505E+00  4.2767376E+01
 8.1477509E+00  4.2618793E+01
 8.1592503E+00  4.2547054E+01
 8.1707506E+00  4.2420204E+01
 8.1822500E+00  4.2223232E+01
 8.1937504E+00  4.2044621E+01
 8.2052507E+00  4.1836712E+01
 8.2167501E+00  4.1660828E+01
 8.2282505E+00  4.1552444E+01
 8.2397509E+00  4.1497066E+01
 8.2512503E+00  4.1405933E+01
 8.2627506E+00  4.1304504E+01
 8.2742500E+00  4.1145409E+01
 8.2857504E+00  4.0980892E+01
 8.2972507E+00  4.0834019E+01
 8.3087502E+00  4.0669785E+01
 8.3202505E+00  4.0649288E+01
 8.3317509E+00  4.0498486E+01
 8.3432503E+00  4.0339439E+01
 8.3547506E+00  4.0067619E+01
 8.3662500E+00  3.9910355E+01
 8.3777504E+00  3.9783310E+01
 8.3892508E+00  3.9623791E+01
 8.4007502E+00  3.9518848E+01
 8.4122505E+00  3.9310585E+01
 8.4237509E+00  3.9077412E+01
 8.4352503E+00  3.8812130E+01
 8.4467506E+00  3.8673584E+01
 8.4582500E+00  3.8538738E+01
 8.4697504E+00  3.8439110E+01
 8.4812508E+00  3.8272087E+01
 8.4927502E+00  3.8150242E+01
 8.5042505E+00  3.8058144E+01
 8.5157509E+00  3.7951694E+01
 8.5272503E+00  3.7887707E+01
 8.5387506E+00  3.7855209E+01
 8.5502501E+00  3.7718975E+01
 8.5617504E+00  3.7572670E+01
 8.5732508E+00  3.7389233E+01
 8.5847502E+00  3.7095451E+01
 8.5962505E+00  3.6856014E+01
 8.6077509E+00  3.6517361E+01
 8.6192503E+00  3.6281006E+01
 8.6307507E+00  3.6108517E+01
 8.6422501E+00  3.5884090E+01
 8.6537504E+00  3.5670319E+01
 8.6652508E+00  3.5458050E+01
 8.6767502E+00  3.5219723E+01
 8.6882505E+00  3.5181286E+01
 8.6997509E+00  3.5008957E+01
 8.7112503E+00  3.4846893E+01
 8.7227507E+00  3.4631821E+01
 8.7342501E+00  3.4423801E+01
 8.7457504E+00  3.4267254E+01
 8.7572508E+00  3.4064835E+01
 8.7687502E+00  3.3927395E+01
 8.7802505E+00  3.3807346E+01
 8.7917500E+00  3.3628799E+01
 8.8032503E+00  3.3491196E+01
 8.8147507E+00  3.3307869E+01
 8.8262501E+00  3.3210213E+01
 8.8377504E+00  3.3083023E+01
 8.8492508E+00  3.2938389E+01
 8.8607502E+00  3.2767841E+01
 8.8722506E+00  3.2505280E+01
 8.8837500E+00  3.2292557E+01
 8.8952503E+00  3.2128132E+01
 8.9067507E+00  3.2016083E+01
 8.9182501E+00  3.1847164E+01
 8.9297504E+00  3.1633482E+01
 8.9412508E+00  3.1491005E+01
 8.9527502E+00  3.1394026E+01
 8.9642506E+00  3.1334352E+01
 8.9757500E+00  3.1137592E+01
 8.9872503E+00  3.1033651E+01
 8.9987507E+00  3.0823099E+01
 9.0102501E+00  3.0698717E+01
 9.0217505E+00  3.0490772E+01
 9.0332508E+00  3.0411833E+01
 9.0447502E+00  3.0287828E+01
 9.0562506E+00  3.0099138E+01
 9.0677500E+00  2.9985300E+01
 9.0792503E+00  2.9831606E+01
 9.0907507E+00  2.9830299E+01
 9.1022501E+00  2.9634766E+01
 9.1137505E+00  2.9564306E+01
 9.1252508E+00  2.9395365E+01
 9.1367502E+00  2.9320427E+01
 9.1482506E+00  2.9191319E+01
 9.1597500E+00  2.9088003E+01
 9.1712503E+00  2.8896843E+01
 9.1827507E+00  2.8773006E+01
 9.1942501E+00  2.8606724E+01
 9.2057505E+00  2.8464170E+01
 9.2172508E+00  2.8358770E+01
 9.2287502E+00  2.8241625E+01
 9.2402506E+00  2.8255720E+01
 9.2517500E+00  2.8247078E+01
 9.2632504E+00  2.8224514E+01
 9.2747507E+00  2.8175184E+01
 9.2862501E+00  2.8071125E+01
 9.2977505E+00  2.8036119E+01
 9.3092508E+00  2.7931356E+01
 9.3207502E+00  2.7821411E+01
 9.3322506E+00  2.7730221E+01
 9.3437500E+00  2.7657490E+01
 9.3552504E+00  2.7524645E+01
 9.3667507E+00  2.7379370E+01
 9.3782501E+00  2.7207125E+01
 9.3897505E+00  2.7095898E+01
 9.4012508E+00  2.6991014E+01
 9.4127502E+00  2.6955858E+01
 9.4242506E+00  2.6931509E+01
 9.4357500E+00  2.6869659E+01
 9.4472504E+00  2.6766050E+01
 9.4587507E+00  2.6704987E+01
 9.4702501E+00  2.6757973E+01
 9.4817505E+00  2.6778410E+01
 9.4932508E+00  2.6741333E+01
 9.5047503E+00  2.6611166E+01
 9.5162506E+00  2.6540205E+01
 9.5277500E+00  2.6436531E+01
 9.5392504E+00  2.6406607E+01
 9.5507507E+00  2.6262398E+01
 9.5622501E+00  2.6206945E+01
 9.5737505E+00  2.6071115E+01
 9.5852509E+00  2.5991512E+01
 9.5967503E+00  2.5936464E+01
 9.6082506E+00  2.5898031E+01
 9.6197500E+00  2.5915108E+01
 9.6312504E+00  2.5890356E+01
 9.6427507E+00  2.5757229E+01
 9.6542501E+00  2.5684944E+01
 9.6657505E+00  2.5635962E+01
 9.6772509E+00  2.5619362E+01
 9.6887503E+00  2.5573503E+01
 9.7002506E+00  2.5473391E+01
 9.7117500E+00  2.5361420E+01
 9.7232504E+00  2.5333042E+01
 9.7347507E+00  2.5271027E+01
 9.7462502E+00  2.5297585E+01
 9.7577505E+00  2.5239523E+01
 9.7692509E+00  2.5269701E+01
 9.7807503E+00  2.5208817E+01
 9.7922506E+00  2.5157946E+01
 9.8037500E+00  2.5090223E+01
 9.8152504E+00  2.5004938E+01
 9.8267508E+00  2.4935377E+01
 9.8382502E+00  2.4801138E+01
 9.8497505E+00  2.4763706E+01
 9.8612509E+00  2.4746862E+01
 9.8727503E+00  2.4787891E+01
 9.8842506E+00  2.4784992E+01
 9.8957500E+00  2.4734190E+01
 9.9072504E+00  2.4703047E+01
 9.9187508E+00  2.4665342E+01
 9.9302502E+00  2.4648340E+01
 9.9417505E+00  2.4540730E+01
 9.9532509E+00  2.4459702E+01
 9.9647503E+00  2.4359138E+01
 9.9762506E+00  2.4338129E+01
 9.9877501E+00  2.4283335E+01
 9.9992504E+00  2.4240301E+01
 1.0010751E+01  2.4136951E+01
 1.0022250E+01  2.4136976E+01
 1.0033751E+01  2.4129654E+01
 1.0045251E+01  2.4160009E+01
 1.0056750E+01  2.4143703E+01
 1.0068251E+01  2.4170055E+01
 1.0079750E+01  2.4142738E+01
 1.0091250E+01  2.4056744E+01
 1.0102751E+01  2.3967308E+01
 1.0114250E+01  2.3852486E+01
 1.0125751E+01  2.3858612E+01
 1.0137251E+01  2.3792160E+01
 1.0148750E+01  2.3857082E+01
 1.0160251E+01  2.3838884E+01
 1.0171750E+01  2.3844395E+01
 1.0183250E+01  2.3795029E+01
 1.0194751E+01  2.3766983E+01
 1.0206250E+01  2.3732534E+01
 1.0217751E+01  2.3745789E+01
 1.0229251E+01  2.3708727E+01
 1.0240750E+01  2.3709293E+01
 1.0252251E+01  2.3648615E+01
 1.0263750E+01  2.3671188E+01
 1.0275250E+01  2.3675047E+01
 1.0286751E+01  2.3734962E+01
 1.0298250E+01  2.3786917E+01
 1.0309751E+01  2.3792812E+01
 1.0321251E+01  2.3687250E+01
 1.0332750E+01  2.3587584E+01
 1.0344251E+01  2.3517654E+01
 1.0355750E+01  2.3520870E+01
 1.0367250E+01  2.3490986E+01
 1.0378751E+01  2.3507225E+01
 1.0390250E+01  2.3548521E+01
 1.0401751E+01  2.3562307E+01
 1.0413251E+01  2.3514484E+01
 1.0424750E+01  2.3431368E+01
 1.0436251E+01  2.3379538E+01
 1.0447750E+01  2.3359957E+01
 1.0459250E+01  2.3384207E+01
 1.0470751E+01  2.3363909E+01
 1.0482250E+01  2.3367611E+01
 1.0493751E+01  2.3290298E+01
 1.0505251E+01  2.3238316E+01
 1.0516750E+01  2.3174477E+01
 1.0528251E+01  2.3136503E+01
 1.0539750E+01  2.3143654E+01
 1.0551250E+01  2.3156578E+01
 1.0562751E+01  2.3227102E+01
 1.0574250E+01  2.3238962E+01
 1.0585751E+01  2.3221842E+01
 1.0597251E+01  2.3205694E+01
 1.0608750E+01  2.3233292E+01
 1.0620251E+01  2.3234434E+01
 1.0631750E+01  2.3237062E+01
 1.0643250E+01  2.3207783E+01
 1.0654751E+01  2.3200064E+01
 1.0666250E+01  2.3127853E+01
 1.0677751E+01  2.3054173E+01
 1.0689251E+01  2.2971031E+01
 1.0700750E+01  2.2972816E+01
 1.0712251E+01  2.2946455E+01
 1.0723750E+01  2.2975847E+01
 1.0735250E+01  2.2961044E+01
 1.0746751E+01  2.2957708E+01
 1.0758250E+01  2.2898531E+01
 1.0769751E+01  2.2875288E+01
 1.0781251E+01  2.2887613E+01
 1.0792750E+01  2.2878916E+01
 1.0804251E+01  2.2884338E+01
 1.0815750E+01  2.2847315E+01
 1.0827250E+01  2.2862495E+01
 1.0838751E+01  2.2793242E+01
 1.0850250E+01  2.2805307E+01
 1.0861751E+01  2.2809065E+01
 1.0873251E+01  2.2812700E+01
 1.0884750E+01  2.2795887E+01
 1.0896251E+01  2.2746843E+01
 1.0907750E+01  2.2741791E+01
 1.0919250E+01  2.2752569E+01
 1.0930751E+01  2.2775789E+01
 1.0942250E+01  2.2793787E+01
 1.0953751E+01  2.2808666E+01
 1.0965251E+01  2.2815863E+01
 1.0976750E+01  2.2800798E+01
 1.0988251E+01  2.2752008E+01
 1.0999750E+01  2.2721157E+01
 1.1011250E+01  2.2720032E+01
 1.1022751E+01  2.2719086E+01
 1.1034250E+01  2.2724657E+01
 1.1045751E+01  2.2670992E+01
 1.1057251E+01  2.2599546E+01
 1.1068750E+01  2.2544239E+01
 1.1080251E+01  2.2556734E+01
 1.1091750E+01  2.2596510E+01
 1.1103251E+01  2.2647272E+01
 1.1114751E+01  2.2712412E+01
 1.1126250E+01  2.2783070E+01
 1.1137751E+01  2.2772013E+01
 1.1149251E+01  2.2756512E+01
 1.1160750E+01  2.2724785E+01
 1.1172251E+01  2.2710024E+01
 1.1183750E+01  2.2664871E+01
 1.1195251E+01  2.2617643E+01
 1.1206751E+01  2.2633324E+01
 1.1218250E+01  2.2634237E+01
 1.1229751E+01  2.2672884E+01
 1.1241251E+01  2.2666864E+01
 1.1252750E+01  2.2643663E+01
 1.1264251E+01  2.2593697E+01
 1.1275750E+01  2.2573814E+01
 1.1287251E+01  2.2565866E+01
 1.1298751E+01  2.2560507E+01
 1.1310250E+01  2.2573421E+01
 1.1321751E+01  2.2605522E+01
 1.1333251E+01  2.2608212E+01
 1.1344750E+01  2.2635120E+01
 1.1356251E+01  2.2656395E+01
 1.1367750E+01  2.2741575E+01
 1.1379251E+01  2.2790188E+01
 1.1390751E+01  2.2878071E+01
 1.1402250E+01  2.2995621E+01
 1.1413751E+01  2.3057331E+01
 1.1425251E+01  2.3046728E+01
 1.1436750E+01  2.2950130E+01
 1.1448251E+01  2.2929413E+01
 1.1459750E+01  2.2948290E+01
 1.1471251E+01  2.3053444E+01
 1.1482751E+01  2.3130611E+01
 1.1494250E+01  2.3281851E+01
 1.1505751E+01  2.3434450E+01
 1.1517251E+01  2.3776827E+01
 1.1528750E+01  2.4401131E+01
 1.1540251E+01  2.5619240E+01
 1.1551750E+01  2.7192719E+01
 1.1563251E+01  2.9144524E+01
 1.1574751E+01  3.2056984E+01
 1.1586250E+01  3.3960567E+01
 1.1597751E+01  3.5836487E+01
 1.1609251E+01  3.5847908E+01
 1.1620750E+01  3.3472919E+01
 1.1632251E+01  3.0206186E+01
 1.1643750E+01  2.6586355E+01
 1.1655251E+01  2.5362946E+01
 1.1666751E+01  2.4224447E+01
 1.1678250E+01  2.3593119E+01
 1.1689751E+01  2.3334917E+01
 1.1701251E+01  2.3145937E+01
 1.1712750E+01  2.3029938E+01
 1.1724251E+01  2.2930515E+01
 1.1735750E+01  2.2859043E+01
 1.1747251E+01  2.2777191E+01
 1.1758751E+01  2.2775839E+01
 1.1770250E+01  2.2692051E+01
 1.1781751E+01  2.2761450E+01
 1.1793251E+01  2.2776373E+01
 1.1804750E+01  2.2836098E+01
 1.1816251E+01  2.2809607E+01
 1.1827750E+01  2.2778528E+01
 1.1839251E+01  2.2734480E+01
 1.1850751E+01  2.2652672E+01
 1.1862250E+01  2.2644897E+01
 1.1873751E+01  2.2662941E+01
 1.1885251E+01  2.2722878E+01
 1.1896750E+01  2.2800137E+01
 1.1908251E+01  2.2927231E+01
 1.1919750E+01  2.3149622E+01
 1.1931251E+01  2.3452276E+01
 1.1942751E+01  2.3895340E+01
 1.1954250E+01  2.4585424E+01
 1.1965751E+01  2.5354504E+01
 1.1977251E+01  2.6333551E+01
 1.1988750E+01  2.7498732E+01
 1.2000251E+01  2.8365950E+01
 1.2011750E+01  2.8394562E+01
 1.2023251E+01  2.7717470E+01
 1.2034751E+01  2.6969006E+01
 1.2046250E+01  2.6256672E+01
 1.2057751E+01  2.5720299E+01
 1.2069251E+01  2.6355070E+01
 1.2080750E+01  2.7066118E+01
 1.2092251E+01  2.8027668E+01
 1.2103750E+01  2.8300526E+01
 1.2115251E+01  2.8150055E+01
 1.2126751E+01  2.7452351E+01
 1.2138250E+01  2.6144808E+01
 1.2149751E+01  2.5235256E+01
 1.2161251E+01  2.4463112E+01
 1.2172750E+01  2.3784435E+01
 1.2184251E+01  2.3359617E+01
 1.2195750E+01  2.3060198E+01
 1.2207251E+01  2.2927525E+01
 1.2218751E+01  2.2924347E+01
 1.2230250E+01  2.2913000E+01
 1.2241751E+01  2.2858938E+01
 1.2253251E+01  2.2820183E+01
 1.2264750E+01  2.2817324E+01
 1.2276251E+01  2.2820608E+01
 1.2287750E+01  2.2835541E+01
 1.2299251E+01  2.2820793E+01
 1.2310751E+01  2.2833170E+01
 1.2322250E+01  2.2756893E+01
 1.2333751E+01  2.2735806E+01
 1.2345250E+01  2.2740585E+01
 1.2356750E+01  2.2802259E+01
 1.2368251E+01  2.2797565E+01
 1.2379750E+01  2.2774454E+01
 1.2391251E+01  2.2774551E+01
 1.2402751E+01  2.2760035E+01
 1.2414250E+01  2.2766739E+01
 1.2425751E+01  2.2749413E+01
 1.2437250E+01  2.2803402E+01
 1.2448750E+01  2.2816111E+01
 1.2460251E+01  2.2838146E+01
 1.2471750E+01  2.2827784E+01
 1.2483251E+01  2.2872265E+01
 1.2494751E+01  2.2798513E+01
 1.2506250E+01  2.2765148E+01
 1.2517751E+01  2.2657719E+01
 1.2529250E+01  2.2671034E+01
 1.2540751E+01  2.2638826E+01
 1.2552251E+01  2.2690613E+01
 1.2563750E+01  2.2711699E+01
 1.2575251E+01  2.2754250E+01
 1.2586751E+01  2.2780235E+01
 1.2598250E+01  2.2822657E+01
 1.2609751E+01  2.2826025E+01
 1.2621250E+01  2.2845510E+01
 1.2632751E+01  2.2859661E+01
 1.2644251E+01  2.2875313E+01
 1.2655750E+01  2.2877172E+01
 1.2667251E+01  2.2915619E+01
 1.2678751E+01  2.2985451E+01
 1.2690250E+01  2.3023388E+01
 1.2701751E+01  2.3034163E+01
 1.2713250E+01  2.3060429E+01
 1.2724751E+01  2.3019590E+01
 1.2736251E+01  2.2998034E+01
 1.2747750E+01  2.2993286E+01
 1.2759251E+01  2.3101528E+01
 1.2770751E+01  2.3168308E+01
 1.2782250E+01  2.3290140E+01
 1.2793751E+01  2.3393446E+01
 1.2805250E+01  2.3526672E+01
 1.2816751E+01  2.3571527E+01
 1.2828251E+01  2.3580755E+01
 1.2839750E+01  2.3566717E+01
 1.2851251E+01  2.3569229E+01
 1.2862751E+01  2.3568939E+01
 1.2874250E+01  2.3612400E+01
 1.2885751E+01  2.3629492E+01
 1.2897250E+01  2.3666428E+01
 1.2908751E+01  2.3701260E+01
 1.2920251E+01  2.3715824E+01
 1.2931750E+01  2.3765253E+01
 1.2943251E+01  2.3708654E+01
 1.2954751E+01  2.3729351E+01
 1.2966250E+01  2.3709442E+01
 1.2977751E+01  2.3827295E+01
 1.2989250E+01  2.3880913E+01
 1.3000751E+01  2.3992899E+01
 1.3012251E+01  2.4073519E+01
 1.3023750E+01  2.4222113E+01
 1.3035251E+01  2.4320967E+01
 1.3046751E+01  2.4382906E+01
 1.3058250E+01  2.4467833E+01
 1.3069751E+01  2.4527407E+01
 1.3081250E+01  2.4650133E+01
 1.3092751E+01  2.4753790E+01
 1.3104251E+01  2.4912134E+01
 1.3115750E+01  2.5034933E+01
 1.3127251E+01  2.5154682E+01
 1.3138751E+01  2.5214569E+01
 1.3150250E+01  2.5326021E+01
 1.3161751E+01  2.5408443E+01
 1.3173250E+01  2.5537479E+01
 1.3184751E+01  2.5716091E+01
 1.3196251E+01  2.5813961E+01
 1.3207750E+01  2.5959673E+01
 1.3219251E+01  2.6014685E+01
 1.3230751E+01  2.6160007E+01
 1.3242250E+01  2.6318613E+01
 1.3253751E+01  2.6464533E+01
 1.3265250E+01  2.6632780E+01
 1.3276751E+01  2.6727169E+01
 1.3288251E+01  2.6865738E+01
 1.3299750E+01  2.6994701E+01
 1.3311251E+01  2.7136824E+01
 1.3322751E+01  2.7276407E+01
 1.3334250E+01  2.7452715E+01
 1.3345751E+01  2.7623550E+01
 1.3357250E+01  2.7809959E+01
 1.3368751E+01  2.7947514E+01
 1.3380251E+01  2.8119188E+01
 1.3391750E+01  2.8288454E+01
 1.3403251E+01  2.8467209E+01
 1.3414751E+01  2.8557707E+01
 1.3426250E+01  2.8577074E+01
 1.3437751E+01  2.8621466E+01
 1.3449250E+01  2.8722010E+01
 1.3460751E+01  2.8909687E+01
 1.3472251E+01  2.9122723E+01
 1.3483750E+01  2.9353474E+01
 1.3495251E+01  2.9491261E+01
 1.3506751E+01  2.9591158E+01
 1.3518250E+01  2.9673441E+01
 1.3529751E+01  2.9703411E+01
 1.3541250E+01  2.9791126E+01
 1.3552751E+01  2.9811378E+01
 1.3564251E+01  2.9878416E+01
 1.3575750E+01  2.9841043E+01
 1.3587251E+01  2.9887955E+01
 1.3598751E+01  2.9995224E+01
 1.3610250E+01  3.0035534E+01
 1.3621751E+01  3.0081009E+01
 1.3633250E+01  3.0137142E+01
 1.3644751E+01  3.0190474E+01
 1.3656251E+01  3.0182817E+01
 1.3667750E+01  3.0214609E+01
 1.3679251E+01  3.0249981E+01
 1.3690751E+01  3.0243526E+01
 1.3702250E+01  3.0155779E+01
 1.3713751E+01  3.0158968E+01
 1.3725250E+01  3.0148226E+01
 1.3736751E+01  3.0186066E+01
 1.3748251E+01  3.0205914E+01
 1.3759750E+01  3.0292492E+01
 1.3771251E+01  3.0286278E+01
 1.3782751E+01  3.0314650E+01
 1.3794250E+01  3.0296728E+01
 1.3805751E+01  3.0369057E+01
 1.3817250E+01  3.0469057E+01
 1.3828751E+01  3.0672831E+01
 1.3840251E+01  3.0894756E+01
 1.3851750E+01  3.1295691E+01
 1.3863251E+01  3.1966516E+01
 1.3874751E+01  3.3300587E+01
 1.3886250E+01  3.4926174E+01
 1.3897751E+01  3.8570969E+01
 1.3909250E+01  4.2658943E+01
 1.3920751E+01  4.7964260E+01
 1.3932251E+01  5.5246296E+01
 1.3943750E+01  6.1896156E+01
 1.3955251E+01  6.9765282E+01
 1.3966751E+01  7.6938072E+01
 1.3978251E+01  7.7684975E+01
 1.3989751E+01  7.2413315E+01
 1.4001250E+01  6.0503010E+01
 1.4012751E+01  5.0468048E+01
 1.4024251E+01  4.1820694E+01
 1.4035750E+01  3.6569870E+01
 1.4047251E+01  3.3055080E+01
 1.4058751E+01  3.1105541E+01
 1.4070251E+01  3.0097904E+01
 1.4081751E+01  2.9441175E+01
 1.4093250E+01  2.9081039E+01
 1.4104751E+01  2.8748150E+01
 1.4116251E+01  2.8517544E+01
 1.4127750E+01  2.8282219E+01
 1.4139251E+01  2.8134298E+01
 1.4150751E+01  2.8005823E+01
 1.4162251E+01  2.7866064E+01
 1.4173751E+01  2.7724888E+01
 1.4185250E+01  2.7546465E+01
 1.4196751E+01  2.7346657E+01
 1.4208251E+01  2.7188246E+01
 1.4219750E+01  2.7083584E+01
 1.4231251E+01  2.6960571E+01
 1.4242751E+01  2.6862123E+01
 1.4254251E+01  2.6757494E+01
 1.4265751E+01  2.6738184E+01
 1.4277250E+01  2.6664579E+01
 1.4288751E+01  2.6648232E+01
 1.4300251E+01  2.6621243E+01
 1.4311750E+01  2.6584167E+01
 1.4323251E+01  2.6496115E+01
 1.4334751E+01  2.6408382E+01
 1.4346251E+01  2.6373272E+01
 1.4357751E+01  2.6406845E+01
 1.4369250E+01  2.6429106E+01
 1.4380751E+01  2.6423964E+01
 1.4392251E+01  2.6359205E+01
 1.4403750E+01  2.6272867E+01
 1.4415251E+01  2.6163952E+01
 1.4426751E+01  2.6099747E+01
 1.4438251E+01  2.6068089E+01
 1.4449751E+01  2.6068134E+01
 1.4461250E+01  2.5990076E+01
 1.4472751E+01  2.5894779E+01
 1.4484251E+01  2.5837784E+01
 1.4495750E+01  2.5785109E+01
 1.4507251E+01  2.5760670E+01
 1.4518751E+01  2.5707832E+01
 1.4530251E+01  2.5705679E+01
 1.4541751E+01  2.5630720E+01
 1.4553250E+01  2.5611008E+01
 1.4564751E+01  2.5572809E+01
 1.4576251E+01  2.5582581E+01
 1.4587750E+01  2.5565754E+01
 1.4599251E+01  2.5534267E+01
 1.4610751E+01  2.5542416E+01
 1.4622251E+01  2.5526367E+01
 1.4633751E+01  2.5468567E+01
 1.4645250E+01  2.5464079E+01
 1.4656751E+01  2.5419661E+01
 1.4668251E+01  2.5407635E+01
 1.4679750E+01  2.5305357E+01
 1.4691251E+01  2.5272385E+01
 1.4702751E+01  2.5262838E+01
 1.4714251E+01  2.5271204E+01
 1.4725751E+01  2.5216640E+01
 1.4737250E+01  2.5187950E+01
 1.4748751E+01  2.5153093E+01
 1.4760251E+01  2.5163784E+01
 1.4771750E+01  2.5164961E+01
 1.4783251E+01  2.5164782E+01
 1.4794751E+01  2.5210974E+01
 1.4806251E+01  2.5223745E+01
 1.4817751E+01  2.5189508E+01
 1.4829250E+01  2.5103552E+01
 1.4840751E+01  2.5106485E+01
 1.4852251E+01  2.5133881E+01
 1.4863750E+01  2.5091122E+01
 1.4875251E+01  2.5058340E+01
 1.4886751E+01  2.5037577E+01
 1.4898251E+01  2.5071609E+01
 1.4909751E+01  2.5099827E+01
 1.4921250E+01  2.5102186E+01
 1.4932751E+01  2.5077608E+01
 1.4944251E+01  2.5039124E+01
 1.4955750E+01  2.5006824E+01
 1.4967251E+01  2.4979055E+01
 1.4978751E+01  2.4959967E+01
 1.4990251E+01  2.4993841E+01
 1.5001751E+01  2.5013840E+01
 1.5013250E+01  2.5019434E+01
 1.5024751E+01  2.5019114E+01
 1.5036251E+01  2.4993185E+01
 1.5047750E+01  2.4978365E+01
 1.5059251E+01  2.4980400E+01
 1.5070751E+01  2.4989790E+01
 1.5082251E+01  2.4965532E+01
 1.5093751E+01  2.4981773E+01
 1.5105250E+01  2.5069622E+01
 1.5116751E+01  2.5205589E+01
 1.5128251E+01  2.5385498E+01
 1.5139750E+01  2.5826885E+01
 1.5151251E+01  2.6376478E+01
 1.5162751E+01  2.7040054E+01
 1.5174251E+01  2.7790518E+01
 1.5185751E+01  2.8239042E+01
 1.5197250E+01  2.8698326E+01
 1.5208751E+01  2.8277908E+01
 1.5220251E+01  2.8103176E+01
 1.5231750E+01  2.7130447E+01
 1.5243251E+01  2.6603655E+01
 1.5254751E+01  2.5827238E+01
 1.5266251E+01  2.5421156E+01
 1.5277751E+01  2.5118095E+01
 1.5289250E+01  2.4964647E+01
 1.5300751E+01  2.4859543E+01
 1.5312251E+01  2.4818703E+01
 1.5323750E+01  2.4837866E+01
 1.5335251E+01  2.4825132E+01
 1.5346751E+01  2.4755924E+01
 1.5358251E+01  2.4728891E+01
 1.5369751E+01  2.4736431E+01
 1.5381250E+01  2.4741175E+01
 1.5392751E+01  2.4671513E+01
 1.5404251E+01  2.4657108E+01
 1.5415751E+01  2.4650236E+01
 1.5427251E+01  2.4613323E+01
 1.5438751E+01  2.4595230E+01
 1.5450251E+01  2.4586897E+01
 1.5461751E+01  2.4641800E+01
 1.5473250E+01  2.4642044E+01
 1.5484751E+01  2.4673216E+01
 1.5496251E+01  2.4655556E+01
 1.5507751E+01  2.4640108E+01
 1.5519251E+01  2.4642933E+01
 1.5530751E+01  2.4673994E+01
 1.5542251E+01  2.4716858E+01
 1.5553751E+01  2.4711914E+01
 1.5565250E+01  2.4703821E+01
 1.5576751E+01  2.4735619E+01
 1.5588251E+01  2.4756399E+01
 1.5599751E+01  2.4761652E+01
 1.5611251E+01  2.4685570E+01
 1.5622751E+01  2.4657944E+01
 1.5634251E+01  2.4628864E+01
 1.5645751E+01  2.4661024E+01
 1.5657250E+01  2.4722029E+01
 1.5668751E+01  2.4791504E+01
 1.5680251E+01  2.4799744E+01
 1.5691751E+01  2.4826950E+01
 1.5703251E+01  2.4808182E+01
 1.5714751E+01  2.4856995E+01
 1.5726251E+01  2.4800474E+01
 1.5737751E+01  2.4748905E+01
 1.5749250E+01  2.4642353E+01
 1.5760751E+01  2.4661955E+01
 1.5772251E+01  2.4641935E+01
 1.5783751E+01  2.4636597E+01
 1.5795251E+01  2.4584169E+01
 1.5806751E+01  2.4651911E+01
 1.5818251E+01  2.4664791E+01
 1.5829751E+01  2.4716488E+01
 1.5841250E+01  2.4673954E+01
 1.5852751E+01  2.4699137E+01
 1.5864251E+01  2.4673550E+01
 1.5875751E+01  2.4751945E+01
 1.5887251E+01  2.4734907E+01
 1.5898750E+01  2.4738600E+01
 1.5910251E+01  2.4711248E+01
 1.5921751E+01  2.4698769E+01
 1.5933250E+01  2.4702177E+01
 1.5944751E+01  2.4660269E+01
 1.5956251E+01  2.4636932E+01
 1.5967751E+01  2.4603899E+01
 1.5979251E+01  2.4603531E+01
 1.5990750E+01  2.4652988E+01
 1.6002251E+01  2.4693415E+01
 1.6013750E+01  2.4702841E+01
 1.6025251E+01  2.4707830E+01
 1.6036751E+01  2.4704344E+01
 1.6048250E+01  2.4755905E+01
 1.6059752E+01  2.4803400E+01
 1.6071251E+01  2.4767063E+01
 1.6082750E+01  2.4766577E+01
 1.6094252E+01  2.4719923E+01
 1.6105751E+01  2.4821339E+01
 1.6117250E+01  2.4823591E+01
 1.6128750E+01  2.4864822E+01
 1.6140251E+01  2.4921329E+01
 1.6151751E+01  2.4912975E+01
 1.6163250E+01  2.4958593E+01
 1.6174751E+01  2.4930632E+01
 1.6186251E+01  2.5120638E+01
 1.6197750E+01  2.5070305E+01
 1.6209251E+01  2.5353300E+01
 1.6220751E+01  2.5288855E+01
 1.6232250E+01  2.5693935E+01
 1.6243752E+01  2.5806898E+01
 1.6255251E+01  2.6078394E+01
 1.6266750E+01  2.6294151E+01
 1.6278252E+01  2.6037437E+01
 1.6289751E+01  2.6113005E+01
 1.6301250E+01  2.5453354E+01
 1.6312750E+01  2.5513416E+01
 1.6324251E+01  2.5025414E+01
 1.6335751E+01  2.5072697E+01
 1.6347250E+01  2.4879223E+01
 1.6358751E+01  2.4888918E+01
 1.6370251E+01  2.4821543E+01
 1.6381750E+01  2.4814659E+01
 1.6393251E+01  2.4886114E+01
 1.6404751E+01  2.4871363E+01
 1.6416250E+01  2.4918846E+01
 1.6427752E+01  2.4871937E+01
 1.6439251E+01  2.4930742E+01
 1.6450750E+01  2.4883060E+01
 1.6462252E+01  2.4778769E+01
 1.6473751E+01  2.4681768E+01
 1.6485250E+01  2.4690966E+01
 1.6496750E+01  2.4740318E+01
 1.6508251E+01  2.4757788E+01
 1.6519751E+01  2.4766088E+01
 1.6531250E+01  2.4783554E+01
 1.6542751E+01  2.4806738E+01
 1.6554251E+01  2.4811995E+01
 1.6565750E+01  2.4807226E+01
 1.6577251E+01  2.4768877E+01
 1.6588751E+01  2.4713739E+01
 1.6600250E+01  2.4712978E+01
 1.6611752E+01  2.4721365E+01
 1.6623251E+01  2.4673248E+01
 1.6634750E+01  2.4684885E+01
 1.6646252E+01  2.4681593E+01
 1.6657751E+01  2.4708405E+01
 1.6669250E+01  2.4656384E+01
 1.6680750E+01  2.4603727E+01
 1.6692251E+01  2.4581062E+01
 1.6703751E+01  2.4517439E+01
 1.6715250E+01  2.4550917E+01
 1.6726751E+01  2.4522284E+01
 1.6738251E+01  2.4618597E+01
 1.6749750E+01  2.4638313E+01
 1.6761251E+01  2.4729872E+01
 1.6772751E+01  2.4734896E+01
 1.6784250E+01  2.4728880E+01
 1.6795752E+01  2.4679087E+01
 1.6807251E+01  2.4632027E+01
 1.6818750E+01  2.4571707E+01
 1.6830252E+01  2.4556454E+01
 1.6841751E+01  2.4548777E+01
 1.6853251E+01  2.4534140E+01
 1.6864750E+01  2.4519325E+01
 1.6876251E+01  2.4522161E+01
 1.6887751E+01  2.4523405E+01
 1.6899250E+01  2.4537182E+01
 1.6910751E+01  2.4529972E+01
 1.6922251E+01  2.4504875E+01
 1.6933750E+01  2.4436010E+01
 1.6945251E+01  2.4414343E+01
 1.6956751E+01  2.4400812E+01
 1.6968250E+01  2.4397753E+01
 1.6979752E+01  2.4409418E+01
 1.6991251E+01  2.4401703E+01
 1.7002750E+01  2.4376078E+01
 1.7014252E+01  2.4342825E+01
 1.7025751E+01  2.4321884E+01
 1.7037251E+01  2.4307724E+01
 1.7048750E+01  2.4258528E+01
 1.7060251E+01  2.4236732E+01
 1.7071751E+01  2.4206764E+01
 1.7083250E+01  2.4255756E+01
 1.7094751E+01  2.4262741E+01
 1.7106251E+01  2.4338537E+01
 1.7117750E+01  2.4300991E+01
 1.7129251E+01  2.4355339E+01
 1.7140751E+01  2.4332449E+01
 1.7152250E+01  2.4391279E+01
 1.7163752E+01  2.4415138E+01
 1.7175251E+01  2.4425112E+01
 1.7186750E+01  2.4387449E+01
 1.7198252E+01  2.4345419E+01
 1.7209751E+01  2.4300697E+01
 1.7221251E+01  2.4276068E+01
 1.7232750E+01  2.4269878E+01
 1.7244251E+01  2.4226702E+01
 1.7255751E+01  2.4164656E+01
 1.7267250E+01  2.4074205E+01
 1.7278751E+01  2.4104040E+01
 1.7290251E+01  2.4139484E+01
 1.7301750E+01  2.4268913E+01
 1.7313251E+01  2.4262760E+01
 1.7324751E+01  2.4228556E+01
 1.7336250E+01  2.4123617E+01
 1.7347752E+01  2.4103031E+01
 1.7359251E+01  2.4085827E+01
 1.7370750E+01  2.4080252E+01
 1.7382252E+01  2.4062199E+01
 1.7393751E+01  2.4031525E+01
 1.7405251E+01  2.3996492E+01
 1.7416750E+01  2.3995678E+01
 1.7428251E+01  2.4000479E+01
 1.7439751E+01  2.4047567E+01
 1.7451250E+01  2.4123085E+01
 1.7462751E+01  2.4149796E+01
 1.7474251E+01  2.4150906E+01
 1.7485750E+01  2.4118536E+01
 1.7497252E+01  2.4107519E+01
 1.7508751E+01  2.4087656E+01
 1.7520250E+01  2.4071409E+01
 1.7531752E+01  2.4135599E+01
 1.7543251E+01  2.4220970E+01
 1.7554750E+01  2.4172789E+01
 1.7566252E+01  2.4030014E+01
 1.7577751E+01  2.3886093E+01
 1.7589251E+01  2.3851910E+01
 1.7600750E+01  2.3856737E+01
 1.7612251E+01  2.3934980E+01
 1.7623751E+01  2.3987486E+01
 1.7635250E+01  2.3998436E+01
 1.7646751E+01  2.3975416E+01
 1.7658251E+01  2.3946672E+01
 1.7669750E+01  2.3971809E+01
 1.7681252E+01  2.4016253E+01
 1.7692751E+01  2.4079884E+01
 1.7704250E+01  2.4101078E+01
 1.7715752E+01  2.4074488E+01
 1.7727251E+01  2.4035555E+01
 1.7738750E+01  2.3995226E+01
 1.7750252E+01  2.3992758E+01
 1.7761751E+01  2.3986242E+01
 1.7773251E+01  2.3996368E+01
 1.7784750E+01  2.4020727E+01
 1.7796251E+01  2.4047478E+01
 1.7807751E+01  2.4016012E+01
 1.7819250E+01  2.3961803E+01
 1.7830751E+01  2.3925888E+01
 1.7842251E+01  2.3916296E+01
 1.7853750E+01  2.3920740E+01
 1.7865252E+01  2.3939966E+01
 1.7876751E+01  2.3962503E+01
 1.7888250E+01  2.3947998E+01
 1.7899752E+01  2.3934881E+01
 1.7911251E+01  2.3967474E+01
 1.7922750E+01  2.4088816E+01
 1.7934252E+01  2.4172985E+01
 1.7945751E+01  2.4284159E+01
 1.7957251E+01  2.4315208E+01
 1.7968750E+01  2.4412514E+01
 1.7980251E+01  2.4596371E+01
 1.7991751E+01  2.4754076E+01
 1.8003250E+01  2.4972092E+01
 1.8014751E+01  2.5184271E+01
 1.8026251E+01  2.5375875E+01
 1.8037750E+01  2.5826580E+01
 1.8049252E+01  2.6188574E+01
 1.8060751E+01  2.6721491E+01
 1.8072250E+01  2.7671947E+01
 1.8083752E+01  2.8031542E+01
 1.8095251E+01  2.8820061E+01
 1.8106750E+01  2.8586859E+01
 1.8118252E+01  2.8663363E+01
 1.8129751E+01  2.8005095E+01
 1.8141251E+01  2.7406494E+01
 1.8152750E+01  2.6854002E+01
 1.8164251E+01  2.6114410E+01
 1.8175751E+01  2.5673655E+01
 1.8187250E+01  2.5072674E+01
 1.8198751E+01  2.4699776E+01
 1.8210251E+01  2.4524563E+01
 1.8221750E+01  2.4335167E+01
 1.8233252E+01  2.4208340E+01
 1.8244751E+01  2.4105709E+01
 1.8256250E+01  2.4044056E+01
 1.8267752E+01  2.4018074E+01
 1.8279251E+01  2.3991791E+01
 1.8290751E+01  2.4025616E+01
 1.8302252E+01  2.3974770E+01
 1.8313751E+01  2.3937784E+01
 1.8325251E+01  2.3850204E+01
 1.8336750E+01  2.3863895E+01
 1.8348251E+01  2.3859182E+01
 1.8359751E+01  2.3874075E+01
 1.8371250E+01  2.3855215E+01
 1.8382751E+01  2.3854385E+01
 1.8394251E+01  2.3887833E+01
 1.8405750E+01  2.3906044E+01
 1.8417252E+01  2.3870953E+01
 1.8428751E+01  2.3854643E+01
 1.8440250E+01  2.3833508E+01
 1.8451752E+01  2.3800198E+01
 1.8463251E+01  2.3817080E+01
 1.8474751E+01  2.3836988E+01
 1.8486252E+01  2.3841082E+01
 1.8497751E+01  2.3803509E+01
 1.8509251E+01  2.3768417E+01
 1.8520750E+01  2.3778399E+01
 1.8532251E+01  2.3746170E+01
 1.8543751E+01  2.3724009E+01
 1.8555250E+01  2.3736540E+01
 1.8566751E+01  2.3722118E+01
 1.8578251E+01  2.3739674E+01
 1.8589750E+01  2.3732887E+01
 1.8601252E+01  2.3714174E+01
 1.8612751E+01  2.3688389E+01
 1.8624250E+01  2.3631004E+01
 1.8635752E+01  2.3645136E+01
 1.8647251E+01  2.3599932E+01
 1.8658751E+01  2.3574055E+01
 1.8670252E+01  2.3567879E+01
 1.8681751E+01  2.3605392E+01
 1.8693251E+01  2.3666655E+01
 1.8704750E+01  2.3682289E+01
 1.8716251E+01  2.3711233E+01
 1.8727751E+01  2.3726931E+01
 1.8739250E+01  2.3713961E+01
 1.8750751E+01  2.3727520E+01
 1.8762251E+01  2.3714050E+01
 1.8773750E+01  2.3683521E+01
 1.8785252E+01  2.3616365E+01
 1.8796751E+01  2.3609901E+01
 1.8808250E+01  2.3569717E+01
 1.8819752E+01  2.3588867E+01
 1.8831251E+01  2.3564419E+01
 1.8842751E+01  2.3599379E+01
 1.8854252E+01  2.3529047E+01
 1.8865751E+01  2.3513559E+01
 1.8877251E+01  2.3540110E+01
 1.8888750E+01  2.3602253E+01
 1.8900251E+01  2.3635294E+01
 1.8911751E+01  2.3630495E+01
 1.8923250E+01  2.3676630E+01
 1.8934752E+01  2.3708218E+01
 1.8946251E+01  2.3740520E+01
 1.8957750E+01  2.3718786E+01
 1.8969252E+01  2.3702135E+01
 1.8980751E+01  2.3652021E+01
 1.8992250E+01  2.3652067E+01
 1.9003752E+01  2.3641878E+01
 1.9015251E+01  2.3624136E+01
 1.9026751E+01  2.3614315E+01
 1.9038252E+01  2.3596117E+01
 1.9049751E+01  2.3602077E+01
 1.9061251E+01  2.3641146E+01
 1.9072750E+01  2.3713074E+01
 1.9084251E+01  2.3782810E+01
 1.9095751E+01  2.3772608E+01
 1.9107250E+01  2.3723705E+01
 1.9118752E+01  2.3700033E+01
 1.9130251E+01  2.3700085E+01
 1.9141750E+01  2.3753134E+01
 1.9153252E+01  2.3771563E+01
 1.9164751E+01  2.3767214E+01
 1.9176250E+01  2.3732508E+01
 1.9187752E+01  2.3758665E+01
 1.9199251E+01  2.3734503E+01
 1.9210751E+01  2.3706402E+01
 1.9222252E+01  2.3619717E+01
 1.9233751E+01  2.3648697E+01
 1.9245251E+01  2.3688011E+01
 1.9256750E+01  2.3774494E+01
 1.9268251E+01  2.3747646E+01
 1.9279751E+01  2.3686110E+01
 1.9291250E+01  2.3643633E+01
 1.9302752E+01  2.3675779E+01
 1.9314251E+01  2.3718353E+01
 1.9325750E+01  2.3739626E+01
 1.9337252E+01  2.3723694E+01
 1.9348751E+01  2.3683586E+01
 1.9360250E+01  2.3642382E+01
 1.9371752E+01  2.3662121E+01
 1.9383251E+01  2.3727571E+01
 1.9394751E+01  2.3825394E+01
 1.9406250E+01  2.3877117E+01
 1.9417751E+01  2.3919174E+01
 1.9429251E+01  2.3868561E+01
 1.9440750E+01  2.3834299E+01
 1.9452251E+01  2.3766663E+01
 1.9463751E+01  2.3787325E+01
 1.9475250E+01  2.3785582E+01
 1.9486752E+01  2.3866585E+01
 1.9498251E+01  2.3874155E+01
 1.9509750E+01  2.4007269E+01
 1.9521252E+01  2.4090227E+01
 1.9532751E+01  2.4102451E+01
 1.9544250E+01  2.4068115E+01
 1.9555752E+01  2.4020681E+01
 1.9567251E+01  2.4001001E+01
 1.9578751E+01  2.3967031E+01
 1.9590250E+01  2.4017521E+01
 1.9601751E+01  2.4093746E+01
 1.9613251E+01  2.4183607E+01
 1.9624750E+01  2.4331396E+01
 1.9636251E+01  2.4551661E+01
 1.9647751E+01  2.4806507E+01
 1.9659250E+01  2.5289892E+01
 1.9670752E+01  2.5967640E+01
 1.9682251E+01  2.6725483E+01
 1.9693750E+01  2.7783365E+01
 1.9705252E+01  2.8614618E+01
 1.9716751E+01  2.9629202E+01
 1.9728251E+01  2.9829832E+01
 1.9739752E+01  2.9780155E+01
 1.9751251E+01  2.8960064E+01
 1.9762751E+01  2.7931187E+01
 1.9774250E+01  2.7026234E+01
 1.9785751E+01  2.6338516E+01
 1.9797251E+01  2.6136105E+01
 1.9808750E+01  2.6190668E+01
 1.9820251E+01  2.6439465E+01
 1.9831751E+01  2.7003769E+01
 1.9843250E+01  2.7315504E+01
 1.9854752E+01  2.7777620E+01
 1.9866251E+01  2.7688133E+01
 1.9877750E+01  2.7563440E+01
 1.9889252E+01  2.6962051E+01
 1.9900751E+01  2.6374306E+01
 1.9912251E+01  2.5799618E+01
 1.9923752E+01  2.5200947E+01
 1.9935251E+01  2.4813822E+01
 1.9946751E+01  2.4476316E+01
 1.9958250E+01  2.4245277E+01
 1.9969751E+01  2.4132145E+01
 1.9981251E+01  2.4006638E+01
 1.9992750E+01  2.3917583E+01
 2.0004251E+01  2.3847048E+01
 2.0015751E+01  2.3845272E+01
 2.0027250E+01  2.3878143E+01
 2.0038752E+01  2.3914799E+01
 2.0050251E+01  2.3924936E+01
 2.0061750E+01  2.3886824E+01
 2.0073252E+01  2.3843929E+01
 2.0084751E+01  2.3833616E+01
 2.0096251E+01  2.3836956E+01
 2.0107752E+01  2.3821733E+01
 2.0119251E+01  2.3808056E+01
 2.0130751E+01  2.3777122E+01
 2.0142250E+01  2.3801884E+01
 2.0153751E+01  2.3849407E+01
 2.0165251E+01  2.3940228E+01
 2.0176750E+01  2.3984602E+01
 2.0188251E+01  2.3997578E+01
 2.0199751E+01  2.3932316E+01
 2.0211250E+01  2.3925186E+01
 2.0222752E+01  2.3919353E+01
 2.0234251E+01  2.3952049E+01
 2.0245750E+01  2.3925016E+01
 2.0257252E+01  2.3899359E+01
 2.0268751E+01  2.3833246E+01
 2.0280251E+01  2.3846344E+01
 2.0291752E+01  2.3948755E+01
 2.0303251E+01  2.4166796E+01
 2.0314751E+01  2.4309759E+01
 2.0326250E+01  2.4382042E+01
 2.0337751E+01  2.4309069E+01
 2.0349251E+01  2.4153673E+01
 2.0360750E+01  2.3988291E+01
 2.0372252E+01  2.3849270E+01
 2.0383751E+01  2.3786274E+01
 2.0395250E+01  2.3777273E+01
 2.0406752E+01  2.3790071E+01
 2.0418251E+01  2.3843231E+01
 2.0429750E+01  2.3903719E+01
 2.0441252E+01  2.3880329E+01
 2.0452751E+01  2.3924707E+01
 2.0464251E+01  2.3902863E+01
 2.0475752E+01  2.3939501E+01
 2.0487251E+01  2.3878889E+01
 2.0498751E+01  2.3869986E+01
 2.0510250E+01  2.3865847E+01
 2.0521751E+01  2.3855362E+01
 2.0533251E+01  2.3912384E+01
 2.0544750E+01  2.3923500E+01
 2.0556252E+01  2.4017494E+01
 2.0567751E+01  2.4019705E+01
 2.0579250E+01  2.4031078E+01
 2.0590752E+01  2.4047960E+01
 2.0602251E+01  2.4093674E+01
 2.0613750E+01  2.4105225E+01
 2.0625252E+01  2.4096874E+01
 2.0636751E+01  2.4089712E+01
 2.0648251E+01  2.4053305E+01
 2.0659752E+01  2.4069300E+01
 2.0671251E+01  2.4162149E+01
 2.0682751E+01  2.4393219E+01
 2.0694250E+01  2.4678305E+01
 2.0705751E+01  2.5033623E+01
 2.0717251E+01  2.5452717E+01
 2.0728750E+01  2.5847410E+01
 2.0740252E+01  2.6247078E+01
 2.0751751E+01  2.6573761E+01
 2.0763250E+01  2.6698439E+01
 2.0774752E+01  2.6692102E+01
 2.0786251E+01  2.6316050E+01
 2.0797750E+01  2.6034901E+01
 2.0809252E+01  2.5543867E+01
 2.0820751E+01  2.5204866E+01
 2.0832251E+01  2.4808048E+01
 2.0843752E+01  2.4536644E+01
 2.0855251E+01  2.4356394E+01
 2.0866751E+01  2.4255680E+01
 2.0878250E+01  2.4150814E+01
 2.0889751E+01  2.4106905E+01
 2.0901251E+01  2.4101360E+01
 2.0912750E+01  2.4114489E+01
 2.0924252E+01  2.4115236E+01
 2.0935751E+01  2.4127182E+01
 2.0947250E+01  2.4164425E+01
 2.0958752E+01  2.4130417E+01
 2.0970251E+01  2.4094685E+01
 2.0981750E+01  2.4118719E+01
 2.0993252E+01  2.4196844E+01
 2.1004751E+01  2.4207626E+01
 2.1016251E+01  2.4186701E+01
 2.1027752E+01  2.4094877E+01
 2.1039251E+01  2.3991964E+01
 2.1050751E+01  2.3903072E+01
 2.1062250E+01  2.3914665E+01
 2.1073751E+01  2.4004499E+01
 2.1085251E+01  2.4155241E+01
 2.1096750E+01  2.4150421E+01
 2.1108252E+01  2.4154484E+01
 2.1119751E+01  2.4155668E+01
 2.1131250E+01  2.4147396E+01
 2.1142752E+01  2.4066118E+01
 2.1154251E+01  2.4002054E+01
 2.1165751E+01  2.4033455E+01
 2.1177252E+01  2.4042824E+01
 2.1188751E+01  2.4042156E+01
 2.1200251E+01  2.3996563E+01
 2.1211752E+01  2.3999714E+01
 2.1223251E+01  2.3968544E+01
 2.1234751E+01  2.3967571E+01
 2.1246250E+01  2.3935478E+01
 2.1257751E+01  2.3941114E+01
 2.1269251E+01  2.3927351E+01
 2.1280750E+01  2.3960342E+01
 2.1292252E+01  2.3963314E+01
 2.1303751E+01  2.3956924E+01
 2.1315250E+01  2.3906956E+01
 2.1326752E+01  2.3912476E+01
 2.1338251E+01  2.3937014E+01
 2.1349751E+01  2.3978685E+01
 2.1361252E+01  2.3990189E+01
 2.1372751E+01  2.3996008E+01
 2.1384251E+01  2.3953329E+01
 2.1395752E+01  2.3950455E+01
 2.1407251E+01  2.3967527E+01
 2.1418751E+01  2.4042559E+01
 2.1430250E+01  2.4081718E+01
 2.1441751E+01  2.4129690E+01
 2.1453251E+01  2.4137432E+01
 2.1464750E+01  2.4147354E+01
 2.1476252E+01  2.4146774E+01
 2.1487751E+01  2.4232113E+01
 2.1499250E+01  2.4247198E+01
 2.1510752E+01  2.4245546E+01
 2.1522251E+01  2.4200624E+01
 2.1533751E+01  2.4154339E+01
 2.1545252E+01  2.4144016E+01
 2.1556751E+01  2.4100712E+01
 2.1568251E+01  2.4119734E+01
 2.1579752E+01  2.4143242E+01
 2.1591251E+01  2.4184410E+01
 2.1602751E+01  2.4221304E+01
 2.1614250E+01  2.4199978E+01
 2.1625751E+01  2.4177696E+01
 2.1637251E+01  2.4170086E+01
 2.1648750E+01  2.4183094E+01
 2.1660252E+01  2.4228373E+01
 2.1671751E+01  2.4284695E+01
 2.1683250E+01  2.4295916E+01
 2.1694752E+01  2.4270781E+01
 2.1706251E+01  2.4272406E+01
 2.1717751E+01  2.4271959E+01
 2.1729252E+01  2.4274158E+01
 2.1740751E+01  2.4239862E+01
 2.1752251E+01  2.4226061E+01
 2.1763752E+01  2.4223885E+01
 2.1775251E+01  2.4209520E+01
 2.1786751E+01  2.4250290E+01
 2.1798250E+01  2.4263273E+01
 2.1809752E+01  2.4302677E+01
 2.1821251E+01  2.4297510E+01
 2.1832750E+01  2.4278032E+01
 2.1844252E+01  2.4282839E+01
 2.1855751E+01  2.4310640E+01
 2.1867250E+01  2.4327848E+01
 2.1878752E+01  2.4333216E+01
 2.1890251E+01  2.4310032E+01
 2.1901751E+01  2.4354664E+01
 2.1913252E+01  2.4402044E+01
 2.1924751E+01  2.4476007E+01
 2.1936251E+01  2.4487408E+01
 2.1947752E+01  2.4468616E+01
 2.1959251E+01  2.4445963E+01
 2.1970751E+01  2.4412222E+01
 2.1982250E+01  2.4356133E+01
 2.1993752E+01  2.4325104E+01
 2.2005251E+01  2.4334307E+01
 2.2016750E+01  2.4375654E+01
 2.2028252E+01  2.4393930E+01
 2.2039751E+01  2.4423727E+01
 2.2051250E+01  2.4412584E+01
 2.2062752E+01  2.4414097E+01
 2.2074251E+01  2.4494669E+01
 2.2085751E+01  2.4520672E+01
 2.2097252E+01  2.4788301E+01
 2.2108751E+01  2.4940670E+01
 2.2120251E+01  2.5033709E+01
 2.2131752E+01  2.4779648E+01
 2.2143251E+01  2.4717253E+01
 2.2154751E+01  2.4590399E+01
 2.2166250E+01  2.4467876E+01
 2.2177752E+01  2.4402205E+01
 2.2189251E+01  2.4328726E+01
 2.2200750E+01  2.4327787E+01
 2.2212252E+01  2.4371538E+01
 2.2223751E+01  2.4479643E+01
 2.2235250E+01  2.4540524E+01
 2.2246752E+01  2.4564705E+01
 2.2258251E+01  2.4521107E+01
 2.2269751E+01  2.4458265E+01
 2.2281252E+01  2.4457907E+01
 2.2292751E+01  2.4483969E+01
 2.2304251E+01  2.4525080E+01
 2.2315752E+01  2.4571001E+01
 2.2327251E+01  2.4593699E+01
 2.2338751E+01  2.4635174E+01
 2.2350250E+01  2.4653284E+01
 2.2361752E+01  2.4656818E+01
 2.2373251E+01  2.4625513E+01
 2.2384750E+01  2.4592445E+01
 2.2396252E+01  2.4540516E+01
 2.2407751E+01  2.4490599E+01
 2.2419250E+01  2.4474455E+01
 2.2430752E+01  2.4533632E+01
 2.2442251E+01  2.4650196E+01
 2.2453751E+01  2.4743893E+01
 2.2465252E+01  2.4769474E+01
 2.2476751E+01  2.4716616E+01
 2.2488251E+01  2.4697710E+01
 2.2499752E+01  2.4690338E+01
 2.2511251E+01  2.4731525E+01
 2.2522751E+01  2.4779020E+01
 2.2534250E+01  2.4871677E+01
 2.2545752E+01  2.4874155E+01
 2.2557251E+01  2.4871666E+01
 2.2568750E+01  2.4805002E+01
 2.2580252E+01  2.4812237E+01
 2.2591751E+01  2.4804358E+01
 2.2603251E+01  2.4871971E+01
 2.2614752E+01  2.4948917E+01
 2.2626251E+01  2.5039309E+01
 2.2637751E+01  2.5072603E+01
 2.2649252E+01  2.5084747E+01
 2.2660751E+01  2.5102634E+01
 2.2672251E+01  2.5122318E+01
 2.2683752E+01  2.5186218E+01
 2.2695251E+01  2.5271938E+01
 2.2706751E+01  2.5291372E+01
 2.2718250E+01  2.5309847E+01
 2.2729752E+01  2.5335714E+01
 2.2741251E+01  2.5327869E+01
 2.2752750E+01  2.5316053E+01
 2.2764252E+01  2.5337891E+01
 2.2775751E+01  2.5343828E+01
 2.2787251E+01  2.5358484E+01
 2.2798752E+01  2.5445074E+01
 2.2810251E+01  2.5563059E+01
 2.2821751E+01  2.5622498E+01
 2.2833252E+01  2.5679674E+01
 2.2844751E+01  2.5717136E+01
 2.2856251E+01  2.5797459E+01
 2.2867750E+01  2.5849291E+01
 2.2879251E+01  2.5837746E+01
 2.2890751E+01  2.5861471E+01
 2.2902250E+01  2.5892923E+01
 2.2913752E+01  2.6007378E+01
 2.2925251E+01  2.6109228E+01
 2.2936750E+01  2.6147661E+01
 2.2948252E+01  2.6164656E+01
 2.2959751E+01  2.6160164E+01
 2.2971251E+01  2.6267872E+01
 2.2982752E+01  2.6398199E+01
 2.2994251E+01  2.6526363E+01
