F:\20151113_APS_34IDE\\Brian\Particle1\OCV\Data_0085.tif
2-Theta Angle (Degrees)
Intensity
       2000
 5.7500005E-03  0.0000000E+00
 1.7250001E-02  0.0000000E+00
 2.8750001E-02  0.0000000E+00
 4.0250003E-02  0.0000000E+00
 5.1750004E-02  0.0000000E+00
 6.3250005E-02  0.0000000E+00
 7.4750006E-02  0.0000000E+00
 8.6250007E-02  0.0000000E+00
 9.7750008E-02  0.0000000E+00
 1.0925001E-01  0.0000000E+00
 1.2075000E-01  0.0000000E+00
 1.3225001E-01  0.0000000E+00
 1.4375001E-01  0.0000000E+00
 1.5525001E-01  0.0000000E+00
 1.6675001E-01  0.0000000E+00
 1.7825001E-01  0.0000000E+00
 1.8975002E-01  0.0000000E+00
 2.0125002E-01  0.0000000E+00
 2.1275002E-01  0.0000000E+00
 2.2425000E-01  0.0000000E+00
 2.3575000E-01  0.0000000E+00
 2.4725001E-01  0.0000000E+00
 2.5875002E-01  0.0000000E+00
 2.7025002E-01  0.0000000E+00
 2.8175002E-01  0.0000000E+00
 2.9325002E-01  0.0000000E+00
 3.0475003E-01  0.0000000E+00
 3.1625003E-01  0.0000000E+00
 3.2775003E-01  0.0000000E+00
 3.3925003E-01  0.0000000E+00
 3.5075003E-01  0.0000000E+00
 3.6225003E-01  0.0000000E+00
 3.7375003E-01  0.0000000E+00
 3.8525003E-01  0.0000000E+00
 3.9675003E-01  0.0000000E+00
 4.0825003E-01  0.0000000E+00
 4.1975003E-01  0.0000000E+00
 4.3125004E-01  0.0000000E+00
 4.4275001E-01  0.0000000E+00
 4.5425001E-01  0.0000000E+00
 4.6575001E-01  0.0000000E+00
 4.7725001E-01  0.0000000E+00
 4.8875001E-01  0.0000000E+00
 5.0025004E-01  0.0000000E+00
 5.1175004E-01  0.0000000E+00
 5.2325004E-01  0.0000000E+00
 5.3475004E-01  0.0000000E+00
 5.4625005E-01  0.0000000E+00
 5.5775005E-01  0.0000000E+00
 5.6925005E-01  0.0000000E+00
 5.8075005E-01  0.0000000E+00
 5.9225005E-01  0.0000000E+00
 6.0375005E-01  0.0000000E+00
 6.1525005E-01  0.0000000E+00
 6.2675005E-01  0.0000000E+00
 6.3825005E-01  0.0000000E+00
 6.4975005E-01  0.0000000E+00
 6.6125005E-01  0.0000000E+00
 6.7275006E-01  0.0000000E+00
 6.8425006E-01  0.0000000E+00
 6.9575006E-01  0.0000000E+00
 7.0725006E-01  0.0000000E+00
 7.1875006E-01  0.0000000E+00
 7.3025006E-01  0.0000000E+00
 7.4175006E-01  0.0000000E+00
 7.5325006E-01  0.0000000E+00
 7.6475006E-01  0.0000000E+00
 7.7625006E-01  0.0000000E+00
 7.8775007E-01  0.0000000E+00
 7.9925007E-01  0.0000000E+00
 8.1075007E-01  0.0000000E+00
 8.2225007E-01  0.0000000E+00
 8.3375007E-01  0.0000000E+00
 8.4525007E-01  0.0000000E+00
 8.5675007E-01  0.0000000E+00
 8.6825007E-01  0.0000000E+00
 8.7975001E-01  0.0000000E+00
 8.9125001E-01  0.0000000E+00
 9.0275002E-01  0.0000000E+00
 9.1425002E-01  0.0000000E+00
 9.2575002E-01  0.0000000E+00
 9.3725002E-01  0.0000000E+00
 9.4875002E-01  0.0000000E+00
 9.6025002E-01  0.0000000E+00
 9.7175002E-01  0.0000000E+00
 9.8325002E-01  0.0000000E+00
 9.9475002E-01  0.0000000E+00
 1.0062500E+00  0.0000000E+00
 1.0177500E+00  0.0000000E+00
 1.0292500E+00  0.0000000E+00
 1.0407500E+00  0.0000000E+00
 1.0522500E+00  0.0000000E+00
 1.0637500E+00  0.0000000E+00
 1.0752500E+00  0.0000000E+00
 1.0867500E+00  0.0000000E+00
 1.0982500E+00  0.0000000E+00
 1.1097500E+00  0.0000000E+00
 1.1212500E+00  0.0000000E+00
 1.1327500E+00  0.0000000E+00
 1.1442500E+00  0.0000000E+00
 1.1557500E+00  0.0000000E+00
 1.1672500E+00  0.0000000E+00
 1.1787500E+00  0.0000000E+00
 1.1902500E+00  0.0000000E+00
 1.2017500E+00  0.0000000E+00
 1.2132500E+00  0.0000000E+00
 1.2247500E+00  0.0000000E+00
 1.2362500E+00  0.0000000E+00
 1.2477500E+00  0.0000000E+00
 1.2592500E+00  0.0000000E+00
 1.2707500E+00  0.0000000E+00
 1.2822500E+00  0.0000000E+00
 1.2937500E+00  0.0000000E+00
 1.3052500E+00  0.0000000E+00
 1.3167500E+00  0.0000000E+00
 1.3282501E+00  0.0000000E+00
 1.3397501E+00  0.0000000E+00
 1.3512501E+00  0.0000000E+00
 1.3627501E+00  0.0000000E+00
 1.3742501E+00  0.0000000E+00
 1.3857501E+00  0.0000000E+00
 1.3972501E+00  0.0000000E+00
 1.4087501E+00  0.0000000E+00
 1.4202501E+00  0.0000000E+00
 1.4317501E+00  0.0000000E+00
 1.4432501E+00  0.0000000E+00
 1.4547501E+00  0.0000000E+00
 1.4662501E+00  0.0000000E+00
 1.4777501E+00  0.0000000E+00
 1.4892501E+00  0.0000000E+00
 1.5007501E+00  0.0000000E+00
 1.5122501E+00  0.0000000E+00
 1.5237501E+00  0.0000000E+00
 1.5352501E+00  0.0000000E+00
 1.5467501E+00  0.0000000E+00
 1.5582501E+00  0.0000000E+00
 1.5697501E+00  0.0000000E+00
 1.5812501E+00  0.0000000E+00
 1.5927501E+00  0.0000000E+00
 1.6042501E+00  0.0000000E+00
 1.6157501E+00  0.0000000E+00
 1.6272501E+00  0.0000000E+00
 1.6387501E+00  0.0000000E+00
 1.6502501E+00  0.0000000E+00
 1.6617501E+00  0.0000000E+00
 1.6732501E+00  0.0000000E+00
 1.6847501E+00  0.0000000E+00
 1.6962501E+00  0.0000000E+00
 1.7077501E+00  0.0000000E+00
 1.7192501E+00  0.0000000E+00
 1.7307501E+00  0.0000000E+00
 1.7422501E+00  0.0000000E+00
 1.7537501E+00  0.0000000E+00
 1.7652501E+00  0.0000000E+00
 1.7767501E+00  0.0000000E+00
 1.7882501E+00  0.0000000E+00
 1.7997501E+00  0.0000000E+00
 1.8112501E+00  0.0000000E+00
 1.8227501E+00  0.0000000E+00
 1.8342501E+00  0.0000000E+00
 1.8457501E+00  0.0000000E+00
 1.8572501E+00  0.0000000E+00
 1.8687501E+00  0.0000000E+00
 1.8802501E+00  0.0000000E+00
 1.8917501E+00  0.0000000E+00
 1.9032501E+00  0.0000000E+00
 1.9147501E+00  0.0000000E+00
 1.9262501E+00  0.0000000E+00
 1.9377501E+00  0.0000000E+00
 1.9492501E+00  0.0000000E+00
 1.9607501E+00  0.0000000E+00
 1.9722501E+00  0.0000000E+00
 1.9837501E+00  0.0000000E+00
 1.9952501E+00  0.0000000E+00
 2.0067501E+00  0.0000000E+00
 2.0182500E+00  0.0000000E+00
 2.0297501E+00  0.0000000E+00
 2.0412500E+00  0.0000000E+00
 2.0527501E+00  0.0000000E+00
 2.0642500E+00  0.0000000E+00
 2.0757501E+00  0.0000000E+00
 2.0872500E+00  0.0000000E+00
 2.0987501E+00  0.0000000E+00
 2.1102500E+00  0.0000000E+00
 2.1217501E+00  0.0000000E+00
 2.1332500E+00  0.0000000E+00
 2.1447501E+00  0.0000000E+00
 2.1562500E+00  0.0000000E+00
 2.1677501E+00  0.0000000E+00
 2.1792500E+00  0.0000000E+00
 2.1907501E+00  0.0000000E+00
 2.2022500E+00  0.0000000E+00
 2.2137501E+00  0.0000000E+00
 2.2252500E+00  0.0000000E+00
 2.2367501E+00  0.0000000E+00
 2.2482500E+00  0.0000000E+00
 2.2597501E+00  0.0000000E+00
 2.2712500E+00  0.0000000E+00
 2.2827501E+00  0.0000000E+00
 2.2942500E+00  0.0000000E+00
 2.3057501E+00  0.0000000E+00
 2.3172500E+00  0.0000000E+00
 2.3287501E+00  0.0000000E+00
 2.3402500E+00  0.0000000E+00
 2.3517501E+00  0.0000000E+00
 2.3632500E+00  0.0000000E+00
 2.3747501E+00  0.0000000E+00
 2.3862500E+00  0.0000000E+00
 2.3977501E+00  0.0000000E+00
 2.4092500E+00  0.0000000E+00
 2.4207501E+00  0.0000000E+00
 2.4322500E+00  0.0000000E+00
 2.4437501E+00  0.0000000E+00
 2.4552500E+00  0.0000000E+00
 2.4667501E+00  0.0000000E+00
 2.4782500E+00  0.0000000E+00
 2.4897501E+00  0.0000000E+00
 2.5012500E+00  0.0000000E+00
 2.5127501E+00  0.0000000E+00
 2.5242500E+00  0.0000000E+00
 2.5357502E+00  0.0000000E+00
 2.5472500E+00  0.0000000E+00
 2.5587502E+00  0.0000000E+00
 2.5702500E+00  0.0000000E+00
 2.5817502E+00  0.0000000E+00
 2.5932500E+00  0.0000000E+00
 2.6047502E+00  0.0000000E+00
 2.6162500E+00  0.0000000E+00
 2.6277502E+00  0.0000000E+00
 2.6392500E+00  0.0000000E+00
 2.6507502E+00  0.0000000E+00
 2.6622500E+00  0.0000000E+00
 2.6737502E+00  0.0000000E+00
 2.6852500E+00  0.0000000E+00
 2.6967502E+00  0.0000000E+00
 2.7082500E+00  0.0000000E+00
 2.7197502E+00  0.0000000E+00
 2.7312500E+00  0.0000000E+00
 2.7427502E+00  0.0000000E+00
 2.7542500E+00  0.0000000E+00
 2.7657502E+00  0.0000000E+00
 2.7772501E+00  0.0000000E+00
 2.7887502E+00  0.0000000E+00
 2.8002501E+00  0.0000000E+00
 2.8117502E+00  0.0000000E+00
 2.8232501E+00  3.2183052E+01
 2.8347502E+00  3.2842308E+01
 2.8462501E+00  3.4174610E+01
 2.8577502E+00  3.5108685E+01
 2.8692501E+00  3.5717197E+01
 2.8807502E+00  3.5883667E+01
 2.8922501E+00  3.5675743E+01
 2.9037502E+00  3.5442299E+01
 2.9152501E+00  3.4942360E+01
 2.9267502E+00  3.4627052E+01
 2.9382501E+00  3.4752766E+01
 2.9497502E+00  3.4893608E+01
 2.9612501E+00  3.4974541E+01
 2.9727502E+00  3.4695435E+01
 2.9842501E+00  3.4896961E+01
 2.9957502E+00  3.4912968E+01
 3.0072501E+00  3.5391739E+01
 3.0187502E+00  3.5651535E+01
 3.0302501E+00  3.5715481E+01
 3.0417502E+00  3.5577332E+01
 3.0532501E+00  3.5337482E+01
 3.0647502E+00  3.5076206E+01
 3.0762501E+00  3.4868534E+01
 3.0877502E+00  3.5022511E+01
 3.0992501E+00  3.5214951E+01
 3.1107502E+00  3.5457920E+01
 3.1222501E+00  3.5348385E+01
 3.1337502E+00  3.5735168E+01
 3.1452501E+00  3.6015919E+01
 3.1567502E+00  3.5913551E+01
 3.1682501E+00  3.5774357E+01
 3.1797502E+00  3.5764202E+01
 3.1912501E+00  3.5959187E+01
 3.2027502E+00  3.5906895E+01
 3.2142501E+00  3.5744282E+01
 3.2257502E+00  3.5602474E+01
 3.2372501E+00  3.5364197E+01
 3.2487502E+00  3.5124310E+01
 3.2602501E+00  3.5218704E+01
 3.2717502E+00  3.4970974E+01
 3.2832501E+00  3.4810989E+01
 3.2947502E+00  3.4367783E+01
 3.3062501E+00  3.4618511E+01
 3.3177502E+00  3.4797390E+01
 3.3292501E+00  3.5106308E+01
 3.3407502E+00  3.4973946E+01
 3.3522501E+00  3.4934345E+01
 3.3637502E+00  3.4860611E+01
 3.3752501E+00  3.4807747E+01
 3.3867502E+00  3.4788830E+01
 3.3982501E+00  3.4836166E+01
 3.4097502E+00  3.4602715E+01
 3.4212501E+00  3.4400833E+01
 3.4327502E+00  3.4153694E+01
 3.4442501E+00  3.4199780E+01
 3.4557502E+00  3.4325272E+01
 3.4672501E+00  3.4451950E+01
 3.4787502E+00  3.4626816E+01
 3.4902501E+00  3.4690865E+01
 3.5017502E+00  3.4722569E+01
 3.5132501E+00  3.4534443E+01
 3.5247502E+00  3.4407043E+01
 3.5362501E+00  3.4038696E+01
 3.5477502E+00  3.3882057E+01
 3.5592501E+00  3.3600697E+01
 3.5707502E+00  3.3705708E+01
 3.5822501E+00  3.3744106E+01
 3.5937502E+00  3.3615685E+01
 3.6052501E+00  3.3324383E+01
 3.6167502E+00  3.3001774E+01
 3.6282501E+00  3.2790955E+01
 3.6397502E+00  3.2730637E+01
 3.6512501E+00  3.2953247E+01
 3.6627502E+00  3.2955639E+01
 3.6742501E+00  3.3095734E+01
 3.6857502E+00  3.2918293E+01
 3.6972501E+00  3.2952316E+01
 3.7087502E+00  3.2883156E+01
 3.7202501E+00  3.2652519E+01
 3.7317502E+00  3.2501537E+01
 3.7432501E+00  3.2445309E+01
 3.7547503E+00  3.2498257E+01
 3.7662501E+00  3.2505363E+01
 3.7777503E+00  3.2748463E+01
 3.7892501E+00  3.2785572E+01
 3.8007503E+00  3.2852760E+01
 3.8122501E+00  3.3015636E+01
 3.8237503E+00  3.3221474E+01
 3.8352501E+00  3.3402348E+01
 3.8467503E+00  3.3243107E+01
 3.8582501E+00  3.3258488E+01
 3.8697503E+00  3.3208927E+01
 3.8812501E+00  3.3109272E+01
 3.8927503E+00  3.2740913E+01
 3.9042501E+00  3.2704464E+01
 3.9157503E+00  3.2633179E+01
 3.9272501E+00  3.2561253E+01
 3.9387503E+00  3.2524014E+01
 3.9502501E+00  3.2612343E+01
 3.9617503E+00  3.2581795E+01
 3.9732502E+00  3.2704906E+01
 3.9847503E+00  3.2492546E+01
 3.9962502E+00  3.2437653E+01
 4.0077500E+00  3.2355610E+01
 4.0192504E+00  3.2309883E+01
 4.0307503E+00  3.2457905E+01
 4.0422502E+00  3.2647877E+01
 4.0537500E+00  3.2792912E+01
 4.0652504E+00  3.3020432E+01
 4.0767503E+00  3.2919621E+01
 4.0882502E+00  3.2921577E+01
 4.0997500E+00  3.2631817E+01
 4.1112504E+00  3.2546513E+01
 4.1227503E+00  3.2332394E+01
 4.1342502E+00  3.2341717E+01
 4.1457500E+00  3.2267406E+01
 4.1572504E+00  3.2399784E+01
 4.1687503E+00  3.2443111E+01
 4.1802502E+00  3.2334522E+01
 4.1917500E+00  3.2270584E+01
 4.2032504E+00  3.2238617E+01
 4.2147503E+00  3.2276871E+01
 4.2262502E+00  3.2234894E+01
 4.2377501E+00  3.2154362E+01
 4.2492504E+00  3.2184780E+01
 4.2607503E+00  3.2102757E+01
 4.2722502E+00  3.2102612E+01
 4.2837501E+00  3.2171295E+01
 4.2952504E+00  3.2305443E+01
 4.3067503E+00  3.2432896E+01
 4.3182502E+00  3.2665279E+01
 4.3297501E+00  3.2754009E+01
 4.3412504E+00  3.2953949E+01
 4.3527503E+00  3.2834240E+01
 4.3642502E+00  3.2803093E+01
 4.3757501E+00  3.2743961E+01
 4.3872504E+00  3.2673878E+01
 4.3987503E+00  3.2761318E+01
 4.4102502E+00  3.2843357E+01
 4.4217501E+00  3.2807884E+01
 4.4332504E+00  3.2729359E+01
 4.4447503E+00  3.2631596E+01
 4.4562502E+00  3.2660698E+01
 4.4677501E+00  3.2684841E+01
 4.4792504E+00  3.2692303E+01
 4.4907503E+00  3.2640007E+01
 4.5022502E+00  3.2699745E+01
 4.5137501E+00  3.2695240E+01
 4.5252504E+00  3.2910572E+01
 4.5367503E+00  3.2873249E+01
 4.5482502E+00  3.3007904E+01
 4.5597501E+00  3.2904202E+01
 4.5712504E+00  3.3018177E+01
 4.5827503E+00  3.2876102E+01
 4.5942502E+00  3.2811630E+01
 4.6057501E+00  3.2667580E+01
 4.6172504E+00  3.2704506E+01
 4.6287503E+00  3.2701336E+01
 4.6402502E+00  3.2657391E+01
 4.6517501E+00  3.2618309E+01
 4.6632504E+00  3.2573151E+01
 4.6747503E+00  3.2660477E+01
 4.6862502E+00  3.2697353E+01
 4.6977501E+00  3.2803837E+01
 4.7092505E+00  3.2781612E+01
 4.7207503E+00  3.2767570E+01
 4.7322502E+00  3.2655930E+01
 4.7437501E+00  3.2477543E+01
 4.7552505E+00  3.2392056E+01
 4.7667503E+00  3.2337261E+01
 4.7782502E+00  3.2329300E+01
 4.7897501E+00  3.2285362E+01
 4.8012505E+00  3.2207157E+01
 4.8127503E+00  3.2247829E+01
 4.8242502E+00  3.2216408E+01
 4.8357501E+00  3.2285336E+01
 4.8472505E+00  3.2355072E+01
 4.8587503E+00  3.2595570E+01
 4.8702502E+00  3.2771591E+01
 4.8817501E+00  3.2923779E+01
 4.8932505E+00  3.2861324E+01
 4.9047503E+00  3.2945377E+01
 4.9162502E+00  3.2983673E+01
 4.9277501E+00  3.3009857E+01
 4.9392505E+00  3.3002453E+01
 4.9507504E+00  3.2981136E+01
 4.9622502E+00  3.3038734E+01
 4.9737501E+00  3.3136868E+01
 4.9852505E+00  3.3242577E+01
 4.9967504E+00  3.3305500E+01
 5.0082502E+00  3.3422569E+01
 5.0197501E+00  3.3369141E+01
 5.0312505E+00  3.3442032E+01
 5.0427504E+00  3.3300789E+01
 5.0542502E+00  3.3272320E+01
 5.0657501E+00  3.3290882E+01
 5.0772505E+00  3.3236263E+01
 5.0887504E+00  3.3264610E+01
 5.1002502E+00  3.3197910E+01
 5.1117501E+00  3.3305695E+01
 5.1232505E+00  3.3370155E+01
 5.1347504E+00  3.3671978E+01
 5.1462502E+00  3.3864059E+01
 5.1577501E+00  3.4008701E+01
 5.1692505E+00  3.4109680E+01
 5.1807504E+00  3.4054398E+01
 5.1922503E+00  3.4166492E+01
 5.2037501E+00  3.4136135E+01
 5.2152505E+00  3.4086761E+01
 5.2267504E+00  3.4091724E+01
 5.2382503E+00  3.4029610E+01
 5.2497501E+00  3.4194546E+01
 5.2612505E+00  3.4311584E+01
 5.2727504E+00  3.4205151E+01
 5.2842503E+00  3.4207569E+01
 5.2957501E+00  3.4240665E+01
 5.3072500E+00  3.4313618E+01
 5.3187504E+00  3.4390682E+01
 5.3302503E+00  3.4348862E+01
 5.3417501E+00  3.4465275E+01
 5.3532500E+00  3.4447319E+01
 5.3647504E+00  3.4562744E+01
 5.3762503E+00  3.4659004E+01
 5.3877501E+00  3.4841957E+01
 5.3992500E+00  3.4818455E+01
 5.4107504E+00  3.4779217E+01
 5.4222503E+00  3.4787128E+01
 5.4337502E+00  3.4744442E+01
 5.4452500E+00  3.4871597E+01
 5.4567504E+00  3.4908684E+01
 5.4682503E+00  3.4955151E+01
 5.4797502E+00  3.4993195E+01
 5.4912500E+00  3.4994732E+01
 5.5027504E+00  3.5083797E+01
 5.5142503E+00  3.5071423E+01
 5.5257502E+00  3.5029961E+01
 5.5372500E+00  3.4912357E+01
 5.5487504E+00  3.4831661E+01
 5.5602503E+00  3.4932602E+01
 5.5717502E+00  3.5051731E+01
 5.5832500E+00  3.5180481E+01
 5.5947504E+00  3.5279758E+01
 5.6062503E+00  3.5306782E+01
 5.6177502E+00  3.5407040E+01
 5.6292500E+00  3.5437981E+01
 5.6407504E+00  3.5472725E+01
 5.6522503E+00  3.5469910E+01
 5.6637502E+00  3.5514534E+01
 5.6752501E+00  3.5620544E+01
 5.6867504E+00  3.5753578E+01
 5.6982503E+00  3.5849430E+01
 5.7097502E+00  3.5954800E+01
 5.7212501E+00  3.6031090E+01
 5.7327504E+00  3.6112659E+01
 5.7442503E+00  3.6106468E+01
 5.7557502E+00  3.6137482E+01
 5.7672501E+00  3.6078556E+01
 5.7787504E+00  3.6032539E+01
 5.7902503E+00  3.6006744E+01
 5.8017502E+00  3.5945049E+01
 5.8132501E+00  3.6041267E+01
 5.8247504E+00  3.6036331E+01
 5.8362503E+00  3.6142357E+01
 5.8477502E+00  3.6232716E+01
 5.8592501E+00  3.6328960E+01
 5.8707504E+00  3.6420296E+01
 5.8822503E+00  3.6618965E+01
 5.8937502E+00  3.6902420E+01
 5.9052501E+00  3.7375908E+01
 5.9167504E+00  3.7870678E+01
 5.9282503E+00  3.9268284E+01
 5.9397502E+00  4.0252510E+01
 5.9512501E+00  4.5135830E+01
 5.9627504E+00  4.8089798E+01
 5.9742503E+00  5.0911800E+01
 5.9857502E+00  5.6632610E+01
 5.9972501E+00  5.6722736E+01
 6.0087504E+00  5.5982182E+01
 6.0202503E+00  5.1686123E+01
 6.0317502E+00  4.7111759E+01
 6.0432501E+00  4.5150356E+01
 6.0547504E+00  3.9843235E+01
 6.0662503E+00  3.8977917E+01
 6.0777502E+00  3.8248165E+01
 6.0892501E+00  3.7784645E+01
 6.1007504E+00  3.7607525E+01
 6.1122503E+00  3.7523079E+01
 6.1237502E+00  3.7412598E+01
 6.1352501E+00  3.7315708E+01
 6.1467505E+00  3.7146004E+01
 6.1582503E+00  3.7030098E+01
 6.1697502E+00  3.7017849E+01
 6.1812501E+00  3.7062275E+01
 6.1927505E+00  3.7119247E+01
 6.2042503E+00  3.7137638E+01
 6.2157502E+00  3.7312031E+01
 6.2272501E+00  3.7352558E+01
 6.2387505E+00  3.7375763E+01
 6.2502503E+00  3.7437546E+01
 6.2617502E+00  3.7526306E+01
 6.2732501E+00  3.7675766E+01
 6.2847505E+00  3.7747166E+01
 6.2962503E+00  3.7718300E+01
 6.3077502E+00  3.7779972E+01
 6.3192501E+00  3.7771473E+01
 6.3307505E+00  3.7870014E+01
 6.3422503E+00  3.7950504E+01
 6.3537502E+00  3.8068516E+01
 6.3652501E+00  3.8243702E+01
 6.3767505E+00  3.8352699E+01
 6.3882504E+00  3.8523323E+01
 6.3997502E+00  3.8600697E+01
 6.4112501E+00  3.8708645E+01
 6.4227505E+00  3.8705505E+01
 6.4342504E+00  3.8776028E+01
 6.4457502E+00  3.8847790E+01
 6.4572501E+00  3.8808811E+01
 6.4687505E+00  3.8805176E+01
 6.4802504E+00  3.8746906E+01
 6.4917502E+00  3.8844650E+01
 6.5032501E+00  3.8964188E+01
 6.5147505E+00  3.9120331E+01
 6.5262504E+00  3.9204708E+01
 6.5377502E+00  3.9356911E+01
 6.5492501E+00  3.9477947E+01
 6.5607505E+00  3.9653286E+01
 6.5722504E+00  3.9628773E+01
 6.5837502E+00  3.9593140E+01
 6.5952501E+00  3.9579250E+01
 6.6067505E+00  3.9602318E+01
 6.6182504E+00  3.9641491E+01
 6.6297503E+00  3.9694977E+01
 6.6412501E+00  3.9833546E+01
 6.6527505E+00  4.0015640E+01
 6.6642504E+00  4.0150097E+01
 6.6757503E+00  4.0178043E+01
 6.6872501E+00  4.0266586E+01
 6.6987505E+00  4.0295986E+01
 6.7102504E+00  4.0363289E+01
 6.7217503E+00  4.0515614E+01
 6.7332501E+00  4.0633499E+01
 6.7447505E+00  4.0795261E+01
 6.7562504E+00  4.0905552E+01
 6.7677503E+00  4.0994617E+01
 6.7792501E+00  4.1226444E+01
 6.7907505E+00  4.1311424E+01
 6.8022504E+00  4.1446186E+01
 6.8137503E+00  4.1576279E+01
 6.8252501E+00  4.1655376E+01
 6.8367505E+00  4.1735401E+01
 6.8482504E+00  4.1760654E+01
 6.8597503E+00  4.1851128E+01
 6.8712502E+00  4.1898514E+01
 6.8827505E+00  4.1931606E+01
 6.8942504E+00  4.1989120E+01
 6.9057503E+00  4.2024498E+01
 6.9172502E+00  4.2027546E+01
 6.9287505E+00  4.1903416E+01
 6.9402504E+00  4.1852444E+01
 6.9517503E+00  4.1930042E+01
 6.9632502E+00  4.1939438E+01
 6.9747505E+00  4.2110542E+01
 6.9862504E+00  4.2204422E+01
 6.9977503E+00  4.2440845E+01
 7.0092502E+00  4.2508972E+01
 7.0207505E+00  4.2502182E+01
 7.0322504E+00  4.2601528E+01
 7.0437503E+00  4.2702602E+01
 7.0552502E+00  4.2851048E+01
 7.0667505E+00  4.2858482E+01
 7.0782504E+00  4.2849789E+01
 7.0897503E+00  4.2903244E+01
 7.1012502E+00  4.2933155E+01
 7.1127505E+00  4.3049728E+01
 7.1242504E+00  4.3223419E+01
 7.1357503E+00  4.3361435E+01
 7.1472502E+00  4.3477081E+01
 7.1587505E+00  4.3476067E+01
 7.1702504E+00  4.3478790E+01
 7.1817503E+00  4.3500591E+01
 7.1932502E+00  4.3620934E+01
 7.2047505E+00  4.3745510E+01
 7.2162504E+00  4.3771473E+01
 7.2277503E+00  4.3796581E+01
 7.2392502E+00  4.3691067E+01
 7.2507505E+00  4.3714172E+01
 7.2622504E+00  4.3610184E+01
 7.2737503E+00  4.3707378E+01
 7.2852502E+00  4.3745201E+01
 7.2967505E+00  4.3792316E+01
 7.3082504E+00  4.3912750E+01
 7.3197503E+00  4.4029087E+01
 7.3312502E+00  4.4092350E+01
 7.3427505E+00  4.4059258E+01
 7.3542504E+00  4.3975082E+01
 7.3657503E+00  4.4048069E+01
 7.3772502E+00  4.4016430E+01
 7.3887506E+00  4.4097683E+01
 7.4002504E+00  4.4088764E+01
 7.4117503E+00  4.4214802E+01
 7.4232502E+00  4.4359970E+01
 7.4347506E+00  4.4377754E+01
 7.4462504E+00  4.4446999E+01
 7.4577503E+00  4.4431396E+01
 7.4692502E+00  4.4431118E+01
 7.4807506E+00  4.4438942E+01
 7.4922504E+00  4.4441616E+01
 7.5037503E+00  4.4569801E+01
 7.5152502E+00  4.4607426E+01
 7.5267506E+00  4.4678585E+01
 7.5382504E+00  4.4722752E+01
 7.5497503E+00  4.4707146E+01
 7.5612502E+00  4.4726822E+01
 7.5727506E+00  4.4685871E+01
 7.5842505E+00  4.4656349E+01
 7.5957503E+00  4.4656937E+01
 7.6072502E+00  4.4663551E+01
 7.6187506E+00  4.4670769E+01
 7.6302505E+00  4.4600433E+01
 7.6417503E+00  4.4539623E+01
 7.6532502E+00  4.4545483E+01
 7.6647506E+00  4.4469215E+01
 7.6762505E+00  4.4421753E+01
 7.6877503E+00  4.4278233E+01
 7.6992502E+00  4.4263443E+01
 7.7107506E+00  4.4250431E+01
 7.7222505E+00  4.4293011E+01
 7.7337503E+00  4.4241299E+01
 7.7452502E+00  4.4251129E+01
 7.7567506E+00  4.4214653E+01
 7.7682505E+00  4.4233658E+01
 7.7797503E+00  4.4173012E+01
 7.7912502E+00  4.4226948E+01
 7.8027506E+00  4.4267540E+01
 7.8142505E+00  4.4264908E+01
 7.8257504E+00  4.4241119E+01
 7.8372502E+00  4.4247398E+01
 7.8487506E+00  4.4157425E+01
 7.8602505E+00  4.4169479E+01
 7.8717504E+00  4.4081543E+01
 7.8832502E+00  4.4087101E+01
 7.8947506E+00  4.3999741E+01
 7.9062505E+00  4.3906052E+01
 7.9177504E+00  4.3853771E+01
 7.9292502E+00  4.3772865E+01
 7.9407506E+00  4.3836170E+01
 7.9522505E+00  4.3839180E+01
 7.9637504E+00  4.3867153E+01
 7.9752502E+00  4.3805691E+01
 7.9867506E+00  4.3770195E+01
 7.9982505E+00  4.3733948E+01
 8.0097504E+00  4.3657368E+01
 8.0212507E+00  4.3516914E+01
 8.0327501E+00  4.3340019E+01
 8.0442505E+00  4.3144833E+01
 8.0557508E+00  4.3073463E+01
 8.0672503E+00  4.2986145E+01
 8.0787506E+00  4.2982838E+01
 8.0902500E+00  4.2969284E+01
 8.1017504E+00  4.2998962E+01
 8.1132507E+00  4.2887966E+01
 8.1247501E+00  4.2717827E+01
 8.1362505E+00  4.2567474E+01
 8.1477509E+00  4.2427532E+01
 8.1592503E+00  4.2377483E+01
 8.1707506E+00  4.2269955E+01
 8.1822500E+00  4.2237003E+01
 8.1937504E+00  4.2174042E+01
 8.2052507E+00  4.2075089E+01
 8.2167501E+00  4.1991215E+01
 8.2282505E+00  4.1887581E+01
 8.2397509E+00  4.1778252E+01
 8.2512503E+00  4.1689014E+01
 8.2627506E+00  4.1486465E+01
 8.2742500E+00  4.1326157E+01
 8.2857504E+00  4.1154015E+01
 8.2972507E+00  4.1011711E+01
 8.3087502E+00  4.0786942E+01
 8.3202505E+00  4.0619774E+01
 8.3317509E+00  4.0477966E+01
 8.3432503E+00  4.0378422E+01
 8.3547506E+00  4.0232761E+01
 8.3662500E+00  4.0156101E+01
 8.3777504E+00  4.0019978E+01
 8.3892508E+00  3.9886662E+01
 8.4007502E+00  3.9690075E+01
 8.4122505E+00  3.9619339E+01
 8.4237509E+00  3.9421940E+01
 8.4352503E+00  3.9254456E+01
 8.4467506E+00  3.8957603E+01
 8.4582500E+00  3.8773273E+01
 8.4697504E+00  3.8558342E+01
 8.4812508E+00  3.8390930E+01
 8.4927502E+00  3.8224297E+01
 8.5042505E+00  3.8103966E+01
 8.5157509E+00  3.8033722E+01
 8.5272503E+00  3.7958214E+01
 8.5387506E+00  3.7767952E+01
 8.5502501E+00  3.7552444E+01
 8.5617504E+00  3.7337791E+01
 8.5732508E+00  3.7196491E+01
 8.5847502E+00  3.6939270E+01
 8.5962505E+00  3.6744625E+01
 8.6077509E+00  3.6474171E+01
 8.6192503E+00  3.6386082E+01
 8.6307507E+00  3.6140343E+01
 8.6422501E+00  3.6032028E+01
 8.6537504E+00  3.5793373E+01
 8.6652508E+00  3.5685635E+01
 8.6767502E+00  3.5509670E+01
 8.6882505E+00  3.5349571E+01
 8.6997509E+00  3.5219261E+01
 8.7112503E+00  3.4962322E+01
 8.7227507E+00  3.4753334E+01
 8.7342501E+00  3.4437943E+01
 8.7457504E+00  3.4208176E+01
 8.7572508E+00  3.4028034E+01
 8.7687502E+00  3.3870186E+01
 8.7802505E+00  3.3713394E+01
 8.7917500E+00  3.3578224E+01
 8.8032503E+00  3.3441929E+01
 8.8147507E+00  3.3351231E+01
 8.8262501E+00  3.3184650E+01
 8.8377504E+00  3.3050179E+01
 8.8492508E+00  3.2999073E+01
 8.8607502E+00  3.2934898E+01
 8.8722506E+00  3.2846218E+01
 8.8837500E+00  3.2691044E+01
 8.8952503E+00  3.2501301E+01
 8.9067507E+00  3.2379803E+01
 8.9182501E+00  3.2181271E+01
 8.9297504E+00  3.2086506E+01
 8.9412508E+00  3.1898104E+01
 8.9527502E+00  3.1782455E+01
 8.9642506E+00  3.1548479E+01
 8.9757500E+00  3.1330050E+01
 8.9872503E+00  3.1047367E+01
 8.9987507E+00  3.0847168E+01
 9.0102501E+00  3.0696541E+01
 9.0217505E+00  3.0571602E+01
 9.0332508E+00  3.0531208E+01
 9.0447502E+00  3.0515293E+01
 9.0562506E+00  3.0421141E+01
 9.0677500E+00  3.0392138E+01
 9.0792503E+00  3.0262182E+01
 9.0907507E+00  3.0204721E+01
 9.1022501E+00  3.0002146E+01
 9.1137505E+00  2.9844519E+01
 9.1252508E+00  2.9678514E+01
 9.1367502E+00  2.9517584E+01
 9.1482506E+00  2.9402143E+01
 9.1597500E+00  2.9278292E+01
 9.1712503E+00  2.9155846E+01
 9.1827507E+00  2.9030621E+01
 9.1942501E+00  2.8875277E+01
 9.2057505E+00  2.8742085E+01
 9.2172508E+00  2.8685884E+01
 9.2287502E+00  2.8522835E+01
 9.2402506E+00  2.8515200E+01
 9.2517500E+00  2.8331606E+01
 9.2632504E+00  2.8331318E+01
 9.2747507E+00  2.8206467E+01
 9.2862501E+00  2.8170731E+01
 9.2977505E+00  2.8055143E+01
 9.3092508E+00  2.7920630E+01
 9.3207502E+00  2.7737701E+01
 9.3322506E+00  2.7651403E+01
 9.3437500E+00  2.7521688E+01
 9.3552504E+00  2.7397520E+01
 9.3667507E+00  2.7294451E+01
 9.3782501E+00  2.7262995E+01
 9.3897505E+00  2.7270536E+01
 9.4012508E+00  2.7256918E+01
 9.4127502E+00  2.7187349E+01
 9.4242506E+00  2.7112177E+01
 9.4357500E+00  2.6999662E+01
 9.4472504E+00  2.6872459E+01
 9.4587507E+00  2.6788523E+01
 9.4702501E+00  2.6708246E+01
 9.4817505E+00  2.6691847E+01
 9.4932508E+00  2.6649651E+01
 9.5047503E+00  2.6508247E+01
 9.5162506E+00  2.6394186E+01
 9.5277500E+00  2.6312372E+01
 9.5392504E+00  2.6263021E+01
 9.5507507E+00  2.6114273E+01
 9.5622501E+00  2.5989973E+01
 9.5737505E+00  2.5848717E+01
 9.5852509E+00  2.5839481E+01
 9.5967503E+00  2.5845522E+01
 9.6082506E+00  2.5929609E+01
 9.6197500E+00  2.5998314E+01
 9.6312504E+00  2.5966902E+01
 9.6427507E+00  2.5860104E+01
 9.6542501E+00  2.5722643E+01
 9.6657505E+00  2.5595482E+01
 9.6772509E+00  2.5506908E+01
 9.6887503E+00  2.5433571E+01
 9.7002506E+00  2.5437572E+01
 9.7117500E+00  2.5462236E+01
 9.7232504E+00  2.5525795E+01
 9.7347507E+00  2.5530163E+01
 9.7462502E+00  2.5536816E+01
 9.7577505E+00  2.5465805E+01
 9.7692509E+00  2.5351332E+01
 9.7807503E+00  2.5280109E+01
 9.7922506E+00  2.5161318E+01
 9.8037500E+00  2.5103470E+01
 9.8152504E+00  2.4994514E+01
 9.8267508E+00  2.4973324E+01
 9.8382502E+00  2.4990679E+01
 9.8497505E+00  2.5043058E+01
 9.8612509E+00  2.5042988E+01
 9.8727503E+00  2.5024929E+01
 9.8842506E+00  2.4910339E+01
 9.8957500E+00  2.4885036E+01
 9.9072504E+00  2.4801092E+01
 9.9187508E+00  2.4781086E+01
 9.9302502E+00  2.4658510E+01
 9.9417505E+00  2.4591948E+01
 9.9532509E+00  2.4538078E+01
 9.9647503E+00  2.4549572E+01
 9.9762506E+00  2.4548460E+01
 9.9877501E+00  2.4547953E+01
 9.9992504E+00  2.4535988E+01
 1.0010751E+01  2.4552210E+01
 1.0022250E+01  2.4508286E+01
 1.0033751E+01  2.4476992E+01
 1.0045251E+01  2.4357077E+01
 1.0056750E+01  2.4275515E+01
 1.0068251E+01  2.4225128E+01
 1.0079750E+01  2.4230566E+01
 1.0091250E+01  2.4215120E+01
 1.0102751E+01  2.4231026E+01
 1.0114250E+01  2.4144676E+01
 1.0125751E+01  2.4180269E+01
 1.0137251E+01  2.4075186E+01
 1.0148750E+01  2.4115910E+01
 1.0160251E+01  2.4156496E+01
 1.0171750E+01  2.4183571E+01
 1.0183250E+01  2.4206827E+01
 1.0194751E+01  2.4078823E+01
 1.0206250E+01  2.4067373E+01
 1.0217751E+01  2.4002050E+01
 1.0229251E+01  2.3967329E+01
 1.0240750E+01  2.3916666E+01
 1.0252251E+01  2.3828590E+01
 1.0263750E+01  2.3826578E+01
 1.0275250E+01  2.3789663E+01
 1.0286751E+01  2.3808710E+01
 1.0298250E+01  2.3815216E+01
 1.0309751E+01  2.3823776E+01
 1.0321251E+01  2.3766468E+01
 1.0332750E+01  2.3730469E+01
 1.0344251E+01  2.3688696E+01
 1.0355750E+01  2.3711472E+01
 1.0367250E+01  2.3686842E+01
 1.0378751E+01  2.3660450E+01
 1.0390250E+01  2.3660530E+01
 1.0401751E+01  2.3581575E+01
 1.0413251E+01  2.3519896E+01
 1.0424750E+01  2.3423555E+01
 1.0436251E+01  2.3416895E+01
 1.0447750E+01  2.3387993E+01
 1.0459250E+01  2.3386278E+01
 1.0470751E+01  2.3402941E+01
 1.0482250E+01  2.3435282E+01
 1.0493751E+01  2.3474936E+01
 1.0505251E+01  2.3438572E+01
 1.0516750E+01  2.3506138E+01
 1.0528251E+01  2.3425953E+01
 1.0539750E+01  2.3401457E+01
 1.0551250E+01  2.3310961E+01
 1.0562751E+01  2.3344839E+01
 1.0574250E+01  2.3284883E+01
 1.0585751E+01  2.3246504E+01
 1.0597251E+01  2.3163895E+01
 1.0608750E+01  2.3186369E+01
 1.0620251E+01  2.3174040E+01
 1.0631750E+01  2.3176455E+01
 1.0643250E+01  2.3128548E+01
 1.0654751E+01  2.3099060E+01
 1.0666250E+01  2.3092693E+01
 1.0677751E+01  2.3089371E+01
 1.0689251E+01  2.3089069E+01
 1.0700750E+01  2.3076075E+01
 1.0712251E+01  2.3095201E+01
 1.0723750E+01  2.3049438E+01
 1.0735250E+01  2.3019180E+01
 1.0746751E+01  2.2967899E+01
 1.0758250E+01  2.2946554E+01
 1.0769751E+01  2.2880854E+01
 1.0781251E+01  2.2909800E+01
 1.0792750E+01  2.2914917E+01
 1.0804251E+01  2.2962132E+01
 1.0815750E+01  2.2960957E+01
 1.0827250E+01  2.2975908E+01
 1.0838751E+01  2.2979860E+01
 1.0850250E+01  2.2964870E+01
 1.0861751E+01  2.2962990E+01
 1.0873251E+01  2.2959251E+01
 1.0884750E+01  2.2906971E+01
 1.0896251E+01  2.2848843E+01
 1.0907750E+01  2.2856861E+01
 1.0919250E+01  2.2855728E+01
 1.0930751E+01  2.2908438E+01
 1.0942250E+01  2.2886930E+01
 1.0953751E+01  2.2887918E+01
 1.0965251E+01  2.2859196E+01
 1.0976750E+01  2.2860945E+01
 1.0988251E+01  2.2843958E+01
 1.0999750E+01  2.2835110E+01
 1.1011250E+01  2.2789801E+01
 1.1022751E+01  2.2701344E+01
 1.1034250E+01  2.2633127E+01
 1.1045751E+01  2.2545391E+01
 1.1057251E+01  2.2526833E+01
 1.1068750E+01  2.2508718E+01
 1.1080251E+01  2.2492037E+01
 1.1091750E+01  2.2518076E+01
 1.1103251E+01  2.2523533E+01
 1.1114751E+01  2.2640015E+01
 1.1126250E+01  2.2685427E+01
 1.1137751E+01  2.2725178E+01
 1.1149251E+01  2.2708185E+01
 1.1160750E+01  2.2734119E+01
 1.1172251E+01  2.2721914E+01
 1.1183750E+01  2.2713961E+01
 1.1195251E+01  2.2696156E+01
 1.1206751E+01  2.2689802E+01
 1.1218250E+01  2.2614294E+01
 1.1229751E+01  2.2572517E+01
 1.1241251E+01  2.2527054E+01
 1.1252750E+01  2.2530640E+01
 1.1264251E+01  2.2528076E+01
 1.1275750E+01  2.2560997E+01
 1.1287251E+01  2.2549229E+01
 1.1298751E+01  2.2604040E+01
 1.1310250E+01  2.2634424E+01
 1.1321751E+01  2.2730209E+01
 1.1333251E+01  2.2747925E+01
 1.1344750E+01  2.2736347E+01
 1.1356251E+01  2.2749416E+01
 1.1367750E+01  2.2810421E+01
 1.1379251E+01  2.2849894E+01
 1.1390751E+01  2.2910725E+01
 1.1402250E+01  2.2989208E+01
 1.1413751E+01  2.3037397E+01
 1.1425251E+01  2.2995506E+01
 1.1436750E+01  2.2953873E+01
 1.1448251E+01  2.2975727E+01
 1.1459750E+01  2.3064341E+01
 1.1471251E+01  2.3135618E+01
 1.1482751E+01  2.3274794E+01
 1.1494250E+01  2.3494020E+01
 1.1505751E+01  2.4000828E+01
 1.1517251E+01  2.4687166E+01
 1.1528750E+01  2.5870384E+01
 1.1540251E+01  2.7815735E+01
 1.1551750E+01  2.9582142E+01
 1.1563251E+01  3.1794117E+01
 1.1574751E+01  3.3791183E+01
 1.1586250E+01  3.4152874E+01
 1.1597751E+01  3.3890869E+01
 1.1609251E+01  3.1954283E+01
 1.1620750E+01  3.0509462E+01
 1.1632251E+01  2.8535557E+01
 1.1643750E+01  2.6609707E+01
 1.1655251E+01  2.5440985E+01
 1.1666751E+01  2.4201586E+01
 1.1678250E+01  2.3598625E+01
 1.1689751E+01  2.3322042E+01
 1.1701251E+01  2.3022194E+01
 1.1712750E+01  2.2885633E+01
 1.1724251E+01  2.2736809E+01
 1.1735750E+01  2.2685507E+01
 1.1747251E+01  2.2685936E+01
 1.1758751E+01  2.2713787E+01
 1.1770250E+01  2.2718313E+01
 1.1781751E+01  2.2707020E+01
 1.1793251E+01  2.2670824E+01
 1.1804750E+01  2.2726269E+01
 1.1816251E+01  2.2715000E+01
 1.1827750E+01  2.2755045E+01
 1.1839251E+01  2.2748590E+01
 1.1850751E+01  2.2690168E+01
 1.1862250E+01  2.2711309E+01
 1.1873751E+01  2.2731100E+01
 1.1885251E+01  2.2809910E+01
 1.1896750E+01  2.2749237E+01
 1.1908251E+01  2.2703161E+01
 1.1919750E+01  2.2687048E+01
 1.1931251E+01  2.2763447E+01
 1.1942751E+01  2.2822983E+01
 1.1954250E+01  2.2893835E+01
 1.1965751E+01  2.2946997E+01
 1.1977251E+01  2.3014406E+01
 1.1988750E+01  2.3072039E+01
 1.2000251E+01  2.3115360E+01
 1.2011750E+01  2.3120085E+01
 1.2023251E+01  2.3187080E+01
 1.2034751E+01  2.3252789E+01
 1.2046250E+01  2.3442333E+01
 1.2057751E+01  2.3929527E+01
 1.2069251E+01  2.4338364E+01
 1.2080750E+01  2.4882620E+01
 1.2092251E+01  2.5216194E+01
 1.2103750E+01  2.5361652E+01
 1.2115251E+01  2.5309389E+01
 1.2126751E+01  2.4807989E+01
 1.2138250E+01  2.4352064E+01
 1.2149751E+01  2.3760691E+01
 1.2161251E+01  2.3317511E+01
 1.2172750E+01  2.3039520E+01
 1.2184251E+01  2.2845404E+01
 1.2195750E+01  2.2803339E+01
 1.2207251E+01  2.2771595E+01
 1.2218751E+01  2.2772860E+01
 1.2230250E+01  2.2828037E+01
 1.2241751E+01  2.2800463E+01
 1.2253251E+01  2.2779058E+01
 1.2264750E+01  2.2704166E+01
 1.2276251E+01  2.2676933E+01
 1.2287750E+01  2.2692360E+01
 1.2299251E+01  2.2696011E+01
 1.2310751E+01  2.2773464E+01
 1.2322250E+01  2.2750256E+01
 1.2333751E+01  2.2774158E+01
 1.2345250E+01  2.2687836E+01
 1.2356750E+01  2.2678684E+01
 1.2368251E+01  2.2632093E+01
 1.2379750E+01  2.2647505E+01
 1.2391251E+01  2.2632475E+01
 1.2402751E+01  2.2626879E+01
 1.2414250E+01  2.2638805E+01
 1.2425751E+01  2.2673845E+01
 1.2437250E+01  2.2732813E+01
 1.2448750E+01  2.2764305E+01
 1.2460251E+01  2.2768517E+01
 1.2471750E+01  2.2718075E+01
 1.2483251E+01  2.2725996E+01
 1.2494751E+01  2.2711237E+01
 1.2506250E+01  2.2748077E+01
 1.2517751E+01  2.2743082E+01
 1.2529250E+01  2.2833864E+01
 1.2540751E+01  2.2871954E+01
 1.2552251E+01  2.2962275E+01
 1.2563750E+01  2.2998394E+01
 1.2575251E+01  2.3000189E+01
 1.2586751E+01  2.3006319E+01
 1.2598250E+01  2.2954885E+01
 1.2609751E+01  2.2966108E+01
 1.2621250E+01  2.2926834E+01
 1.2632751E+01  2.2954519E+01
 1.2644251E+01  2.2897694E+01
 1.2655750E+01  2.2893202E+01
 1.2667251E+01  2.2898767E+01
 1.2678751E+01  2.2943314E+01
 1.2690250E+01  2.2927694E+01
 1.2701751E+01  2.2917721E+01
 1.2713250E+01  2.3013201E+01
 1.2724751E+01  2.3061945E+01
 1.2736251E+01  2.3046741E+01
 1.2747750E+01  2.3051945E+01
 1.2759251E+01  2.3062931E+01
 1.2770751E+01  2.3064108E+01
 1.2782250E+01  2.3100752E+01
 1.2793751E+01  2.3101175E+01
 1.2805250E+01  2.3176399E+01
 1.2816751E+01  2.3129478E+01
 1.2828251E+01  2.3190342E+01
 1.2839750E+01  2.3216536E+01
 1.2851251E+01  2.3313847E+01
 1.2862751E+01  2.3341768E+01
 1.2874250E+01  2.3448538E+01
 1.2885751E+01  2.3548508E+01
 1.2897250E+01  2.3686184E+01
 1.2908751E+01  2.3794052E+01
 1.2920251E+01  2.3796848E+01
 1.2931750E+01  2.3835781E+01
 1.2943251E+01  2.3838907E+01
 1.2954751E+01  2.3880604E+01
 1.2966250E+01  2.3966528E+01
 1.2977751E+01  2.4005959E+01
 1.2989250E+01  2.4074703E+01
 1.3000751E+01  2.4095825E+01
 1.3012251E+01  2.4157238E+01
 1.3023750E+01  2.4204779E+01
 1.3035251E+01  2.4263136E+01
 1.3046751E+01  2.4292219E+01
 1.3058250E+01  2.4375324E+01
 1.3069751E+01  2.4444092E+01
 1.3081250E+01  2.4554029E+01
 1.3092751E+01  2.4652504E+01
 1.3104251E+01  2.4792881E+01
 1.3115750E+01  2.4936144E+01
 1.3127251E+01  2.5049349E+01
 1.3138751E+01  2.5151545E+01
 1.3150250E+01  2.5273106E+01
 1.3161751E+01  2.5439230E+01
 1.3173250E+01  2.5623095E+01
 1.3184751E+01  2.5761570E+01
 1.3196251E+01  2.5888149E+01
 1.3207750E+01  2.6002644E+01
 1.3219251E+01  2.6153427E+01
 1.3230751E+01  2.6327772E+01
 1.3242250E+01  2.6476791E+01
 1.3253751E+01  2.6606007E+01
 1.3265250E+01  2.6818989E+01
 1.3276751E+01  2.7007751E+01
 1.3288251E+01  2.7209152E+01
 1.3299750E+01  2.7314310E+01
 1.3311251E+01  2.7380604E+01
 1.3322751E+01  2.7494843E+01
 1.3334250E+01  2.7634186E+01
 1.3345751E+01  2.7805998E+01
 1.3357250E+01  2.7979006E+01
 1.3368751E+01  2.8046545E+01
 1.3380251E+01  2.8231537E+01
 1.3391750E+01  2.8356609E+01
 1.3403251E+01  2.8534992E+01
 1.3414751E+01  2.8630413E+01
 1.3426250E+01  2.8747288E+01
 1.3437751E+01  2.8843058E+01
 1.3449250E+01  2.8921764E+01
 1.3460751E+01  2.9033766E+01
 1.3472251E+01  2.9078140E+01
 1.3483750E+01  2.9209646E+01
 1.3495251E+01  2.9241116E+01
 1.3506751E+01  2.9397612E+01
 1.3518250E+01  2.9421356E+01
 1.3529751E+01  2.9579651E+01
 1.3541250E+01  2.9686140E+01
 1.3552751E+01  2.9806995E+01
 1.3564251E+01  2.9792181E+01
 1.3575750E+01  2.9846762E+01
 1.3587251E+01  2.9887630E+01
 1.3598751E+01  2.9975195E+01
 1.3610250E+01  2.9958742E+01
 1.3621751E+01  2.9990095E+01
 1.3633250E+01  3.0011213E+01
 1.3644751E+01  3.0026110E+01
 1.3656251E+01  3.0043549E+01
 1.3667750E+01  3.0046484E+01
 1.3679251E+01  3.0001047E+01
 1.3690751E+01  2.9929993E+01
 1.3702250E+01  2.9859455E+01
 1.3713751E+01  2.9871408E+01
 1.3725250E+01  2.9808966E+01
 1.3736751E+01  2.9816612E+01
 1.3748251E+01  2.9848688E+01
 1.3759750E+01  2.9893982E+01
 1.3771251E+01  2.9890409E+01
 1.3782751E+01  2.9854477E+01
 1.3794250E+01  2.9882986E+01
 1.3805751E+01  2.9938974E+01
 1.3817250E+01  3.0024586E+01
 1.3828751E+01  3.0084139E+01
 1.3840251E+01  3.0219036E+01
 1.3851750E+01  3.0445314E+01
 1.3863251E+01  3.0819170E+01
 1.3874751E+01  3.1414404E+01
 1.3886250E+01  3.2360119E+01
 1.3897751E+01  3.4079308E+01
 1.3909250E+01  3.6893787E+01
 1.3920751E+01  4.0960491E+01
 1.3932251E+01  4.7106598E+01
 1.3943750E+01  5.3025261E+01
 1.3955251E+01  6.0744305E+01
 1.3966751E+01  6.4825600E+01
 1.3978251E+01  6.4436615E+01
 1.3989751E+01  5.7566017E+01
 1.4001250E+01  4.9209034E+01
 1.4012751E+01  4.1471882E+01
 1.4024251E+01  3.6044724E+01
 1.4035750E+01  3.2539577E+01
 1.4047251E+01  3.0853485E+01
 1.4058751E+01  2.9770613E+01
 1.4070251E+01  2.9194063E+01
 1.4081751E+01  2.8814739E+01
 1.4093250E+01  2.8550310E+01
 1.4104751E+01  2.8304819E+01
 1.4116251E+01  2.8094656E+01
 1.4127750E+01  2.7876453E+01
 1.4139251E+01  2.7760736E+01
 1.4150751E+01  2.7619564E+01
 1.4162251E+01  2.7554922E+01
 1.4173751E+01  2.7434141E+01
 1.4185250E+01  2.7372641E+01
 1.4196751E+01  2.7263821E+01
 1.4208251E+01  2.7123804E+01
 1.4219750E+01  2.6957029E+01
 1.4231251E+01  2.6835478E+01
 1.4242751E+01  2.6796951E+01
 1.4254251E+01  2.6797029E+01
 1.4265751E+01  2.6761915E+01
 1.4277250E+01  2.6725296E+01
 1.4288751E+01  2.6684654E+01
 1.4300251E+01  2.6613211E+01
 1.4311750E+01  2.6491438E+01
 1.4323251E+01  2.6312992E+01
 1.4334751E+01  2.6234043E+01
 1.4346251E+01  2.6231361E+01
 1.4357751E+01  2.6298388E+01
 1.4369250E+01  2.6345005E+01
 1.4380751E+01  2.6337332E+01
 1.4392251E+01  2.6300240E+01
 1.4403750E+01  2.6236414E+01
 1.4415251E+01  2.6185461E+01
 1.4426751E+01  2.6086285E+01
 1.4438251E+01  2.6003191E+01
 1.4449751E+01  2.5938307E+01
 1.4461250E+01  2.5870522E+01
 1.4472751E+01  2.5791595E+01
 1.4484251E+01  2.5774712E+01
 1.4495750E+01  2.5743803E+01
 1.4507251E+01  2.5749292E+01
 1.4518751E+01  2.5663433E+01
 1.4530251E+01  2.5628410E+01
 1.4541751E+01  2.5597544E+01
 1.4553250E+01  2.5616915E+01
 1.4564751E+01  2.5641127E+01
 1.4576251E+01  2.5615866E+01
 1.4587750E+01  2.5538042E+01
 1.4599251E+01  2.5489140E+01
 1.4610751E+01  2.5417133E+01
 1.4622251E+01  2.5452404E+01
 1.4633751E+01  2.5446239E+01
 1.4645250E+01  2.5556442E+01
 1.4656751E+01  2.5543463E+01
 1.4668251E+01  2.5505541E+01
 1.4679750E+01  2.5422897E+01
 1.4691251E+01  2.5415333E+01
 1.4702751E+01  2.5395792E+01
 1.4714251E+01  2.5357189E+01
 1.4725751E+01  2.5335991E+01
 1.4737250E+01  2.5316021E+01
 1.4748751E+01  2.5265375E+01
 1.4760251E+01  2.5205441E+01
 1.4771750E+01  2.5113873E+01
 1.4783251E+01  2.5091291E+01
 1.4794751E+01  2.5070122E+01
 1.4806251E+01  2.5099306E+01
 1.4817751E+01  2.5108046E+01
 1.4829250E+01  2.5137108E+01
 1.4840751E+01  2.5173666E+01
 1.4852251E+01  2.5183884E+01
 1.4863750E+01  2.5163776E+01
 1.4875251E+01  2.5136600E+01
 1.4886751E+01  2.5165180E+01
 1.4898251E+01  2.5170958E+01
 1.4909751E+01  2.5159498E+01
 1.4921250E+01  2.5113018E+01
 1.4932751E+01  2.5094942E+01
 1.4944251E+01  2.5069052E+01
 1.4955750E+01  2.5078587E+01
 1.4967251E+01  2.5062826E+01
 1.4978751E+01  2.5029936E+01
 1.4990251E+01  2.4972742E+01
 1.5001751E+01  2.4948549E+01
 1.5013250E+01  2.4997707E+01
 1.5024751E+01  2.5024904E+01
 1.5036251E+01  2.5038620E+01
 1.5047750E+01  2.5036879E+01
 1.5059251E+01  2.5054512E+01
 1.5070751E+01  2.5131044E+01
 1.5082251E+01  2.5203424E+01
 1.5093751E+01  2.5323860E+01
 1.5105250E+01  2.5470798E+01
 1.5116751E+01  2.5816832E+01
 1.5128251E+01  2.6399591E+01
 1.5139750E+01  2.7559181E+01
 1.5151251E+01  2.8773537E+01
 1.5162751E+01  3.1391260E+01
 1.5174251E+01  3.2581116E+01
 1.5185751E+01  3.4744621E+01
 1.5197250E+01  3.4062119E+01
 1.5208751E+01  3.4013321E+01
 1.5220251E+01  3.1436186E+01
 1.5231750E+01  2.9997976E+01
 1.5243251E+01  2.8026926E+01
 1.5254751E+01  2.6997545E+01
 1.5266251E+01  2.6091728E+01
 1.5277751E+01  2.5598112E+01
 1.5289250E+01  2.5252323E+01
 1.5300751E+01  2.5088102E+01
 1.5312251E+01  2.4992599E+01
 1.5323750E+01  2.4922001E+01
 1.5335251E+01  2.4911989E+01
 1.5346751E+01  2.4848841E+01
 1.5358251E+01  2.4864895E+01
 1.5369751E+01  2.4833830E+01
 1.5381250E+01  2.4851427E+01
 1.5392751E+01  2.4809195E+01
 1.5404251E+01  2.4830505E+01
 1.5415751E+01  2.4807362E+01
 1.5427251E+01  2.4834524E+01
 1.5438751E+01  2.4798895E+01
 1.5450251E+01  2.4777880E+01
 1.5461751E+01  2.4729166E+01
 1.5473250E+01  2.4696775E+01
 1.5484751E+01  2.4699802E+01
 1.5496251E+01  2.4689432E+01
 1.5507751E+01  2.4687845E+01
 1.5519251E+01  2.4719288E+01
 1.5530751E+01  2.4753771E+01
 1.5542251E+01  2.4770098E+01
 1.5553751E+01  2.4745867E+01
 1.5565250E+01  2.4719004E+01
 1.5576751E+01  2.4702774E+01
 1.5588251E+01  2.4653654E+01
 1.5599751E+01  2.4640814E+01
 1.5611251E+01  2.4644287E+01
 1.5622751E+01  2.4660820E+01
 1.5634251E+01  2.4628368E+01
 1.5645751E+01  2.4664810E+01
 1.5657250E+01  2.4701220E+01
 1.5668751E+01  2.4726103E+01
 1.5680251E+01  2.4713100E+01
 1.5691751E+01  2.4698532E+01
 1.5703251E+01  2.4719723E+01
 1.5714751E+01  2.4736488E+01
 1.5726251E+01  2.4780012E+01
 1.5737751E+01  2.4735378E+01
 1.5749250E+01  2.4698698E+01
 1.5760751E+01  2.4668692E+01
 1.5772251E+01  2.4732504E+01
 1.5783751E+01  2.4760740E+01
 1.5795251E+01  2.4726168E+01
 1.5806751E+01  2.4757536E+01
 1.5818251E+01  2.4694368E+01
 1.5829751E+01  2.4707594E+01
 1.5841250E+01  2.4655968E+01
 1.5852751E+01  2.4739691E+01
 1.5864251E+01  2.4763287E+01
 1.5875751E+01  2.4769369E+01
 1.5887251E+01  2.4775219E+01
 1.5898750E+01  2.4750313E+01
 1.5910251E+01  2.4725254E+01
 1.5921751E+01  2.4656733E+01
 1.5933250E+01  2.4628725E+01
 1.5944751E+01  2.4547468E+01
 1.5956251E+01  2.4547527E+01
 1.5967751E+01  2.4586678E+01
 1.5979251E+01  2.4665857E+01
 1.5990750E+01  2.4721092E+01
 1.6002251E+01  2.4721786E+01
 1.6013750E+01  2.4764692E+01
 1.6025251E+01  2.4808750E+01
 1.6036751E+01  2.4852690E+01
 1.6048250E+01  2.4868361E+01
 1.6059752E+01  2.4909033E+01
 1.6071251E+01  2.4910740E+01
 1.6082750E+01  2.4938938E+01
 1.6094252E+01  2.4952742E+01
 1.6105751E+01  2.5043348E+01
 1.6117250E+01  2.5061346E+01
 1.6128750E+01  2.5051954E+01
 1.6140251E+01  2.5080692E+01
 1.6151751E+01  2.5085342E+01
 1.6163250E+01  2.5071531E+01
 1.6174751E+01  2.4981421E+01
 1.6186251E+01  2.5077803E+01
 1.6197750E+01  2.5027142E+01
 1.6209251E+01  2.5206297E+01
 1.6220751E+01  2.5157043E+01
 1.6232250E+01  2.5318232E+01
 1.6243752E+01  2.5296860E+01
 1.6255251E+01  2.5389732E+01
 1.6266750E+01  2.5532497E+01
 1.6278252E+01  2.5420317E+01
 1.6289751E+01  2.5562452E+01
 1.6301250E+01  2.5220982E+01
 1.6312750E+01  2.5326637E+01
 1.6324251E+01  2.5011795E+01
 1.6335751E+01  2.5009775E+01
 1.6347250E+01  2.4802727E+01
 1.6358751E+01  2.4719301E+01
 1.6370251E+01  2.4622267E+01
 1.6381750E+01  2.4601231E+01
 1.6393251E+01  2.4629646E+01
 1.6404751E+01  2.4704769E+01
 1.6416250E+01  2.4759151E+01
 1.6427752E+01  2.4773268E+01
 1.6439251E+01  2.4780214E+01
 1.6450750E+01  2.4749115E+01
 1.6462252E+01  2.4751572E+01
 1.6473751E+01  2.4746988E+01
 1.6485250E+01  2.4839849E+01
 1.6496750E+01  2.4896248E+01
 1.6508251E+01  2.4891745E+01
 1.6519751E+01  2.4834257E+01
 1.6531250E+01  2.4794483E+01
 1.6542751E+01  2.4828621E+01
 1.6554251E+01  2.4806452E+01
 1.6565750E+01  2.4816263E+01
 1.6577251E+01  2.4782219E+01
 1.6588751E+01  2.4785793E+01
 1.6600250E+01  2.4768471E+01
 1.6611752E+01  2.4762642E+01
 1.6623251E+01  2.4740421E+01
 1.6634750E+01  2.4700254E+01
 1.6646252E+01  2.4723347E+01
 1.6657751E+01  2.4671999E+01
 1.6669250E+01  2.4658882E+01
 1.6680750E+01  2.4576328E+01
 1.6692251E+01  2.4608873E+01
 1.6703751E+01  2.4607708E+01
 1.6715250E+01  2.4621355E+01
 1.6726751E+01  2.4561934E+01
 1.6738251E+01  2.4519995E+01
 1.6749750E+01  2.4495802E+01
 1.6761251E+01  2.4433006E+01
 1.6772751E+01  2.4429111E+01
 1.6784250E+01  2.4429165E+01
 1.6795752E+01  2.4476360E+01
 1.6807251E+01  2.4484753E+01
 1.6818750E+01  2.4461727E+01
 1.6830252E+01  2.4446632E+01
 1.6841751E+01  2.4386852E+01
 1.6853251E+01  2.4466360E+01
 1.6864750E+01  2.4476185E+01
 1.6876251E+01  2.4534462E+01
 1.6887751E+01  2.4508646E+01
 1.6899250E+01  2.4491693E+01
 1.6910751E+01  2.4485954E+01
 1.6922251E+01  2.4582012E+01
 1.6933750E+01  2.4779264E+01
 1.6945251E+01  2.4840712E+01
 1.6956751E+01  2.4847576E+01
 1.6968250E+01  2.4673527E+01
 1.6979752E+01  2.4618444E+01
 1.6991251E+01  2.4469221E+01
 1.7002750E+01  2.4419094E+01
 1.7014252E+01  2.4415377E+01
 1.7025751E+01  2.4375032E+01
 1.7037251E+01  2.4368088E+01
 1.7048750E+01  2.4275721E+01
 1.7060251E+01  2.4267946E+01
 1.7071751E+01  2.4258003E+01
 1.7083250E+01  2.4288027E+01
 1.7094751E+01  2.4296652E+01
 1.7106251E+01  2.4296070E+01
 1.7117750E+01  2.4260092E+01
 1.7129251E+01  2.4273336E+01
 1.7140751E+01  2.4256643E+01
 1.7152250E+01  2.4249123E+01
 1.7163752E+01  2.4222057E+01
 1.7175251E+01  2.4221813E+01
 1.7186750E+01  2.4207806E+01
 1.7198252E+01  2.4182076E+01
 1.7209751E+01  2.4131910E+01
 1.7221251E+01  2.4128038E+01
 1.7232750E+01  2.4119541E+01
 1.7244251E+01  2.4142689E+01
 1.7255751E+01  2.4107748E+01
 1.7267250E+01  2.4101370E+01
 1.7278751E+01  2.4076843E+01
 1.7290251E+01  2.4051758E+01
 1.7301750E+01  2.4119820E+01
 1.7313251E+01  2.4178329E+01
 1.7324751E+01  2.4271990E+01
 1.7336250E+01  2.4247887E+01
 1.7347752E+01  2.4226164E+01
 1.7359251E+01  2.4167419E+01
 1.7370750E+01  2.4155470E+01
 1.7382252E+01  2.4177387E+01
 1.7393751E+01  2.4179266E+01
 1.7405251E+01  2.4120228E+01
 1.7416750E+01  2.4059311E+01
 1.7428251E+01  2.4021015E+01
 1.7439751E+01  2.3963383E+01
 1.7451250E+01  2.3976093E+01
 1.7462751E+01  2.4006124E+01
 1.7474251E+01  2.4126095E+01
 1.7485750E+01  2.4170486E+01
 1.7497252E+01  2.4156813E+01
 1.7508751E+01  2.4126451E+01
 1.7520250E+01  2.4031223E+01
 1.7531752E+01  2.3960957E+01
 1.7543251E+01  2.3919727E+01
 1.7554750E+01  2.3899450E+01
 1.7566252E+01  2.3907557E+01
 1.7577751E+01  2.3903545E+01
 1.7589251E+01  2.3886734E+01
 1.7600750E+01  2.3905252E+01
 1.7612251E+01  2.3890352E+01
 1.7623751E+01  2.3950264E+01
 1.7635250E+01  2.3923018E+01
 1.7646751E+01  2.3915934E+01
 1.7658251E+01  2.3840305E+01
 1.7669750E+01  2.3872597E+01
 1.7681252E+01  2.3891640E+01
 1.7692751E+01  2.3955647E+01
 1.7704250E+01  2.3886673E+01
 1.7715752E+01  2.3898739E+01
 1.7727251E+01  2.3895006E+01
 1.7738750E+01  2.3943554E+01
 1.7750252E+01  2.3967297E+01
 1.7761751E+01  2.3989290E+01
 1.7773251E+01  2.4058950E+01
 1.7784750E+01  2.4070515E+01
 1.7796251E+01  2.4084904E+01
 1.7807751E+01  2.4029129E+01
 1.7819250E+01  2.3948387E+01
 1.7830751E+01  2.3909615E+01
 1.7842251E+01  2.3848562E+01
 1.7853750E+01  2.3882172E+01
 1.7865252E+01  2.3861511E+01
 1.7876751E+01  2.3863329E+01
 1.7888250E+01  2.3795923E+01
 1.7899752E+01  2.3767046E+01
 1.7911251E+01  2.3833281E+01
 1.7922750E+01  2.3912138E+01
 1.7934252E+01  2.3988653E+01
 1.7945751E+01  2.4020294E+01
 1.7957251E+01  2.4084606E+01
 1.7968750E+01  2.4188023E+01
 1.7980251E+01  2.4365496E+01
 1.7991751E+01  2.4688608E+01
 1.8003250E+01  2.5034979E+01
 1.8014751E+01  2.5348989E+01
 1.8026251E+01  2.5564007E+01
 1.8037750E+01  2.5612564E+01
 1.8049252E+01  2.5571205E+01
 1.8060751E+01  2.5437523E+01
 1.8072250E+01  2.5358959E+01
 1.8083752E+01  2.5377558E+01
 1.8095251E+01  2.5440351E+01
 1.8106750E+01  2.5465517E+01
 1.8118252E+01  2.5399910E+01
 1.8129751E+01  2.5247303E+01
 1.8141251E+01  2.5028166E+01
 1.8152750E+01  2.4827175E+01
 1.8164251E+01  2.4639071E+01
 1.8175751E+01  2.4478151E+01
 1.8187250E+01  2.4283318E+01
 1.8198751E+01  2.4172035E+01
 1.8210251E+01  2.4099239E+01
 1.8221750E+01  2.4022596E+01
 1.8233252E+01  2.3968130E+01
 1.8244751E+01  2.3891216E+01
 1.8256250E+01  2.3853071E+01
 1.8267752E+01  2.3841661E+01
 1.8279251E+01  2.3875439E+01
 1.8290751E+01  2.3869997E+01
 1.8302252E+01  2.3830750E+01
 1.8313751E+01  2.3790709E+01
 1.8325251E+01  2.3799112E+01
 1.8336750E+01  2.3801517E+01
 1.8348251E+01  2.3785473E+01
 1.8359751E+01  2.3768015E+01
 1.8371250E+01  2.3729509E+01
 1.8382751E+01  2.3710325E+01
 1.8394251E+01  2.3733994E+01
 1.8405750E+01  2.3759230E+01
 1.8417252E+01  2.3739122E+01
 1.8428751E+01  2.3661623E+01
 1.8440250E+01  2.3615984E+01
 1.8451752E+01  2.3582228E+01
 1.8463251E+01  2.3593334E+01
 1.8474751E+01  2.3614521E+01
 1.8486252E+01  2.3638474E+01
 1.8497751E+01  2.3661304E+01
 1.8509251E+01  2.3678465E+01
 1.8520750E+01  2.3665554E+01
 1.8532251E+01  2.3665485E+01
 1.8543751E+01  2.3655254E+01
 1.8555250E+01  2.3642063E+01
 1.8566751E+01  2.3617237E+01
 1.8578251E+01  2.3609985E+01
 1.8589750E+01  2.3641197E+01
 1.8601252E+01  2.3668255E+01
 1.8612751E+01  2.3673666E+01
 1.8624250E+01  2.3645592E+01
 1.8635752E+01  2.3606419E+01
 1.8647251E+01  2.3588560E+01
 1.8658751E+01  2.3578123E+01
 1.8670252E+01  2.3606050E+01
 1.8681751E+01  2.3608435E+01
 1.8693251E+01  2.3600163E+01
 1.8704750E+01  2.3625299E+01
 1.8716251E+01  2.3629898E+01
 1.8727751E+01  2.3657009E+01
 1.8739250E+01  2.3661385E+01
 1.8750751E+01  2.3690193E+01
 1.8762251E+01  2.3693678E+01
 1.8773750E+01  2.3661686E+01
 1.8785252E+01  2.3660774E+01
 1.8796751E+01  2.3621824E+01
 1.8808250E+01  2.3644270E+01
 1.8819752E+01  2.3647152E+01
 1.8831251E+01  2.3652914E+01
 1.8842751E+01  2.3675406E+01
 1.8854252E+01  2.3686127E+01
 1.8865751E+01  2.3669596E+01
 1.8877251E+01  2.3623186E+01
 1.8888750E+01  2.3596161E+01
 1.8900251E+01  2.3605112E+01
 1.8911751E+01  2.3621122E+01
 1.8923250E+01  2.3674129E+01
 1.8934752E+01  2.3755360E+01
 1.8946251E+01  2.3808201E+01
 1.8957750E+01  2.3764973E+01
 1.8969252E+01  2.3645508E+01
 1.8980751E+01  2.3575739E+01
 1.8992250E+01  2.3541580E+01
 1.9003752E+01  2.3577187E+01
 1.9015251E+01  2.3610554E+01
 1.9026751E+01  2.3655655E+01
 1.9038252E+01  2.3652578E+01
 1.9049751E+01  2.3638453E+01
 1.9061251E+01  2.3635469E+01
 1.9072750E+01  2.3669701E+01
 1.9084251E+01  2.3708839E+01
 1.9095751E+01  2.3708979E+01
 1.9107250E+01  2.3677774E+01
 1.9118752E+01  2.3649103E+01
 1.9130251E+01  2.3664549E+01
 1.9141750E+01  2.3703159E+01
 1.9153252E+01  2.3756369E+01
 1.9164751E+01  2.3745956E+01
 1.9176250E+01  2.3727716E+01
 1.9187752E+01  2.3702982E+01
 1.9199251E+01  2.3751677E+01
 1.9210751E+01  2.3836740E+01
 1.9222252E+01  2.3830791E+01
 1.9233751E+01  2.3862562E+01
 1.9245251E+01  2.3837610E+01
 1.9256750E+01  2.3935102E+01
 1.9268251E+01  2.3862614E+01
 1.9279751E+01  2.3830854E+01
 1.9291250E+01  2.3833796E+01
 1.9302752E+01  2.3850052E+01
 1.9314251E+01  2.3968369E+01
 1.9325750E+01  2.3911657E+01
 1.9337252E+01  2.3917957E+01
 1.9348751E+01  2.3805401E+01
 1.9360250E+01  2.3789949E+01
 1.9371752E+01  2.3789692E+01
 1.9383251E+01  2.3745932E+01
 1.9394751E+01  2.3743389E+01
 1.9406250E+01  2.3743544E+01
 1.9417751E+01  2.3770067E+01
 1.9429251E+01  2.3781788E+01
 1.9440750E+01  2.3784485E+01
 1.9452251E+01  2.3823269E+01
 1.9463751E+01  2.3835665E+01
 1.9475250E+01  2.3852245E+01
 1.9486752E+01  2.3878513E+01
 1.9498251E+01  2.3903572E+01
 1.9509750E+01  2.3935249E+01
 1.9521252E+01  2.3977385E+01
 1.9532751E+01  2.4032122E+01
 1.9544250E+01  2.4110178E+01
 1.9555752E+01  2.4130272E+01
 1.9567251E+01  2.4142975E+01
 1.9578751E+01  2.4168516E+01
 1.9590250E+01  2.4224276E+01
 1.9601751E+01  2.4319138E+01
 1.9613251E+01  2.4493214E+01
 1.9624750E+01  2.4753164E+01
 1.9636251E+01  2.5141888E+01
 1.9647751E+01  2.5578077E+01
 1.9659250E+01  2.6178335E+01
 1.9670752E+01  2.6909473E+01
 1.9682251E+01  2.7818972E+01
 1.9693750E+01  2.8843983E+01
 1.9705252E+01  2.9491480E+01
 1.9716751E+01  2.9942860E+01
 1.9728251E+01  2.9993988E+01
 1.9739752E+01  2.9570812E+01
 1.9751251E+01  2.8859274E+01
 1.9762751E+01  2.8188427E+01
 1.9774250E+01  2.8109320E+01
 1.9785751E+01  2.8345156E+01
 1.9797251E+01  2.9531784E+01
 1.9808750E+01  3.1966812E+01
 1.9820251E+01  3.4418335E+01
 1.9831751E+01  3.7678555E+01
 1.9843250E+01  3.9634560E+01
 1.9854752E+01  4.1191071E+01
 1.9866251E+01  4.0057331E+01
 1.9877750E+01  3.8713940E+01
 1.9889252E+01  3.5885868E+01
 1.9900751E+01  3.2691326E+01
 1.9912251E+01  3.0118872E+01
 1.9923752E+01  2.8001465E+01
 1.9935251E+01  2.6592434E+01
 1.9946751E+01  2.5747765E+01
 1.9958250E+01  2.5281380E+01
 1.9969751E+01  2.5023317E+01
 1.9981251E+01  2.4826506E+01
 1.9992750E+01  2.4729185E+01
 2.0004251E+01  2.4584429E+01
 2.0015751E+01  2.4488386E+01
 2.0027250E+01  2.4380009E+01
 2.0038752E+01  2.4282251E+01
 2.0050251E+01  2.4195549E+01
 2.0061750E+01  2.4088655E+01
 2.0073252E+01  2.4000502E+01
 2.0084751E+01  2.3987177E+01
 2.0096251E+01  2.4031893E+01
 2.0107752E+01  2.4045750E+01
 2.0119251E+01  2.4062546E+01
 2.0130751E+01  2.4083172E+01
 2.0142250E+01  2.4070734E+01
 2.0153751E+01  2.4043291E+01
 2.0165251E+01  2.4033140E+01
 2.0176750E+01  2.4045298E+01
 2.0188251E+01  2.4031012E+01
 2.0199751E+01  2.3979986E+01
 2.0211250E+01  2.3941734E+01
 2.0222752E+01  2.3941530E+01
 2.0234251E+01  2.3932013E+01
 2.0245750E+01  2.3967356E+01
 2.0257252E+01  2.3957188E+01
 2.0268751E+01  2.3937725E+01
 2.0280251E+01  2.3856440E+01
 2.0291752E+01  2.3789106E+01
 2.0303251E+01  2.3679295E+01
 2.0314751E+01  2.3646967E+01
 2.0326250E+01  2.3666300E+01
 2.0337751E+01  2.3740458E+01
 2.0349251E+01  2.3793148E+01
 2.0360750E+01  2.3834959E+01
 2.0372252E+01  2.3851601E+01
 2.0383751E+01  2.3808687E+01
 2.0395250E+01  2.3811825E+01
 2.0406752E+01  2.3801105E+01
 2.0418251E+01  2.3809145E+01
 2.0429750E+01  2.3847340E+01
 2.0441252E+01  2.3885620E+01
 2.0452751E+01  2.3911232E+01
 2.0464251E+01  2.3879349E+01
 2.0475752E+01  2.3863705E+01
 2.0487251E+01  2.3804386E+01
 2.0498751E+01  2.3840931E+01
 2.0510250E+01  2.3832634E+01
 2.0521751E+01  2.3847662E+01
 2.0533251E+01  2.3834341E+01
 2.0544750E+01  2.3859964E+01
 2.0556252E+01  2.3919569E+01
 2.0567751E+01  2.3935795E+01
 2.0579250E+01  2.3983053E+01
 2.0590752E+01  2.4026903E+01
 2.0602251E+01  2.4069960E+01
 2.0613750E+01  2.4072556E+01
 2.0625252E+01  2.4055805E+01
 2.0636751E+01  2.4034235E+01
 2.0648251E+01  2.4016062E+01
 2.0659752E+01  2.4069263E+01
 2.0671251E+01  2.4246080E+01
 2.0682751E+01  2.4434628E+01
 2.0694250E+01  2.4758661E+01
 2.0705751E+01  2.5093641E+01
 2.0717251E+01  2.5621943E+01
 2.0728750E+01  2.6115995E+01
 2.0740252E+01  2.6405756E+01
 2.0751751E+01  2.6791262E+01
 2.0763250E+01  2.6730486E+01
 2.0774752E+01  2.6694496E+01
 2.0786251E+01  2.6195826E+01
 2.0797750E+01  2.5829330E+01
 2.0809252E+01  2.5400070E+01
 2.0820751E+01  2.4938650E+01
 2.0832251E+01  2.4674587E+01
 2.0843752E+01  2.4373953E+01
 2.0855251E+01  2.4291349E+01
 2.0866751E+01  2.4197317E+01
 2.0878250E+01  2.4154263E+01
 2.0889751E+01  2.4111429E+01
 2.0901251E+01  2.4109228E+01
 2.0912750E+01  2.4153666E+01
 2.0924252E+01  2.4259991E+01
 2.0935751E+01  2.4291744E+01
 2.0947250E+01  2.4269314E+01
 2.0958752E+01  2.4257849E+01
 2.0970251E+01  2.4350536E+01
 2.0981750E+01  2.4387251E+01
 2.0993252E+01  2.4309023E+01
 2.1004751E+01  2.4146566E+01
 2.1016251E+01  2.4175753E+01
 2.1027752E+01  2.4126320E+01
 2.1039251E+01  2.4138561E+01
 2.1050751E+01  2.4092178E+01
 2.1062250E+01  2.4020737E+01
 2.1073751E+01  2.3949226E+01
 2.1085251E+01  2.3937378E+01
 2.1096750E+01  2.3954067E+01
 2.1108252E+01  2.4038839E+01
 2.1119751E+01  2.4106907E+01
 2.1131250E+01  2.4130920E+01
 2.1142752E+01  2.4073627E+01
 2.1154251E+01  2.4027397E+01
 2.1165751E+01  2.4036407E+01
 2.1177252E+01  2.4068419E+01
 2.1188751E+01  2.4032522E+01
 2.1200251E+01  2.4007826E+01
 2.1211752E+01  2.4050900E+01
 2.1223251E+01  2.4031885E+01
 2.1234751E+01  2.4030037E+01
 2.1246250E+01  2.4012878E+01
 2.1257751E+01  2.4018011E+01
 2.1269251E+01  2.3972385E+01
 2.1280750E+01  2.3957497E+01
 2.1292252E+01  2.4007904E+01
 2.1303751E+01  2.3993509E+01
 2.1315250E+01  2.3948647E+01
 2.1326752E+01  2.3880365E+01
 2.1338251E+01  2.3859951E+01
 2.1349751E+01  2.3889839E+01
 2.1361252E+01  2.3901945E+01
 2.1372751E+01  2.3993843E+01
 2.1384251E+01  2.4000858E+01
 2.1395752E+01  2.4072941E+01
 2.1407251E+01  2.4077896E+01
 2.1418751E+01  2.4139231E+01
 2.1430250E+01  2.4109486E+01
 2.1441751E+01  2.4068638E+01
 2.1453251E+01  2.4019405E+01
 2.1464750E+01  2.4006721E+01
 2.1476252E+01  2.3965698E+01
 2.1487751E+01  2.4056746E+01
 2.1499250E+01  2.4068350E+01
 2.1510752E+01  2.4093781E+01
 2.1522251E+01  2.4049358E+01
 2.1533751E+01  2.4071814E+01
 2.1545252E+01  2.4035942E+01
 2.1556751E+01  2.4006617E+01
 2.1568251E+01  2.3958321E+01
 2.1579752E+01  2.3967571E+01
 2.1591251E+01  2.4013542E+01
 2.1602751E+01  2.4081018E+01
 2.1614250E+01  2.4126741E+01
 2.1625751E+01  2.4203234E+01
 2.1637251E+01  2.4210106E+01
 2.1648750E+01  2.4231256E+01
 2.1660252E+01  2.4261194E+01
 2.1671751E+01  2.4256388E+01
 2.1683250E+01  2.4210777E+01
 2.1694752E+01  2.4149261E+01
 2.1706251E+01  2.4130873E+01
 2.1717751E+01  2.4145824E+01
 2.1729252E+01  2.4200825E+01
 2.1740751E+01  2.4235123E+01
 2.1752251E+01  2.4218508E+01
 2.1763752E+01  2.4175003E+01
 2.1775251E+01  2.4154951E+01
 2.1786751E+01  2.4176054E+01
 2.1798250E+01  2.4179110E+01
 2.1809752E+01  2.4211014E+01
 2.1821251E+01  2.4218586E+01
 2.1832750E+01  2.4179945E+01
 2.1844252E+01  2.4140667E+01
 2.1855751E+01  2.4140377E+01
 2.1867250E+01  2.4152775E+01
 2.1878752E+01  2.4163113E+01
 2.1890251E+01  2.4181307E+01
 2.1901751E+01  2.4250275E+01
 2.1913252E+01  2.4313660E+01
 2.1924751E+01  2.4332249E+01
 2.1936251E+01  2.4344788E+01
 2.1947752E+01  2.4343634E+01
 2.1959251E+01  2.4345575E+01
 2.1970751E+01  2.4376862E+01
 2.1982250E+01  2.4397287E+01
 2.1993752E+01  2.4384600E+01
 2.2005251E+01  2.4310616E+01
 2.2016750E+01  2.4296471E+01
 2.2028252E+01  2.4320551E+01
 2.2039751E+01  2.4306692E+01
 2.2051250E+01  2.4317001E+01
 2.2062752E+01  2.4299725E+01
 2.2074251E+01  2.4321417E+01
 2.2085751E+01  2.4305336E+01
 2.2097252E+01  2.4375057E+01
 2.2108751E+01  2.4404028E+01
 2.2120251E+01  2.4462000E+01
 2.2131752E+01  2.4464987E+01
 2.2143251E+01  2.4527628E+01
 2.2154751E+01  2.4476488E+01
 2.2166250E+01  2.4475300E+01
 2.2177752E+01  2.4441784E+01
 2.2189251E+01  2.4435379E+01
 2.2200750E+01  2.4432362E+01
 2.2212252E+01  2.4442068E+01
 2.2223751E+01  2.4494400E+01
 2.2235250E+01  2.4560934E+01
 2.2246752E+01  2.4608141E+01
 2.2258251E+01  2.4603254E+01
 2.2269751E+01  2.4558701E+01
 2.2281252E+01  2.4535599E+01
 2.2292751E+01  2.4545990E+01
 2.2304251E+01  2.4563765E+01
 2.2315752E+01  2.4588312E+01
 2.2327251E+01  2.4585033E+01
 2.2338751E+01  2.4537828E+01
 2.2350250E+01  2.4517427E+01
 2.2361752E+01  2.4480782E+01
 2.2373251E+01  2.4519760E+01
 2.2384750E+01  2.4558691E+01
 2.2396252E+01  2.4616451E+01
 2.2407751E+01  2.4608486E+01
 2.2419250E+01  2.4616034E+01
 2.2430752E+01  2.4741030E+01
 2.2442251E+01  2.4810972E+01
 2.2453751E+01  2.4854155E+01
 2.2465252E+01  2.4767736E+01
 2.2476751E+01  2.4721241E+01
 2.2488251E+01  2.4713722E+01
 2.2499752E+01  2.4734812E+01
 2.2511251E+01  2.4796333E+01
 2.2522751E+01  2.4868357E+01
 2.2534250E+01  2.4919821E+01
 2.2545752E+01  2.4951086E+01
 2.2557251E+01  2.4967514E+01
 2.2568750E+01  2.4958433E+01
 2.2580252E+01  2.4967836E+01
 2.2591751E+01  2.4968683E+01
 2.2603251E+01  2.4983660E+01
 2.2614752E+01  2.5004948E+01
 2.2626251E+01  2.5081305E+01
 2.2637751E+01  2.5131845E+01
 2.2649252E+01  2.5168491E+01
 2.2660751E+01  2.5169247E+01
 2.2672251E+01  2.5166656E+01
 2.2683752E+01  2.5233440E+01
 2.2695251E+01  2.5288918E+01
 2.2706751E+01  2.5269455E+01
 2.2718250E+01  2.5230587E+01
 2.2729752E+01  2.5230257E+01
 2.2741251E+01  2.5241945E+01
 2.2752750E+01  2.5283257E+01
 2.2764252E+01  2.5323761E+01
 2.2775751E+01  2.5389875E+01
 2.2787251E+01  2.5347507E+01
 2.2798752E+01  2.5399609E+01
 2.2810251E+01  2.5469948E+01
 2.2821751E+01  2.5545633E+01
 2.2833252E+01  2.5540014E+01
 2.2844751E+01  2.5526211E+01
 2.2856251E+01  2.5551723E+01
 2.2867750E+01  2.5623064E+01
 2.2879251E+01  2.5651623E+01
 2.2890751E+01  2.5776121E+01
 2.2902250E+01  2.5846193E+01
 2.2913752E+01  2.6005331E+01
 2.2925251E+01  2.6088448E+01
 2.2936750E+01  2.6154877E+01
 2.2948252E+01  2.6182037E+01
 2.2959751E+01  2.6251995E+01
 2.2971251E+01  2.6403309E+01
 2.2982752E+01  2.6588198E+01
 2.2994251E+01  2.6753235E+01
