F:\20151113_APS_34IDE\\Brian\Particle1\OCV\Data_0044.tif
2-Theta Angle (Degrees)
Intensity
       2000
 5.7500005E-03  0.0000000E+00
 1.7250001E-02  0.0000000E+00
 2.8750001E-02  0.0000000E+00
 4.0250003E-02  0.0000000E+00
 5.1750004E-02  0.0000000E+00
 6.3250005E-02  0.0000000E+00
 7.4750006E-02  0.0000000E+00
 8.6250007E-02  0.0000000E+00
 9.7750008E-02  0.0000000E+00
 1.0925001E-01  0.0000000E+00
 1.2075000E-01  0.0000000E+00
 1.3225001E-01  0.0000000E+00
 1.4375001E-01  0.0000000E+00
 1.5525001E-01  0.0000000E+00
 1.6675001E-01  0.0000000E+00
 1.7825001E-01  0.0000000E+00
 1.8975002E-01  0.0000000E+00
 2.0125002E-01  0.0000000E+00
 2.1275002E-01  0.0000000E+00
 2.2425000E-01  0.0000000E+00
 2.3575000E-01  0.0000000E+00
 2.4725001E-01  0.0000000E+00
 2.5875002E-01  0.0000000E+00
 2.7025002E-01  0.0000000E+00
 2.8175002E-01  0.0000000E+00
 2.9325002E-01  0.0000000E+00
 3.0475003E-01  0.0000000E+00
 3.1625003E-01  0.0000000E+00
 3.2775003E-01  0.0000000E+00
 3.3925003E-01  0.0000000E+00
 3.5075003E-01  0.0000000E+00
 3.6225003E-01  0.0000000E+00
 3.7375003E-01  0.0000000E+00
 3.8525003E-01  0.0000000E+00
 3.9675003E-01  0.0000000E+00
 4.0825003E-01  0.0000000E+00
 4.1975003E-01  0.0000000E+00
 4.3125004E-01  0.0000000E+00
 4.4275001E-01  0.0000000E+00
 4.5425001E-01  0.0000000E+00
 4.6575001E-01  0.0000000E+00
 4.7725001E-01  0.0000000E+00
 4.8875001E-01  0.0000000E+00
 5.0025004E-01  0.0000000E+00
 5.1175004E-01  0.0000000E+00
 5.2325004E-01  0.0000000E+00
 5.3475004E-01  0.0000000E+00
 5.4625005E-01  0.0000000E+00
 5.5775005E-01  0.0000000E+00
 5.6925005E-01  0.0000000E+00
 5.8075005E-01  0.0000000E+00
 5.9225005E-01  0.0000000E+00
 6.0375005E-01  0.0000000E+00
 6.1525005E-01  0.0000000E+00
 6.2675005E-01  0.0000000E+00
 6.3825005E-01  0.0000000E+00
 6.4975005E-01  0.0000000E+00
 6.6125005E-01  0.0000000E+00
 6.7275006E-01  0.0000000E+00
 6.8425006E-01  0.0000000E+00
 6.9575006E-01  0.0000000E+00
 7.0725006E-01  0.0000000E+00
 7.1875006E-01  0.0000000E+00
 7.3025006E-01  0.0000000E+00
 7.4175006E-01  0.0000000E+00
 7.5325006E-01  0.0000000E+00
 7.6475006E-01  0.0000000E+00
 7.7625006E-01  0.0000000E+00
 7.8775007E-01  0.0000000E+00
 7.9925007E-01  0.0000000E+00
 8.1075007E-01  0.0000000E+00
 8.2225007E-01  0.0000000E+00
 8.3375007E-01  0.0000000E+00
 8.4525007E-01  0.0000000E+00
 8.5675007E-01  0.0000000E+00
 8.6825007E-01  0.0000000E+00
 8.7975001E-01  0.0000000E+00
 8.9125001E-01  0.0000000E+00
 9.0275002E-01  0.0000000E+00
 9.1425002E-01  0.0000000E+00
 9.2575002E-01  0.0000000E+00
 9.3725002E-01  0.0000000E+00
 9.4875002E-01  0.0000000E+00
 9.6025002E-01  0.0000000E+00
 9.7175002E-01  0.0000000E+00
 9.8325002E-01  0.0000000E+00
 9.9475002E-01  0.0000000E+00
 1.0062500E+00  0.0000000E+00
 1.0177500E+00  0.0000000E+00
 1.0292500E+00  0.0000000E+00
 1.0407500E+00  0.0000000E+00
 1.0522500E+00  0.0000000E+00
 1.0637500E+00  0.0000000E+00
 1.0752500E+00  0.0000000E+00
 1.0867500E+00  0.0000000E+00
 1.0982500E+00  0.0000000E+00
 1.1097500E+00  0.0000000E+00
 1.1212500E+00  0.0000000E+00
 1.1327500E+00  0.0000000E+00
 1.1442500E+00  0.0000000E+00
 1.1557500E+00  0.0000000E+00
 1.1672500E+00  0.0000000E+00
 1.1787500E+00  0.0000000E+00
 1.1902500E+00  0.0000000E+00
 1.2017500E+00  0.0000000E+00
 1.2132500E+00  0.0000000E+00
 1.2247500E+00  0.0000000E+00
 1.2362500E+00  0.0000000E+00
 1.2477500E+00  0.0000000E+00
 1.2592500E+00  0.0000000E+00
 1.2707500E+00  0.0000000E+00
 1.2822500E+00  0.0000000E+00
 1.2937500E+00  0.0000000E+00
 1.3052500E+00  0.0000000E+00
 1.3167500E+00  0.0000000E+00
 1.3282501E+00  0.0000000E+00
 1.3397501E+00  0.0000000E+00
 1.3512501E+00  0.0000000E+00
 1.3627501E+00  0.0000000E+00
 1.3742501E+00  0.0000000E+00
 1.3857501E+00  0.0000000E+00
 1.3972501E+00  0.0000000E+00
 1.4087501E+00  0.0000000E+00
 1.4202501E+00  0.0000000E+00
 1.4317501E+00  0.0000000E+00
 1.4432501E+00  0.0000000E+00
 1.4547501E+00  0.0000000E+00
 1.4662501E+00  0.0000000E+00
 1.4777501E+00  0.0000000E+00
 1.4892501E+00  0.0000000E+00
 1.5007501E+00  0.0000000E+00
 1.5122501E+00  0.0000000E+00
 1.5237501E+00  0.0000000E+00
 1.5352501E+00  0.0000000E+00
 1.5467501E+00  0.0000000E+00
 1.5582501E+00  0.0000000E+00
 1.5697501E+00  0.0000000E+00
 1.5812501E+00  0.0000000E+00
 1.5927501E+00  0.0000000E+00
 1.6042501E+00  0.0000000E+00
 1.6157501E+00  0.0000000E+00
 1.6272501E+00  0.0000000E+00
 1.6387501E+00  0.0000000E+00
 1.6502501E+00  0.0000000E+00
 1.6617501E+00  0.0000000E+00
 1.6732501E+00  0.0000000E+00
 1.6847501E+00  0.0000000E+00
 1.6962501E+00  0.0000000E+00
 1.7077501E+00  0.0000000E+00
 1.7192501E+00  0.0000000E+00
 1.7307501E+00  0.0000000E+00
 1.7422501E+00  0.0000000E+00
 1.7537501E+00  0.0000000E+00
 1.7652501E+00  0.0000000E+00
 1.7767501E+00  0.0000000E+00
 1.7882501E+00  0.0000000E+00
 1.7997501E+00  0.0000000E+00
 1.8112501E+00  0.0000000E+00
 1.8227501E+00  0.0000000E+00
 1.8342501E+00  0.0000000E+00
 1.8457501E+00  0.0000000E+00
 1.8572501E+00  0.0000000E+00
 1.8687501E+00  0.0000000E+00
 1.8802501E+00  0.0000000E+00
 1.8917501E+00  0.0000000E+00
 1.9032501E+00  0.0000000E+00
 1.9147501E+00  0.0000000E+00
 1.9262501E+00  0.0000000E+00
 1.9377501E+00  0.0000000E+00
 1.9492501E+00  0.0000000E+00
 1.9607501E+00  0.0000000E+00
 1.9722501E+00  0.0000000E+00
 1.9837501E+00  0.0000000E+00
 1.9952501E+00  0.0000000E+00
 2.0067501E+00  0.0000000E+00
 2.0182500E+00  0.0000000E+00
 2.0297501E+00  0.0000000E+00
 2.0412500E+00  0.0000000E+00
 2.0527501E+00  0.0000000E+00
 2.0642500E+00  0.0000000E+00
 2.0757501E+00  0.0000000E+00
 2.0872500E+00  0.0000000E+00
 2.0987501E+00  0.0000000E+00
 2.1102500E+00  0.0000000E+00
 2.1217501E+00  0.0000000E+00
 2.1332500E+00  0.0000000E+00
 2.1447501E+00  0.0000000E+00
 2.1562500E+00  0.0000000E+00
 2.1677501E+00  0.0000000E+00
 2.1792500E+00  0.0000000E+00
 2.1907501E+00  0.0000000E+00
 2.2022500E+00  0.0000000E+00
 2.2137501E+00  0.0000000E+00
 2.2252500E+00  0.0000000E+00
 2.2367501E+00  0.0000000E+00
 2.2482500E+00  0.0000000E+00
 2.2597501E+00  0.0000000E+00
 2.2712500E+00  0.0000000E+00
 2.2827501E+00  0.0000000E+00
 2.2942500E+00  0.0000000E+00
 2.3057501E+00  0.0000000E+00
 2.3172500E+00  0.0000000E+00
 2.3287501E+00  0.0000000E+00
 2.3402500E+00  0.0000000E+00
 2.3517501E+00  0.0000000E+00
 2.3632500E+00  0.0000000E+00
 2.3747501E+00  0.0000000E+00
 2.3862500E+00  0.0000000E+00
 2.3977501E+00  0.0000000E+00
 2.4092500E+00  0.0000000E+00
 2.4207501E+00  0.0000000E+00
 2.4322500E+00  0.0000000E+00
 2.4437501E+00  0.0000000E+00
 2.4552500E+00  0.0000000E+00
 2.4667501E+00  0.0000000E+00
 2.4782500E+00  0.0000000E+00
 2.4897501E+00  0.0000000E+00
 2.5012500E+00  0.0000000E+00
 2.5127501E+00  0.0000000E+00
 2.5242500E+00  0.0000000E+00
 2.5357502E+00  0.0000000E+00
 2.5472500E+00  0.0000000E+00
 2.5587502E+00  0.0000000E+00
 2.5702500E+00  0.0000000E+00
 2.5817502E+00  0.0000000E+00
 2.5932500E+00  0.0000000E+00
 2.6047502E+00  0.0000000E+00
 2.6162500E+00  0.0000000E+00
 2.6277502E+00  0.0000000E+00
 2.6392500E+00  0.0000000E+00
 2.6507502E+00  0.0000000E+00
 2.6622500E+00  0.0000000E+00
 2.6737502E+00  0.0000000E+00
 2.6852500E+00  0.0000000E+00
 2.6967502E+00  0.0000000E+00
 2.7082500E+00  0.0000000E+00
 2.7197502E+00  0.0000000E+00
 2.7312500E+00  0.0000000E+00
 2.7427502E+00  0.0000000E+00
 2.7542500E+00  0.0000000E+00
 2.7657502E+00  0.0000000E+00
 2.7772501E+00  0.0000000E+00
 2.7887502E+00  0.0000000E+00
 2.8002501E+00  0.0000000E+00
 2.8117502E+00  0.0000000E+00
 2.8232501E+00  3.3924976E+01
 2.8347502E+00  3.4499596E+01
 2.8462501E+00  3.4677689E+01
 2.8577502E+00  3.4894119E+01
 2.8692501E+00  3.4982586E+01
 2.8807502E+00  3.5399212E+01
 2.8922501E+00  3.5478550E+01
 2.9037502E+00  3.5355202E+01
 2.9152501E+00  3.4989494E+01
 2.9267502E+00  3.4632252E+01
 2.9382501E+00  3.4886215E+01
 2.9497502E+00  3.4985260E+01
 2.9612501E+00  3.4994785E+01
 2.9727502E+00  3.4435928E+01
 2.9842501E+00  3.4264088E+01
 2.9957502E+00  3.4263615E+01
 3.0072501E+00  3.4478924E+01
 3.0187502E+00  3.4666779E+01
 3.0302501E+00  3.4900414E+01
 3.0417502E+00  3.5311626E+01
 3.0532501E+00  3.5604340E+01
 3.0647502E+00  3.5538960E+01
 3.0762501E+00  3.5373890E+01
 3.0877502E+00  3.5303440E+01
 3.0992501E+00  3.4989555E+01
 3.1107502E+00  3.4767311E+01
 3.1222501E+00  3.4186306E+01
 3.1337502E+00  3.4355457E+01
 3.1452501E+00  3.4535805E+01
 3.1567502E+00  3.4790119E+01
 3.1682501E+00  3.5057232E+01
 3.1797502E+00  3.5344830E+01
 3.1912501E+00  3.5897823E+01
 3.2027502E+00  3.5951775E+01
 3.2142501E+00  3.6166164E+01
 3.2257502E+00  3.5994560E+01
 3.2372501E+00  3.5979145E+01
 3.2487502E+00  3.5807159E+01
 3.2602501E+00  3.5644135E+01
 3.2717502E+00  3.5474960E+01
 3.2832501E+00  3.5074043E+01
 3.2947502E+00  3.4851711E+01
 3.3062501E+00  3.4375187E+01
 3.3177502E+00  3.4304741E+01
 3.3292501E+00  3.4355270E+01
 3.3407502E+00  3.4510715E+01
 3.3522501E+00  3.4655109E+01
 3.3637502E+00  3.4303070E+01
 3.3752501E+00  3.4525623E+01
 3.3867502E+00  3.4482430E+01
 3.3982501E+00  3.4582985E+01
 3.4097502E+00  3.4572319E+01
 3.4212501E+00  3.4723896E+01
 3.4327502E+00  3.4743153E+01
 3.4442501E+00  3.4824581E+01
 3.4557502E+00  3.4783222E+01
 3.4672501E+00  3.5072445E+01
 3.4787502E+00  3.5117374E+01
 3.4902501E+00  3.5316673E+01
 3.5017502E+00  3.4988476E+01
 3.5132501E+00  3.4691620E+01
 3.5247502E+00  3.4409374E+01
 3.5362501E+00  3.4437988E+01
 3.5477502E+00  3.4475998E+01
 3.5592501E+00  3.4479156E+01
 3.5707502E+00  3.4109245E+01
 3.5822501E+00  3.3875969E+01
 3.5937502E+00  3.3574238E+01
 3.6052501E+00  3.3389717E+01
 3.6167502E+00  3.3597309E+01
 3.6282501E+00  3.3594788E+01
 3.6397502E+00  3.3800266E+01
 3.6512501E+00  3.3940903E+01
 3.6627502E+00  3.4253426E+01
 3.6742501E+00  3.4377602E+01
 3.6857502E+00  3.4347683E+01
 3.6972501E+00  3.4335159E+01
 3.7087502E+00  3.4094063E+01
 3.7202501E+00  3.3897457E+01
 3.7317502E+00  3.3487865E+01
 3.7432501E+00  3.3375050E+01
 3.7547503E+00  3.3363350E+01
 3.7662501E+00  3.3260906E+01
 3.7777503E+00  3.3284012E+01
 3.7892501E+00  3.3146358E+01
 3.8007503E+00  3.2915180E+01
 3.8122501E+00  3.3103630E+01
 3.8237503E+00  3.2966274E+01
 3.8352501E+00  3.3066658E+01
 3.8467503E+00  3.2892864E+01
 3.8582501E+00  3.2865105E+01
 3.8697503E+00  3.2916145E+01
 3.8812501E+00  3.2954491E+01
 3.8927503E+00  3.2781044E+01
 3.9042501E+00  3.2767475E+01
 3.9157503E+00  3.2463108E+01
 3.9272501E+00  3.2472775E+01
 3.9387503E+00  3.2442062E+01
 3.9502501E+00  3.2456886E+01
 3.9617503E+00  3.2572659E+01
 3.9732502E+00  3.2625023E+01
 3.9847503E+00  3.2505623E+01
 3.9962502E+00  3.2457615E+01
 4.0077500E+00  3.2364967E+01
 4.0192504E+00  3.2383099E+01
 4.0307503E+00  3.2353985E+01
 4.0422502E+00  3.2320404E+01
 4.0537500E+00  3.2188011E+01
 4.0652504E+00  3.2106571E+01
 4.0767503E+00  3.1905272E+01
 4.0882502E+00  3.1918715E+01
 4.0997500E+00  3.1820065E+01
 4.1112504E+00  3.1806980E+01
 4.1227503E+00  3.2013660E+01
 4.1342502E+00  3.2158161E+01
 4.1457500E+00  3.2364914E+01
 4.1572504E+00  3.2331310E+01
 4.1687503E+00  3.2387245E+01
 4.1802502E+00  3.2278954E+01
 4.1917500E+00  3.2170860E+01
 4.2032504E+00  3.2131905E+01
 4.2147503E+00  3.2105118E+01
 4.2262502E+00  3.2113049E+01
 4.2377501E+00  3.2063328E+01
 4.2492504E+00  3.2113091E+01
 4.2607503E+00  3.2299019E+01
 4.2722502E+00  3.2460747E+01
 4.2837501E+00  3.2576077E+01
 4.2952504E+00  3.2631760E+01
 4.3067503E+00  3.2629322E+01
 4.3182502E+00  3.2521019E+01
 4.3297501E+00  3.2296635E+01
 4.3412504E+00  3.2141495E+01
 4.3527503E+00  3.2073372E+01
 4.3642502E+00  3.2099602E+01
 4.3757501E+00  3.2164288E+01
 4.3872504E+00  3.2232239E+01
 4.3987503E+00  3.2306122E+01
 4.4102502E+00  3.2429455E+01
 4.4217501E+00  3.2499798E+01
 4.4332504E+00  3.2682064E+01
 4.4447503E+00  3.2737625E+01
 4.4562502E+00  3.2834908E+01
 4.4677501E+00  3.2833588E+01
 4.4792504E+00  3.2881889E+01
 4.4907503E+00  3.2874504E+01
 4.5022502E+00  3.2886456E+01
 4.5137501E+00  3.2631500E+01
 4.5252504E+00  3.2585052E+01
 4.5367503E+00  3.2514999E+01
 4.5482502E+00  3.2601864E+01
 4.5597501E+00  3.2731945E+01
 4.5712504E+00  3.2814877E+01
 4.5827503E+00  3.2947586E+01
 4.5942502E+00  3.2994041E+01
 4.6057501E+00  3.2903488E+01
 4.6172504E+00  3.2830982E+01
 4.6287503E+00  3.2663177E+01
 4.6402502E+00  3.2639908E+01
 4.6517501E+00  3.2622513E+01
 4.6632504E+00  3.2634125E+01
 4.6747503E+00  3.2675430E+01
 4.6862502E+00  3.2783325E+01
 4.6977501E+00  3.2941261E+01
 4.7092505E+00  3.3077732E+01
 4.7207503E+00  3.3165947E+01
 4.7322502E+00  3.3095295E+01
 4.7437501E+00  3.2986828E+01
 4.7552505E+00  3.2765736E+01
 4.7667503E+00  3.2605213E+01
 4.7782502E+00  3.2458309E+01
 4.7897501E+00  3.2514950E+01
 4.8012505E+00  3.2485485E+01
 4.8127503E+00  3.2479195E+01
 4.8242502E+00  3.2478542E+01
 4.8357501E+00  3.2622940E+01
 4.8472505E+00  3.2772934E+01
 4.8587503E+00  3.2920311E+01
 4.8702502E+00  3.2933708E+01
 4.8817501E+00  3.3143940E+01
 4.8932505E+00  3.3223980E+01
 4.9047503E+00  3.3235653E+01
 4.9162502E+00  3.3252739E+01
 4.9277501E+00  3.3072365E+01
 4.9392505E+00  3.3068333E+01
 4.9507504E+00  3.2815388E+01
 4.9622502E+00  3.2660236E+01
 4.9737501E+00  3.2600723E+01
 4.9852505E+00  3.2562737E+01
 4.9967504E+00  3.2583519E+01
 5.0082502E+00  3.2678646E+01
 5.0197501E+00  3.2698196E+01
 5.0312505E+00  3.2927635E+01
 5.0427504E+00  3.2999821E+01
 5.0542502E+00  3.3097679E+01
 5.0657501E+00  3.3131027E+01
 5.0772505E+00  3.3109631E+01
 5.0887504E+00  3.3104290E+01
 5.1002502E+00  3.3178642E+01
 5.1117501E+00  3.3180870E+01
 5.1232505E+00  3.3281353E+01
 5.1347504E+00  3.3411797E+01
 5.1462502E+00  3.3550789E+01
 5.1577501E+00  3.3709431E+01
 5.1692505E+00  3.3766384E+01
 5.1807504E+00  3.3792484E+01
 5.1922503E+00  3.3841434E+01
 5.2037501E+00  3.3805527E+01
 5.2152505E+00  3.3816879E+01
 5.2267504E+00  3.3838951E+01
 5.2382503E+00  3.3930561E+01
 5.2497501E+00  3.3986973E+01
 5.2612505E+00  3.3919720E+01
 5.2727504E+00  3.3898296E+01
 5.2842503E+00  3.3826996E+01
 5.2957501E+00  3.3933449E+01
 5.3072500E+00  3.3987022E+01
 5.3187504E+00  3.4000366E+01
 5.3302503E+00  3.4017498E+01
 5.3417501E+00  3.3970554E+01
 5.3532500E+00  3.3963528E+01
 5.3647504E+00  3.4057987E+01
 5.3762503E+00  3.4166626E+01
 5.3877501E+00  3.4471581E+01
 5.3992500E+00  3.4451504E+01
 5.4107504E+00  3.4457077E+01
 5.4222503E+00  3.4383316E+01
 5.4337502E+00  3.4360077E+01
 5.4452500E+00  3.4516148E+01
 5.4567504E+00  3.4545197E+01
 5.4682503E+00  3.4627037E+01
 5.4797502E+00  3.4712490E+01
 5.4912500E+00  3.4624294E+01
 5.5027504E+00  3.4719547E+01
 5.5142503E+00  3.4725979E+01
 5.5257502E+00  3.4836807E+01
 5.5372500E+00  3.4818954E+01
 5.5487504E+00  3.4804409E+01
 5.5602503E+00  3.4829754E+01
 5.5717502E+00  3.4859844E+01
 5.5832500E+00  3.4814346E+01
 5.5947504E+00  3.4744225E+01
 5.6062503E+00  3.4814941E+01
 5.6177502E+00  3.4761978E+01
 5.6292500E+00  3.4749386E+01
 5.6407504E+00  3.4821480E+01
 5.6522503E+00  3.4937630E+01
 5.6637502E+00  3.5251896E+01
 5.6752501E+00  3.5289749E+01
 5.6867504E+00  3.5383915E+01
 5.6982503E+00  3.5201286E+01
 5.7097502E+00  3.5132843E+01
 5.7212501E+00  3.5135529E+01
 5.7327504E+00  3.5294987E+01
 5.7442503E+00  3.5382912E+01
 5.7557502E+00  3.5437981E+01
 5.7672501E+00  3.5425026E+01
 5.7787504E+00  3.5547451E+01
 5.7902503E+00  3.5653904E+01
 5.8017502E+00  3.5733574E+01
 5.8132501E+00  3.5761208E+01
 5.8247504E+00  3.5767757E+01
 5.8362503E+00  3.5846195E+01
 5.8477502E+00  3.5924805E+01
 5.8592501E+00  3.6078495E+01
 5.8707504E+00  3.6232685E+01
 5.8822503E+00  3.6459057E+01
 5.8937502E+00  3.6755482E+01
 5.9052501E+00  3.7097881E+01
 5.9167504E+00  3.7633625E+01
 5.9282503E+00  3.8637459E+01
 5.9397502E+00  3.9663765E+01
 5.9512501E+00  4.1649193E+01
 5.9627504E+00  4.3313667E+01
 5.9742503E+00  4.3811153E+01
 5.9857502E+00  4.3451515E+01
 5.9972501E+00  4.1832935E+01
 6.0087504E+00  4.0878948E+01
 6.0202503E+00  3.9452698E+01
 6.0317502E+00  3.8289200E+01
 6.0432501E+00  3.7587952E+01
 6.0547504E+00  3.7069275E+01
 6.0662503E+00  3.6744244E+01
 6.0777502E+00  3.6535912E+01
 6.0892501E+00  3.6497952E+01
 6.1007504E+00  3.6534817E+01
 6.1122503E+00  3.6558582E+01
 6.1237502E+00  3.6599205E+01
 6.1352501E+00  3.6523041E+01
 6.1467505E+00  3.6554558E+01
 6.1582503E+00  3.6611107E+01
 6.1697502E+00  3.6705975E+01
 6.1812501E+00  3.6848404E+01
 6.1927505E+00  3.6935539E+01
 6.2042503E+00  3.7064274E+01
 6.2157502E+00  3.7210289E+01
 6.2272501E+00  3.7450756E+01
 6.2387505E+00  3.7555988E+01
 6.2502503E+00  3.7688293E+01
 6.2617502E+00  3.7637199E+01
 6.2732501E+00  3.7600201E+01
 6.2847505E+00  3.7613655E+01
 6.2962503E+00  3.7549366E+01
 6.3077502E+00  3.7638531E+01
 6.3192501E+00  3.7594814E+01
 6.3307505E+00  3.7686775E+01
 6.3422503E+00  3.7773701E+01
 6.3537502E+00  3.7944984E+01
 6.3652501E+00  3.8009865E+01
 6.3767505E+00  3.8052769E+01
 6.3882504E+00  3.8112106E+01
 6.3997502E+00  3.8215225E+01
 6.4112501E+00  3.8343334E+01
 6.4227505E+00  3.8346001E+01
 6.4342504E+00  3.8428055E+01
 6.4457502E+00  3.8535580E+01
 6.4572501E+00  3.8604900E+01
 6.4687505E+00  3.8724236E+01
 6.4802504E+00  3.8730122E+01
 6.4917502E+00  3.8806450E+01
 6.5032501E+00  3.8992676E+01
 6.5147505E+00  3.9204548E+01
 6.5262504E+00  3.9312126E+01
 6.5377502E+00  3.9349976E+01
 6.5492501E+00  3.9258308E+01
 6.5607505E+00  3.9341972E+01
 6.5722504E+00  3.9358395E+01
 6.5837502E+00  3.9425217E+01
 6.5952501E+00  3.9564713E+01
 6.6067505E+00  3.9591877E+01
 6.6182504E+00  3.9740425E+01
 6.6297503E+00  3.9721989E+01
 6.6412501E+00  3.9821308E+01
 6.6527505E+00  3.9801559E+01
 6.6642504E+00  3.9900234E+01
 6.6757503E+00  3.9898945E+01
 6.6872501E+00  3.9960934E+01
 6.6987505E+00  4.0005409E+01
 6.7102504E+00  4.0170055E+01
 6.7217503E+00  4.0283543E+01
 6.7332501E+00  4.0421494E+01
 6.7447505E+00  4.0524765E+01
 6.7562504E+00  4.0701534E+01
 6.7677503E+00  4.0879299E+01
 6.7792501E+00  4.1004108E+01
 6.7907505E+00  4.1089264E+01
 6.8022504E+00  4.1226036E+01
 6.8137503E+00  4.1388260E+01
 6.8252501E+00  4.1532455E+01
 6.8367505E+00  4.1597763E+01
 6.8482504E+00  4.1592751E+01
 6.8597503E+00  4.1618187E+01
 6.8712502E+00  4.1610916E+01
 6.8827505E+00  4.1560982E+01
 6.8942504E+00  4.1504776E+01
 6.9057503E+00  4.1449764E+01
 6.9172502E+00  4.1414047E+01
 6.9287505E+00  4.1407001E+01
 6.9402504E+00  4.1546860E+01
 6.9517503E+00  4.1726009E+01
 6.9632502E+00  4.1925278E+01
 6.9747505E+00  4.2059841E+01
 6.9862504E+00  4.2189465E+01
 6.9977503E+00  4.2279362E+01
 7.0092502E+00  4.2280827E+01
 7.0207505E+00  4.2308182E+01
 7.0322504E+00  4.2368504E+01
 7.0437503E+00  4.2497925E+01
 7.0552502E+00  4.2647224E+01
 7.0667505E+00  4.2781155E+01
 7.0782504E+00  4.2885082E+01
 7.0897503E+00  4.2954159E+01
 7.1012502E+00  4.2954044E+01
 7.1127505E+00  4.2966633E+01
 7.1242504E+00  4.3001942E+01
 7.1357503E+00  4.3056458E+01
 7.1472502E+00  4.3088715E+01
 7.1587505E+00  4.3085049E+01
 7.1702504E+00  4.3106731E+01
 7.1817503E+00  4.3130302E+01
 7.1932502E+00  4.3194733E+01
 7.2047505E+00  4.3372284E+01
 7.2162504E+00  4.3481804E+01
 7.2277503E+00  4.3606464E+01
 7.2392502E+00  4.3639702E+01
 7.2507505E+00  4.3632511E+01
 7.2622504E+00  4.3656124E+01
 7.2737503E+00  4.3610634E+01
 7.2852502E+00  4.3614864E+01
 7.2967505E+00  4.3603107E+01
 7.3082504E+00  4.3703457E+01
 7.3197503E+00  4.3797493E+01
 7.3312502E+00  4.3878323E+01
 7.3427505E+00  4.3902435E+01
 7.3542504E+00  4.3908939E+01
 7.3657503E+00  4.3940083E+01
 7.3772502E+00  4.3880856E+01
 7.3887506E+00  4.3889839E+01
 7.4002504E+00  4.3940826E+01
 7.4117503E+00  4.4072063E+01
 7.4232502E+00  4.4284103E+01
 7.4347506E+00  4.4459301E+01
 7.4462504E+00  4.4826763E+01
 7.4577503E+00  4.4856922E+01
 7.4692502E+00  4.5654755E+01
 7.4807506E+00  4.5407791E+01
 7.4922504E+00  4.5472519E+01
 7.5037503E+00  4.4686825E+01
 7.5152502E+00  4.4614681E+01
 7.5267506E+00  4.4487106E+01
 7.5382504E+00  4.4527088E+01
 7.5497503E+00  4.4516499E+01
 7.5612502E+00  4.4543102E+01
 7.5727506E+00  4.4534531E+01
 7.5842505E+00  4.4629532E+01
 7.5957503E+00  4.4644188E+01
 7.6072502E+00  4.4657356E+01
 7.6187506E+00  4.4678181E+01
 7.6302505E+00  4.4605507E+01
 7.6417503E+00  4.4431683E+01
 7.6532502E+00  4.4204849E+01
 7.6647506E+00  4.4102253E+01
 7.6762505E+00  4.4027435E+01
 7.6877503E+00  4.4049950E+01
 7.6992502E+00  4.4065197E+01
 7.7107506E+00  4.4062557E+01
 7.7222505E+00  4.4065044E+01
 7.7337503E+00  4.4063515E+01
 7.7452502E+00  4.4089970E+01
 7.7567506E+00  4.4076187E+01
 7.7682505E+00  4.4096859E+01
 7.7797503E+00  4.4099277E+01
 7.7912502E+00  4.4134521E+01
 7.8027506E+00  4.4094471E+01
 7.8142505E+00  4.4175526E+01
 7.8257504E+00  4.4185204E+01
 7.8372502E+00  4.4205807E+01
 7.8487506E+00  4.4134022E+01
 7.8602505E+00  4.4076595E+01
 7.8717504E+00  4.3997841E+01
 7.8832502E+00  4.3991306E+01
 7.8947506E+00  4.3943626E+01
 7.9062505E+00  4.3953743E+01
 7.9177504E+00  4.3898682E+01
 7.9292502E+00  4.3910645E+01
 7.9407506E+00  4.3932468E+01
 7.9522505E+00  4.3907158E+01
 7.9637504E+00  4.3888062E+01
 7.9752502E+00  4.3820255E+01
 7.9867506E+00  4.3871433E+01
 7.9982505E+00  4.3812523E+01
 8.0097504E+00  4.3748188E+01
 8.0212507E+00  4.3582466E+01
 8.0327501E+00  4.3436474E+01
 8.0442505E+00  4.3260956E+01
 8.0557508E+00  4.3098022E+01
 8.0672503E+00  4.3041691E+01
 8.0787506E+00  4.2927212E+01
 8.0902500E+00  4.2901871E+01
 8.1017504E+00  4.2811283E+01
 8.1132507E+00  4.2801136E+01
 8.1247501E+00  4.2658787E+01
 8.1362505E+00  4.2491203E+01
 8.1477509E+00  4.2416782E+01
 8.1592503E+00  4.2338135E+01
 8.1707506E+00  4.2258923E+01
 8.1822500E+00  4.2069077E+01
 8.1937504E+00  4.1966499E+01
 8.2052507E+00  4.1855377E+01
 8.2167501E+00  4.1664303E+01
 8.2282505E+00  4.1454216E+01
 8.2397509E+00  4.1320911E+01
 8.2512503E+00  4.1272522E+01
 8.2627506E+00  4.1202797E+01
 8.2742500E+00  4.1071289E+01
 8.2857504E+00  4.0933392E+01
 8.2972507E+00  4.0832138E+01
 8.3087502E+00  4.0704437E+01
 8.3202505E+00  4.0551647E+01
 8.3317509E+00  4.0269520E+01
 8.3432503E+00  4.0098587E+01
 8.3547506E+00  3.9909081E+01
 8.3662500E+00  3.9844662E+01
 8.3777504E+00  3.9687836E+01
 8.3892508E+00  3.9523148E+01
 8.4007502E+00  3.9430050E+01
 8.4122505E+00  3.9302582E+01
 8.4237509E+00  3.9211693E+01
 8.4352503E+00  3.8987591E+01
 8.4467506E+00  3.8806103E+01
 8.4582500E+00  3.8540604E+01
 8.4697504E+00  3.8397995E+01
 8.4812508E+00  3.8208336E+01
 8.4927502E+00  3.8103649E+01
 8.5042505E+00  3.7951763E+01
 8.5157509E+00  3.7785721E+01
 8.5272503E+00  3.7561253E+01
 8.5387506E+00  3.7313557E+01
 8.5502501E+00  3.7062508E+01
 8.5617504E+00  3.6906757E+01
 8.5732508E+00  3.6723328E+01
 8.5847502E+00  3.6532696E+01
 8.5962505E+00  3.6334080E+01
 8.6077509E+00  3.6098423E+01
 8.6192503E+00  3.6000694E+01
 8.6307507E+00  3.5894600E+01
 8.6422501E+00  3.5806690E+01
 8.6537504E+00  3.5662983E+01
 8.6652508E+00  3.5554672E+01
 8.6767502E+00  3.5357357E+01
 8.6882505E+00  3.5247829E+01
 8.6997509E+00  3.4981110E+01
 8.7112503E+00  3.4683010E+01
 8.7227507E+00  3.4452850E+01
 8.7342501E+00  3.4270977E+01
 8.7457504E+00  3.4158619E+01
 8.7572508E+00  3.3983120E+01
 8.7687502E+00  3.3805676E+01
 8.7802505E+00  3.3611259E+01
 8.7917500E+00  3.3370808E+01
 8.8032503E+00  3.3169422E+01
 8.8147507E+00  3.3053383E+01
 8.8262501E+00  3.2892567E+01
 8.8377504E+00  3.2753365E+01
 8.8492508E+00  3.2567886E+01
 8.8607502E+00  3.2405624E+01
 8.8722506E+00  3.2209564E+01
 8.8837500E+00  3.2027397E+01
 8.8952503E+00  3.1868040E+01
 8.9067507E+00  3.1759205E+01
 8.9182501E+00  3.1695929E+01
 8.9297504E+00  3.1569870E+01
 8.9412508E+00  3.1417698E+01
 8.9527502E+00  3.1225758E+01
 8.9642506E+00  3.1100929E+01
 8.9757500E+00  3.0923994E+01
 8.9872503E+00  3.0830826E+01
 8.9987507E+00  3.0659132E+01
 9.0102501E+00  3.0510296E+01
 9.0217505E+00  3.0298386E+01
 9.0332508E+00  3.0264406E+01
 9.0447502E+00  3.0193399E+01
 9.0562506E+00  3.0094196E+01
 9.0677500E+00  2.9997252E+01
 9.0792503E+00  2.9919996E+01
 9.0907507E+00  2.9859175E+01
 9.1022501E+00  2.9664129E+01
 9.1137505E+00  2.9518196E+01
 9.1252508E+00  2.9387697E+01
 9.1367502E+00  2.9258810E+01
 9.1482506E+00  2.9080366E+01
 9.1597500E+00  2.8919676E+01
 9.1712503E+00  2.8760553E+01
 9.1827507E+00  2.8659082E+01
 9.1942501E+00  2.8560236E+01
 9.2057505E+00  2.8527649E+01
 9.2172508E+00  2.8448463E+01
 9.2287502E+00  2.8295864E+01
 9.2402506E+00  2.8189507E+01
 9.2517500E+00  2.8058176E+01
 9.2632504E+00  2.7961819E+01
 9.2747507E+00  2.7800604E+01
 9.2862501E+00  2.7642765E+01
 9.2977505E+00  2.7573433E+01
 9.3092508E+00  2.7460522E+01
 9.3207502E+00  2.7401798E+01
 9.3322506E+00  2.7299984E+01
 9.3437500E+00  2.7209770E+01
 9.3552504E+00  2.7190578E+01
 9.3667507E+00  2.7166729E+01
 9.3782501E+00  2.7180977E+01
 9.3897505E+00  2.7138784E+01
 9.4012508E+00  2.7070242E+01
 9.4127502E+00  2.6978220E+01
 9.4242506E+00  2.6834494E+01
 9.4357500E+00  2.6795151E+01
 9.4472504E+00  2.6641239E+01
 9.4587507E+00  2.6572508E+01
 9.4702501E+00  2.6446625E+01
 9.4817505E+00  2.6423563E+01
 9.4932508E+00  2.6363005E+01
 9.5047503E+00  2.6265232E+01
 9.5162506E+00  2.6160820E+01
 9.5277500E+00  2.6044323E+01
 9.5392504E+00  2.5943989E+01
 9.5507507E+00  2.5854050E+01
 9.5622501E+00  2.5823683E+01
 9.5737505E+00  2.5816885E+01
 9.5852509E+00  2.5793610E+01
 9.5967503E+00  2.5815235E+01
 9.6082506E+00  2.5779741E+01
 9.6197500E+00  2.5785242E+01
 9.6312504E+00  2.5657314E+01
 9.6427507E+00  2.5509480E+01
 9.6542501E+00  2.5452057E+01
 9.6657505E+00  2.5346617E+01
 9.6772509E+00  2.5309355E+01
 9.6887503E+00  2.5181887E+01
 9.7002506E+00  2.5128023E+01
 9.7117500E+00  2.5129721E+01
 9.7232504E+00  2.5094950E+01
 9.7347507E+00  2.5115032E+01
 9.7462502E+00  2.5099001E+01
 9.7577505E+00  2.5077921E+01
 9.7692509E+00  2.5074360E+01
 9.7807503E+00  2.4984888E+01
 9.7922506E+00  2.5008518E+01
 9.8037500E+00  2.4965773E+01
 9.8152504E+00  2.4946770E+01
 9.8267508E+00  2.4896320E+01
 9.8382502E+00  2.4864426E+01
 9.8497505E+00  2.4815592E+01
 9.8612509E+00  2.4713299E+01
 9.8727503E+00  2.4665682E+01
 9.8842506E+00  2.4604271E+01
 9.8957500E+00  2.4559229E+01
 9.9072504E+00  2.4447626E+01
 9.9187508E+00  2.4357281E+01
 9.9302502E+00  2.4242064E+01
 9.9417505E+00  2.4174322E+01
 9.9532509E+00  2.4120275E+01
 9.9647503E+00  2.4181067E+01
 9.9762506E+00  2.4228275E+01
 9.9877501E+00  2.4315569E+01
 9.9992504E+00  2.4302677E+01
 1.0010751E+01  2.4293009E+01
 1.0022250E+01  2.4212591E+01
 1.0033751E+01  2.4178843E+01
 1.0045251E+01  2.4105871E+01
 1.0056750E+01  2.4047274E+01
 1.0068251E+01  2.4045790E+01
 1.0079750E+01  2.4048626E+01
 1.0091250E+01  2.4023176E+01
 1.0102751E+01  2.3972136E+01
 1.0114250E+01  2.3866552E+01
 1.0125751E+01  2.3776583E+01
 1.0137251E+01  2.3632441E+01
 1.0148750E+01  2.3569292E+01
 1.0160251E+01  2.3567673E+01
 1.0171750E+01  2.3587400E+01
 1.0183250E+01  2.3587114E+01
 1.0194751E+01  2.3608828E+01
 1.0206250E+01  2.3675446E+01
 1.0217751E+01  2.3727194E+01
 1.0229251E+01  2.3730522E+01
 1.0240750E+01  2.3641760E+01
 1.0252251E+01  2.3532343E+01
 1.0263750E+01  2.3488125E+01
 1.0275250E+01  2.3462883E+01
 1.0286751E+01  2.3398497E+01
 1.0298250E+01  2.3381393E+01
 1.0309751E+01  2.3330008E+01
 1.0321251E+01  2.3321644E+01
 1.0332750E+01  2.3291113E+01
 1.0344251E+01  2.3310656E+01
 1.0355750E+01  2.3324543E+01
 1.0367250E+01  2.3296370E+01
 1.0378751E+01  2.3264418E+01
 1.0390250E+01  2.3267593E+01
 1.0401751E+01  2.3291002E+01
 1.0413251E+01  2.3244631E+01
 1.0424750E+01  2.3239941E+01
 1.0436251E+01  2.3185308E+01
 1.0447750E+01  2.3137085E+01
 1.0459250E+01  2.3093527E+01
 1.0470751E+01  2.3008127E+01
 1.0482250E+01  2.3084108E+01
 1.0493751E+01  2.3038782E+01
 1.0505251E+01  2.3084160E+01
 1.0516750E+01  2.3033894E+01
 1.0528251E+01  2.2990372E+01
 1.0539750E+01  2.2973509E+01
 1.0551250E+01  2.2910175E+01
 1.0562751E+01  2.2947811E+01
 1.0574250E+01  2.2892689E+01
 1.0585751E+01  2.2925104E+01
 1.0597251E+01  2.2923788E+01
 1.0608750E+01  2.2909622E+01
 1.0620251E+01  2.2856884E+01
 1.0631750E+01  2.2885031E+01
 1.0643250E+01  2.2907923E+01
 1.0654751E+01  2.2950338E+01
 1.0666250E+01  2.2862879E+01
 1.0677751E+01  2.2809593E+01
 1.0689251E+01  2.2765923E+01
 1.0700750E+01  2.2777056E+01
 1.0712251E+01  2.2796297E+01
 1.0723750E+01  2.2804701E+01
 1.0735250E+01  2.2782421E+01
 1.0746751E+01  2.2781982E+01
 1.0758250E+01  2.2786808E+01
 1.0769751E+01  2.2803204E+01
 1.0781251E+01  2.2824181E+01
 1.0792750E+01  2.2800003E+01
 1.0804251E+01  2.2753510E+01
 1.0815750E+01  2.2728472E+01
 1.0827250E+01  2.2665348E+01
 1.0838751E+01  2.2610312E+01
 1.0850250E+01  2.2585798E+01
 1.0861751E+01  2.2595268E+01
 1.0873251E+01  2.2642210E+01
 1.0884750E+01  2.2567144E+01
 1.0896251E+01  2.2575495E+01
 1.0907750E+01  2.2586042E+01
 1.0919250E+01  2.2631527E+01
 1.0930751E+01  2.2567848E+01
 1.0942250E+01  2.2444191E+01
 1.0953751E+01  2.2413374E+01
 1.0965251E+01  2.2369020E+01
 1.0976750E+01  2.2423346E+01
 1.0988251E+01  2.2425428E+01
 1.0999750E+01  2.2483177E+01
 1.1011250E+01  2.2462248E+01
 1.1022751E+01  2.2462914E+01
 1.1034250E+01  2.2428629E+01
 1.1045751E+01  2.2450264E+01
 1.1057251E+01  2.2413603E+01
 1.1068750E+01  2.2484299E+01
 1.1080251E+01  2.2483850E+01
 1.1091750E+01  2.2496464E+01
 1.1103251E+01  2.2454647E+01
 1.1114751E+01  2.2437017E+01
 1.1126250E+01  2.2393526E+01
 1.1137751E+01  2.2325550E+01
 1.1149251E+01  2.2368042E+01
 1.1160750E+01  2.2370548E+01
 1.1172251E+01  2.2361156E+01
 1.1183750E+01  2.2305042E+01
 1.1195251E+01  2.2279177E+01
 1.1206751E+01  2.2292603E+01
 1.1218250E+01  2.2266983E+01
 1.1229751E+01  2.2296709E+01
 1.1241251E+01  2.2303576E+01
 1.1252750E+01  2.2283676E+01
 1.1264251E+01  2.2183754E+01
 1.1275750E+01  2.2129255E+01
 1.1287251E+01  2.2059233E+01
 1.1298751E+01  2.2105364E+01
 1.1310250E+01  2.2175278E+01
 1.1321751E+01  2.2286530E+01
 1.1333251E+01  2.2340979E+01
 1.1344750E+01  2.2330696E+01
 1.1356251E+01  2.2385452E+01
 1.1367750E+01  2.2465157E+01
 1.1379251E+01  2.2535864E+01
 1.1390751E+01  2.2554884E+01
 1.1402250E+01  2.2627153E+01
 1.1413751E+01  2.2644394E+01
 1.1425251E+01  2.2685047E+01
 1.1436750E+01  2.2600946E+01
 1.1448251E+01  2.2527300E+01
 1.1459750E+01  2.2478563E+01
 1.1471251E+01  2.2404125E+01
 1.1482751E+01  2.2379646E+01
 1.1494250E+01  2.2345858E+01
 1.1505751E+01  2.2313240E+01
 1.1517251E+01  2.2378422E+01
 1.1528750E+01  2.2421547E+01
 1.1540251E+01  2.2566498E+01
 1.1551750E+01  2.2709414E+01
 1.1563251E+01  2.2912752E+01
 1.1574751E+01  2.3098692E+01
 1.1586250E+01  2.3297554E+01
 1.1597751E+01  2.3355536E+01
 1.1609251E+01  2.3317911E+01
 1.1620750E+01  2.3132313E+01
 1.1632251E+01  2.2970037E+01
 1.1643750E+01  2.2736084E+01
 1.1655251E+01  2.2599306E+01
 1.1666751E+01  2.2443052E+01
 1.1678250E+01  2.2436310E+01
 1.1689751E+01  2.2361237E+01
 1.1701251E+01  2.2340492E+01
 1.1712750E+01  2.2317093E+01
 1.1724251E+01  2.2316124E+01
 1.1735750E+01  2.2339750E+01
 1.1747251E+01  2.2312025E+01
 1.1758751E+01  2.2278732E+01
 1.1770250E+01  2.2163868E+01
 1.1781751E+01  2.2128994E+01
 1.1793251E+01  2.2088366E+01
 1.1804750E+01  2.2121180E+01
 1.1816251E+01  2.2165506E+01
 1.1827750E+01  2.2231384E+01
 1.1839251E+01  2.2287121E+01
 1.1850751E+01  2.2266092E+01
 1.1862250E+01  2.2219479E+01
 1.1873751E+01  2.2171457E+01
 1.1885251E+01  2.2163265E+01
 1.1896750E+01  2.2216427E+01
 1.1908251E+01  2.2240112E+01
 1.1919750E+01  2.2295441E+01
 1.1931251E+01  2.2331095E+01
 1.1942751E+01  2.2392593E+01
 1.1954250E+01  2.2455547E+01
 1.1965751E+01  2.2442175E+01
 1.1977251E+01  2.2496134E+01
 1.1988750E+01  2.2529379E+01
 1.2000251E+01  2.2612139E+01
 1.2011750E+01  2.2583893E+01
 1.2023251E+01  2.2526241E+01
 1.2034751E+01  2.2489824E+01
 1.2046250E+01  2.2444273E+01
 1.2057751E+01  2.2485962E+01
 1.2069251E+01  2.2540462E+01
 1.2080750E+01  2.2644888E+01
 1.2092251E+01  2.2666906E+01
 1.2103750E+01  2.2710253E+01
 1.2115251E+01  2.2699194E+01
 1.2126751E+01  2.2693541E+01
 1.2138250E+01  2.2638903E+01
 1.2149751E+01  2.2556963E+01
 1.2161251E+01  2.2521172E+01
 1.2172750E+01  2.2458101E+01
 1.2184251E+01  2.2493422E+01
 1.2195750E+01  2.2445547E+01
 1.2207251E+01  2.2456432E+01
 1.2218751E+01  2.2415985E+01
 1.2230250E+01  2.2370752E+01
 1.2241751E+01  2.2341087E+01
 1.2253251E+01  2.2316505E+01
 1.2264750E+01  2.2332123E+01
 1.2276251E+01  2.2288580E+01
 1.2287750E+01  2.2294409E+01
 1.2299251E+01  2.2321203E+01
 1.2310751E+01  2.2376907E+01
 1.2322250E+01  2.2335953E+01
 1.2333751E+01  2.2323679E+01
 1.2345250E+01  2.2325136E+01
 1.2356750E+01  2.2371593E+01
 1.2368251E+01  2.2427713E+01
 1.2379750E+01  2.2416088E+01
 1.2391251E+01  2.2434910E+01
 1.2402751E+01  2.2369919E+01
 1.2414250E+01  2.2344866E+01
 1.2425751E+01  2.2344530E+01
 1.2437250E+01  2.2391500E+01
 1.2448750E+01  2.2420692E+01
 1.2460251E+01  2.2458824E+01
 1.2471750E+01  2.2465857E+01
 1.2483251E+01  2.2516745E+01
 1.2494751E+01  2.2525202E+01
 1.2506250E+01  2.2520662E+01
 1.2517751E+01  2.2490038E+01
 1.2529250E+01  2.2527985E+01
 1.2540751E+01  2.2548195E+01
 1.2552251E+01  2.2600376E+01
 1.2563750E+01  2.2563705E+01
 1.2575251E+01  2.2601290E+01
 1.2586751E+01  2.2623756E+01
 1.2598250E+01  2.2689674E+01
 1.2609751E+01  2.2799284E+01
 1.2621250E+01  2.2905224E+01
 1.2632751E+01  2.2963778E+01
 1.2644251E+01  2.2907207E+01
 1.2655750E+01  2.2869892E+01
 1.2667251E+01  2.2841820E+01
 1.2678751E+01  2.2811224E+01
 1.2690250E+01  2.2809450E+01
 1.2701751E+01  2.2789557E+01
 1.2713250E+01  2.2830502E+01
 1.2724751E+01  2.2765583E+01
 1.2736251E+01  2.2769775E+01
 1.2747750E+01  2.2797153E+01
 1.2759251E+01  2.2839355E+01
 1.2770751E+01  2.2876785E+01
 1.2782250E+01  2.2955524E+01
 1.2793751E+01  2.3005733E+01
 1.2805250E+01  2.3071060E+01
 1.2816751E+01  2.3085115E+01
 1.2828251E+01  2.3153828E+01
 1.2839750E+01  2.3199047E+01
 1.2851251E+01  2.3247841E+01
 1.2862751E+01  2.3298622E+01
 1.2874250E+01  2.3371931E+01
 1.2885751E+01  2.3413351E+01
 1.2897250E+01  2.3451193E+01
 1.2908751E+01  2.3479889E+01
 1.2920251E+01  2.3546730E+01
 1.2931750E+01  2.3583364E+01
 1.2943251E+01  2.3616936E+01
 1.2954751E+01  2.3593292E+01
 1.2966250E+01  2.3617733E+01
 1.2977751E+01  2.3668768E+01
 1.2989250E+01  2.3735615E+01
 1.3000751E+01  2.3820389E+01
 1.3012251E+01  2.3866169E+01
 1.3023750E+01  2.3941559E+01
 1.3035251E+01  2.4049196E+01
 1.3046751E+01  2.4110313E+01
 1.3058250E+01  2.4215878E+01
 1.3069751E+01  2.4256079E+01
 1.3081250E+01  2.4322069E+01
 1.3092751E+01  2.4402370E+01
 1.3104251E+01  2.4559055E+01
 1.3115750E+01  2.4771273E+01
 1.3127251E+01  2.4952480E+01
 1.3138751E+01  2.5058029E+01
 1.3150250E+01  2.5180435E+01
 1.3161751E+01  2.5273766E+01
 1.3173250E+01  2.5411631E+01
 1.3184751E+01  2.5485685E+01
 1.3196251E+01  2.5591143E+01
 1.3207750E+01  2.5694044E+01
 1.3219251E+01  2.5807665E+01
 1.3230751E+01  2.5967081E+01
 1.3242250E+01  2.6079378E+01
 1.3253751E+01  2.6179548E+01
 1.3265250E+01  2.6277790E+01
 1.3276751E+01  2.6405107E+01
 1.3288251E+01  2.6551071E+01
 1.3299750E+01  2.6656393E+01
 1.3311251E+01  2.6768539E+01
 1.3322751E+01  2.6902510E+01
 1.3334250E+01  2.7035326E+01
 1.3345751E+01  2.7182573E+01
 1.3357250E+01  2.7348322E+01
 1.3368751E+01  2.7463331E+01
 1.3380251E+01  2.7635633E+01
 1.3391750E+01  2.7799269E+01
 1.3403251E+01  2.8020790E+01
 1.3414751E+01  2.8156479E+01
 1.3426250E+01  2.8285772E+01
 1.3437751E+01  2.8387817E+01
 1.3449250E+01  2.8468174E+01
 1.3460751E+01  2.8554956E+01
 1.3472251E+01  2.8643118E+01
 1.3483750E+01  2.8762512E+01
 1.3495251E+01  2.8891577E+01
 1.3506751E+01  2.8956760E+01
 1.3518250E+01  2.9033237E+01
 1.3529751E+01  2.9057241E+01
 1.3541250E+01  2.9159613E+01
 1.3552751E+01  2.9245262E+01
 1.3564251E+01  2.9302393E+01
 1.3575750E+01  2.9405878E+01
 1.3587251E+01  2.9381756E+01
 1.3598751E+01  2.9450384E+01
 1.3610250E+01  2.9414602E+01
 1.3621751E+01  2.9475117E+01
 1.3633250E+01  2.9487446E+01
 1.3644751E+01  2.9501114E+01
 1.3656251E+01  2.9441418E+01
 1.3667750E+01  2.9398493E+01
 1.3679251E+01  2.9385324E+01
 1.3690751E+01  2.9378857E+01
 1.3702250E+01  2.9383980E+01
 1.3713751E+01  2.9299566E+01
 1.3725250E+01  2.9308052E+01
 1.3736751E+01  2.9166870E+01
 1.3748251E+01  2.9108019E+01
 1.3759750E+01  2.8937342E+01
 1.3771251E+01  2.8853014E+01
 1.3782751E+01  2.8797804E+01
 1.3794250E+01  2.8724606E+01
 1.3805751E+01  2.8673616E+01
 1.3817250E+01  2.8574678E+01
 1.3828751E+01  2.8577482E+01
 1.3840251E+01  2.8569456E+01
 1.3851750E+01  2.8613827E+01
 1.3863251E+01  2.8603882E+01
 1.3874751E+01  2.8591270E+01
 1.3886250E+01  2.8608362E+01
 1.3897751E+01  2.8726000E+01
 1.3909250E+01  2.8837011E+01
 1.3920751E+01  2.8971708E+01
 1.3932251E+01  2.9101337E+01
 1.3943750E+01  2.9248688E+01
 1.3955251E+01  2.9382170E+01
 1.3966751E+01  2.9369314E+01
 1.3978251E+01  2.9181686E+01
 1.3989751E+01  2.8807301E+01
 1.4001250E+01  2.8413410E+01
 1.4012751E+01  2.8132595E+01
 1.4024251E+01  2.7909044E+01
 1.4035750E+01  2.7763479E+01
 1.4047251E+01  2.7624453E+01
 1.4058751E+01  2.7509615E+01
 1.4070251E+01  2.7438255E+01
 1.4081751E+01  2.7285191E+01
 1.4093250E+01  2.7221672E+01
 1.4104751E+01  2.7073463E+01
 1.4116251E+01  2.6982431E+01
 1.4127750E+01  2.6855307E+01
 1.4139251E+01  2.6807961E+01
 1.4150751E+01  2.6771818E+01
 1.4162251E+01  2.6710125E+01
 1.4173751E+01  2.6665020E+01
 1.4185250E+01  2.6605989E+01
 1.4196751E+01  2.6604412E+01
 1.4208251E+01  2.6515614E+01
 1.4219750E+01  2.6491182E+01
 1.4231251E+01  2.6390146E+01
 1.4242751E+01  2.6389988E+01
 1.4254251E+01  2.6298815E+01
 1.4265751E+01  2.6284931E+01
 1.4277250E+01  2.6238092E+01
 1.4288751E+01  2.6187149E+01
 1.4300251E+01  2.6104134E+01
 1.4311750E+01  2.6030575E+01
 1.4323251E+01  2.5931108E+01
 1.4334751E+01  2.5882330E+01
 1.4346251E+01  2.5807812E+01
 1.4357751E+01  2.5832018E+01
 1.4369250E+01  2.5781647E+01
 1.4380751E+01  2.5792320E+01
 1.4392251E+01  2.5772650E+01
 1.4403750E+01  2.5786705E+01
 1.4415251E+01  2.5771431E+01
 1.4426751E+01  2.5740685E+01
 1.4438251E+01  2.5721165E+01
 1.4449751E+01  2.5672018E+01
 1.4461250E+01  2.5622019E+01
 1.4472751E+01  2.5522215E+01
 1.4484251E+01  2.5431086E+01
 1.4495750E+01  2.5344646E+01
 1.4507251E+01  2.5347738E+01
 1.4518751E+01  2.5352192E+01
 1.4530251E+01  2.5359446E+01
 1.4541751E+01  2.5310390E+01
 1.4553250E+01  2.5314388E+01
 1.4564751E+01  2.5318621E+01
 1.4576251E+01  2.5324379E+01
 1.4587750E+01  2.5299137E+01
 1.4599251E+01  2.5246572E+01
 1.4610751E+01  2.5184109E+01
 1.4622251E+01  2.5141201E+01
 1.4633751E+01  2.5122263E+01
 1.4645250E+01  2.5081854E+01
 1.4656751E+01  2.5051109E+01
 1.4668251E+01  2.4980381E+01
 1.4679750E+01  2.5008532E+01
 1.4691251E+01  2.4977783E+01
 1.4702751E+01  2.5038109E+01
 1.4714251E+01  2.5003979E+01
 1.4725751E+01  2.4974863E+01
 1.4737250E+01  2.4944836E+01
 1.4748751E+01  2.4910040E+01
 1.4760251E+01  2.4911133E+01
 1.4771750E+01  2.4929138E+01
 1.4783251E+01  2.4940800E+01
 1.4794751E+01  2.4954277E+01
 1.4806251E+01  2.4878649E+01
 1.4817751E+01  2.4840946E+01
 1.4829250E+01  2.4797392E+01
 1.4840751E+01  2.4807753E+01
 1.4852251E+01  2.4830982E+01
 1.4863750E+01  2.4793022E+01
 1.4875251E+01  2.4787338E+01
 1.4886751E+01  2.4760149E+01
 1.4898251E+01  2.4778631E+01
 1.4909751E+01  2.4751062E+01
 1.4921250E+01  2.4736595E+01
 1.4932751E+01  2.4686682E+01
 1.4944251E+01  2.4650629E+01
 1.4955750E+01  2.4645714E+01
 1.4967251E+01  2.4725340E+01
 1.4978751E+01  2.4772001E+01
 1.4990251E+01  2.4788000E+01
 1.5001751E+01  2.4721533E+01
 1.5013250E+01  2.4718573E+01
 1.5024751E+01  2.4666527E+01
 1.5036251E+01  2.4663830E+01
 1.5047750E+01  2.4614084E+01
 1.5059251E+01  2.4589098E+01
 1.5070751E+01  2.4559355E+01
 1.5082251E+01  2.4533842E+01
 1.5093751E+01  2.4564249E+01
 1.5105250E+01  2.4620661E+01
 1.5116751E+01  2.4667006E+01
 1.5128251E+01  2.4679447E+01
 1.5139750E+01  2.4713032E+01
 1.5151251E+01  2.4814646E+01
 1.5162751E+01  2.4882383E+01
 1.5174251E+01  2.5020422E+01
 1.5185751E+01  2.5051701E+01
 1.5197250E+01  2.5067635E+01
 1.5208751E+01  2.4976749E+01
 1.5220251E+01  2.4949026E+01
 1.5231750E+01  2.4903111E+01
 1.5243251E+01  2.4802979E+01
 1.5254751E+01  2.4741982E+01
 1.5266251E+01  2.4644644E+01
 1.5277751E+01  2.4606474E+01
 1.5289250E+01  2.4580177E+01
 1.5300751E+01  2.4523607E+01
 1.5312251E+01  2.4522654E+01
 1.5323750E+01  2.4491930E+01
 1.5335251E+01  2.4485601E+01
 1.5346751E+01  2.4417360E+01
 1.5358251E+01  2.4409380E+01
 1.5369751E+01  2.4457802E+01
 1.5381250E+01  2.4451015E+01
 1.5392751E+01  2.4458696E+01
 1.5404251E+01  2.4428099E+01
 1.5415751E+01  2.4406288E+01
 1.5427251E+01  2.4351776E+01
 1.5438751E+01  2.4420158E+01
 1.5450251E+01  2.4442017E+01
 1.5461751E+01  2.4461338E+01
 1.5473250E+01  2.4405577E+01
 1.5484751E+01  2.4423923E+01
 1.5496251E+01  2.4377621E+01
 1.5507751E+01  2.4380814E+01
 1.5519251E+01  2.4369354E+01
 1.5530751E+01  2.4380478E+01
 1.5542251E+01  2.4403154E+01
 1.5553751E+01  2.4396173E+01
 1.5565250E+01  2.4483944E+01
 1.5576751E+01  2.4515388E+01
 1.5588251E+01  2.4515751E+01
 1.5599751E+01  2.4447790E+01
 1.5611251E+01  2.4353235E+01
 1.5622751E+01  2.4290699E+01
 1.5634251E+01  2.4224030E+01
 1.5645751E+01  2.4218840E+01
 1.5657250E+01  2.4276779E+01
 1.5668751E+01  2.4332998E+01
 1.5680251E+01  2.4402925E+01
 1.5691751E+01  2.4409195E+01
 1.5703251E+01  2.4434683E+01
 1.5714751E+01  2.4443211E+01
 1.5726251E+01  2.4460268E+01
 1.5737751E+01  2.4406065E+01
 1.5749250E+01  2.4362309E+01
 1.5760751E+01  2.4338711E+01
 1.5772251E+01  2.4355301E+01
 1.5783751E+01  2.4343378E+01
 1.5795251E+01  2.4362534E+01
 1.5806751E+01  2.4411476E+01
 1.5818251E+01  2.4424412E+01
 1.5829751E+01  2.4407930E+01
 1.5841250E+01  2.4386288E+01
 1.5852751E+01  2.4441549E+01
 1.5864251E+01  2.4488253E+01
 1.5875751E+01  2.4516445E+01
 1.5887251E+01  2.4524614E+01
 1.5898750E+01  2.4490570E+01
 1.5910251E+01  2.4452375E+01
 1.5921751E+01  2.4411057E+01
 1.5933250E+01  2.4444187E+01
 1.5944751E+01  2.4448122E+01
 1.5956251E+01  2.4494200E+01
 1.5967751E+01  2.4501291E+01
 1.5979251E+01  2.4519459E+01
 1.5990750E+01  2.4483076E+01
 1.6002251E+01  2.4522762E+01
 1.6013750E+01  2.4531685E+01
 1.6025251E+01  2.4560617E+01
 1.6036751E+01  2.4573862E+01
 1.6048250E+01  2.4616922E+01
 1.6059752E+01  2.4623640E+01
 1.6071251E+01  2.4556284E+01
 1.6082750E+01  2.4584833E+01
 1.6094252E+01  2.4575733E+01
 1.6105751E+01  2.4670731E+01
 1.6117250E+01  2.4637688E+01
 1.6128750E+01  2.4591652E+01
 1.6140251E+01  2.4568129E+01
 1.6151751E+01  2.4566967E+01
 1.6163250E+01  2.4635773E+01
 1.6174751E+01  2.4606853E+01
 1.6186251E+01  2.4650337E+01
 1.6197750E+01  2.4596552E+01
 1.6209251E+01  2.4696560E+01
 1.6220751E+01  2.4664541E+01
 1.6232250E+01  2.4758118E+01
 1.6243752E+01  2.4766569E+01
 1.6255251E+01  2.4835882E+01
 1.6266750E+01  2.4958336E+01
 1.6278252E+01  2.4877987E+01
 1.6289751E+01  2.4990030E+01
 1.6301250E+01  2.4705412E+01
 1.6312750E+01  2.4827919E+01
 1.6324251E+01  2.4600964E+01
 1.6335751E+01  2.4654917E+01
 1.6347250E+01  2.4513985E+01
 1.6358751E+01  2.4471804E+01
 1.6370251E+01  2.4391682E+01
 1.6381750E+01  2.4354286E+01
 1.6393251E+01  2.4406309E+01
 1.6404751E+01  2.4425234E+01
 1.6416250E+01  2.4499403E+01
 1.6427752E+01  2.4542919E+01
 1.6439251E+01  2.4587883E+01
 1.6450750E+01  2.4602465E+01
 1.6462252E+01  2.4566559E+01
 1.6473751E+01  2.4567144E+01
 1.6485250E+01  2.4536829E+01
 1.6496750E+01  2.4569218E+01
 1.6508251E+01  2.4511560E+01
 1.6519751E+01  2.4498394E+01
 1.6531250E+01  2.4445511E+01
 1.6542751E+01  2.4438864E+01
 1.6554251E+01  2.4387587E+01
 1.6565750E+01  2.4428862E+01
 1.6577251E+01  2.4421583E+01
 1.6588751E+01  2.4502131E+01
 1.6600250E+01  2.4513704E+01
 1.6611752E+01  2.4577026E+01
 1.6623251E+01  2.4478218E+01
 1.6634750E+01  2.4418615E+01
 1.6646252E+01  2.4371191E+01
 1.6657751E+01  2.4334108E+01
 1.6669250E+01  2.4311796E+01
 1.6680750E+01  2.4265055E+01
 1.6692251E+01  2.4266468E+01
 1.6703751E+01  2.4266586E+01
 1.6715250E+01  2.4307692E+01
 1.6726751E+01  2.4306574E+01
 1.6738251E+01  2.4367329E+01
 1.6749750E+01  2.4413633E+01
 1.6761251E+01  2.4445103E+01
 1.6772751E+01  2.4391098E+01
 1.6784250E+01  2.4300327E+01
 1.6795752E+01  2.4270596E+01
 1.6807251E+01  2.4282557E+01
 1.6818750E+01  2.4280237E+01
 1.6830252E+01  2.4282574E+01
 1.6841751E+01  2.4242865E+01
 1.6853251E+01  2.4249514E+01
 1.6864750E+01  2.4232634E+01
 1.6876251E+01  2.4203787E+01
 1.6887751E+01  2.4179125E+01
 1.6899250E+01  2.4120314E+01
 1.6910751E+01  2.4095209E+01
 1.6922251E+01  2.4082447E+01
 1.6933750E+01  2.4066360E+01
 1.6945251E+01  2.4070961E+01
 1.6956751E+01  2.4090948E+01
 1.6968250E+01  2.4127445E+01
 1.6979752E+01  2.4153225E+01
 1.6991251E+01  2.4145350E+01
 1.7002750E+01  2.4139374E+01
 1.7014252E+01  2.4167261E+01
 1.7025751E+01  2.4181063E+01
 1.7037251E+01  2.4182199E+01
 1.7048750E+01  2.4142132E+01
 1.7060251E+01  2.4087124E+01
 1.7071751E+01  2.4045094E+01
 1.7083250E+01  2.4050734E+01
 1.7094751E+01  2.4051252E+01
 1.7106251E+01  2.4005127E+01
 1.7117750E+01  2.3955612E+01
 1.7129251E+01  2.3959843E+01
 1.7140751E+01  2.4010490E+01
 1.7152250E+01  2.4034237E+01
 1.7163752E+01  2.4029402E+01
 1.7175251E+01  2.4017000E+01
 1.7186750E+01  2.4021164E+01
 1.7198252E+01  2.4038904E+01
 1.7209751E+01  2.4078266E+01
 1.7221251E+01  2.4090364E+01
 1.7232750E+01  2.4096272E+01
 1.7244251E+01  2.4066576E+01
 1.7255751E+01  2.4046810E+01
 1.7267250E+01  2.4009504E+01
 1.7278751E+01  2.3958200E+01
 1.7290251E+01  2.3900551E+01
 1.7301750E+01  2.3898380E+01
 1.7313251E+01  2.3845657E+01
 1.7324751E+01  2.3847641E+01
 1.7336250E+01  2.3859097E+01
 1.7347752E+01  2.3888090E+01
 1.7359251E+01  2.3960396E+01
 1.7370750E+01  2.3972431E+01
 1.7382252E+01  2.4030783E+01
 1.7393751E+01  2.3916925E+01
 1.7405251E+01  2.3862040E+01
 1.7416750E+01  2.3788343E+01
 1.7428251E+01  2.3812279E+01
 1.7439751E+01  2.3803970E+01
 1.7451250E+01  2.3788805E+01
 1.7462751E+01  2.3761625E+01
 1.7474251E+01  2.3740471E+01
 1.7485750E+01  2.3691849E+01
 1.7497252E+01  2.3653877E+01
 1.7508751E+01  2.3622503E+01
 1.7520250E+01  2.3630997E+01
 1.7531752E+01  2.3688887E+01
 1.7543251E+01  2.3731396E+01
 1.7554750E+01  2.3725225E+01
 1.7566252E+01  2.3682182E+01
 1.7577751E+01  2.3632462E+01
 1.7589251E+01  2.3599518E+01
 1.7600750E+01  2.3601318E+01
 1.7612251E+01  2.3585495E+01
 1.7623751E+01  2.3635973E+01
 1.7635250E+01  2.3635883E+01
 1.7646751E+01  2.3665911E+01
 1.7658251E+01  2.3604580E+01
 1.7669750E+01  2.3604055E+01
 1.7681252E+01  2.3564928E+01
 1.7692751E+01  2.3567093E+01
 1.7704250E+01  2.3550037E+01
 1.7715752E+01  2.3551296E+01
 1.7727251E+01  2.3533405E+01
 1.7738750E+01  2.3594862E+01
 1.7750252E+01  2.3614090E+01
 1.7761751E+01  2.3622314E+01
 1.7773251E+01  2.3594299E+01
 1.7784750E+01  2.3605396E+01
 1.7796251E+01  2.3595325E+01
 1.7807751E+01  2.3582348E+01
 1.7819250E+01  2.3553907E+01
 1.7830751E+01  2.3522467E+01
 1.7842251E+01  2.3529551E+01
 1.7853750E+01  2.3521627E+01
 1.7865252E+01  2.3468431E+01
 1.7876751E+01  2.3435595E+01
 1.7888250E+01  2.3416290E+01
 1.7899752E+01  2.3418520E+01
 1.7911251E+01  2.3444494E+01
 1.7922750E+01  2.3504393E+01
 1.7934252E+01  2.3535486E+01
 1.7945751E+01  2.3573456E+01
 1.7957251E+01  2.3599976E+01
 1.7968750E+01  2.3614195E+01
 1.7980251E+01  2.3600414E+01
 1.7991751E+01  2.3569376E+01
 1.8003250E+01  2.3584444E+01
 1.8014751E+01  2.3564539E+01
 1.8026251E+01  2.3614313E+01
 1.8037750E+01  2.3606754E+01
 1.8049252E+01  2.3669655E+01
 1.8060751E+01  2.3684517E+01
 1.8072250E+01  2.3689388E+01
 1.8083752E+01  2.3731133E+01
 1.8095251E+01  2.3777256E+01
 1.8106750E+01  2.3804352E+01
 1.8118252E+01  2.3795406E+01
 1.8129751E+01  2.3775860E+01
 1.8141251E+01  2.3684381E+01
 1.8152750E+01  2.3579388E+01
 1.8164251E+01  2.3506767E+01
 1.8175751E+01  2.3447948E+01
 1.8187250E+01  2.3396168E+01
 1.8198751E+01  2.3372492E+01
 1.8210251E+01  2.3386143E+01
 1.8221750E+01  2.3361252E+01
 1.8233252E+01  2.3325148E+01
 1.8244751E+01  2.3288710E+01
 1.8256250E+01  2.3277849E+01
 1.8267752E+01  2.3284445E+01
 1.8279251E+01  2.3309195E+01
 1.8290751E+01  2.3338432E+01
 1.8302252E+01  2.3382875E+01
 1.8313751E+01  2.3393522E+01
 1.8325251E+01  2.3444309E+01
 1.8336750E+01  2.3486254E+01
 1.8348251E+01  2.3576025E+01
 1.8359751E+01  2.3624166E+01
 1.8371250E+01  2.3634680E+01
 1.8382751E+01  2.3556063E+01
 1.8394251E+01  2.3516338E+01
 1.8405750E+01  2.3556782E+01
 1.8417252E+01  2.3535557E+01
 1.8428751E+01  2.3490328E+01
 1.8440250E+01  2.3434196E+01
 1.8451752E+01  2.3479490E+01
 1.8463251E+01  2.3520130E+01
 1.8474751E+01  2.3586300E+01
 1.8486252E+01  2.3530220E+01
 1.8497751E+01  2.3513756E+01
 1.8509251E+01  2.3461357E+01
 1.8520750E+01  2.3422956E+01
 1.8532251E+01  2.3426146E+01
 1.8543751E+01  2.3390022E+01
 1.8555250E+01  2.3393051E+01
 1.8566751E+01  2.3335892E+01
 1.8578251E+01  2.3336460E+01
 1.8589750E+01  2.3326435E+01
 1.8601252E+01  2.3359606E+01
 1.8612751E+01  2.3329576E+01
 1.8624250E+01  2.3279482E+01
 1.8635752E+01  2.3260475E+01
 1.8647251E+01  2.3278006E+01
 1.8658751E+01  2.3269720E+01
 1.8670252E+01  2.3274899E+01
 1.8681751E+01  2.3299648E+01
 1.8693251E+01  2.3336157E+01
 1.8704750E+01  2.3295956E+01
 1.8716251E+01  2.3287178E+01
 1.8727751E+01  2.3316557E+01
 1.8739250E+01  2.3315725E+01
 1.8750751E+01  2.3288944E+01
 1.8762251E+01  2.3272799E+01
 1.8773750E+01  2.3323919E+01
 1.8785252E+01  2.3323887E+01
 1.8796751E+01  2.3364635E+01
 1.8808250E+01  2.3387613E+01
 1.8819752E+01  2.3465385E+01
 1.8831251E+01  2.3407393E+01
 1.8842751E+01  2.3409100E+01
 1.8854252E+01  2.3367126E+01
 1.8865751E+01  2.3412231E+01
 1.8877251E+01  2.3404835E+01
 1.8888750E+01  2.3394917E+01
 1.8900251E+01  2.3371155E+01
 1.8911751E+01  2.3350691E+01
 1.8923250E+01  2.3382223E+01
 1.8934752E+01  2.3368389E+01
 1.8946251E+01  2.3413004E+01
 1.8957750E+01  2.3387873E+01
 1.8969252E+01  2.3331520E+01
 1.8980751E+01  2.3294455E+01
 1.8992250E+01  2.3305597E+01
 1.9003752E+01  2.3329660E+01
 1.9015251E+01  2.3351864E+01
 1.9026751E+01  2.3372246E+01
 1.9038252E+01  2.3381426E+01
 1.9049751E+01  2.3331905E+01
 1.9061251E+01  2.3337803E+01
 1.9072750E+01  2.3332483E+01
 1.9084251E+01  2.3361717E+01
 1.9095751E+01  2.3340103E+01
 1.9107250E+01  2.3301407E+01
 1.9118752E+01  2.3258389E+01
 1.9130251E+01  2.3262131E+01
 1.9141750E+01  2.3258028E+01
 1.9153252E+01  2.3269430E+01
 1.9164751E+01  2.3277191E+01
 1.9176250E+01  2.3277319E+01
 1.9187752E+01  2.3294428E+01
 1.9199251E+01  2.3298811E+01
 1.9210751E+01  2.3295912E+01
 1.9222252E+01  2.3275763E+01
 1.9233751E+01  2.3256857E+01
 1.9245251E+01  2.3275021E+01
 1.9256750E+01  2.3278374E+01
 1.9268251E+01  2.3367973E+01
 1.9279751E+01  2.3394854E+01
 1.9291250E+01  2.3423962E+01
 1.9302752E+01  2.3348806E+01
 1.9314251E+01  2.3318813E+01
 1.9325750E+01  2.3285898E+01
 1.9337252E+01  2.3290960E+01
 1.9348751E+01  2.3322763E+01
 1.9360250E+01  2.3309566E+01
 1.9371752E+01  2.3342855E+01
 1.9383251E+01  2.3320721E+01
 1.9394751E+01  2.3367687E+01
 1.9406250E+01  2.3361403E+01
 1.9417751E+01  2.3366928E+01
 1.9429251E+01  2.3337494E+01
 1.9440750E+01  2.3355106E+01
 1.9452251E+01  2.3373365E+01
 1.9463751E+01  2.3375818E+01
 1.9475250E+01  2.3397352E+01
 1.9486752E+01  2.3393860E+01
 1.9498251E+01  2.3402494E+01
 1.9509750E+01  2.3387138E+01
 1.9521252E+01  2.3413054E+01
 1.9532751E+01  2.3406767E+01
 1.9544250E+01  2.3460400E+01
 1.9555752E+01  2.3428509E+01
 1.9567251E+01  2.3416994E+01
 1.9578751E+01  2.3445461E+01
 1.9590250E+01  2.3459259E+01
 1.9601751E+01  2.3453499E+01
 1.9613251E+01  2.3423172E+01
 1.9624750E+01  2.3462349E+01
 1.9636251E+01  2.3499641E+01
 1.9647751E+01  2.3503159E+01
 1.9659250E+01  2.3525877E+01
 1.9670752E+01  2.3529947E+01
 1.9682251E+01  2.3625900E+01
 1.9693750E+01  2.3735760E+01
 1.9705252E+01  2.3826038E+01
 1.9716751E+01  2.3851545E+01
 1.9728251E+01  2.3819035E+01
 1.9739752E+01  2.3759583E+01
 1.9751251E+01  2.3715094E+01
 1.9762751E+01  2.3646891E+01
 1.9774250E+01  2.3630373E+01
 1.9785751E+01  2.3649981E+01
 1.9797251E+01  2.3703085E+01
 1.9808750E+01  2.3730865E+01
 1.9820251E+01  2.3712296E+01
 1.9831751E+01  2.3783669E+01
 1.9843250E+01  2.3794010E+01
 1.9854752E+01  2.3831947E+01
 1.9866251E+01  2.3849245E+01
 1.9877750E+01  2.3888241E+01
 1.9889252E+01  2.3872002E+01
 1.9900751E+01  2.3794262E+01
 1.9912251E+01  2.3716824E+01
 1.9923752E+01  2.3637905E+01
 1.9935251E+01  2.3563347E+01
 1.9946751E+01  2.3546003E+01
 1.9958250E+01  2.3519896E+01
 1.9969751E+01  2.3519672E+01
 1.9981251E+01  2.3482111E+01
 1.9992750E+01  2.3514757E+01
 2.0004251E+01  2.3501608E+01
 2.0015751E+01  2.3462549E+01
 2.0027250E+01  2.3399031E+01
 2.0038752E+01  2.3384262E+01
 2.0050251E+01  2.3444096E+01
 2.0061750E+01  2.3425816E+01
 2.0073252E+01  2.3422472E+01
 2.0084751E+01  2.3341692E+01
 2.0096251E+01  2.3356188E+01
 2.0107752E+01  2.3330225E+01
 2.0119251E+01  2.3369240E+01
 2.0130751E+01  2.3367695E+01
 2.0142250E+01  2.3402529E+01
 2.0153751E+01  2.3411968E+01
 2.0165251E+01  2.3386496E+01
 2.0176750E+01  2.3397419E+01
 2.0188251E+01  2.3363350E+01
 2.0199751E+01  2.3372118E+01
 2.0211250E+01  2.3407919E+01
 2.0222752E+01  2.3476210E+01
 2.0234251E+01  2.3522593E+01
 2.0245750E+01  2.3512173E+01
 2.0257252E+01  2.3488857E+01
 2.0268751E+01  2.3480925E+01
 2.0280251E+01  2.3498762E+01
 2.0291752E+01  2.3468451E+01
 2.0303251E+01  2.3403185E+01
 2.0314751E+01  2.3332811E+01
 2.0326250E+01  2.3358404E+01
 2.0337751E+01  2.3396055E+01
 2.0349251E+01  2.3440996E+01
 2.0360750E+01  2.3482912E+01
 2.0372252E+01  2.3515282E+01
 2.0383751E+01  2.3523188E+01
 2.0395250E+01  2.3526085E+01
 2.0406752E+01  2.3517467E+01
 2.0418251E+01  2.3528126E+01
 2.0429750E+01  2.3563593E+01
 2.0441252E+01  2.3550705E+01
 2.0452751E+01  2.3578911E+01
 2.0464251E+01  2.3570862E+01
 2.0475752E+01  2.3574839E+01
 2.0487251E+01  2.3490425E+01
 2.0498751E+01  2.3455921E+01
 2.0510250E+01  2.3402601E+01
 2.0521751E+01  2.3413267E+01
 2.0533251E+01  2.3439444E+01
 2.0544750E+01  2.3491570E+01
 2.0556252E+01  2.3575407E+01
 2.0567751E+01  2.3579018E+01
 2.0579250E+01  2.3556004E+01
 2.0590752E+01  2.3502413E+01
 2.0602251E+01  2.3503286E+01
 2.0613750E+01  2.3507713E+01
 2.0625252E+01  2.3527094E+01
 2.0636751E+01  2.3570063E+01
 2.0648251E+01  2.3576281E+01
 2.0659752E+01  2.3554987E+01
 2.0671251E+01  2.3501106E+01
 2.0682751E+01  2.3515642E+01
 2.0694250E+01  2.3545481E+01
 2.0705751E+01  2.3631704E+01
 2.0717251E+01  2.3651646E+01
 2.0728750E+01  2.3735821E+01
 2.0740252E+01  2.3724152E+01
 2.0751751E+01  2.3776207E+01
 2.0763250E+01  2.3797012E+01
 2.0774752E+01  2.3828196E+01
 2.0786251E+01  2.3800596E+01
 2.0797750E+01  2.3762589E+01
 2.0809252E+01  2.3700888E+01
 2.0820751E+01  2.3644392E+01
 2.0832251E+01  2.3618422E+01
 2.0843752E+01  2.3622952E+01
 2.0855251E+01  2.3602345E+01
 2.0866751E+01  2.3608984E+01
 2.0878250E+01  2.3636557E+01
 2.0889751E+01  2.3665545E+01
 2.0901251E+01  2.3696787E+01
 2.0912750E+01  2.3716976E+01
 2.0924252E+01  2.3714899E+01
 2.0935751E+01  2.3692173E+01
 2.0947250E+01  2.3728422E+01
 2.0958752E+01  2.3676210E+01
 2.0970251E+01  2.3627550E+01
 2.0981750E+01  2.3603634E+01
 2.0993252E+01  2.3623583E+01
 2.1004751E+01  2.3596386E+01
 2.1016251E+01  2.3562691E+01
 2.1027752E+01  2.3567385E+01
 2.1039251E+01  2.3589794E+01
 2.1050751E+01  2.3584223E+01
 2.1062250E+01  2.3566273E+01
 2.1073751E+01  2.3571274E+01
 2.1085251E+01  2.3583158E+01
 2.1096750E+01  2.3596050E+01
 2.1108252E+01  2.3577276E+01
 2.1119751E+01  2.3609037E+01
 2.1131250E+01  2.3623564E+01
 2.1142752E+01  2.3639801E+01
 2.1154251E+01  2.3605396E+01
 2.1165751E+01  2.3626722E+01
 2.1177252E+01  2.3680323E+01
 2.1188751E+01  2.3676622E+01
 2.1200251E+01  2.3663408E+01
 2.1211752E+01  2.3621748E+01
 2.1223251E+01  2.3589386E+01
 2.1234751E+01  2.3604044E+01
 2.1246250E+01  2.3621328E+01
 2.1257751E+01  2.3644245E+01
 2.1269251E+01  2.3655558E+01
 2.1280750E+01  2.3725224E+01
 2.1292252E+01  2.3757080E+01
 2.1303751E+01  2.3719305E+01
 2.1315250E+01  2.3685019E+01
 2.1326752E+01  2.3698067E+01
 2.1338251E+01  2.3704807E+01
 2.1349751E+01  2.3704315E+01
 2.1361252E+01  2.3716757E+01
 2.1372751E+01  2.3734426E+01
 2.1384251E+01  2.3747473E+01
 2.1395752E+01  2.3739605E+01
 2.1407251E+01  2.3696177E+01
 2.1418751E+01  2.3694357E+01
 2.1430250E+01  2.3707958E+01
 2.1441751E+01  2.3683544E+01
 2.1453251E+01  2.3607269E+01
 2.1464750E+01  2.3578543E+01
 2.1476252E+01  2.3586357E+01
 2.1487751E+01  2.3677471E+01
 2.1499250E+01  2.3702942E+01
 2.1510752E+01  2.3738287E+01
 2.1522251E+01  2.3719669E+01
 2.1533751E+01  2.3747250E+01
 2.1545252E+01  2.3732611E+01
 2.1556751E+01  2.3749359E+01
 2.1568251E+01  2.3763159E+01
 2.1579752E+01  2.3822027E+01
 2.1591251E+01  2.3882969E+01
 2.1602751E+01  2.3951185E+01
 2.1614250E+01  2.3983646E+01
 2.1625751E+01  2.3986763E+01
 2.1637251E+01  2.3950346E+01
 2.1648750E+01  2.3881233E+01
 2.1660252E+01  2.3853060E+01
 2.1671751E+01  2.3806093E+01
 2.1683250E+01  2.3824192E+01
 2.1694752E+01  2.3849358E+01
 2.1706251E+01  2.3902153E+01
 2.1717751E+01  2.3904902E+01
 2.1729252E+01  2.3915394E+01
 2.1740751E+01  2.3921684E+01
 2.1752251E+01  2.3905663E+01
 2.1763752E+01  2.3899487E+01
 2.1775251E+01  2.3922710E+01
 2.1786751E+01  2.3912798E+01
 2.1798250E+01  2.3880161E+01
 2.1809752E+01  2.3852121E+01
 2.1821251E+01  2.3870844E+01
 2.1832750E+01  2.3802593E+01
 2.1844252E+01  2.3805124E+01
 2.1855751E+01  2.3834146E+01
 2.1867250E+01  2.3862862E+01
 2.1878752E+01  2.3884380E+01
 2.1890251E+01  2.3860012E+01
 2.1901751E+01  2.3908974E+01
 2.1913252E+01  2.3926069E+01
 2.1924751E+01  2.3947508E+01
 2.1936251E+01  2.3977295E+01
 2.1947752E+01  2.3987896E+01
 2.1959251E+01  2.4018026E+01
 2.1970751E+01  2.4018513E+01
 2.1982250E+01  2.4052567E+01
 2.1993752E+01  2.4078346E+01
 2.2005251E+01  2.4086496E+01
 2.2016750E+01  2.4059267E+01
 2.2028252E+01  2.4049904E+01
 2.2039751E+01  2.4016367E+01
 2.2051250E+01  2.4035067E+01
 2.2062752E+01  2.4064613E+01
 2.2074251E+01  2.4082249E+01
 2.2085751E+01  2.4083742E+01
 2.2097252E+01  2.4115990E+01
 2.2108751E+01  2.4133959E+01
 2.2120251E+01  2.4244480E+01
 2.2131752E+01  2.4249035E+01
 2.2143251E+01  2.4262947E+01
 2.2154751E+01  2.4271990E+01
 2.2166250E+01  2.4290293E+01
 2.2177752E+01  2.4237068E+01
 2.2189251E+01  2.4130083E+01
 2.2200750E+01  2.4135250E+01
 2.2212252E+01  2.4190052E+01
 2.2223751E+01  2.4306160E+01
 2.2235250E+01  2.4376495E+01
 2.2246752E+01  2.4383539E+01
 2.2258251E+01  2.4297554E+01
 2.2269751E+01  2.4213169E+01
 2.2281252E+01  2.4165232E+01
 2.2292751E+01  2.4189690E+01
 2.2304251E+01  2.4226318E+01
 2.2315752E+01  2.4275404E+01
 2.2327251E+01  2.4288889E+01
 2.2338751E+01  2.4296091E+01
 2.2350250E+01  2.4309738E+01
 2.2361752E+01  2.4298813E+01
 2.2373251E+01  2.4322931E+01
 2.2384750E+01  2.4358044E+01
 2.2396252E+01  2.4408014E+01
 2.2407751E+01  2.4409470E+01
 2.2419250E+01  2.4366438E+01
 2.2430752E+01  2.4350920E+01
 2.2442251E+01  2.4370722E+01
 2.2453751E+01  2.4403517E+01
 2.2465252E+01  2.4422588E+01
 2.2476751E+01  2.4413572E+01
 2.2488251E+01  2.4439610E+01
 2.2499752E+01  2.4443333E+01
 2.2511251E+01  2.4500500E+01
 2.2522751E+01  2.4570528E+01
 2.2534250E+01  2.4616453E+01
 2.2545752E+01  2.4598408E+01
 2.2557251E+01  2.4570446E+01
 2.2568750E+01  2.4543167E+01
 2.2580252E+01  2.4513884E+01
 2.2591751E+01  2.4517206E+01
 2.2603251E+01  2.4601370E+01
 2.2614752E+01  2.4696489E+01
 2.2626251E+01  2.4752268E+01
 2.2637751E+01  2.4747042E+01
 2.2649252E+01  2.4706783E+01
 2.2660751E+01  2.4700041E+01
 2.2672251E+01  2.4703941E+01
 2.2683752E+01  2.4775787E+01
 2.2695251E+01  2.4889906E+01
 2.2706751E+01  2.4955954E+01
 2.2718250E+01  2.4962498E+01
 2.2729752E+01  2.4954798E+01
 2.2741251E+01  2.4968931E+01
 2.2752750E+01  2.5049643E+01
 2.2764252E+01  2.5174450E+01
 2.2775751E+01  2.5151640E+01
 2.2787251E+01  2.5187746E+01
 2.2798752E+01  2.5146849E+01
 2.2810251E+01  2.5176176E+01
 2.2821751E+01  2.5122314E+01
 2.2833252E+01  2.5230816E+01
 2.2844751E+01  2.5211786E+01
 2.2856251E+01  2.5204395E+01
 2.2867750E+01  2.5240919E+01
 2.2879251E+01  2.5289341E+01
 2.2890751E+01  2.5374458E+01
 2.2902250E+01  2.5390491E+01
 2.2913752E+01  2.5490498E+01
 2.2925251E+01  2.5524088E+01
 2.2936750E+01  2.5585569E+01
 2.2948252E+01  2.5632298E+01
 2.2959751E+01  2.5722656E+01
 2.2971251E+01  2.5839092E+01
 2.2982752E+01  2.5956444E+01
 2.2994251E+01  2.6055729E+01
