F:\20151113_APS_34IDE\\Brian\Particle1\OCV\Data_0140.tif
2-Theta Angle (Degrees)
Intensity
       2000
 5.7500005E-03  0.0000000E+00
 1.7250001E-02  0.0000000E+00
 2.8750001E-02  0.0000000E+00
 4.0250003E-02  0.0000000E+00
 5.1750004E-02  0.0000000E+00
 6.3250005E-02  0.0000000E+00
 7.4750006E-02  0.0000000E+00
 8.6250007E-02  0.0000000E+00
 9.7750008E-02  0.0000000E+00
 1.0925001E-01  0.0000000E+00
 1.2075000E-01  0.0000000E+00
 1.3225001E-01  0.0000000E+00
 1.4375001E-01  0.0000000E+00
 1.5525001E-01  0.0000000E+00
 1.6675001E-01  0.0000000E+00
 1.7825001E-01  0.0000000E+00
 1.8975002E-01  0.0000000E+00
 2.0125002E-01  0.0000000E+00
 2.1275002E-01  0.0000000E+00
 2.2425000E-01  0.0000000E+00
 2.3575000E-01  0.0000000E+00
 2.4725001E-01  0.0000000E+00
 2.5875002E-01  0.0000000E+00
 2.7025002E-01  0.0000000E+00
 2.8175002E-01  0.0000000E+00
 2.9325002E-01  0.0000000E+00
 3.0475003E-01  0.0000000E+00
 3.1625003E-01  0.0000000E+00
 3.2775003E-01  0.0000000E+00
 3.3925003E-01  0.0000000E+00
 3.5075003E-01  0.0000000E+00
 3.6225003E-01  0.0000000E+00
 3.7375003E-01  0.0000000E+00
 3.8525003E-01  0.0000000E+00
 3.9675003E-01  0.0000000E+00
 4.0825003E-01  0.0000000E+00
 4.1975003E-01  0.0000000E+00
 4.3125004E-01  0.0000000E+00
 4.4275001E-01  0.0000000E+00
 4.5425001E-01  0.0000000E+00
 4.6575001E-01  0.0000000E+00
 4.7725001E-01  0.0000000E+00
 4.8875001E-01  0.0000000E+00
 5.0025004E-01  0.0000000E+00
 5.1175004E-01  0.0000000E+00
 5.2325004E-01  0.0000000E+00
 5.3475004E-01  0.0000000E+00
 5.4625005E-01  0.0000000E+00
 5.5775005E-01  0.0000000E+00
 5.6925005E-01  0.0000000E+00
 5.8075005E-01  0.0000000E+00
 5.9225005E-01  0.0000000E+00
 6.0375005E-01  0.0000000E+00
 6.1525005E-01  0.0000000E+00
 6.2675005E-01  0.0000000E+00
 6.3825005E-01  0.0000000E+00
 6.4975005E-01  0.0000000E+00
 6.6125005E-01  0.0000000E+00
 6.7275006E-01  0.0000000E+00
 6.8425006E-01  0.0000000E+00
 6.9575006E-01  0.0000000E+00
 7.0725006E-01  0.0000000E+00
 7.1875006E-01  0.0000000E+00
 7.3025006E-01  0.0000000E+00
 7.4175006E-01  0.0000000E+00
 7.5325006E-01  0.0000000E+00
 7.6475006E-01  0.0000000E+00
 7.7625006E-01  0.0000000E+00
 7.8775007E-01  0.0000000E+00
 7.9925007E-01  0.0000000E+00
 8.1075007E-01  0.0000000E+00
 8.2225007E-01  0.0000000E+00
 8.3375007E-01  0.0000000E+00
 8.4525007E-01  0.0000000E+00
 8.5675007E-01  0.0000000E+00
 8.6825007E-01  0.0000000E+00
 8.7975001E-01  0.0000000E+00
 8.9125001E-01  0.0000000E+00
 9.0275002E-01  0.0000000E+00
 9.1425002E-01  0.0000000E+00
 9.2575002E-01  0.0000000E+00
 9.3725002E-01  0.0000000E+00
 9.4875002E-01  0.0000000E+00
 9.6025002E-01  0.0000000E+00
 9.7175002E-01  0.0000000E+00
 9.8325002E-01  0.0000000E+00
 9.9475002E-01  0.0000000E+00
 1.0062500E+00  0.0000000E+00
 1.0177500E+00  0.0000000E+00
 1.0292500E+00  0.0000000E+00
 1.0407500E+00  0.0000000E+00
 1.0522500E+00  0.0000000E+00
 1.0637500E+00  0.0000000E+00
 1.0752500E+00  0.0000000E+00
 1.0867500E+00  0.0000000E+00
 1.0982500E+00  0.0000000E+00
 1.1097500E+00  0.0000000E+00
 1.1212500E+00  0.0000000E+00
 1.1327500E+00  0.0000000E+00
 1.1442500E+00  0.0000000E+00
 1.1557500E+00  0.0000000E+00
 1.1672500E+00  0.0000000E+00
 1.1787500E+00  0.0000000E+00
 1.1902500E+00  0.0000000E+00
 1.2017500E+00  0.0000000E+00
 1.2132500E+00  0.0000000E+00
 1.2247500E+00  0.0000000E+00
 1.2362500E+00  0.0000000E+00
 1.2477500E+00  0.0000000E+00
 1.2592500E+00  0.0000000E+00
 1.2707500E+00  0.0000000E+00
 1.2822500E+00  0.0000000E+00
 1.2937500E+00  0.0000000E+00
 1.3052500E+00  0.0000000E+00
 1.3167500E+00  0.0000000E+00
 1.3282501E+00  0.0000000E+00
 1.3397501E+00  0.0000000E+00
 1.3512501E+00  0.0000000E+00
 1.3627501E+00  0.0000000E+00
 1.3742501E+00  0.0000000E+00
 1.3857501E+00  0.0000000E+00
 1.3972501E+00  0.0000000E+00
 1.4087501E+00  0.0000000E+00
 1.4202501E+00  0.0000000E+00
 1.4317501E+00  0.0000000E+00
 1.4432501E+00  0.0000000E+00
 1.4547501E+00  0.0000000E+00
 1.4662501E+00  0.0000000E+00
 1.4777501E+00  0.0000000E+00
 1.4892501E+00  0.0000000E+00
 1.5007501E+00  0.0000000E+00
 1.5122501E+00  0.0000000E+00
 1.5237501E+00  0.0000000E+00
 1.5352501E+00  0.0000000E+00
 1.5467501E+00  0.0000000E+00
 1.5582501E+00  0.0000000E+00
 1.5697501E+00  0.0000000E+00
 1.5812501E+00  0.0000000E+00
 1.5927501E+00  0.0000000E+00
 1.6042501E+00  0.0000000E+00
 1.6157501E+00  0.0000000E+00
 1.6272501E+00  0.0000000E+00
 1.6387501E+00  0.0000000E+00
 1.6502501E+00  0.0000000E+00
 1.6617501E+00  0.0000000E+00
 1.6732501E+00  0.0000000E+00
 1.6847501E+00  0.0000000E+00
 1.6962501E+00  0.0000000E+00
 1.7077501E+00  0.0000000E+00
 1.7192501E+00  0.0000000E+00
 1.7307501E+00  0.0000000E+00
 1.7422501E+00  0.0000000E+00
 1.7537501E+00  0.0000000E+00
 1.7652501E+00  0.0000000E+00
 1.7767501E+00  0.0000000E+00
 1.7882501E+00  0.0000000E+00
 1.7997501E+00  0.0000000E+00
 1.8112501E+00  0.0000000E+00
 1.8227501E+00  0.0000000E+00
 1.8342501E+00  0.0000000E+00
 1.8457501E+00  0.0000000E+00
 1.8572501E+00  0.0000000E+00
 1.8687501E+00  0.0000000E+00
 1.8802501E+00  0.0000000E+00
 1.8917501E+00  0.0000000E+00
 1.9032501E+00  0.0000000E+00
 1.9147501E+00  0.0000000E+00
 1.9262501E+00  0.0000000E+00
 1.9377501E+00  0.0000000E+00
 1.9492501E+00  0.0000000E+00
 1.9607501E+00  0.0000000E+00
 1.9722501E+00  0.0000000E+00
 1.9837501E+00  0.0000000E+00
 1.9952501E+00  0.0000000E+00
 2.0067501E+00  0.0000000E+00
 2.0182500E+00  0.0000000E+00
 2.0297501E+00  0.0000000E+00
 2.0412500E+00  0.0000000E+00
 2.0527501E+00  0.0000000E+00
 2.0642500E+00  0.0000000E+00
 2.0757501E+00  0.0000000E+00
 2.0872500E+00  0.0000000E+00
 2.0987501E+00  0.0000000E+00
 2.1102500E+00  0.0000000E+00
 2.1217501E+00  0.0000000E+00
 2.1332500E+00  0.0000000E+00
 2.1447501E+00  0.0000000E+00
 2.1562500E+00  0.0000000E+00
 2.1677501E+00  0.0000000E+00
 2.1792500E+00  0.0000000E+00
 2.1907501E+00  0.0000000E+00
 2.2022500E+00  0.0000000E+00
 2.2137501E+00  0.0000000E+00
 2.2252500E+00  0.0000000E+00
 2.2367501E+00  0.0000000E+00
 2.2482500E+00  0.0000000E+00
 2.2597501E+00  0.0000000E+00
 2.2712500E+00  0.0000000E+00
 2.2827501E+00  0.0000000E+00
 2.2942500E+00  0.0000000E+00
 2.3057501E+00  0.0000000E+00
 2.3172500E+00  0.0000000E+00
 2.3287501E+00  0.0000000E+00
 2.3402500E+00  0.0000000E+00
 2.3517501E+00  0.0000000E+00
 2.3632500E+00  0.0000000E+00
 2.3747501E+00  0.0000000E+00
 2.3862500E+00  0.0000000E+00
 2.3977501E+00  0.0000000E+00
 2.4092500E+00  0.0000000E+00
 2.4207501E+00  0.0000000E+00
 2.4322500E+00  0.0000000E+00
 2.4437501E+00  0.0000000E+00
 2.4552500E+00  0.0000000E+00
 2.4667501E+00  0.0000000E+00
 2.4782500E+00  0.0000000E+00
 2.4897501E+00  0.0000000E+00
 2.5012500E+00  0.0000000E+00
 2.5127501E+00  0.0000000E+00
 2.5242500E+00  0.0000000E+00
 2.5357502E+00  0.0000000E+00
 2.5472500E+00  0.0000000E+00
 2.5587502E+00  0.0000000E+00
 2.5702500E+00  0.0000000E+00
 2.5817502E+00  0.0000000E+00
 2.5932500E+00  0.0000000E+00
 2.6047502E+00  0.0000000E+00
 2.6162500E+00  0.0000000E+00
 2.6277502E+00  0.0000000E+00
 2.6392500E+00  0.0000000E+00
 2.6507502E+00  0.0000000E+00
 2.6622500E+00  0.0000000E+00
 2.6737502E+00  0.0000000E+00
 2.6852500E+00  0.0000000E+00
 2.6967502E+00  0.0000000E+00
 2.7082500E+00  0.0000000E+00
 2.7197502E+00  0.0000000E+00
 2.7312500E+00  0.0000000E+00
 2.7427502E+00  0.0000000E+00
 2.7542500E+00  0.0000000E+00
 2.7657502E+00  0.0000000E+00
 2.7772501E+00  0.0000000E+00
 2.7887502E+00  0.0000000E+00
 2.8002501E+00  0.0000000E+00
 2.8117502E+00  0.0000000E+00
 2.8232501E+00  3.4623539E+01
 2.8347502E+00  3.5949562E+01
 2.8462501E+00  3.5780712E+01
 2.8577502E+00  3.5938713E+01
 2.8692501E+00  3.5960007E+01
 2.8807502E+00  3.5721870E+01
 2.8922501E+00  3.5410366E+01
 2.9037502E+00  3.5059479E+01
 2.9152501E+00  3.5240826E+01
 2.9267502E+00  3.5238949E+01
 2.9382501E+00  3.5324219E+01
 2.9497502E+00  3.5576237E+01
 2.9612501E+00  3.5817734E+01
 2.9727502E+00  3.6269920E+01
 2.9842501E+00  3.6324028E+01
 2.9957502E+00  3.6595387E+01
 3.0072501E+00  3.6569118E+01
 3.0187502E+00  3.6356209E+01
 3.0302501E+00  3.5927608E+01
 3.0417502E+00  3.5605747E+01
 3.0532501E+00  3.5398434E+01
 3.0647502E+00  3.4962402E+01
 3.0762501E+00  3.4914616E+01
 3.0877502E+00  3.5092541E+01
 3.0992501E+00  3.5231571E+01
 3.1107502E+00  3.5291325E+01
 3.1222501E+00  3.5080647E+01
 3.1337502E+00  3.5306347E+01
 3.1452501E+00  3.5352173E+01
 3.1567502E+00  3.5148827E+01
 3.1682501E+00  3.5165878E+01
 3.1797502E+00  3.4956600E+01
 3.1912501E+00  3.5266571E+01
 3.2027502E+00  3.5209068E+01
 3.2142501E+00  3.5354580E+01
 3.2257502E+00  3.5528290E+01
 3.2372501E+00  3.5359367E+01
 3.2487502E+00  3.5476177E+01
 3.2602501E+00  3.5299564E+01
 3.2717502E+00  3.5049015E+01
 3.2832501E+00  3.4769581E+01
 3.2947502E+00  3.4531979E+01
 3.3062501E+00  3.4641846E+01
 3.3177502E+00  3.4656830E+01
 3.3292501E+00  3.4284107E+01
 3.3407502E+00  3.4143593E+01
 3.3522501E+00  3.3938068E+01
 3.3637502E+00  3.3887798E+01
 3.3752501E+00  3.4070251E+01
 3.3867502E+00  3.4094963E+01
 3.3982501E+00  3.4360039E+01
 3.4097502E+00  3.4113499E+01
 3.4212501E+00  3.3936230E+01
 3.4327502E+00  3.3566681E+01
 3.4442501E+00  3.3447933E+01
 3.4557502E+00  3.3612541E+01
 3.4672501E+00  3.3790031E+01
 3.4787502E+00  3.3841919E+01
 3.4902501E+00  3.3912197E+01
 3.5017502E+00  3.3845085E+01
 3.5132501E+00  3.3867115E+01
 3.5247502E+00  3.3711159E+01
 3.5362501E+00  3.3711357E+01
 3.5477502E+00  3.3555984E+01
 3.5592501E+00  3.3706493E+01
 3.5707502E+00  3.3457634E+01
 3.5822501E+00  3.3519150E+01
 3.5937502E+00  3.3156052E+01
 3.6052501E+00  3.2992977E+01
 3.6167502E+00  3.2996834E+01
 3.6282501E+00  3.3056358E+01
 3.6397502E+00  3.3154251E+01
 3.6512501E+00  3.3215393E+01
 3.6627502E+00  3.3043243E+01
 3.6742501E+00  3.3157173E+01
 3.6857502E+00  3.3054813E+01
 3.6972501E+00  3.3165436E+01
 3.7087502E+00  3.3159851E+01
 3.7202501E+00  3.3061695E+01
 3.7317502E+00  3.2793045E+01
 3.7432501E+00  3.2777042E+01
 3.7547503E+00  3.2706863E+01
 3.7662501E+00  3.2923790E+01
 3.7777503E+00  3.2945744E+01
 3.7892501E+00  3.2872635E+01
 3.8007503E+00  3.2742348E+01
 3.8122501E+00  3.2572132E+01
 3.8237503E+00  3.2511658E+01
 3.8352501E+00  3.2344952E+01
 3.8467503E+00  3.2086407E+01
 3.8582501E+00  3.1973524E+01
 3.8697503E+00  3.1856180E+01
 3.8812501E+00  3.1813271E+01
 3.8927503E+00  3.1701693E+01
 3.9042501E+00  3.1763292E+01
 3.9157503E+00  3.1713665E+01
 3.9272501E+00  3.1578407E+01
 3.9387503E+00  3.1495331E+01
 3.9502501E+00  3.1681314E+01
 3.9617503E+00  3.1766523E+01
 3.9732502E+00  3.1893154E+01
 3.9847503E+00  3.1933502E+01
 3.9962502E+00  3.2245167E+01
 4.0077500E+00  3.2435825E+01
 4.0192504E+00  3.2439068E+01
 4.0307503E+00  3.2266850E+01
 4.0422502E+00  3.2219734E+01
 4.0537500E+00  3.2127853E+01
 4.0652504E+00  3.2126900E+01
 4.0767503E+00  3.2081558E+01
 4.0882502E+00  3.2120842E+01
 4.0997500E+00  3.2176094E+01
 4.1112504E+00  3.2108631E+01
 4.1227503E+00  3.2107113E+01
 4.1342502E+00  3.2119812E+01
 4.1457500E+00  3.2284779E+01
 4.1572504E+00  3.2293018E+01
 4.1687503E+00  3.2313194E+01
 4.1802502E+00  3.2044804E+01
 4.1917500E+00  3.1948025E+01
 4.2032504E+00  3.1842506E+01
 4.2147503E+00  3.1902212E+01
 4.2262502E+00  3.1917353E+01
 4.2377501E+00  3.1997459E+01
 4.2492504E+00  3.2028622E+01
 4.2607503E+00  3.2217995E+01
 4.2722502E+00  3.2203896E+01
 4.2837501E+00  3.2163849E+01
 4.2952504E+00  3.1980373E+01
 4.3067503E+00  3.1859148E+01
 4.3182502E+00  3.1830658E+01
 4.3297501E+00  3.1719849E+01
 4.3412504E+00  3.1659050E+01
 4.3527503E+00  3.1768307E+01
 4.3642502E+00  3.1942766E+01
 4.3757501E+00  3.2225807E+01
 4.3872504E+00  3.2370106E+01
 4.3987503E+00  3.2617973E+01
 4.4102502E+00  3.2638084E+01
 4.4217501E+00  3.2715107E+01
 4.4332504E+00  3.2656216E+01
 4.4447503E+00  3.2517300E+01
 4.4562502E+00  3.2362846E+01
 4.4677501E+00  3.2256664E+01
 4.4792504E+00  3.2438808E+01
 4.4907503E+00  3.2319168E+01
 4.5022502E+00  3.2198883E+01
 4.5137501E+00  3.2004547E+01
 4.5252504E+00  3.2136673E+01
 4.5367503E+00  3.2243855E+01
 4.5482502E+00  3.2303101E+01
 4.5597501E+00  3.2317406E+01
 4.5712504E+00  3.2458424E+01
 4.5827503E+00  3.2447739E+01
 4.5942502E+00  3.2498230E+01
 4.6057501E+00  3.2444206E+01
 4.6172504E+00  3.2432903E+01
 4.6287503E+00  3.2473812E+01
 4.6402502E+00  3.2681450E+01
 4.6517501E+00  3.2781139E+01
 4.6632504E+00  3.3031693E+01
 4.6747503E+00  3.2912270E+01
 4.6862502E+00  3.2913521E+01
 4.6977501E+00  3.2726578E+01
 4.7092505E+00  3.2602169E+01
 4.7207503E+00  3.2393524E+01
 4.7322502E+00  3.2194534E+01
 4.7437501E+00  3.2019619E+01
 4.7552505E+00  3.2018230E+01
 4.7667503E+00  3.2175858E+01
 4.7782502E+00  3.2210457E+01
 4.7897501E+00  3.2270679E+01
 4.8012505E+00  3.2087898E+01
 4.8127503E+00  3.2091877E+01
 4.8242502E+00  3.2062908E+01
 4.8357501E+00  3.2088261E+01
 4.8472505E+00  3.2150574E+01
 4.8587503E+00  3.2273556E+01
 4.8702502E+00  3.2445835E+01
 4.8817501E+00  3.2488163E+01
 4.8932505E+00  3.2487782E+01
 4.9047503E+00  3.2384262E+01
 4.9162502E+00  3.2367062E+01
 4.9277501E+00  3.2328323E+01
 4.9392505E+00  3.2519646E+01
 4.9507504E+00  3.2689610E+01
 4.9622502E+00  3.2761379E+01
 4.9737501E+00  3.2806065E+01
 4.9852505E+00  3.2841053E+01
 4.9967504E+00  3.2890331E+01
 5.0082502E+00  3.2940060E+01
 5.0197501E+00  3.2899986E+01
 5.0312505E+00  3.2986240E+01
 5.0427504E+00  3.2960854E+01
 5.0542502E+00  3.2981190E+01
 5.0657501E+00  3.2996456E+01
 5.0772505E+00  3.2965561E+01
 5.0887504E+00  3.3017105E+01
 5.1002502E+00  3.2925877E+01
 5.1117501E+00  3.2933838E+01
 5.1232505E+00  3.2862816E+01
 5.1347504E+00  3.3125671E+01
 5.1462502E+00  3.3235519E+01
 5.1577501E+00  3.3411827E+01
 5.1692505E+00  3.3492325E+01
 5.1807504E+00  3.3609093E+01
 5.1922503E+00  3.3687061E+01
 5.2037501E+00  3.3675739E+01
 5.2152505E+00  3.3729141E+01
 5.2267504E+00  3.3723289E+01
 5.2382503E+00  3.3683239E+01
 5.2497501E+00  3.3619667E+01
 5.2612505E+00  3.3654053E+01
 5.2727504E+00  3.3712883E+01
 5.2842503E+00  3.3779060E+01
 5.2957501E+00  3.3931469E+01
 5.3072500E+00  3.3924377E+01
 5.3187504E+00  3.4077339E+01
 5.3302503E+00  3.4057369E+01
 5.3417501E+00  3.4179287E+01
 5.3532500E+00  3.4143173E+01
 5.3647504E+00  3.4245781E+01
 5.3762503E+00  3.4255489E+01
 5.3877501E+00  3.4374302E+01
 5.3992500E+00  3.4296162E+01
 5.4107504E+00  3.4236767E+01
 5.4222503E+00  3.4088707E+01
 5.4337502E+00  3.3975357E+01
 5.4452500E+00  3.3924854E+01
 5.4567504E+00  3.4014629E+01
 5.4682503E+00  3.4111393E+01
 5.4797502E+00  3.4300430E+01
 5.4912500E+00  3.4370041E+01
 5.5027504E+00  3.4504330E+01
 5.5142503E+00  3.4512100E+01
 5.5257502E+00  3.4552185E+01
 5.5372500E+00  3.4505623E+01
 5.5487504E+00  3.4445061E+01
 5.5602503E+00  3.4446617E+01
 5.5717502E+00  3.4591003E+01
 5.5832500E+00  3.4813023E+01
 5.5947504E+00  3.4961033E+01
 5.6062503E+00  3.4992035E+01
 5.6177502E+00  3.4967175E+01
 5.6292500E+00  3.4906635E+01
 5.6407504E+00  3.4782490E+01
 5.6522503E+00  3.4728279E+01
 5.6637502E+00  3.4777103E+01
 5.6752501E+00  3.4788952E+01
 5.6867504E+00  3.4900677E+01
 5.6982503E+00  3.4895653E+01
 5.7097502E+00  3.5091660E+01
 5.7212501E+00  3.5093105E+01
 5.7327504E+00  3.5234909E+01
 5.7442503E+00  3.5246143E+01
 5.7557502E+00  3.5342514E+01
 5.7672501E+00  3.5362453E+01
 5.7787504E+00  3.5397175E+01
 5.7902503E+00  3.5518467E+01
 5.8017502E+00  3.5568211E+01
 5.8132501E+00  3.5629677E+01
 5.8247504E+00  3.5692345E+01
 5.8362503E+00  3.5800777E+01
 5.8477502E+00  3.5804646E+01
 5.8592501E+00  3.5814964E+01
 5.8707504E+00  3.5795212E+01
 5.8822503E+00  3.5830616E+01
 5.8937502E+00  3.5810371E+01
 5.9052501E+00  3.5877563E+01
 5.9167504E+00  3.5945602E+01
 5.9282503E+00  3.6125202E+01
 5.9397502E+00  3.6333511E+01
 5.9512501E+00  3.6750065E+01
 5.9627504E+00  3.7099133E+01
 5.9742503E+00  3.7457596E+01
 5.9857502E+00  3.7571861E+01
 5.9972501E+00  3.7747601E+01
 6.0087504E+00  3.7448483E+01
 6.0202503E+00  3.7365379E+01
 6.0317502E+00  3.7001846E+01
 6.0432501E+00  3.6861423E+01
 6.0547504E+00  3.6620934E+01
 6.0662503E+00  3.6541843E+01
 6.0777502E+00  3.6467613E+01
 6.0892501E+00  3.6428963E+01
 6.1007504E+00  3.6343178E+01
 6.1122503E+00  3.6295563E+01
 6.1237502E+00  3.6197224E+01
 6.1352501E+00  3.6129078E+01
 6.1467505E+00  3.6121655E+01
 6.1582503E+00  3.6233196E+01
 6.1697502E+00  3.6320156E+01
 6.1812501E+00  3.6440903E+01
 6.1927505E+00  3.6517017E+01
 6.2042503E+00  3.6617458E+01
 6.2157502E+00  3.6771614E+01
 6.2272501E+00  3.6999527E+01
 6.2387505E+00  3.7122341E+01
 6.2502503E+00  3.7341816E+01
 6.2617502E+00  3.7388660E+01
 6.2732501E+00  3.7555763E+01
 6.2847505E+00  3.7575089E+01
 6.2962503E+00  3.7599358E+01
 6.3077502E+00  3.7614258E+01
 6.3192501E+00  3.7545540E+01
 6.3307505E+00  3.7593891E+01
 6.3422503E+00  3.7626263E+01
 6.3537502E+00  3.7792934E+01
 6.3652501E+00  3.7962410E+01
 6.3767505E+00  3.8120731E+01
 6.3882504E+00  3.8285934E+01
 6.3997502E+00  3.8280064E+01
 6.4112501E+00  3.8355412E+01
 6.4227505E+00  3.8308273E+01
 6.4342504E+00  3.8381805E+01
 6.4457502E+00  3.8435024E+01
 6.4572501E+00  3.8629063E+01
 6.4687505E+00  3.8747662E+01
 6.4802504E+00  3.8927395E+01
 6.4917502E+00  3.8956612E+01
 6.5032501E+00  3.9036560E+01
 6.5147505E+00  3.9098114E+01
 6.5262504E+00  3.9046471E+01
 6.5377502E+00  3.9142799E+01
 6.5492501E+00  3.9153740E+01
 6.5607505E+00  3.9285484E+01
 6.5722504E+00  3.9382286E+01
 6.5837502E+00  3.9471416E+01
 6.5952501E+00  3.9547829E+01
 6.6067505E+00  3.9554199E+01
 6.6182504E+00  3.9573917E+01
 6.6297503E+00  3.9579819E+01
 6.6412501E+00  3.9659008E+01
 6.6527505E+00  3.9744736E+01
 6.6642504E+00  3.9893829E+01
 6.6757503E+00  3.9926804E+01
 6.6872501E+00  3.9912457E+01
 6.6987505E+00  3.9899719E+01
 6.7102504E+00  3.9970715E+01
 6.7217503E+00  4.0096027E+01
 6.7332501E+00  4.0247433E+01
 6.7447505E+00  4.0350201E+01
 6.7562504E+00  4.0655342E+01
 6.7677503E+00  4.0815487E+01
 6.7792501E+00  4.1040646E+01
 6.7907505E+00  4.1171982E+01
 6.8022504E+00  4.1331108E+01
 6.8137503E+00  4.1420643E+01
 6.8252501E+00  4.1343742E+01
 6.8367505E+00  4.1240314E+01
 6.8482504E+00  4.1326653E+01
 6.8597503E+00  4.1362972E+01
 6.8712502E+00  4.1452766E+01
 6.8827505E+00  4.1522541E+01
 6.8942504E+00  4.1635059E+01
 6.9057503E+00  4.1672783E+01
 6.9172502E+00  4.1668282E+01
 6.9287505E+00  4.1640503E+01
 6.9402504E+00  4.1692432E+01
 6.9517503E+00  4.1756321E+01
 6.9632502E+00  4.1780102E+01
 6.9747505E+00  4.1923950E+01
 6.9862504E+00  4.2037113E+01
 6.9977503E+00  4.2144390E+01
 7.0092502E+00  4.2220943E+01
 7.0207505E+00  4.2239124E+01
 7.0322504E+00  4.2251518E+01
 7.0437503E+00  4.2351059E+01
 7.0552502E+00  4.2399464E+01
 7.0667505E+00  4.2628483E+01
 7.0782504E+00  4.2586601E+01
 7.0897503E+00  4.2668774E+01
 7.1012502E+00  4.2614304E+01
 7.1127505E+00  4.2692223E+01
 7.1242504E+00  4.2764214E+01
 7.1357503E+00  4.2777584E+01
 7.1472502E+00  4.2817001E+01
 7.1587505E+00  4.2902512E+01
 7.1702504E+00  4.3027348E+01
 7.1817503E+00  4.3141609E+01
 7.1932502E+00  4.3244377E+01
 7.2047505E+00  4.3395966E+01
 7.2162504E+00  4.3473049E+01
 7.2277503E+00  4.3499100E+01
 7.2392502E+00  4.3616917E+01
 7.2507505E+00  4.3756096E+01
 7.2622504E+00  4.3799664E+01
 7.2737503E+00  4.3712048E+01
 7.2852502E+00  4.3517643E+01
 7.2967505E+00  4.3481140E+01
 7.3082504E+00  4.3383026E+01
 7.3197503E+00  4.3438511E+01
 7.3312502E+00  4.3505344E+01
 7.3427505E+00  4.3628044E+01
 7.3542504E+00  4.3650982E+01
 7.3657503E+00  4.3699020E+01
 7.3772502E+00  4.3719032E+01
 7.3887506E+00  4.3796375E+01
 7.4002504E+00  4.3816158E+01
 7.4117503E+00  4.3778240E+01
 7.4232502E+00  4.3746246E+01
 7.4347506E+00  4.3738430E+01
 7.4462504E+00  4.3839233E+01
 7.4577503E+00  4.3957390E+01
 7.4692502E+00  4.4008698E+01
 7.4807506E+00  4.4090427E+01
 7.4922504E+00  4.4038357E+01
 7.5037503E+00  4.4072945E+01
 7.5152502E+00  4.4010868E+01
 7.5267506E+00  4.4026039E+01
 7.5382504E+00  4.4010429E+01
 7.5497503E+00  4.3989048E+01
 7.5612502E+00  4.4069660E+01
 7.5727506E+00  4.4137356E+01
 7.5842505E+00  4.4167774E+01
 7.5957503E+00  4.4220310E+01
 7.6072502E+00  4.4228958E+01
 7.6187506E+00  4.4197876E+01
 7.6302505E+00  4.4048252E+01
 7.6417503E+00  4.3969463E+01
 7.6532502E+00  4.3847019E+01
 7.6647506E+00  4.3729359E+01
 7.6762505E+00  4.3653408E+01
 7.6877503E+00  4.3688969E+01
 7.6992502E+00  4.3693165E+01
 7.7107506E+00  4.3755234E+01
 7.7222505E+00  4.3789703E+01
 7.7337503E+00  4.3950329E+01
 7.7452502E+00  4.4010765E+01
 7.7567506E+00  4.4089344E+01
 7.7682505E+00  4.4171780E+01
 7.7797503E+00  4.4168938E+01
 7.7912502E+00  4.4139771E+01
 7.8027506E+00  4.3991547E+01
 7.8142505E+00  4.3887096E+01
 7.8257504E+00  4.3767067E+01
 7.8372502E+00  4.3840034E+01
 7.8487506E+00  4.3901741E+01
 7.8602505E+00  4.4054260E+01
 7.8717504E+00  4.3912682E+01
 7.8832502E+00  4.3844597E+01
 7.8947506E+00  4.3704285E+01
 7.9062505E+00  4.3817928E+01
 7.9177504E+00  4.3819866E+01
 7.9292502E+00  4.3840542E+01
 7.9407506E+00  4.3721889E+01
 7.9522505E+00  4.3577934E+01
 7.9637504E+00  4.3466450E+01
 7.9752502E+00  4.3365448E+01
 7.9867506E+00  4.3485191E+01
 7.9982505E+00  4.3519562E+01
 8.0097504E+00  4.3503510E+01
 8.0212507E+00  4.3445892E+01
 8.0327501E+00  4.3342293E+01
 8.0442505E+00  4.3338898E+01
 8.0557508E+00  4.3136250E+01
 8.0672503E+00  4.3030678E+01
 8.0787506E+00  4.2890747E+01
 8.0902500E+00  4.2889599E+01
 8.1017504E+00  4.2795956E+01
 8.1132507E+00  4.2709209E+01
 8.1247501E+00  4.2512180E+01
 8.1362505E+00  4.2443729E+01
 8.1477509E+00  4.2316647E+01
 8.1592503E+00  4.2317314E+01
 8.1707506E+00  4.2248402E+01
 8.1822500E+00  4.2195538E+01
 8.1937504E+00  4.2161926E+01
 8.2052507E+00  4.1963120E+01
 8.2167501E+00  4.1791019E+01
 8.2282505E+00  4.1601631E+01
 8.2397509E+00  4.1481346E+01
 8.2512503E+00  4.1392353E+01
 8.2627506E+00  4.1243046E+01
 8.2742500E+00  4.1027729E+01
 8.2857504E+00  4.0868336E+01
 8.2972507E+00  4.0570297E+01
 8.3087502E+00  4.0451073E+01
 8.3202505E+00  4.0307953E+01
 8.3317509E+00  4.0223156E+01
 8.3432503E+00  4.0152958E+01
 8.3547506E+00  4.0060944E+01
 8.3662500E+00  3.9990417E+01
 8.3777504E+00  3.9820148E+01
 8.3892508E+00  3.9580997E+01
 8.4007502E+00  3.9312965E+01
 8.4122505E+00  3.9098652E+01
 8.4237509E+00  3.8877781E+01
 8.4352503E+00  3.8639648E+01
 8.4467506E+00  3.8548660E+01
 8.4582500E+00  3.8383026E+01
 8.4697504E+00  3.8311039E+01
 8.4812508E+00  3.8126072E+01
 8.4927502E+00  3.7934933E+01
 8.5042505E+00  3.7739716E+01
 8.5157509E+00  3.7595650E+01
 8.5272503E+00  3.7362434E+01
 8.5387506E+00  3.7167591E+01
 8.5502501E+00  3.6877449E+01
 8.5617504E+00  3.6748573E+01
 8.5732508E+00  3.6655102E+01
 8.5847502E+00  3.6453487E+01
 8.5962505E+00  3.6276951E+01
 8.6077509E+00  3.6116333E+01
 8.6192503E+00  3.6058994E+01
 8.6307507E+00  3.6022388E+01
 8.6422501E+00  3.5892693E+01
 8.6537504E+00  3.5689186E+01
 8.6652508E+00  3.5523594E+01
 8.6767502E+00  3.5362423E+01
 8.6882505E+00  3.5267075E+01
 8.6997509E+00  3.5124123E+01
 8.7112503E+00  3.4919857E+01
 8.7227507E+00  3.4719231E+01
 8.7342501E+00  3.4480732E+01
 8.7457504E+00  3.4287613E+01
 8.7572508E+00  3.4128006E+01
 8.7687502E+00  3.3963634E+01
 8.7802505E+00  3.3816090E+01
 8.7917500E+00  3.3571667E+01
 8.8032503E+00  3.3407600E+01
 8.8147507E+00  3.3191376E+01
 8.8262501E+00  3.3051407E+01
 8.8377504E+00  3.2892895E+01
 8.8492508E+00  3.2753460E+01
 8.8607502E+00  3.2588127E+01
 8.8722506E+00  3.2381359E+01
 8.8837500E+00  3.2190392E+01
 8.8952503E+00  3.1943867E+01
 8.9067507E+00  3.1780481E+01
 8.9182501E+00  3.1589535E+01
 8.9297504E+00  3.1501547E+01
 8.9412508E+00  3.1312180E+01
 8.9527502E+00  3.1142260E+01
 8.9642506E+00  3.1028412E+01
 8.9757500E+00  3.0892643E+01
 8.9872503E+00  3.0788774E+01
 8.9987507E+00  3.0605902E+01
 9.0102501E+00  3.0414286E+01
 9.0217505E+00  3.0246286E+01
 9.0332508E+00  3.0124104E+01
 9.0447502E+00  3.0045038E+01
 9.0562506E+00  2.9985674E+01
 9.0677500E+00  2.9863737E+01
 9.0792503E+00  2.9706894E+01
 9.0907507E+00  2.9557629E+01
 9.1022501E+00  2.9357691E+01
 9.1137505E+00  2.9238560E+01
 9.1252508E+00  2.9112242E+01
 9.1367502E+00  2.9038507E+01
 9.1482506E+00  2.8928270E+01
 9.1597500E+00  2.8769873E+01
 9.1712503E+00  2.8611624E+01
 9.1827507E+00  2.8468105E+01
 9.1942501E+00  2.8297668E+01
 9.2057505E+00  2.8126587E+01
 9.2172508E+00  2.8071154E+01
 9.2287502E+00  2.7997086E+01
 9.2402506E+00  2.8021944E+01
 9.2517500E+00  2.7962135E+01
 9.2632504E+00  2.7880297E+01
 9.2747507E+00  2.7761505E+01
 9.2862501E+00  2.7622824E+01
 9.2977505E+00  2.7501446E+01
 9.3092508E+00  2.7388451E+01
 9.3207502E+00  2.7256620E+01
 9.3322506E+00  2.7143267E+01
 9.3437500E+00  2.6997194E+01
 9.3552504E+00  2.6894884E+01
 9.3667507E+00  2.6855770E+01
 9.3782501E+00  2.6856825E+01
 9.3897505E+00  2.6927990E+01
 9.4012508E+00  2.6906664E+01
 9.4127502E+00  2.6928722E+01
 9.4242506E+00  2.6790800E+01
 9.4357500E+00  2.6696198E+01
 9.4472504E+00  2.6507006E+01
 9.4587507E+00  2.6333874E+01
 9.4702501E+00  2.6226563E+01
 9.4817505E+00  2.6212818E+01
 9.4932508E+00  2.6210474E+01
 9.5047503E+00  2.6191534E+01
 9.5162506E+00  2.6096626E+01
 9.5277500E+00  2.6060551E+01
 9.5392504E+00  2.6010557E+01
 9.5507507E+00  2.5872889E+01
 9.5622501E+00  2.5734339E+01
 9.5737505E+00  2.5583073E+01
 9.5852509E+00  2.5476101E+01
 9.5967503E+00  2.5468983E+01
 9.6082506E+00  2.5446964E+01
 9.6197500E+00  2.5480513E+01
 9.6312504E+00  2.5378418E+01
 9.6427507E+00  2.5310041E+01
 9.6542501E+00  2.5184208E+01
 9.6657505E+00  2.5081274E+01
 9.6772509E+00  2.4971752E+01
 9.6887503E+00  2.4900408E+01
 9.7002506E+00  2.4901632E+01
 9.7117500E+00  2.4930225E+01
 9.7232504E+00  2.4931696E+01
 9.7347507E+00  2.4927809E+01
 9.7462502E+00  2.4866659E+01
 9.7577505E+00  2.4831961E+01
 9.7692509E+00  2.4788771E+01
 9.7807503E+00  2.4806282E+01
 9.7922506E+00  2.4804472E+01
 9.8037500E+00  2.4823971E+01
 9.8152504E+00  2.4736326E+01
 9.8267508E+00  2.4694323E+01
 9.8382502E+00  2.4583551E+01
 9.8497505E+00  2.4585991E+01
 9.8612509E+00  2.4518023E+01
 9.8727503E+00  2.4504618E+01
 9.8842506E+00  2.4337450E+01
 9.8957500E+00  2.4267834E+01
 9.9072504E+00  2.4206272E+01
 9.9187508E+00  2.4195118E+01
 9.9302502E+00  2.4115757E+01
 9.9417505E+00  2.4016016E+01
 9.9532509E+00  2.3988878E+01
 9.9647503E+00  2.4037941E+01
 9.9762506E+00  2.4106869E+01
 9.9877501E+00  2.4142262E+01
 9.9992504E+00  2.4127579E+01
 1.0010751E+01  2.4067598E+01
 1.0022250E+01  2.4039948E+01
 1.0033751E+01  2.3967274E+01
 1.0045251E+01  2.3956465E+01
 1.0056750E+01  2.3922958E+01
 1.0068251E+01  2.3923391E+01
 1.0079750E+01  2.3893061E+01
 1.0091250E+01  2.3876820E+01
 1.0102751E+01  2.3884991E+01
 1.0114250E+01  2.3832151E+01
 1.0125751E+01  2.3760725E+01
 1.0137251E+01  2.3692593E+01
 1.0148750E+01  2.3665081E+01
 1.0160251E+01  2.3709688E+01
 1.0171750E+01  2.3740276E+01
 1.0183250E+01  2.3814468E+01
 1.0194751E+01  2.3800837E+01
 1.0206250E+01  2.3772911E+01
 1.0217751E+01  2.3676285E+01
 1.0229251E+01  2.3580221E+01
 1.0240750E+01  2.3428225E+01
 1.0252251E+01  2.3310143E+01
 1.0263750E+01  2.3214567E+01
 1.0275250E+01  2.3185867E+01
 1.0286751E+01  2.3195045E+01
 1.0298250E+01  2.3188757E+01
 1.0309751E+01  2.3224968E+01
 1.0321251E+01  2.3251413E+01
 1.0332750E+01  2.3277790E+01
 1.0344251E+01  2.3263596E+01
 1.0355750E+01  2.3283274E+01
 1.0367250E+01  2.3198599E+01
 1.0378751E+01  2.3188789E+01
 1.0390250E+01  2.3165958E+01
 1.0401751E+01  2.3154337E+01
 1.0413251E+01  2.3094069E+01
 1.0424750E+01  2.3012444E+01
 1.0436251E+01  2.3032133E+01
 1.0447750E+01  2.3048332E+01
 1.0459250E+01  2.3049339E+01
 1.0470751E+01  2.3067295E+01
 1.0482250E+01  2.3049694E+01
 1.0493751E+01  2.3022713E+01
 1.0505251E+01  2.2945621E+01
 1.0516750E+01  2.2871305E+01
 1.0528251E+01  2.2767263E+01
 1.0539750E+01  2.2727177E+01
 1.0551250E+01  2.2745975E+01
 1.0562751E+01  2.2775511E+01
 1.0574250E+01  2.2727661E+01
 1.0585751E+01  2.2685995E+01
 1.0597251E+01  2.2632610E+01
 1.0608750E+01  2.2633932E+01
 1.0620251E+01  2.2607023E+01
 1.0631750E+01  2.2641443E+01
 1.0643250E+01  2.2662882E+01
 1.0654751E+01  2.2682829E+01
 1.0666250E+01  2.2697388E+01
 1.0677751E+01  2.2671124E+01
 1.0689251E+01  2.2674944E+01
 1.0700750E+01  2.2640602E+01
 1.0712251E+01  2.2638597E+01
 1.0723750E+01  2.2630571E+01
 1.0735250E+01  2.2639933E+01
 1.0746751E+01  2.2631281E+01
 1.0758250E+01  2.2580683E+01
 1.0769751E+01  2.2504635E+01
 1.0781251E+01  2.2457571E+01
 1.0792750E+01  2.2427639E+01
 1.0804251E+01  2.2451902E+01
 1.0815750E+01  2.2460541E+01
 1.0827250E+01  2.2502325E+01
 1.0838751E+01  2.2466103E+01
 1.0850250E+01  2.2452198E+01
 1.0861751E+01  2.2401302E+01
 1.0873251E+01  2.2414421E+01
 1.0884750E+01  2.2375393E+01
 1.0896251E+01  2.2360670E+01
 1.0907750E+01  2.2351088E+01
 1.0919250E+01  2.2329304E+01
 1.0930751E+01  2.2331749E+01
 1.0942250E+01  2.2324329E+01
 1.0953751E+01  2.2328617E+01
 1.0965251E+01  2.2302715E+01
 1.0976750E+01  2.2367378E+01
 1.0988251E+01  2.2451719E+01
 1.0999750E+01  2.2506262E+01
 1.1011250E+01  2.2449884E+01
 1.1022751E+01  2.2398661E+01
 1.1034250E+01  2.2360344E+01
 1.1045751E+01  2.2297821E+01
 1.1057251E+01  2.2218208E+01
 1.1068750E+01  2.2182726E+01
 1.1080251E+01  2.2148197E+01
 1.1091750E+01  2.2172247E+01
 1.1103251E+01  2.2177794E+01
 1.1114751E+01  2.2213423E+01
 1.1126250E+01  2.2212219E+01
 1.1137751E+01  2.2201952E+01
 1.1149251E+01  2.2205004E+01
 1.1160750E+01  2.2245401E+01
 1.1172251E+01  2.2216013E+01
 1.1183750E+01  2.2190590E+01
 1.1195251E+01  2.2124489E+01
 1.1206751E+01  2.2138256E+01
 1.1218250E+01  2.2113823E+01
 1.1229751E+01  2.2066721E+01
 1.1241251E+01  2.2037731E+01
 1.1252750E+01  2.2026333E+01
 1.1264251E+01  2.2003084E+01
 1.1275750E+01  2.2012236E+01
 1.1287251E+01  2.1977268E+01
 1.1298751E+01  2.1995314E+01
 1.1310250E+01  2.1966162E+01
 1.1321751E+01  2.1976604E+01
 1.1333251E+01  2.2010967E+01
 1.1344750E+01  2.2004766E+01
 1.1356251E+01  2.2043447E+01
 1.1367750E+01  2.2096514E+01
 1.1379251E+01  2.2184351E+01
 1.1390751E+01  2.2203577E+01
 1.1402250E+01  2.2279478E+01
 1.1413751E+01  2.2224949E+01
 1.1425251E+01  2.2227570E+01
 1.1436750E+01  2.2156225E+01
 1.1448251E+01  2.2179539E+01
 1.1459750E+01  2.2164034E+01
 1.1471251E+01  2.2175079E+01
 1.1482751E+01  2.2137215E+01
 1.1494250E+01  2.2085474E+01
 1.1505751E+01  2.2018988E+01
 1.1517251E+01  2.2032421E+01
 1.1528750E+01  2.2140036E+01
 1.1540251E+01  2.2290537E+01
 1.1551750E+01  2.2444105E+01
 1.1563251E+01  2.2625853E+01
 1.1574751E+01  2.2718346E+01
 1.1586250E+01  2.2798864E+01
 1.1597751E+01  2.2778854E+01
 1.1609251E+01  2.2662249E+01
 1.1620750E+01  2.2476599E+01
 1.1632251E+01  2.2285290E+01
 1.1643750E+01  2.2158144E+01
 1.1655251E+01  2.2116560E+01
 1.1666751E+01  2.2076933E+01
 1.1678250E+01  2.2055315E+01
 1.1689751E+01  2.2053608E+01
 1.1701251E+01  2.2040279E+01
 1.1712750E+01  2.2084433E+01
 1.1724251E+01  2.2019014E+01
 1.1735750E+01  2.2000971E+01
 1.1747251E+01  2.1975456E+01
 1.1758751E+01  2.2004972E+01
 1.1770250E+01  2.2008667E+01
 1.1781751E+01  2.2010607E+01
 1.1793251E+01  2.2058540E+01
 1.1804750E+01  2.2092159E+01
 1.1816251E+01  2.2095598E+01
 1.1827750E+01  2.2076321E+01
 1.1839251E+01  2.2028753E+01
 1.1850751E+01  2.1976870E+01
 1.1862250E+01  2.1949150E+01
 1.1873751E+01  2.1952486E+01
 1.1885251E+01  2.2002817E+01
 1.1896750E+01  2.2067631E+01
 1.1908251E+01  2.2114225E+01
 1.1919750E+01  2.2134596E+01
 1.1931251E+01  2.2117647E+01
 1.1942751E+01  2.2155626E+01
 1.1954250E+01  2.2189863E+01
 1.1965751E+01  2.2234974E+01
 1.1977251E+01  2.2287176E+01
 1.1988750E+01  2.2341387E+01
 1.2000251E+01  2.2372200E+01
 1.2011750E+01  2.2342131E+01
 1.2023251E+01  2.2313982E+01
 1.2034751E+01  2.2285772E+01
 1.2046250E+01  2.2305170E+01
 1.2057751E+01  2.2298948E+01
 1.2069251E+01  2.2358728E+01
 1.2080750E+01  2.2410034E+01
 1.2092251E+01  2.2435143E+01
 1.2103750E+01  2.2379421E+01
 1.2115251E+01  2.2293655E+01
 1.2126751E+01  2.2284857E+01
 1.2138250E+01  2.2257954E+01
 1.2149751E+01  2.2256067E+01
 1.2161251E+01  2.2201372E+01
 1.2172750E+01  2.2196169E+01
 1.2184251E+01  2.2179173E+01
 1.2195750E+01  2.2138243E+01
 1.2207251E+01  2.2109852E+01
 1.2218751E+01  2.2065739E+01
 1.2230250E+01  2.2075356E+01
 1.2241751E+01  2.2038586E+01
 1.2253251E+01  2.2041824E+01
 1.2264750E+01  2.2064438E+01
 1.2276251E+01  2.2083263E+01
 1.2287750E+01  2.2139105E+01
 1.2299251E+01  2.2134790E+01
 1.2310751E+01  2.2206177E+01
 1.2322250E+01  2.2192226E+01
 1.2333751E+01  2.2220900E+01
 1.2345250E+01  2.2196163E+01
 1.2356750E+01  2.2210688E+01
 1.2368251E+01  2.2165794E+01
 1.2379750E+01  2.2150461E+01
 1.2391251E+01  2.2119596E+01
 1.2402751E+01  2.2116222E+01
 1.2414250E+01  2.2130220E+01
 1.2425751E+01  2.2102064E+01
 1.2437250E+01  2.2146568E+01
 1.2448750E+01  2.2150509E+01
 1.2460251E+01  2.2202911E+01
 1.2471750E+01  2.2240067E+01
 1.2483251E+01  2.2205395E+01
 1.2494751E+01  2.2201679E+01
 1.2506250E+01  2.2124477E+01
 1.2517751E+01  2.2131243E+01
 1.2529250E+01  2.2127123E+01
 1.2540751E+01  2.2147736E+01
 1.2552251E+01  2.2184713E+01
 1.2563750E+01  2.2229910E+01
 1.2575251E+01  2.2313414E+01
 1.2586751E+01  2.2344414E+01
 1.2598250E+01  2.2371088E+01
 1.2609751E+01  2.2406384E+01
 1.2621250E+01  2.2447882E+01
 1.2632751E+01  2.2469027E+01
 1.2644251E+01  2.2425524E+01
 1.2655750E+01  2.2397980E+01
 1.2667251E+01  2.2393692E+01
 1.2678751E+01  2.2416435E+01
 1.2690250E+01  2.2480062E+01
 1.2701751E+01  2.2523584E+01
 1.2713250E+01  2.2597198E+01
 1.2724751E+01  2.2605774E+01
 1.2736251E+01  2.2652925E+01
 1.2747750E+01  2.2660625E+01
 1.2759251E+01  2.2659643E+01
 1.2770751E+01  2.2635986E+01
 1.2782250E+01  2.2646561E+01
 1.2793751E+01  2.2625612E+01
 1.2805250E+01  2.2670332E+01
 1.2816751E+01  2.2748936E+01
 1.2828251E+01  2.2890726E+01
 1.2839750E+01  2.2954063E+01
 1.2851251E+01  2.2984026E+01
 1.2862751E+01  2.3062645E+01
 1.2874250E+01  2.3050083E+01
 1.2885751E+01  2.3034271E+01
 1.2897250E+01  2.2991890E+01
 1.2908751E+01  2.3092138E+01
 1.2920251E+01  2.3226295E+01
 1.2931750E+01  2.3358585E+01
 1.2943251E+01  2.3395491E+01
 1.2954751E+01  2.3396875E+01
 1.2966250E+01  2.3438974E+01
 1.2977751E+01  2.3483150E+01
 1.2989250E+01  2.3537947E+01
 1.3000751E+01  2.3563482E+01
 1.3012251E+01  2.3633268E+01
 1.3023750E+01  2.3743414E+01
 1.3035251E+01  2.3833691E+01
 1.3046751E+01  2.3878294E+01
 1.3058250E+01  2.3896505E+01
 1.3069751E+01  2.3903738E+01
 1.3081250E+01  2.3991070E+01
 1.3092751E+01  2.4111361E+01
 1.3104251E+01  2.4304846E+01
 1.3115750E+01  2.4450365E+01
 1.3127251E+01  2.4581791E+01
 1.3138751E+01  2.4686205E+01
 1.3150250E+01  2.4795544E+01
 1.3161751E+01  2.4896137E+01
 1.3173250E+01  2.5014561E+01
 1.3184751E+01  2.5146807E+01
 1.3196251E+01  2.5242590E+01
 1.3207750E+01  2.5387917E+01
 1.3219251E+01  2.5543316E+01
 1.3230751E+01  2.5776764E+01
 1.3242250E+01  2.5937208E+01
 1.3253751E+01  2.6050840E+01
 1.3265250E+01  2.6136387E+01
 1.3276751E+01  2.6257133E+01
 1.3288251E+01  2.6466740E+01
 1.3299750E+01  2.6717190E+01
 1.3311251E+01  2.6891029E+01
 1.3322751E+01  2.7109629E+01
 1.3334250E+01  2.7232983E+01
 1.3345751E+01  2.7327242E+01
 1.3357250E+01  2.7399405E+01
 1.3368751E+01  2.7413805E+01
 1.3380251E+01  2.7575706E+01
 1.3391750E+01  2.7658697E+01
 1.3403251E+01  2.7831194E+01
 1.3414751E+01  2.7934265E+01
 1.3426250E+01  2.8017618E+01
 1.3437751E+01  2.8190987E+01
 1.3449250E+01  2.8343170E+01
 1.3460751E+01  2.8583935E+01
 1.3472251E+01  2.8738943E+01
 1.3483750E+01  2.8882055E+01
 1.3495251E+01  2.8908588E+01
 1.3506751E+01  2.8957813E+01
 1.3518250E+01  2.9014769E+01
 1.3529751E+01  2.9100431E+01
 1.3541250E+01  2.9180502E+01
 1.3552751E+01  2.9254421E+01
 1.3564251E+01  2.9277002E+01
 1.3575750E+01  2.9306139E+01
 1.3587251E+01  2.9340443E+01
 1.3598751E+01  2.9368576E+01
 1.3610250E+01  2.9387449E+01
 1.3621751E+01  2.9361473E+01
 1.3633250E+01  2.9336275E+01
 1.3644751E+01  2.9331858E+01
 1.3656251E+01  2.9315048E+01
 1.3667750E+01  2.9388288E+01
 1.3679251E+01  2.9372696E+01
 1.3690751E+01  2.9340332E+01
 1.3702250E+01  2.9208744E+01
 1.3713751E+01  2.9067226E+01
 1.3725250E+01  2.8988670E+01
 1.3736751E+01  2.8952673E+01
 1.3748251E+01  2.8914312E+01
 1.3759750E+01  2.8875586E+01
 1.3771251E+01  2.8792027E+01
 1.3782751E+01  2.8731771E+01
 1.3794250E+01  2.8655748E+01
 1.3805751E+01  2.8599909E+01
 1.3817250E+01  2.8595079E+01
 1.3828751E+01  2.8631369E+01
 1.3840251E+01  2.8664402E+01
 1.3851750E+01  2.8620398E+01
 1.3863251E+01  2.8591105E+01
 1.3874751E+01  2.8532749E+01
 1.3886250E+01  2.8575964E+01
 1.3897751E+01  2.8669733E+01
 1.3909250E+01  2.8921892E+01
 1.3920751E+01  2.9189573E+01
 1.3932251E+01  2.9454679E+01
 1.3943750E+01  2.9661367E+01
 1.3955251E+01  2.9798735E+01
 1.3966751E+01  2.9798338E+01
 1.3978251E+01  2.9673473E+01
 1.3989751E+01  2.9379135E+01
 1.4001250E+01  2.9015871E+01
 1.4012751E+01  2.8547636E+01
 1.4024251E+01  2.8122419E+01
 1.4035750E+01  2.7692926E+01
 1.4047251E+01  2.7375252E+01
 1.4058751E+01  2.7153690E+01
 1.4070251E+01  2.7069687E+01
 1.4081751E+01  2.6994267E+01
 1.4093250E+01  2.6955666E+01
 1.4104751E+01  2.6864120E+01
 1.4116251E+01  2.6826145E+01
 1.4127750E+01  2.6737535E+01
 1.4139251E+01  2.6678200E+01
 1.4150751E+01  2.6583652E+01
 1.4162251E+01  2.6525959E+01
 1.4173751E+01  2.6427769E+01
 1.4185250E+01  2.6371075E+01
 1.4196751E+01  2.6313126E+01
 1.4208251E+01  2.6310764E+01
 1.4219750E+01  2.6308029E+01
 1.4231251E+01  2.6241140E+01
 1.4242751E+01  2.6208424E+01
 1.4254251E+01  2.6129976E+01
 1.4265751E+01  2.6122763E+01
 1.4277250E+01  2.6015684E+01
 1.4288751E+01  2.5979507E+01
 1.4300251E+01  2.5913471E+01
 1.4311750E+01  2.5950884E+01
 1.4323251E+01  2.5892822E+01
 1.4334751E+01  2.5894802E+01
 1.4346251E+01  2.5819548E+01
 1.4357751E+01  2.5816963E+01
 1.4369250E+01  2.5749722E+01
 1.4380751E+01  2.5733730E+01
 1.4392251E+01  2.5706501E+01
 1.4403750E+01  2.5743921E+01
 1.4415251E+01  2.5717556E+01
 1.4426751E+01  2.5716013E+01
 1.4438251E+01  2.5686453E+01
 1.4449751E+01  2.5647736E+01
 1.4461250E+01  2.5569845E+01
 1.4472751E+01  2.5476545E+01
 1.4484251E+01  2.5373716E+01
 1.4495750E+01  2.5315300E+01
 1.4507251E+01  2.5300430E+01
 1.4518751E+01  2.5315874E+01
 1.4530251E+01  2.5374565E+01
 1.4541751E+01  2.5338480E+01
 1.4553250E+01  2.5323793E+01
 1.4564751E+01  2.5228462E+01
 1.4576251E+01  2.5214298E+01
 1.4587750E+01  2.5168470E+01
 1.4599251E+01  2.5119852E+01
 1.4610751E+01  2.5083460E+01
 1.4622251E+01  2.5063587E+01
 1.4633751E+01  2.5031736E+01
 1.4645250E+01  2.4905891E+01
 1.4656751E+01  2.4857822E+01
 1.4668251E+01  2.4771559E+01
 1.4679750E+01  2.4794195E+01
 1.4691251E+01  2.4758999E+01
 1.4702751E+01  2.4794632E+01
 1.4714251E+01  2.4799305E+01
 1.4725751E+01  2.4767170E+01
 1.4737250E+01  2.4721035E+01
 1.4748751E+01  2.4645859E+01
 1.4760251E+01  2.4607803E+01
 1.4771750E+01  2.4594429E+01
 1.4783251E+01  2.4592108E+01
 1.4794751E+01  2.4552910E+01
 1.4806251E+01  2.4531647E+01
 1.4817751E+01  2.4493263E+01
 1.4829250E+01  2.4549170E+01
 1.4840751E+01  2.4557783E+01
 1.4852251E+01  2.4586199E+01
 1.4863750E+01  2.4553726E+01
 1.4875251E+01  2.4537735E+01
 1.4886751E+01  2.4543379E+01
 1.4898251E+01  2.4546560E+01
 1.4909751E+01  2.4562174E+01
 1.4921250E+01  2.4543518E+01
 1.4932751E+01  2.4515121E+01
 1.4944251E+01  2.4455662E+01
 1.4955750E+01  2.4450451E+01
 1.4967251E+01  2.4391922E+01
 1.4978751E+01  2.4395344E+01
 1.4990251E+01  2.4370409E+01
 1.5001751E+01  2.4419090E+01
 1.5013250E+01  2.4488798E+01
 1.5024751E+01  2.4538193E+01
 1.5036251E+01  2.4520901E+01
 1.5047750E+01  2.4417242E+01
 1.5059251E+01  2.4336521E+01
 1.5070751E+01  2.4308739E+01
 1.5082251E+01  2.4271311E+01
 1.5093751E+01  2.4252829E+01
 1.5105250E+01  2.4265320E+01
 1.5116751E+01  2.4306730E+01
 1.5128251E+01  2.4317654E+01
 1.5139750E+01  2.4335075E+01
 1.5151251E+01  2.4374939E+01
 1.5162751E+01  2.4441105E+01
 1.5174251E+01  2.4474606E+01
 1.5185751E+01  2.4467138E+01
 1.5197250E+01  2.4407068E+01
 1.5208751E+01  2.4359694E+01
 1.5220251E+01  2.4309357E+01
 1.5231750E+01  2.4294361E+01
 1.5243251E+01  2.4208832E+01
 1.5254751E+01  2.4185520E+01
 1.5266251E+01  2.4109783E+01
 1.5277751E+01  2.4143311E+01
 1.5289250E+01  2.4155743E+01
 1.5300751E+01  2.4181860E+01
 1.5312251E+01  2.4146658E+01
 1.5323750E+01  2.4071306E+01
 1.5335251E+01  2.4060844E+01
 1.5346751E+01  2.4087423E+01
 1.5358251E+01  2.4109558E+01
 1.5369751E+01  2.4103662E+01
 1.5381250E+01  2.4022161E+01
 1.5392751E+01  2.3991575E+01
 1.5404251E+01  2.4050678E+01
 1.5415751E+01  2.4103806E+01
 1.5427251E+01  2.4167309E+01
 1.5438751E+01  2.4154997E+01
 1.5450251E+01  2.4194992E+01
 1.5461751E+01  2.4236788E+01
 1.5473250E+01  2.4229353E+01
 1.5484751E+01  2.4211218E+01
 1.5496251E+01  2.4234985E+01
 1.5507751E+01  2.4254147E+01
 1.5519251E+01  2.4292301E+01
 1.5530751E+01  2.4278065E+01
 1.5542251E+01  2.4264017E+01
 1.5553751E+01  2.4217621E+01
 1.5565250E+01  2.4199301E+01
 1.5576751E+01  2.4224846E+01
 1.5588251E+01  2.4247938E+01
 1.5599751E+01  2.4240923E+01
 1.5611251E+01  2.4212061E+01
 1.5622751E+01  2.4201084E+01
 1.5634251E+01  2.4153116E+01
 1.5645751E+01  2.4123819E+01
 1.5657250E+01  2.4111490E+01
 1.5668751E+01  2.4138998E+01
 1.5680251E+01  2.4193119E+01
 1.5691751E+01  2.4196239E+01
 1.5703251E+01  2.4248812E+01
 1.5714751E+01  2.4259146E+01
 1.5726251E+01  2.4275547E+01
 1.5737751E+01  2.4239449E+01
 1.5749250E+01  2.4232212E+01
 1.5760751E+01  2.4217800E+01
 1.5772251E+01  2.4261787E+01
 1.5783751E+01  2.4257734E+01
 1.5795251E+01  2.4268442E+01
 1.5806751E+01  2.4241674E+01
 1.5818251E+01  2.4214769E+01
 1.5829751E+01  2.4161116E+01
 1.5841250E+01  2.4107693E+01
 1.5852751E+01  2.4136787E+01
 1.5864251E+01  2.4173025E+01
 1.5875751E+01  2.4201414E+01
 1.5887251E+01  2.4180037E+01
 1.5898750E+01  2.4172783E+01
 1.5910251E+01  2.4178144E+01
 1.5921751E+01  2.4187901E+01
 1.5933250E+01  2.4208542E+01
 1.5944751E+01  2.4190220E+01
 1.5956251E+01  2.4233198E+01
 1.5967751E+01  2.4242645E+01
 1.5979251E+01  2.4279806E+01
 1.5990750E+01  2.4257786E+01
 1.6002251E+01  2.4249994E+01
 1.6013750E+01  2.4273617E+01
 1.6025251E+01  2.4321775E+01
 1.6036751E+01  2.4382469E+01
 1.6048250E+01  2.4425392E+01
 1.6059752E+01  2.4442240E+01
 1.6071251E+01  2.4372402E+01
 1.6082750E+01  2.4407278E+01
 1.6094252E+01  2.4416590E+01
 1.6105751E+01  2.4486807E+01
 1.6117250E+01  2.4473316E+01
 1.6128750E+01  2.4437658E+01
 1.6140251E+01  2.4485474E+01
 1.6151751E+01  2.4475128E+01
 1.6163250E+01  2.4555855E+01
 1.6174751E+01  2.4503017E+01
 1.6186251E+01  2.4681820E+01
 1.6197750E+01  2.4641516E+01
 1.6209251E+01  2.5056097E+01
 1.6220751E+01  2.5085550E+01
 1.6232250E+01  2.5531958E+01
 1.6243752E+01  2.5590517E+01
 1.6255251E+01  2.5790018E+01
 1.6266750E+01  2.5848223E+01
 1.6278252E+01  2.5531492E+01
 1.6289751E+01  2.5568544E+01
 1.6301250E+01  2.5005056E+01
 1.6312750E+01  2.5005611E+01
 1.6324251E+01  2.4575102E+01
 1.6335751E+01  2.4615168E+01
 1.6347250E+01  2.4418427E+01
 1.6358751E+01  2.4388760E+01
 1.6370251E+01  2.4261442E+01
 1.6381750E+01  2.4246651E+01
 1.6393251E+01  2.4223299E+01
 1.6404751E+01  2.4291012E+01
 1.6416250E+01  2.4328436E+01
 1.6427752E+01  2.4276884E+01
 1.6439251E+01  2.4232531E+01
 1.6450750E+01  2.4150997E+01
 1.6462252E+01  2.4167225E+01
 1.6473751E+01  2.4170080E+01
 1.6485250E+01  2.4235535E+01
 1.6496750E+01  2.4254564E+01
 1.6508251E+01  2.4269985E+01
 1.6519751E+01  2.4274389E+01
 1.6531250E+01  2.4279625E+01
 1.6542751E+01  2.4301788E+01
 1.6554251E+01  2.4315571E+01
 1.6565750E+01  2.4323088E+01
 1.6577251E+01  2.4290487E+01
 1.6588751E+01  2.4302385E+01
 1.6600250E+01  2.4311375E+01
 1.6611752E+01  2.4347162E+01
 1.6623251E+01  2.4292316E+01
 1.6634750E+01  2.4301224E+01
 1.6646252E+01  2.4267942E+01
 1.6657751E+01  2.4255959E+01
 1.6669250E+01  2.4197172E+01
 1.6680750E+01  2.4125273E+01
 1.6692251E+01  2.4112471E+01
 1.6703751E+01  2.4053900E+01
 1.6715250E+01  2.4095963E+01
 1.6726751E+01  2.4096331E+01
 1.6738251E+01  2.4122305E+01
 1.6749750E+01  2.4179859E+01
 1.6761251E+01  2.4167263E+01
 1.6772751E+01  2.4178293E+01
 1.6784250E+01  2.4130672E+01
 1.6795752E+01  2.4137146E+01
 1.6807251E+01  2.4132519E+01
 1.6818750E+01  2.4059353E+01
 1.6830252E+01  2.4033304E+01
 1.6841751E+01  2.3972418E+01
 1.6853251E+01  2.3993519E+01
 1.6864750E+01  2.4010969E+01
 1.6876251E+01  2.4030546E+01
 1.6887751E+01  2.4048246E+01
 1.6899250E+01  2.4043783E+01
 1.6910751E+01  2.4019518E+01
 1.6922251E+01  2.3976698E+01
 1.6933750E+01  2.3982824E+01
 1.6945251E+01  2.3980581E+01
 1.6956751E+01  2.4019270E+01
 1.6968250E+01  2.4034794E+01
 1.6979752E+01  2.4064089E+01
 1.6991251E+01  2.4029629E+01
 1.7002750E+01  2.3978796E+01
 1.7014252E+01  2.3967590E+01
 1.7025751E+01  2.3950054E+01
 1.7037251E+01  2.3920769E+01
 1.7048750E+01  2.3868643E+01
 1.7060251E+01  2.3864643E+01
 1.7071751E+01  2.3855291E+01
 1.7083250E+01  2.3819242E+01
 1.7094751E+01  2.3750628E+01
 1.7106251E+01  2.3689995E+01
 1.7117750E+01  2.3656075E+01
 1.7129251E+01  2.3670380E+01
 1.7140751E+01  2.3734987E+01
 1.7152250E+01  2.3746159E+01
 1.7163752E+01  2.3749815E+01
 1.7175251E+01  2.3731134E+01
 1.7186750E+01  2.3735956E+01
 1.7198252E+01  2.3701208E+01
 1.7209751E+01  2.3686045E+01
 1.7221251E+01  2.3674377E+01
 1.7232750E+01  2.3683054E+01
 1.7244251E+01  2.3702133E+01
 1.7255751E+01  2.3706806E+01
 1.7267250E+01  2.3701284E+01
 1.7278751E+01  2.3668419E+01
 1.7290251E+01  2.3653826E+01
 1.7301750E+01  2.3651827E+01
 1.7313251E+01  2.3665903E+01
 1.7324751E+01  2.3704281E+01
 1.7336250E+01  2.3722536E+01
 1.7347752E+01  2.3734257E+01
 1.7359251E+01  2.3725563E+01
 1.7370750E+01  2.3734091E+01
 1.7382252E+01  2.3709135E+01
 1.7393751E+01  2.3674864E+01
 1.7405251E+01  2.3641813E+01
 1.7416750E+01  2.3643988E+01
 1.7428251E+01  2.3627954E+01
 1.7439751E+01  2.3610174E+01
 1.7451250E+01  2.3589128E+01
 1.7462751E+01  2.3592188E+01
 1.7474251E+01  2.3598335E+01
 1.7485750E+01  2.3596973E+01
 1.7497252E+01  2.3565321E+01
 1.7508751E+01  2.3512373E+01
 1.7520250E+01  2.3448778E+01
 1.7531752E+01  2.3403486E+01
 1.7543251E+01  2.3429371E+01
 1.7554750E+01  2.3429785E+01
 1.7566252E+01  2.3406710E+01
 1.7577751E+01  2.3363874E+01
 1.7589251E+01  2.3325804E+01
 1.7600750E+01  2.3401546E+01
 1.7612251E+01  2.3471979E+01
 1.7623751E+01  2.3547096E+01
 1.7635250E+01  2.3503220E+01
 1.7646751E+01  2.3475327E+01
 1.7658251E+01  2.3411108E+01
 1.7669750E+01  2.3456739E+01
 1.7681252E+01  2.3490807E+01
 1.7692751E+01  2.3578014E+01
 1.7704250E+01  2.3529675E+01
 1.7715752E+01  2.3493639E+01
 1.7727251E+01  2.3431995E+01
 1.7738750E+01  2.3430698E+01
 1.7750252E+01  2.3449059E+01
 1.7761751E+01  2.3450382E+01
 1.7773251E+01  2.3445473E+01
 1.7784750E+01  2.3392908E+01
 1.7796251E+01  2.3368803E+01
 1.7807751E+01  2.3290619E+01
 1.7819250E+01  2.3238422E+01
 1.7830751E+01  2.3199947E+01
 1.7842251E+01  2.3188576E+01
 1.7853750E+01  2.3159628E+01
 1.7865252E+01  2.3186749E+01
 1.7876751E+01  2.3211418E+01
 1.7888250E+01  2.3222557E+01
 1.7899752E+01  2.3237768E+01
 1.7911251E+01  2.3277981E+01
 1.7922750E+01  2.3309145E+01
 1.7934252E+01  2.3281078E+01
 1.7945751E+01  2.3337210E+01
 1.7957251E+01  2.3359226E+01
 1.7968750E+01  2.3417126E+01
 1.7980251E+01  2.3413734E+01
 1.7991751E+01  2.3418869E+01
 1.8003250E+01  2.3407038E+01
 1.8014751E+01  2.3431303E+01
 1.8026251E+01  2.3425215E+01
 1.8037750E+01  2.3454659E+01
 1.8049252E+01  2.3434599E+01
 1.8060751E+01  2.3446955E+01
 1.8072250E+01  2.3372812E+01
 1.8083752E+01  2.3413811E+01
 1.8095251E+01  2.3444788E+01
 1.8106750E+01  2.3483358E+01
 1.8118252E+01  2.3430914E+01
 1.8129751E+01  2.3384674E+01
 1.8141251E+01  2.3339489E+01
 1.8152750E+01  2.3294422E+01
 1.8164251E+01  2.3271179E+01
 1.8175751E+01  2.3252323E+01
 1.8187250E+01  2.3188374E+01
 1.8198751E+01  2.3156834E+01
 1.8210251E+01  2.3119160E+01
 1.8221750E+01  2.3142649E+01
 1.8233252E+01  2.3145452E+01
 1.8244751E+01  2.3176069E+01
 1.8256250E+01  2.3168436E+01
 1.8267752E+01  2.3143234E+01
 1.8279251E+01  2.3086750E+01
 1.8290751E+01  2.3047266E+01
 1.8302252E+01  2.3055479E+01
 1.8313751E+01  2.3073597E+01
 1.8325251E+01  2.3077953E+01
 1.8336750E+01  2.3094526E+01
 1.8348251E+01  2.3148174E+01
 1.8359751E+01  2.3201376E+01
 1.8371250E+01  2.3172924E+01
 1.8382751E+01  2.3083332E+01
 1.8394251E+01  2.3065989E+01
 1.8405750E+01  2.3084518E+01
 1.8417252E+01  2.3100744E+01
 1.8428751E+01  2.3078487E+01
 1.8440250E+01  2.3073816E+01
 1.8451752E+01  2.3085737E+01
 1.8463251E+01  2.3096151E+01
 1.8474751E+01  2.3131069E+01
 1.8486252E+01  2.3133512E+01
 1.8497751E+01  2.3127705E+01
 1.8509251E+01  2.3114452E+01
 1.8520750E+01  2.3070990E+01
 1.8532251E+01  2.3053703E+01
 1.8543751E+01  2.3027315E+01
 1.8555250E+01  2.2998507E+01
 1.8566751E+01  2.2979008E+01
 1.8578251E+01  2.2992590E+01
 1.8589750E+01  2.3054562E+01
 1.8601252E+01  2.3071474E+01
 1.8612751E+01  2.3045570E+01
 1.8624250E+01  2.3015755E+01
 1.8635752E+01  2.3026558E+01
 1.8647251E+01  2.3073418E+01
 1.8658751E+01  2.3037300E+01
 1.8670252E+01  2.3092562E+01
 1.8681751E+01  2.3137440E+01
 1.8693251E+01  2.3177465E+01
 1.8704750E+01  2.3181753E+01
 1.8716251E+01  2.3161135E+01
 1.8727751E+01  2.3203548E+01
 1.8739250E+01  2.3172623E+01
 1.8750751E+01  2.3152891E+01
 1.8762251E+01  2.3064766E+01
 1.8773750E+01  2.3020948E+01
 1.8785252E+01  2.3029919E+01
 1.8796751E+01  2.3059875E+01
 1.8808250E+01  2.3097120E+01
 1.8819752E+01  2.3109226E+01
 1.8831251E+01  2.3127327E+01
 1.8842751E+01  2.3100704E+01
 1.8854252E+01  2.3070406E+01
 1.8865751E+01  2.3026352E+01
 1.8877251E+01  2.3019032E+01
 1.8888750E+01  2.3057491E+01
 1.8900251E+01  2.3098524E+01
 1.8911751E+01  2.3123400E+01
 1.8923250E+01  2.3136879E+01
 1.8934752E+01  2.3189257E+01
 1.8946251E+01  2.3186914E+01
 1.8957750E+01  2.3146324E+01
 1.8969252E+01  2.3066753E+01
 1.8980751E+01  2.2992466E+01
 1.8992250E+01  2.2952219E+01
 1.9003752E+01  2.2943138E+01
 1.9015251E+01  2.2993818E+01
 1.9026751E+01  2.3056810E+01
 1.9038252E+01  2.3104452E+01
 1.9049751E+01  2.3114037E+01
 1.9061251E+01  2.3154121E+01
 1.9072750E+01  2.3185623E+01
 1.9084251E+01  2.3189453E+01
 1.9095751E+01  2.3116165E+01
 1.9107250E+01  2.3082054E+01
 1.9118752E+01  2.3068752E+01
 1.9130251E+01  2.3113773E+01
 1.9141750E+01  2.3112856E+01
 1.9153252E+01  2.3109793E+01
 1.9164751E+01  2.3068228E+01
 1.9176250E+01  2.3050898E+01
 1.9187752E+01  2.3062548E+01
 1.9199251E+01  2.3030085E+01
 1.9210751E+01  2.3051699E+01
 1.9222252E+01  2.3025734E+01
 1.9233751E+01  2.3034554E+01
 1.9245251E+01  2.3059185E+01
 1.9256750E+01  2.3105255E+01
 1.9268251E+01  2.3141356E+01
 1.9279751E+01  2.3111177E+01
 1.9291250E+01  2.3106407E+01
 1.9302752E+01  2.3126892E+01
 1.9314251E+01  2.3115107E+01
 1.9325750E+01  2.3074808E+01
 1.9337252E+01  2.3043531E+01
 1.9348751E+01  2.3023569E+01
 1.9360250E+01  2.3042963E+01
 1.9371752E+01  2.3048645E+01
 1.9383251E+01  2.3063683E+01
 1.9394751E+01  2.3128399E+01
 1.9406250E+01  2.3122322E+01
 1.9417751E+01  2.3166353E+01
 1.9429251E+01  2.3129053E+01
 1.9440750E+01  2.3153313E+01
 1.9452251E+01  2.3132027E+01
 1.9463751E+01  2.3167093E+01
 1.9475250E+01  2.3211174E+01
 1.9486752E+01  2.3218882E+01
 1.9498251E+01  2.3187317E+01
 1.9509750E+01  2.3143930E+01
 1.9521252E+01  2.3154720E+01
 1.9532751E+01  2.3187679E+01
 1.9544250E+01  2.3245434E+01
 1.9555752E+01  2.3213894E+01
 1.9567251E+01  2.3209959E+01
 1.9578751E+01  2.3167633E+01
 1.9590250E+01  2.3201317E+01
 1.9601751E+01  2.3230612E+01
 1.9613251E+01  2.3228088E+01
 1.9624750E+01  2.3191868E+01
 1.9636251E+01  2.3153738E+01
 1.9647751E+01  2.3118166E+01
 1.9659250E+01  2.3198832E+01
 1.9670752E+01  2.3271976E+01
 1.9682251E+01  2.3396755E+01
 1.9693750E+01  2.3473337E+01
 1.9705252E+01  2.3604044E+01
 1.9716751E+01  2.3623074E+01
 1.9728251E+01  2.3588722E+01
 1.9739752E+01  2.3535084E+01
 1.9751251E+01  2.3469387E+01
 1.9762751E+01  2.3420988E+01
 1.9774250E+01  2.3341740E+01
 1.9785751E+01  2.3394356E+01
 1.9797251E+01  2.3434595E+01
 1.9808750E+01  2.3477579E+01
 1.9820251E+01  2.3496088E+01
 1.9831751E+01  2.3571980E+01
 1.9843250E+01  2.3642305E+01
 1.9854752E+01  2.3694246E+01
 1.9866251E+01  2.3717875E+01
 1.9877750E+01  2.3697763E+01
 1.9889252E+01  2.3608698E+01
 1.9900751E+01  2.3546034E+01
 1.9912251E+01  2.3427710E+01
 1.9923752E+01  2.3358797E+01
 1.9935251E+01  2.3247793E+01
 1.9946751E+01  2.3240095E+01
 1.9958250E+01  2.3187742E+01
 1.9969751E+01  2.3238865E+01
 1.9981251E+01  2.3235359E+01
 1.9992750E+01  2.3260992E+01
 2.0004251E+01  2.3248817E+01
 2.0015751E+01  2.3225220E+01
 2.0027250E+01  2.3206041E+01
 2.0038752E+01  2.3190542E+01
 2.0050251E+01  2.3277246E+01
 2.0061750E+01  2.3296888E+01
 2.0073252E+01  2.3265923E+01
 2.0084751E+01  2.3184446E+01
 2.0096251E+01  2.3163328E+01
 2.0107752E+01  2.3146030E+01
 2.0119251E+01  2.3144835E+01
 2.0130751E+01  2.3173571E+01
 2.0142250E+01  2.3186462E+01
 2.0153751E+01  2.3202343E+01
 2.0165251E+01  2.3209475E+01
 2.0176750E+01  2.3239126E+01
 2.0188251E+01  2.3219112E+01
 2.0199751E+01  2.3197033E+01
 2.0211250E+01  2.3181732E+01
 2.0222752E+01  2.3193899E+01
 2.0234251E+01  2.3206949E+01
 2.0245750E+01  2.3211586E+01
 2.0257252E+01  2.3224100E+01
 2.0268751E+01  2.3227541E+01
 2.0280251E+01  2.3236917E+01
 2.0291752E+01  2.3238943E+01
 2.0303251E+01  2.3195055E+01
 2.0314751E+01  2.3187302E+01
 2.0326250E+01  2.3201157E+01
 2.0337751E+01  2.3249622E+01
 2.0349251E+01  2.3276634E+01
 2.0360750E+01  2.3258667E+01
 2.0372252E+01  2.3231236E+01
 2.0383751E+01  2.3190657E+01
 2.0395250E+01  2.3195477E+01
 2.0406752E+01  2.3215866E+01
 2.0418251E+01  2.3285393E+01
 2.0429750E+01  2.3371099E+01
 2.0441252E+01  2.3361591E+01
 2.0452751E+01  2.3340887E+01
 2.0464251E+01  2.3295986E+01
 2.0475752E+01  2.3296175E+01
 2.0487251E+01  2.3288296E+01
 2.0498751E+01  2.3302681E+01
 2.0510250E+01  2.3306128E+01
 2.0521751E+01  2.3265833E+01
 2.0533251E+01  2.3226263E+01
 2.0544750E+01  2.3213833E+01
 2.0556252E+01  2.3235977E+01
 2.0567751E+01  2.3283268E+01
 2.0579250E+01  2.3307411E+01
 2.0590752E+01  2.3323235E+01
 2.0602251E+01  2.3341562E+01
 2.0613750E+01  2.3333883E+01
 2.0625252E+01  2.3345438E+01
 2.0636751E+01  2.3373575E+01
 2.0648251E+01  2.3382473E+01
 2.0659752E+01  2.3379211E+01
 2.0671251E+01  2.3352446E+01
 2.0682751E+01  2.3422428E+01
 2.0694250E+01  2.3460892E+01
 2.0705751E+01  2.3542202E+01
 2.0717251E+01  2.3594847E+01
 2.0728750E+01  2.3708332E+01
 2.0740252E+01  2.3764095E+01
 2.0751751E+01  2.3818253E+01
 2.0763250E+01  2.3803860E+01
 2.0774752E+01  2.3779932E+01
 2.0786251E+01  2.3685745E+01
 2.0797750E+01  2.3636263E+01
 2.0809252E+01  2.3554747E+01
 2.0820751E+01  2.3507345E+01
 2.0832251E+01  2.3424280E+01
 2.0843752E+01  2.3396095E+01
 2.0855251E+01  2.3351488E+01
 2.0866751E+01  2.3329744E+01
 2.0878250E+01  2.3310274E+01
 2.0889751E+01  2.3345560E+01
 2.0901251E+01  2.3389746E+01
 2.0912750E+01  2.3426592E+01
 2.0924252E+01  2.3470816E+01
 2.0935751E+01  2.3508368E+01
 2.0947250E+01  2.3503029E+01
 2.0958752E+01  2.3463099E+01
 2.0970251E+01  2.3417894E+01
 2.0981750E+01  2.3418341E+01
 2.0993252E+01  2.3405613E+01
 2.1004751E+01  2.3431347E+01
 2.1016251E+01  2.3410330E+01
 2.1027752E+01  2.3437429E+01
 2.1039251E+01  2.3469809E+01
 2.1050751E+01  2.3429541E+01
 2.1062250E+01  2.3441702E+01
 2.1073751E+01  2.3446751E+01
 2.1085251E+01  2.3504852E+01
 2.1096750E+01  2.3492426E+01
 2.1108252E+01  2.3525003E+01
 2.1119751E+01  2.3572853E+01
 2.1131250E+01  2.3611269E+01
 2.1142752E+01  2.3524553E+01
 2.1154251E+01  2.3437155E+01
 2.1165751E+01  2.3405882E+01
 2.1177252E+01  2.3502754E+01
 2.1188751E+01  2.3576410E+01
 2.1200251E+01  2.3605463E+01
 2.1211752E+01  2.3587967E+01
 2.1223251E+01  2.3518299E+01
 2.1234751E+01  2.3507950E+01
 2.1246250E+01  2.3559187E+01
 2.1257751E+01  2.3624283E+01
 2.1269251E+01  2.3627262E+01
 2.1280750E+01  2.3578897E+01
 2.1292252E+01  2.3553200E+01
 2.1303751E+01  2.3514242E+01
 2.1315250E+01  2.3478392E+01
 2.1326752E+01  2.3485233E+01
 2.1338251E+01  2.3529736E+01
 2.1349751E+01  2.3547228E+01
 2.1361252E+01  2.3523569E+01
 2.1372751E+01  2.3561869E+01
 2.1384251E+01  2.3520483E+01
 2.1395752E+01  2.3499029E+01
 2.1407251E+01  2.3414574E+01
 2.1418751E+01  2.3379606E+01
 2.1430250E+01  2.3392344E+01
 2.1441751E+01  2.3399513E+01
 2.1453251E+01  2.3441311E+01
 2.1464750E+01  2.3509060E+01
 2.1476252E+01  2.3594547E+01
 2.1487751E+01  2.3692064E+01
 2.1499250E+01  2.3705580E+01
 2.1510752E+01  2.3739901E+01
 2.1522251E+01  2.3655674E+01
 2.1533751E+01  2.3628256E+01
 2.1545252E+01  2.3529016E+01
 2.1556751E+01  2.3508339E+01
 2.1568251E+01  2.3476271E+01
 2.1579752E+01  2.3492126E+01
 2.1591251E+01  2.3553661E+01
 2.1602751E+01  2.3605146E+01
 2.1614250E+01  2.3628782E+01
 2.1625751E+01  2.3632454E+01
 2.1637251E+01  2.3620823E+01
 2.1648750E+01  2.3628035E+01
 2.1660252E+01  2.3656908E+01
 2.1671751E+01  2.3686016E+01
 2.1683250E+01  2.3704065E+01
 2.1694752E+01  2.3668335E+01
 2.1706251E+01  2.3678152E+01
 2.1717751E+01  2.3670326E+01
 2.1729252E+01  2.3681282E+01
 2.1740751E+01  2.3670561E+01
 2.1752251E+01  2.3647638E+01
 2.1763752E+01  2.3655184E+01
 2.1775251E+01  2.3656574E+01
 2.1786751E+01  2.3709564E+01
 2.1798250E+01  2.3735027E+01
 2.1809752E+01  2.3744200E+01
 2.1821251E+01  2.3736292E+01
 2.1832750E+01  2.3688217E+01
 2.1844252E+01  2.3635109E+01
 2.1855751E+01  2.3637255E+01
 2.1867250E+01  2.3680763E+01
 2.1878752E+01  2.3730141E+01
 2.1890251E+01  2.3685696E+01
 2.1901751E+01  2.3684935E+01
 2.1913252E+01  2.3674227E+01
 2.1924751E+01  2.3726789E+01
 2.1936251E+01  2.3733780E+01
 2.1947752E+01  2.3742910E+01
 2.1959251E+01  2.3709520E+01
 2.1970751E+01  2.3756947E+01
 2.1982250E+01  2.3753378E+01
 2.1993752E+01  2.3754429E+01
 2.2005251E+01  2.3750986E+01
 2.2016750E+01  2.3827560E+01
 2.2028252E+01  2.3870705E+01
 2.2039751E+01  2.3857473E+01
 2.2051250E+01  2.3862011E+01
 2.2062752E+01  2.3828403E+01
 2.2074251E+01  2.3837729E+01
 2.2085751E+01  2.3846920E+01
 2.2097252E+01  2.3870691E+01
 2.2108751E+01  2.3871613E+01
 2.2120251E+01  2.3856335E+01
 2.2131752E+01  2.3841835E+01
 2.2143251E+01  2.3843357E+01
 2.2154751E+01  2.3824848E+01
 2.2166250E+01  2.3825905E+01
 2.2177752E+01  2.3818296E+01
 2.2189251E+01  2.3814495E+01
 2.2200750E+01  2.3856083E+01
 2.2212252E+01  2.3885475E+01
 2.2223751E+01  2.3913580E+01
 2.2235250E+01  2.3928566E+01
 2.2246752E+01  2.3966549E+01
 2.2258251E+01  2.4002867E+01
 2.2269751E+01  2.4006718E+01
 2.2281252E+01  2.4011372E+01
 2.2292751E+01  2.3979595E+01
 2.2304251E+01  2.4035595E+01
 2.2315752E+01  2.4016865E+01
 2.2327251E+01  2.3991310E+01
 2.2338751E+01  2.3968102E+01
 2.2350250E+01  2.4009054E+01
 2.2361752E+01  2.4040693E+01
 2.2373251E+01  2.4019907E+01
 2.2384750E+01  2.4000914E+01
 2.2396252E+01  2.3993576E+01
 2.2407751E+01  2.3995028E+01
 2.2419250E+01  2.3990635E+01
 2.2430752E+01  2.4079491E+01
 2.2442251E+01  2.4156723E+01
 2.2453751E+01  2.4203518E+01
 2.2465252E+01  2.4180601E+01
 2.2476751E+01  2.4127338E+01
 2.2488251E+01  2.4140207E+01
 2.2499752E+01  2.4159624E+01
 2.2511251E+01  2.4230198E+01
 2.2522751E+01  2.4301754E+01
 2.2534250E+01  2.4327858E+01
 2.2545752E+01  2.4374979E+01
 2.2557251E+01  2.4369524E+01
 2.2568750E+01  2.4403728E+01
 2.2580252E+01  2.4384960E+01
 2.2591751E+01  2.4418221E+01
 2.2603251E+01  2.4403290E+01
 2.2614752E+01  2.4452682E+01
 2.2626251E+01  2.4458593E+01
 2.2637751E+01  2.4463608E+01
 2.2649252E+01  2.4501661E+01
 2.2660751E+01  2.4561943E+01
 2.2672251E+01  2.4739521E+01
 2.2683752E+01  2.4869947E+01
 2.2695251E+01  2.5043343E+01
 2.2706751E+01  2.5150726E+01
 2.2718250E+01  2.5340586E+01
 2.2729752E+01  2.5419117E+01
 2.2741251E+01  2.5320816E+01
 2.2752750E+01  2.5163477E+01
 2.2764252E+01  2.4935484E+01
 2.2775751E+01  2.4818344E+01
 2.2787251E+01  2.4730024E+01
 2.2798752E+01  2.4793547E+01
 2.2810251E+01  2.4844995E+01
 2.2821751E+01  2.4912783E+01
 2.2833252E+01  2.4964987E+01
 2.2844751E+01  2.5023108E+01
 2.2856251E+01  2.5006470E+01
 2.2867750E+01  2.4980587E+01
 2.2879251E+01  2.5008734E+01
 2.2890751E+01  2.5193802E+01
 2.2902250E+01  2.5318050E+01
 2.2913752E+01  2.5435005E+01
 2.2925251E+01  2.5570667E+01
 2.2936750E+01  2.5618288E+01
 2.2948252E+01  2.5540945E+01
 2.2959751E+01  2.5472294E+01
 2.2971251E+01  2.5585651E+01
 2.2982752E+01  2.5628925E+01
 2.2994251E+01  2.5675688E+01
