F:\20151113_APS_34IDE\\Brian\Particle1\OCV\Data_0083.tif
2-Theta Angle (Degrees)
Intensity
       2000
 5.7500005E-03  0.0000000E+00
 1.7250001E-02  0.0000000E+00
 2.8750001E-02  0.0000000E+00
 4.0250003E-02  0.0000000E+00
 5.1750004E-02  0.0000000E+00
 6.3250005E-02  0.0000000E+00
 7.4750006E-02  0.0000000E+00
 8.6250007E-02  0.0000000E+00
 9.7750008E-02  0.0000000E+00
 1.0925001E-01  0.0000000E+00
 1.2075000E-01  0.0000000E+00
 1.3225001E-01  0.0000000E+00
 1.4375001E-01  0.0000000E+00
 1.5525001E-01  0.0000000E+00
 1.6675001E-01  0.0000000E+00
 1.7825001E-01  0.0000000E+00
 1.8975002E-01  0.0000000E+00
 2.0125002E-01  0.0000000E+00
 2.1275002E-01  0.0000000E+00
 2.2425000E-01  0.0000000E+00
 2.3575000E-01  0.0000000E+00
 2.4725001E-01  0.0000000E+00
 2.5875002E-01  0.0000000E+00
 2.7025002E-01  0.0000000E+00
 2.8175002E-01  0.0000000E+00
 2.9325002E-01  0.0000000E+00
 3.0475003E-01  0.0000000E+00
 3.1625003E-01  0.0000000E+00
 3.2775003E-01  0.0000000E+00
 3.3925003E-01  0.0000000E+00
 3.5075003E-01  0.0000000E+00
 3.6225003E-01  0.0000000E+00
 3.7375003E-01  0.0000000E+00
 3.8525003E-01  0.0000000E+00
 3.9675003E-01  0.0000000E+00
 4.0825003E-01  0.0000000E+00
 4.1975003E-01  0.0000000E+00
 4.3125004E-01  0.0000000E+00
 4.4275001E-01  0.0000000E+00
 4.5425001E-01  0.0000000E+00
 4.6575001E-01  0.0000000E+00
 4.7725001E-01  0.0000000E+00
 4.8875001E-01  0.0000000E+00
 5.0025004E-01  0.0000000E+00
 5.1175004E-01  0.0000000E+00
 5.2325004E-01  0.0000000E+00
 5.3475004E-01  0.0000000E+00
 5.4625005E-01  0.0000000E+00
 5.5775005E-01  0.0000000E+00
 5.6925005E-01  0.0000000E+00
 5.8075005E-01  0.0000000E+00
 5.9225005E-01  0.0000000E+00
 6.0375005E-01  0.0000000E+00
 6.1525005E-01  0.0000000E+00
 6.2675005E-01  0.0000000E+00
 6.3825005E-01  0.0000000E+00
 6.4975005E-01  0.0000000E+00
 6.6125005E-01  0.0000000E+00
 6.7275006E-01  0.0000000E+00
 6.8425006E-01  0.0000000E+00
 6.9575006E-01  0.0000000E+00
 7.0725006E-01  0.0000000E+00
 7.1875006E-01  0.0000000E+00
 7.3025006E-01  0.0000000E+00
 7.4175006E-01  0.0000000E+00
 7.5325006E-01  0.0000000E+00
 7.6475006E-01  0.0000000E+00
 7.7625006E-01  0.0000000E+00
 7.8775007E-01  0.0000000E+00
 7.9925007E-01  0.0000000E+00
 8.1075007E-01  0.0000000E+00
 8.2225007E-01  0.0000000E+00
 8.3375007E-01  0.0000000E+00
 8.4525007E-01  0.0000000E+00
 8.5675007E-01  0.0000000E+00
 8.6825007E-01  0.0000000E+00
 8.7975001E-01  0.0000000E+00
 8.9125001E-01  0.0000000E+00
 9.0275002E-01  0.0000000E+00
 9.1425002E-01  0.0000000E+00
 9.2575002E-01  0.0000000E+00
 9.3725002E-01  0.0000000E+00
 9.4875002E-01  0.0000000E+00
 9.6025002E-01  0.0000000E+00
 9.7175002E-01  0.0000000E+00
 9.8325002E-01  0.0000000E+00
 9.9475002E-01  0.0000000E+00
 1.0062500E+00  0.0000000E+00
 1.0177500E+00  0.0000000E+00
 1.0292500E+00  0.0000000E+00
 1.0407500E+00  0.0000000E+00
 1.0522500E+00  0.0000000E+00
 1.0637500E+00  0.0000000E+00
 1.0752500E+00  0.0000000E+00
 1.0867500E+00  0.0000000E+00
 1.0982500E+00  0.0000000E+00
 1.1097500E+00  0.0000000E+00
 1.1212500E+00  0.0000000E+00
 1.1327500E+00  0.0000000E+00
 1.1442500E+00  0.0000000E+00
 1.1557500E+00  0.0000000E+00
 1.1672500E+00  0.0000000E+00
 1.1787500E+00  0.0000000E+00
 1.1902500E+00  0.0000000E+00
 1.2017500E+00  0.0000000E+00
 1.2132500E+00  0.0000000E+00
 1.2247500E+00  0.0000000E+00
 1.2362500E+00  0.0000000E+00
 1.2477500E+00  0.0000000E+00
 1.2592500E+00  0.0000000E+00
 1.2707500E+00  0.0000000E+00
 1.2822500E+00  0.0000000E+00
 1.2937500E+00  0.0000000E+00
 1.3052500E+00  0.0000000E+00
 1.3167500E+00  0.0000000E+00
 1.3282501E+00  0.0000000E+00
 1.3397501E+00  0.0000000E+00
 1.3512501E+00  0.0000000E+00
 1.3627501E+00  0.0000000E+00
 1.3742501E+00  0.0000000E+00
 1.3857501E+00  0.0000000E+00
 1.3972501E+00  0.0000000E+00
 1.4087501E+00  0.0000000E+00
 1.4202501E+00  0.0000000E+00
 1.4317501E+00  0.0000000E+00
 1.4432501E+00  0.0000000E+00
 1.4547501E+00  0.0000000E+00
 1.4662501E+00  0.0000000E+00
 1.4777501E+00  0.0000000E+00
 1.4892501E+00  0.0000000E+00
 1.5007501E+00  0.0000000E+00
 1.5122501E+00  0.0000000E+00
 1.5237501E+00  0.0000000E+00
 1.5352501E+00  0.0000000E+00
 1.5467501E+00  0.0000000E+00
 1.5582501E+00  0.0000000E+00
 1.5697501E+00  0.0000000E+00
 1.5812501E+00  0.0000000E+00
 1.5927501E+00  0.0000000E+00
 1.6042501E+00  0.0000000E+00
 1.6157501E+00  0.0000000E+00
 1.6272501E+00  0.0000000E+00
 1.6387501E+00  0.0000000E+00
 1.6502501E+00  0.0000000E+00
 1.6617501E+00  0.0000000E+00
 1.6732501E+00  0.0000000E+00
 1.6847501E+00  0.0000000E+00
 1.6962501E+00  0.0000000E+00
 1.7077501E+00  0.0000000E+00
 1.7192501E+00  0.0000000E+00
 1.7307501E+00  0.0000000E+00
 1.7422501E+00  0.0000000E+00
 1.7537501E+00  0.0000000E+00
 1.7652501E+00  0.0000000E+00
 1.7767501E+00  0.0000000E+00
 1.7882501E+00  0.0000000E+00
 1.7997501E+00  0.0000000E+00
 1.8112501E+00  0.0000000E+00
 1.8227501E+00  0.0000000E+00
 1.8342501E+00  0.0000000E+00
 1.8457501E+00  0.0000000E+00
 1.8572501E+00  0.0000000E+00
 1.8687501E+00  0.0000000E+00
 1.8802501E+00  0.0000000E+00
 1.8917501E+00  0.0000000E+00
 1.9032501E+00  0.0000000E+00
 1.9147501E+00  0.0000000E+00
 1.9262501E+00  0.0000000E+00
 1.9377501E+00  0.0000000E+00
 1.9492501E+00  0.0000000E+00
 1.9607501E+00  0.0000000E+00
 1.9722501E+00  0.0000000E+00
 1.9837501E+00  0.0000000E+00
 1.9952501E+00  0.0000000E+00
 2.0067501E+00  0.0000000E+00
 2.0182500E+00  0.0000000E+00
 2.0297501E+00  0.0000000E+00
 2.0412500E+00  0.0000000E+00
 2.0527501E+00  0.0000000E+00
 2.0642500E+00  0.0000000E+00
 2.0757501E+00  0.0000000E+00
 2.0872500E+00  0.0000000E+00
 2.0987501E+00  0.0000000E+00
 2.1102500E+00  0.0000000E+00
 2.1217501E+00  0.0000000E+00
 2.1332500E+00  0.0000000E+00
 2.1447501E+00  0.0000000E+00
 2.1562500E+00  0.0000000E+00
 2.1677501E+00  0.0000000E+00
 2.1792500E+00  0.0000000E+00
 2.1907501E+00  0.0000000E+00
 2.2022500E+00  0.0000000E+00
 2.2137501E+00  0.0000000E+00
 2.2252500E+00  0.0000000E+00
 2.2367501E+00  0.0000000E+00
 2.2482500E+00  0.0000000E+00
 2.2597501E+00  0.0000000E+00
 2.2712500E+00  0.0000000E+00
 2.2827501E+00  0.0000000E+00
 2.2942500E+00  0.0000000E+00
 2.3057501E+00  0.0000000E+00
 2.3172500E+00  0.0000000E+00
 2.3287501E+00  0.0000000E+00
 2.3402500E+00  0.0000000E+00
 2.3517501E+00  0.0000000E+00
 2.3632500E+00  0.0000000E+00
 2.3747501E+00  0.0000000E+00
 2.3862500E+00  0.0000000E+00
 2.3977501E+00  0.0000000E+00
 2.4092500E+00  0.0000000E+00
 2.4207501E+00  0.0000000E+00
 2.4322500E+00  0.0000000E+00
 2.4437501E+00  0.0000000E+00
 2.4552500E+00  0.0000000E+00
 2.4667501E+00  0.0000000E+00
 2.4782500E+00  0.0000000E+00
 2.4897501E+00  0.0000000E+00
 2.5012500E+00  0.0000000E+00
 2.5127501E+00  0.0000000E+00
 2.5242500E+00  0.0000000E+00
 2.5357502E+00  0.0000000E+00
 2.5472500E+00  0.0000000E+00
 2.5587502E+00  0.0000000E+00
 2.5702500E+00  0.0000000E+00
 2.5817502E+00  0.0000000E+00
 2.5932500E+00  0.0000000E+00
 2.6047502E+00  0.0000000E+00
 2.6162500E+00  0.0000000E+00
 2.6277502E+00  0.0000000E+00
 2.6392500E+00  0.0000000E+00
 2.6507502E+00  0.0000000E+00
 2.6622500E+00  0.0000000E+00
 2.6737502E+00  0.0000000E+00
 2.6852500E+00  0.0000000E+00
 2.6967502E+00  0.0000000E+00
 2.7082500E+00  0.0000000E+00
 2.7197502E+00  0.0000000E+00
 2.7312500E+00  0.0000000E+00
 2.7427502E+00  0.0000000E+00
 2.7542500E+00  0.0000000E+00
 2.7657502E+00  0.0000000E+00
 2.7772501E+00  0.0000000E+00
 2.7887502E+00  0.0000000E+00
 2.8002501E+00  0.0000000E+00
 2.8117502E+00  0.0000000E+00
 2.8232501E+00  3.4361263E+01
 2.8347502E+00  3.4415977E+01
 2.8462501E+00  3.3910023E+01
 2.8577502E+00  3.3250706E+01
 2.8692501E+00  3.2624279E+01
 2.8807502E+00  3.2924957E+01
 2.8922501E+00  3.2774223E+01
 2.9037502E+00  3.3375019E+01
 2.9152501E+00  3.3838509E+01
 2.9267502E+00  3.4367214E+01
 2.9382501E+00  3.4841370E+01
 2.9497502E+00  3.5361897E+01
 2.9612501E+00  3.6079891E+01
 2.9727502E+00  3.6461067E+01
 2.9842501E+00  3.6714863E+01
 2.9957502E+00  3.6708511E+01
 3.0072501E+00  3.6503189E+01
 3.0187502E+00  3.6389385E+01
 3.0302501E+00  3.5985714E+01
 3.0417502E+00  3.5780048E+01
 3.0532501E+00  3.5575867E+01
 3.0647502E+00  3.5297104E+01
 3.0762501E+00  3.5065525E+01
 3.0877502E+00  3.4731213E+01
 3.0992501E+00  3.5179817E+01
 3.1107502E+00  3.5639927E+01
 3.1222501E+00  3.5921928E+01
 3.1337502E+00  3.5813862E+01
 3.1452501E+00  3.5908497E+01
 3.1567502E+00  3.5892021E+01
 3.1682501E+00  3.5733032E+01
 3.1797502E+00  3.5576775E+01
 3.1912501E+00  3.5158508E+01
 3.2027502E+00  3.4998741E+01
 3.2142501E+00  3.4472805E+01
 3.2257502E+00  3.4843876E+01
 3.2372501E+00  3.4864326E+01
 3.2487502E+00  3.4888569E+01
 3.2602501E+00  3.4713718E+01
 3.2717502E+00  3.4430801E+01
 3.2832501E+00  3.4538906E+01
 3.2947502E+00  3.4360779E+01
 3.3062501E+00  3.4677956E+01
 3.3177502E+00  3.4702110E+01
 3.3292501E+00  3.5063427E+01
 3.3407502E+00  3.5183403E+01
 3.3522501E+00  3.5369843E+01
 3.3637502E+00  3.5245056E+01
 3.3752501E+00  3.5108742E+01
 3.3867502E+00  3.4562481E+01
 3.3982501E+00  3.4257668E+01
 3.4097502E+00  3.3922195E+01
 3.4212501E+00  3.3956192E+01
 3.4327502E+00  3.3927711E+01
 3.4442501E+00  3.3825489E+01
 3.4557502E+00  3.3843311E+01
 3.4672501E+00  3.3996037E+01
 3.4787502E+00  3.4102619E+01
 3.4902501E+00  3.4193577E+01
 3.5017502E+00  3.4264866E+01
 3.5132501E+00  3.4271530E+01
 3.5247502E+00  3.4308945E+01
 3.5362501E+00  3.4297699E+01
 3.5477502E+00  3.4148476E+01
 3.5592501E+00  3.3893196E+01
 3.5707502E+00  3.3683426E+01
 3.5822501E+00  3.3526321E+01
 3.5937502E+00  3.3415779E+01
 3.6052501E+00  3.3254780E+01
 3.6167502E+00  3.3115711E+01
 3.6282501E+00  3.3171379E+01
 3.6397502E+00  3.2781487E+01
 3.6512501E+00  3.2933746E+01
 3.6627502E+00  3.2971394E+01
 3.6742501E+00  3.3239223E+01
 3.6857502E+00  3.3159306E+01
 3.6972501E+00  3.3161491E+01
 3.7087502E+00  3.3148930E+01
 3.7202501E+00  3.3286636E+01
 3.7317502E+00  3.3105957E+01
 3.7432501E+00  3.3068363E+01
 3.7547503E+00  3.2776993E+01
 3.7662501E+00  3.2582653E+01
 3.7777503E+00  3.2488834E+01
 3.7892501E+00  3.2423481E+01
 3.8007503E+00  3.2246258E+01
 3.8122501E+00  3.2370293E+01
 3.8237503E+00  3.2383331E+01
 3.8352501E+00  3.2702202E+01
 3.8467503E+00  3.2717907E+01
 3.8582501E+00  3.2635715E+01
 3.8697503E+00  3.2687618E+01
 3.8812501E+00  3.2565369E+01
 3.8927503E+00  3.2393711E+01
 3.9042501E+00  3.2343056E+01
 3.9157503E+00  3.2163002E+01
 3.9272501E+00  3.2312317E+01
 3.9387503E+00  3.2360767E+01
 3.9502501E+00  3.2292244E+01
 3.9617503E+00  3.2520458E+01
 3.9732502E+00  3.2609879E+01
 3.9847503E+00  3.2755131E+01
 3.9962502E+00  3.2766644E+01
 4.0077500E+00  3.2671989E+01
 4.0192504E+00  3.2548489E+01
 4.0307503E+00  3.2376591E+01
 4.0422502E+00  3.2234882E+01
 4.0537500E+00  3.2210526E+01
 4.0652504E+00  3.2080292E+01
 4.0767503E+00  3.2056850E+01
 4.0882502E+00  3.1929817E+01
 4.0997500E+00  3.2086876E+01
 4.1112504E+00  3.2030159E+01
 4.1227503E+00  3.2083168E+01
 4.1342502E+00  3.2027191E+01
 4.1457500E+00  3.2053555E+01
 4.1572504E+00  3.1913233E+01
 4.1687503E+00  3.2098427E+01
 4.1802502E+00  3.1988626E+01
 4.1917500E+00  3.2211571E+01
 4.2032504E+00  3.1949963E+01
 4.2147503E+00  3.2022045E+01
 4.2262502E+00  3.1932957E+01
 4.2377501E+00  3.2014256E+01
 4.2492504E+00  3.2000378E+01
 4.2607503E+00  3.2134819E+01
 4.2722502E+00  3.2153008E+01
 4.2837501E+00  3.2194004E+01
 4.2952504E+00  3.2080177E+01
 4.3067503E+00  3.2103722E+01
 4.3182502E+00  3.2156631E+01
 4.3297501E+00  3.2279510E+01
 4.3412504E+00  3.2370392E+01
 4.3527503E+00  3.2519741E+01
 4.3642502E+00  3.2598984E+01
 4.3757501E+00  3.2685440E+01
 4.3872504E+00  3.2696934E+01
 4.3987503E+00  3.2604538E+01
 4.4102502E+00  3.2635780E+01
 4.4217501E+00  3.2693085E+01
 4.4332504E+00  3.2852596E+01
 4.4447503E+00  3.2897228E+01
 4.4562502E+00  3.2901745E+01
 4.4677501E+00  3.2847157E+01
 4.4792504E+00  3.2780289E+01
 4.4907503E+00  3.2716583E+01
 4.5022502E+00  3.2673664E+01
 4.5137501E+00  3.2530876E+01
 4.5252504E+00  3.2429897E+01
 4.5367503E+00  3.2392147E+01
 4.5482502E+00  3.2416809E+01
 4.5597501E+00  3.2351479E+01
 4.5712504E+00  3.2313087E+01
 4.5827503E+00  3.2351730E+01
 4.5942502E+00  3.2488735E+01
 4.6057501E+00  3.2566219E+01
 4.6172504E+00  3.2669239E+01
 4.6287503E+00  3.2801399E+01
 4.6402502E+00  3.2923107E+01
 4.6517501E+00  3.3245781E+01
 4.6632504E+00  3.3338409E+01
 4.6747503E+00  3.3377609E+01
 4.6862502E+00  3.3143394E+01
 4.6977501E+00  3.3056587E+01
 4.7092505E+00  3.3007610E+01
 4.7207503E+00  3.2909809E+01
 4.7322502E+00  3.2801666E+01
 4.7437501E+00  3.2635090E+01
 4.7552505E+00  3.2649475E+01
 4.7667503E+00  3.2714462E+01
 4.7782502E+00  3.2862370E+01
 4.7897501E+00  3.2828892E+01
 4.8012505E+00  3.2743519E+01
 4.8127503E+00  3.2764809E+01
 4.8242502E+00  3.2799919E+01
 4.8357501E+00  3.2900520E+01
 4.8472505E+00  3.2891785E+01
 4.8587503E+00  3.3038708E+01
 4.8702502E+00  3.2966633E+01
 4.8817501E+00  3.2930634E+01
 4.8932505E+00  3.2800648E+01
 4.9047503E+00  3.2675373E+01
 4.9162502E+00  3.2636864E+01
 4.9277501E+00  3.2537945E+01
 4.9392505E+00  3.2660873E+01
 4.9507504E+00  3.2795883E+01
 4.9622502E+00  3.2838970E+01
 4.9737501E+00  3.2926552E+01
 4.9852505E+00  3.2982880E+01
 4.9967504E+00  3.3094830E+01
 5.0082502E+00  3.3293468E+01
 5.0197501E+00  3.3273537E+01
 5.0312505E+00  3.3382328E+01
 5.0427504E+00  3.3388241E+01
 5.0542502E+00  3.3489784E+01
 5.0657501E+00  3.3547878E+01
 5.0772505E+00  3.3593742E+01
 5.0887504E+00  3.3577118E+01
 5.1002502E+00  3.3565170E+01
 5.1117501E+00  3.3510452E+01
 5.1232505E+00  3.3470085E+01
 5.1347504E+00  3.3561672E+01
 5.1462502E+00  3.3688938E+01
 5.1577501E+00  3.3813950E+01
 5.1692505E+00  3.3968147E+01
 5.1807504E+00  3.3938606E+01
 5.1922503E+00  3.3962074E+01
 5.2037501E+00  3.3875778E+01
 5.2152505E+00  3.3919243E+01
 5.2267504E+00  3.3951847E+01
 5.2382503E+00  3.4035210E+01
 5.2497501E+00  3.4024902E+01
 5.2612505E+00  3.4071148E+01
 5.2727504E+00  3.3964760E+01
 5.2842503E+00  3.4012470E+01
 5.2957501E+00  3.4040867E+01
 5.3072500E+00  3.4088367E+01
 5.3187504E+00  3.4090698E+01
 5.3302503E+00  3.4129978E+01
 5.3417501E+00  3.4118305E+01
 5.3532500E+00  3.4199986E+01
 5.3647504E+00  3.4279766E+01
 5.3762503E+00  3.4405094E+01
 5.3877501E+00  3.4566334E+01
 5.3992500E+00  3.4673008E+01
 5.4107504E+00  3.4738956E+01
 5.4222503E+00  3.4625698E+01
 5.4337502E+00  3.4531673E+01
 5.4452500E+00  3.4550739E+01
 5.4567504E+00  3.4592117E+01
 5.4682503E+00  3.4624031E+01
 5.4797502E+00  3.4646732E+01
 5.4912500E+00  3.4634510E+01
 5.5027504E+00  3.4637817E+01
 5.5142503E+00  3.4636547E+01
 5.5257502E+00  3.4738495E+01
 5.5372500E+00  3.4836075E+01
 5.5487504E+00  3.4847729E+01
 5.5602503E+00  3.5029877E+01
 5.5717502E+00  3.5107250E+01
 5.5832500E+00  3.5191280E+01
 5.5947504E+00  3.5195705E+01
 5.6062503E+00  3.5227425E+01
 5.6177502E+00  3.5279343E+01
 5.6292500E+00  3.5221474E+01
 5.6407504E+00  3.5219540E+01
 5.6522503E+00  3.5198997E+01
 5.6637502E+00  3.5331882E+01
 5.6752501E+00  3.5359646E+01
 5.6867504E+00  3.5579250E+01
 5.6982503E+00  3.5482002E+01
 5.7097502E+00  3.5537941E+01
 5.7212501E+00  3.5512043E+01
 5.7327504E+00  3.5632683E+01
 5.7442503E+00  3.5643669E+01
 5.7557502E+00  3.5548676E+01
 5.7672501E+00  3.5521168E+01
 5.7787504E+00  3.5624596E+01
 5.7902503E+00  3.5781059E+01
 5.8017502E+00  3.5925533E+01
 5.8132501E+00  3.5982136E+01
 5.8247504E+00  3.6026493E+01
 5.8362503E+00  3.6133991E+01
 5.8477502E+00  3.6165321E+01
 5.8592501E+00  3.6256798E+01
 5.8707504E+00  3.6386578E+01
 5.8822503E+00  3.6661411E+01
 5.8937502E+00  3.7021801E+01
 5.9052501E+00  3.7534763E+01
 5.9167504E+00  3.8391045E+01
 5.9282503E+00  4.0698170E+01
 5.9397502E+00  4.7034538E+01
 5.9512501E+00  5.1173641E+01
 5.9627504E+00  5.6587463E+01
 5.9742503E+00  6.3508572E+01
 5.9857502E+00  6.5410782E+01
 5.9972501E+00  6.5042145E+01
 6.0087504E+00  5.8943794E+01
 6.0202503E+00  5.3549007E+01
 6.0317502E+00  4.8824074E+01
 6.0432501E+00  4.2896202E+01
 6.0547504E+00  4.0856464E+01
 6.0662503E+00  3.9430119E+01
 6.0777502E+00  3.8268787E+01
 6.0892501E+00  3.7882744E+01
 6.1007504E+00  3.7564995E+01
 6.1122503E+00  3.7362068E+01
 6.1237502E+00  3.7258102E+01
 6.1352501E+00  3.7088085E+01
 6.1467505E+00  3.6978855E+01
 6.1582503E+00  3.6958893E+01
 6.1697502E+00  3.7001209E+01
 6.1812501E+00  3.7138584E+01
 6.1927505E+00  3.7155056E+01
 6.2042503E+00  3.7132046E+01
 6.2157502E+00  3.7151196E+01
 6.2272501E+00  3.7119102E+01
 6.2387505E+00  3.7072372E+01
 6.2502503E+00  3.7086170E+01
 6.2617502E+00  3.7046268E+01
 6.2732501E+00  3.7179928E+01
 6.2847505E+00  3.7235840E+01
 6.2962503E+00  3.7301506E+01
 6.3077502E+00  3.7361603E+01
 6.3192501E+00  3.7443539E+01
 6.3307505E+00  3.7615932E+01
 6.3422503E+00  3.7811329E+01
 6.3537502E+00  3.8014622E+01
 6.3652501E+00  3.8130848E+01
 6.3767505E+00  3.8258636E+01
 6.3882504E+00  3.8269337E+01
 6.3997502E+00  3.8331474E+01
 6.4112501E+00  3.8375370E+01
 6.4227505E+00  3.8349739E+01
 6.4342504E+00  3.8374210E+01
 6.4457502E+00  3.8434071E+01
 6.4572501E+00  3.8553432E+01
 6.4687505E+00  3.8703651E+01
 6.4802504E+00  3.8704678E+01
 6.4917502E+00  3.8785187E+01
 6.5032501E+00  3.8994255E+01
 6.5147505E+00  3.9208931E+01
 6.5262504E+00  3.9329632E+01
 6.5377502E+00  3.9415493E+01
 6.5492501E+00  3.9455345E+01
 6.5607505E+00  3.9488850E+01
 6.5722504E+00  3.9413620E+01
 6.5837502E+00  3.9351547E+01
 6.5952501E+00  3.9331692E+01
 6.6067505E+00  3.9359119E+01
 6.6182504E+00  3.9353260E+01
 6.6297503E+00  3.9362953E+01
 6.6412501E+00  3.9414539E+01
 6.6527505E+00  3.9488369E+01
 6.6642504E+00  3.9707035E+01
 6.6757503E+00  3.9836319E+01
 6.6872501E+00  3.9955368E+01
 6.6987505E+00  4.0054226E+01
 6.7102504E+00  4.0180843E+01
 6.7217503E+00  4.0307236E+01
 6.7332501E+00  4.0450874E+01
 6.7447505E+00  4.0475098E+01
 6.7562504E+00  4.0573727E+01
 6.7677503E+00  4.0592712E+01
 6.7792501E+00  4.0719002E+01
 6.7907505E+00  4.0769142E+01
 6.8022504E+00  4.0986282E+01
 6.8137503E+00  4.1154007E+01
 6.8252501E+00  4.1379887E+01
 6.8367505E+00  4.1493835E+01
 6.8482504E+00  4.1640049E+01
 6.8597503E+00  4.1797306E+01
 6.8712502E+00  4.1960930E+01
 6.8827505E+00  4.1996834E+01
 6.8942504E+00  4.2053909E+01
 6.9057503E+00  4.2061493E+01
 6.9172502E+00  4.2066391E+01
 6.9287505E+00  4.1956402E+01
 6.9402504E+00  4.1993473E+01
 6.9517503E+00  4.2049900E+01
 6.9632502E+00  4.2158730E+01
 6.9747505E+00  4.2203075E+01
 6.9862504E+00  4.2252541E+01
 6.9977503E+00  4.2318615E+01
 7.0092502E+00  4.2331882E+01
 7.0207505E+00  4.2332756E+01
 7.0322504E+00  4.2388531E+01
 7.0437503E+00  4.2485157E+01
 7.0552502E+00  4.2566353E+01
 7.0667505E+00  4.2536633E+01
 7.0782504E+00  4.2485020E+01
 7.0897503E+00  4.2489536E+01
 7.1012502E+00  4.2563721E+01
 7.1127505E+00  4.2592548E+01
 7.1242504E+00  4.2687241E+01
 7.1357503E+00  4.2724667E+01
 7.1472502E+00  4.2872063E+01
 7.1587505E+00  4.3035141E+01
 7.1702504E+00  4.3117363E+01
 7.1817503E+00  4.3177380E+01
 7.1932502E+00  4.3190071E+01
 7.2047505E+00  4.3269203E+01
 7.2162504E+00  4.3360924E+01
 7.2277503E+00  4.3429203E+01
 7.2392502E+00  4.3429497E+01
 7.2507505E+00  4.3389191E+01
 7.2622504E+00  4.3416626E+01
 7.2737503E+00  4.3446312E+01
 7.2852502E+00  4.3486584E+01
 7.2967505E+00  4.3453735E+01
 7.3082504E+00  4.3481369E+01
 7.3197503E+00  4.3628071E+01
 7.3312502E+00  4.3695137E+01
 7.3427505E+00  4.3733513E+01
 7.3542504E+00  4.3748722E+01
 7.3657503E+00  4.3716782E+01
 7.3772502E+00  4.3739040E+01
 7.3887506E+00  4.3748993E+01
 7.4002504E+00  4.3822411E+01
 7.4117503E+00  4.3976631E+01
 7.4232502E+00  4.3955055E+01
 7.4347506E+00  4.4091274E+01
 7.4462504E+00  4.4099693E+01
 7.4577503E+00  4.4246979E+01
 7.4692502E+00  4.4289211E+01
 7.4807506E+00  4.4280319E+01
 7.4922504E+00  4.4274525E+01
 7.5037503E+00  4.4241241E+01
 7.5152502E+00  4.4265804E+01
 7.5267506E+00  4.4397949E+01
 7.5382504E+00  4.4385239E+01
 7.5497503E+00  4.4423649E+01
 7.5612502E+00  4.4371429E+01
 7.5727506E+00  4.4419239E+01
 7.5842505E+00  4.4365997E+01
 7.5957503E+00  4.4384373E+01
 7.6072502E+00  4.4425900E+01
 7.6187506E+00  4.4471081E+01
 7.6302505E+00  4.4459480E+01
 7.6417503E+00  4.4448032E+01
 7.6532502E+00  4.4403942E+01
 7.6647506E+00  4.4306023E+01
 7.6762505E+00  4.4278004E+01
 7.6877503E+00  4.4261166E+01
 7.6992502E+00  4.4270592E+01
 7.7107506E+00  4.4241795E+01
 7.7222505E+00  4.4230377E+01
 7.7337503E+00  4.4236603E+01
 7.7452502E+00  4.4131748E+01
 7.7567506E+00  4.4059853E+01
 7.7682505E+00  4.3980568E+01
 7.7797503E+00  4.3957134E+01
 7.7912502E+00  4.3969601E+01
 7.8027506E+00  4.3942154E+01
 7.8142505E+00  4.3973866E+01
 7.8257504E+00  4.3990902E+01
 7.8372502E+00  4.3975250E+01
 7.8487506E+00  4.4036129E+01
 7.8602505E+00  4.4075352E+01
 7.8717504E+00  4.4104748E+01
 7.8832502E+00  4.4028980E+01
 7.8947506E+00  4.3931496E+01
 7.9062505E+00  4.3967663E+01
 7.9177504E+00  4.3889999E+01
 7.9292502E+00  4.3858746E+01
 7.9407506E+00  4.3747597E+01
 7.9522505E+00  4.3641186E+01
 7.9637504E+00  4.3531967E+01
 7.9752502E+00  4.3390842E+01
 7.9867506E+00  4.3367340E+01
 7.9982505E+00  4.3286461E+01
 8.0097504E+00  4.3244289E+01
 8.0212507E+00  4.3332458E+01
 8.0327501E+00  4.3306316E+01
 8.0442505E+00  4.3252407E+01
 8.0557508E+00  4.3053669E+01
 8.0672503E+00  4.2799057E+01
 8.0787506E+00  4.2680664E+01
 8.0902500E+00  4.2568024E+01
 8.1017504E+00  4.2560329E+01
 8.1132507E+00  4.2532402E+01
 8.1247501E+00  4.2438271E+01
 8.1362505E+00  4.2383930E+01
 8.1477509E+00  4.2196159E+01
 8.1592503E+00  4.2141804E+01
 8.1707506E+00  4.2020172E+01
 8.1822500E+00  4.1925083E+01
 8.1937504E+00  4.1801949E+01
 8.2052507E+00  4.1718426E+01
 8.2167501E+00  4.1662289E+01
 8.2282505E+00  4.1633297E+01
 8.2397509E+00  4.1531055E+01
 8.2512503E+00  4.1456455E+01
 8.2627506E+00  4.1249718E+01
 8.2742500E+00  4.1107128E+01
 8.2857504E+00  4.0951210E+01
 8.2972507E+00  4.0811741E+01
 8.3087502E+00  4.0702415E+01
 8.3202505E+00  4.0616013E+01
 8.3317509E+00  4.0467773E+01
 8.3432503E+00  4.0248829E+01
 8.3547506E+00  3.9992790E+01
 8.3662500E+00  3.9833324E+01
 8.3777504E+00  3.9703209E+01
 8.3892508E+00  3.9533474E+01
 8.4007502E+00  3.9342190E+01
 8.4122505E+00  3.9143505E+01
 8.4237509E+00  3.9002995E+01
 8.4352503E+00  3.8785480E+01
 8.4467506E+00  3.8711571E+01
 8.4582500E+00  3.8600883E+01
 8.4697504E+00  3.8570698E+01
 8.4812508E+00  3.8436775E+01
 8.4927502E+00  3.8285702E+01
 8.5042505E+00  3.8071709E+01
 8.5157509E+00  3.7844261E+01
 8.5272503E+00  3.7722435E+01
 8.5387506E+00  3.7644665E+01
 8.5502501E+00  3.7500755E+01
 8.5617504E+00  3.7242161E+01
 8.5732508E+00  3.7047585E+01
 8.5847502E+00  3.6738091E+01
 8.5962505E+00  3.6532410E+01
 8.6077509E+00  3.6250504E+01
 8.6192503E+00  3.6188229E+01
 8.6307507E+00  3.6084522E+01
 8.6422501E+00  3.5960896E+01
 8.6537504E+00  3.5801758E+01
 8.6652508E+00  3.5565933E+01
 8.6767502E+00  3.5327541E+01
 8.6882505E+00  3.5095203E+01
 8.6997509E+00  3.4894268E+01
 8.7112503E+00  3.4702477E+01
 8.7227507E+00  3.4589359E+01
 8.7342501E+00  3.4439655E+01
 8.7457504E+00  3.4337643E+01
 8.7572508E+00  3.4151573E+01
 8.7687502E+00  3.4023689E+01
 8.7802505E+00  3.3771202E+01
 8.7917500E+00  3.3551060E+01
 8.8032503E+00  3.3301674E+01
 8.8147507E+00  3.3254604E+01
 8.8262501E+00  3.3134472E+01
 8.8377504E+00  3.3068928E+01
 8.8492508E+00  3.2897884E+01
 8.8607502E+00  3.2735535E+01
 8.8722506E+00  3.2525181E+01
 8.8837500E+00  3.2222458E+01
 8.8952503E+00  3.2027584E+01
 8.9067507E+00  3.1841093E+01
 8.9182501E+00  3.1741108E+01
 8.9297504E+00  3.1635330E+01
 8.9412508E+00  3.1450117E+01
 8.9527502E+00  3.1332367E+01
 8.9642506E+00  3.1120825E+01
 8.9757500E+00  3.1015890E+01
 8.9872503E+00  3.0898603E+01
 8.9987507E+00  3.0717234E+01
 9.0102501E+00  3.0553617E+01
 9.0217505E+00  3.0307159E+01
 9.0332508E+00  3.0230665E+01
 9.0447502E+00  3.0127018E+01
 9.0562506E+00  3.0029217E+01
 9.0677500E+00  2.9920490E+01
 9.0792503E+00  2.9839886E+01
 9.0907507E+00  2.9722782E+01
 9.1022501E+00  2.9583572E+01
 9.1137505E+00  2.9434872E+01
 9.1252508E+00  2.9365551E+01
 9.1367502E+00  2.9299778E+01
 9.1482506E+00  2.9263308E+01
 9.1597500E+00  2.9160715E+01
 9.1712503E+00  2.9044474E+01
 9.1827507E+00  2.8882608E+01
 9.1942501E+00  2.8773020E+01
 9.2057505E+00  2.8694338E+01
 9.2172508E+00  2.8627134E+01
 9.2287502E+00  2.8571579E+01
 9.2402506E+00  2.8496321E+01
 9.2517500E+00  2.8423031E+01
 9.2632504E+00  2.8331211E+01
 9.2747507E+00  2.8161358E+01
 9.2862501E+00  2.7992785E+01
 9.2977505E+00  2.7878754E+01
 9.3092508E+00  2.7798794E+01
 9.3207502E+00  2.7705826E+01
 9.3322506E+00  2.7590620E+01
 9.3437500E+00  2.7455418E+01
 9.3552504E+00  2.7359699E+01
 9.3667507E+00  2.7250671E+01
 9.3782501E+00  2.7195726E+01
 9.3897505E+00  2.7091755E+01
 9.4012508E+00  2.7061846E+01
 9.4127502E+00  2.6985878E+01
 9.4242506E+00  2.6971653E+01
 9.4357500E+00  2.6858236E+01
 9.4472504E+00  2.6811172E+01
 9.4587507E+00  2.6754108E+01
 9.4702501E+00  2.6771332E+01
 9.4817505E+00  2.6697205E+01
 9.4932508E+00  2.6648470E+01
 9.5047503E+00  2.6530272E+01
 9.5162506E+00  2.6468817E+01
 9.5277500E+00  2.6338478E+01
 9.5392504E+00  2.6254528E+01
 9.5507507E+00  2.6144081E+01
 9.5622501E+00  2.6085278E+01
 9.5737505E+00  2.6034592E+01
 9.5852509E+00  2.5949625E+01
 9.5967503E+00  2.5898172E+01
 9.6082506E+00  2.5788115E+01
 9.6197500E+00  2.5780508E+01
 9.6312504E+00  2.5738663E+01
 9.6427507E+00  2.5663052E+01
 9.6542501E+00  2.5588816E+01
 9.6657505E+00  2.5515139E+01
 9.6772509E+00  2.5427364E+01
 9.6887503E+00  2.5416214E+01
 9.7002506E+00  2.5375792E+01
 9.7117500E+00  2.5439465E+01
 9.7232504E+00  2.5402437E+01
 9.7347507E+00  2.5398973E+01
 9.7462502E+00  2.5356838E+01
 9.7577505E+00  2.5271833E+01
 9.7692509E+00  2.5216696E+01
 9.7807503E+00  2.5204079E+01
 9.7922506E+00  2.5193220E+01
 9.8037500E+00  2.5113523E+01
 9.8152504E+00  2.5040468E+01
 9.8267508E+00  2.4972496E+01
 9.8382502E+00  2.4946411E+01
 9.8497505E+00  2.4891005E+01
 9.8612509E+00  2.4866615E+01
 9.8727503E+00  2.4813467E+01
 9.8842506E+00  2.4748875E+01
 9.8957500E+00  2.4727966E+01
 9.9072504E+00  2.4659975E+01
 9.9187508E+00  2.4641039E+01
 9.9302502E+00  2.4528891E+01
 9.9417505E+00  2.4523191E+01
 9.9532509E+00  2.4501207E+01
 9.9647503E+00  2.4529867E+01
 9.9762506E+00  2.4496750E+01
 9.9877501E+00  2.4509024E+01
 9.9992504E+00  2.4509504E+01
 1.0010751E+01  2.4502317E+01
 1.0022250E+01  2.4495649E+01
 1.0033751E+01  2.4478949E+01
 1.0045251E+01  2.4441786E+01
 1.0056750E+01  2.4387812E+01
 1.0068251E+01  2.4370726E+01
 1.0079750E+01  2.4358999E+01
 1.0091250E+01  2.4286245E+01
 1.0102751E+01  2.4183632E+01
 1.0114250E+01  2.4122320E+01
 1.0125751E+01  2.4044237E+01
 1.0137251E+01  2.3991518E+01
 1.0148750E+01  2.3949997E+01
 1.0160251E+01  2.3952505E+01
 1.0171750E+01  2.3941330E+01
 1.0183250E+01  2.3931320E+01
 1.0194751E+01  2.3852657E+01
 1.0206250E+01  2.3793182E+01
 1.0217751E+01  2.3770943E+01
 1.0229251E+01  2.3790375E+01
 1.0240750E+01  2.3732307E+01
 1.0252251E+01  2.3626213E+01
 1.0263750E+01  2.3583986E+01
 1.0275250E+01  2.3557093E+01
 1.0286751E+01  2.3625332E+01
 1.0298250E+01  2.3655392E+01
 1.0309751E+01  2.3735289E+01
 1.0321251E+01  2.3719072E+01
 1.0332750E+01  2.3707697E+01
 1.0344251E+01  2.3665676E+01
 1.0355750E+01  2.3658030E+01
 1.0367250E+01  2.3581171E+01
 1.0378751E+01  2.3596947E+01
 1.0390250E+01  2.3568041E+01
 1.0401751E+01  2.3595407E+01
 1.0413251E+01  2.3527224E+01
 1.0424750E+01  2.3461218E+01
 1.0436251E+01  2.3408552E+01
 1.0447750E+01  2.3374199E+01
 1.0459250E+01  2.3328230E+01
 1.0470751E+01  2.3284649E+01
 1.0482250E+01  2.3248674E+01
 1.0493751E+01  2.3265457E+01
 1.0505251E+01  2.3274979E+01
 1.0516750E+01  2.3279623E+01
 1.0528251E+01  2.3293968E+01
 1.0539750E+01  2.3278612E+01
 1.0551250E+01  2.3311777E+01
 1.0562751E+01  2.3298452E+01
 1.0574250E+01  2.3327185E+01
 1.0585751E+01  2.3348818E+01
 1.0597251E+01  2.3420881E+01
 1.0608750E+01  2.3569502E+01
 1.0620251E+01  2.3659061E+01
 1.0631750E+01  2.3876888E+01
 1.0643250E+01  2.3791012E+01
 1.0654751E+01  2.3973915E+01
 1.0666250E+01  2.3692186E+01
 1.0677751E+01  2.3767248E+01
 1.0689251E+01  2.3414846E+01
 1.0700750E+01  2.3492016E+01
 1.0712251E+01  2.3377375E+01
 1.0723750E+01  2.3531570E+01
 1.0735250E+01  2.3406584E+01
 1.0746751E+01  2.3340448E+01
 1.0758250E+01  2.3279724E+01
 1.0769751E+01  2.3282423E+01
 1.0781251E+01  2.3241499E+01
 1.0792750E+01  2.3040771E+01
 1.0804251E+01  2.2939466E+01
 1.0815750E+01  2.2918085E+01
 1.0827250E+01  2.2935654E+01
 1.0838751E+01  2.2960951E+01
 1.0850250E+01  2.2940371E+01
 1.0861751E+01  2.2968025E+01
 1.0873251E+01  2.2990919E+01
 1.0884750E+01  2.3010223E+01
 1.0896251E+01  2.3006958E+01
 1.0907750E+01  2.2960018E+01
 1.0919250E+01  2.2923098E+01
 1.0930751E+01  2.2881460E+01
 1.0942250E+01  2.2866869E+01
 1.0953751E+01  2.2843170E+01
 1.0965251E+01  2.2790388E+01
 1.0976750E+01  2.2821960E+01
 1.0988251E+01  2.2807823E+01
 1.0999750E+01  2.2845291E+01
 1.1011250E+01  2.2859138E+01
 1.1022751E+01  2.2899389E+01
 1.1034250E+01  2.2898134E+01
 1.1045751E+01  2.2842657E+01
 1.1057251E+01  2.2774504E+01
 1.1068750E+01  2.2723356E+01
 1.1080251E+01  2.2700550E+01
 1.1091750E+01  2.2753038E+01
 1.1103251E+01  2.2748646E+01
 1.1114751E+01  2.2750185E+01
 1.1126250E+01  2.2712614E+01
 1.1137751E+01  2.2700588E+01
 1.1149251E+01  2.2683807E+01
 1.1160750E+01  2.2689419E+01
 1.1172251E+01  2.2663885E+01
 1.1183750E+01  2.2609829E+01
 1.1195251E+01  2.2537088E+01
 1.1206751E+01  2.2503859E+01
 1.1218250E+01  2.2481007E+01
 1.1229751E+01  2.2472517E+01
 1.1241251E+01  2.2513914E+01
 1.1252750E+01  2.2533775E+01
 1.1264251E+01  2.2546307E+01
 1.1275750E+01  2.2565945E+01
 1.1287251E+01  2.2589422E+01
 1.1298751E+01  2.2567574E+01
 1.1310250E+01  2.2606537E+01
 1.1321751E+01  2.2638060E+01
 1.1333251E+01  2.2716915E+01
 1.1344750E+01  2.2709661E+01
 1.1356251E+01  2.2708216E+01
 1.1367750E+01  2.2770590E+01
 1.1379251E+01  2.2857237E+01
 1.1390751E+01  2.2868177E+01
 1.1402250E+01  2.2992954E+01
 1.1413751E+01  2.2947071E+01
 1.1425251E+01  2.3013103E+01
 1.1436750E+01  2.2964600E+01
 1.1448251E+01  2.3060114E+01
 1.1459750E+01  2.3147665E+01
 1.1471251E+01  2.3172894E+01
 1.1482751E+01  2.3209476E+01
 1.1494250E+01  2.3361755E+01
 1.1505751E+01  2.3546133E+01
 1.1517251E+01  2.4024403E+01
 1.1528750E+01  2.4830614E+01
 1.1540251E+01  2.6056139E+01
 1.1551750E+01  2.7790758E+01
 1.1563251E+01  2.9760616E+01
 1.1574751E+01  3.1678759E+01
 1.1586250E+01  3.2980553E+01
 1.1597751E+01  3.3150059E+01
 1.1609251E+01  3.2332550E+01
 1.1620750E+01  3.0315336E+01
 1.1632251E+01  2.8215210E+01
 1.1643750E+01  2.6262579E+01
 1.1655251E+01  2.5057386E+01
 1.1666751E+01  2.4193748E+01
 1.1678250E+01  2.3653263E+01
 1.1689751E+01  2.3317251E+01
 1.1701251E+01  2.3132795E+01
 1.1712750E+01  2.3005924E+01
 1.1724251E+01  2.2931345E+01
 1.1735750E+01  2.2894131E+01
 1.1747251E+01  2.2923908E+01
 1.1758751E+01  2.2946009E+01
 1.1770250E+01  2.2934765E+01
 1.1781751E+01  2.2874891E+01
 1.1793251E+01  2.2844215E+01
 1.1804750E+01  2.2844372E+01
 1.1816251E+01  2.2838087E+01
 1.1827750E+01  2.2840759E+01
 1.1839251E+01  2.2866306E+01
 1.1850751E+01  2.2900906E+01
 1.1862250E+01  2.2921404E+01
 1.1873751E+01  2.2844751E+01
 1.1885251E+01  2.2894106E+01
 1.1896750E+01  2.2905807E+01
 1.1908251E+01  2.3120411E+01
 1.1919750E+01  2.3232508E+01
 1.1931251E+01  2.3706783E+01
 1.1942751E+01  2.4016630E+01
 1.1954250E+01  2.5011568E+01
 1.1965751E+01  2.5452145E+01
 1.1977251E+01  2.6551752E+01
 1.1988750E+01  2.6649395E+01
 1.2000251E+01  2.6930752E+01
 1.2011750E+01  2.6234814E+01
 1.2023251E+01  2.5722488E+01
 1.2034751E+01  2.5624674E+01
 1.2046250E+01  2.5590813E+01
 1.2057751E+01  2.7508024E+01
 1.2069251E+01  2.7758684E+01
 1.2080750E+01  3.0532892E+01
 1.2092251E+01  2.9119122E+01
 1.2103750E+01  3.0056179E+01
 1.2115251E+01  2.7122768E+01
 1.2126751E+01  2.6853422E+01
 1.2138250E+01  2.4938616E+01
 1.2149751E+01  2.4604038E+01
 1.2161251E+01  2.3766129E+01
 1.2172750E+01  2.3528330E+01
 1.2184251E+01  2.3189938E+01
 1.2195750E+01  2.3114725E+01
 1.2207251E+01  2.3005003E+01
 1.2218751E+01  2.2932777E+01
 1.2230250E+01  2.2864084E+01
 1.2241751E+01  2.2815529E+01
 1.2253251E+01  2.2800585E+01
 1.2264750E+01  2.2799433E+01
 1.2276251E+01  2.2756123E+01
 1.2287750E+01  2.2743235E+01
 1.2299251E+01  2.2728727E+01
 1.2310751E+01  2.2791733E+01
 1.2322250E+01  2.2807653E+01
 1.2333751E+01  2.2853281E+01
 1.2345250E+01  2.2826511E+01
 1.2356750E+01  2.2852980E+01
 1.2368251E+01  2.2792528E+01
 1.2379750E+01  2.2779366E+01
 1.2391251E+01  2.2712517E+01
 1.2402751E+01  2.2689220E+01
 1.2414250E+01  2.2676060E+01
 1.2425751E+01  2.2696068E+01
 1.2437250E+01  2.2738445E+01
 1.2448750E+01  2.2749443E+01
 1.2460251E+01  2.2741301E+01
 1.2471750E+01  2.2709307E+01
 1.2483251E+01  2.2753773E+01
 1.2494751E+01  2.2834572E+01
 1.2506250E+01  2.2852003E+01
 1.2517751E+01  2.2829254E+01
 1.2529250E+01  2.2808558E+01
 1.2540751E+01  2.2928328E+01
 1.2552251E+01  2.3005608E+01
 1.2563750E+01  2.2999823E+01
 1.2575251E+01  2.2991619E+01
 1.2586751E+01  2.2960081E+01
 1.2598250E+01  2.3037310E+01
 1.2609751E+01  2.3053329E+01
 1.2621250E+01  2.3153440E+01
 1.2632751E+01  2.3159552E+01
 1.2644251E+01  2.3115545E+01
 1.2655750E+01  2.3020716E+01
 1.2667251E+01  2.2987076E+01
 1.2678751E+01  2.3023930E+01
 1.2690250E+01  2.3064159E+01
 1.2701751E+01  2.3117338E+01
 1.2713250E+01  2.3136974E+01
 1.2724751E+01  2.3152708E+01
 1.2736251E+01  2.3138582E+01
 1.2747750E+01  2.3164829E+01
 1.2759251E+01  2.3209879E+01
 1.2770751E+01  2.3253408E+01
 1.2782250E+01  2.3337572E+01
 1.2793751E+01  2.3374161E+01
 1.2805250E+01  2.3380484E+01
 1.2816751E+01  2.3355944E+01
 1.2828251E+01  2.3389408E+01
 1.2839750E+01  2.3427217E+01
 1.2851251E+01  2.3515127E+01
 1.2862751E+01  2.3560305E+01
 1.2874250E+01  2.3633541E+01
 1.2885751E+01  2.3658245E+01
 1.2897250E+01  2.3674103E+01
 1.2908751E+01  2.3743120E+01
 1.2920251E+01  2.3786245E+01
 1.2931750E+01  2.3841198E+01
 1.2943251E+01  2.3879686E+01
 1.2954751E+01  2.3907473E+01
 1.2966250E+01  2.3968109E+01
 1.2977751E+01  2.4014317E+01
 1.2989250E+01  2.4035868E+01
 1.3000751E+01  2.4063869E+01
 1.3012251E+01  2.4063715E+01
 1.3023750E+01  2.4114063E+01
 1.3035251E+01  2.4153349E+01
 1.3046751E+01  2.4174513E+01
 1.3058250E+01  2.4219343E+01
 1.3069751E+01  2.4290258E+01
 1.3081250E+01  2.4449329E+01
 1.3092751E+01  2.4593752E+01
 1.3104251E+01  2.4807068E+01
 1.3115750E+01  2.4950350E+01
 1.3127251E+01  2.5077967E+01
 1.3138751E+01  2.5128628E+01
 1.3150250E+01  2.5264259E+01
 1.3161751E+01  2.5351126E+01
 1.3173250E+01  2.5559795E+01
 1.3184751E+01  2.5685480E+01
 1.3196251E+01  2.5890673E+01
 1.3207750E+01  2.5973375E+01
 1.3219251E+01  2.6117290E+01
 1.3230751E+01  2.6266268E+01
 1.3242250E+01  2.6434401E+01
 1.3253751E+01  2.6537933E+01
 1.3265250E+01  2.6660994E+01
 1.3276751E+01  2.6780731E+01
 1.3288251E+01  2.6935364E+01
 1.3299750E+01  2.7051796E+01
 1.3311251E+01  2.7104425E+01
 1.3322751E+01  2.7213320E+01
 1.3334250E+01  2.7319370E+01
 1.3345751E+01  2.7496687E+01
 1.3357250E+01  2.7692812E+01
 1.3368751E+01  2.7895782E+01
 1.3380251E+01  2.8085510E+01
 1.3391750E+01  2.8223173E+01
 1.3403251E+01  2.8325394E+01
 1.3414751E+01  2.8425814E+01
 1.3426250E+01  2.8521057E+01
 1.3437751E+01  2.8661345E+01
 1.3449250E+01  2.8796581E+01
 1.3460751E+01  2.8915724E+01
 1.3472251E+01  2.8998653E+01
 1.3483750E+01  2.9157207E+01
 1.3495251E+01  2.9288931E+01
 1.3506751E+01  2.9399078E+01
 1.3518250E+01  2.9487066E+01
 1.3529751E+01  2.9525446E+01
 1.3541250E+01  2.9665182E+01
 1.3552751E+01  2.9709730E+01
 1.3564251E+01  2.9811121E+01
 1.3575750E+01  2.9851583E+01
 1.3587251E+01  2.9871889E+01
 1.3598751E+01  2.9940861E+01
 1.3610250E+01  2.9919615E+01
 1.3621751E+01  2.9948029E+01
 1.3633250E+01  2.9915482E+01
 1.3644751E+01  2.9930716E+01
 1.3656251E+01  2.9920374E+01
 1.3667750E+01  2.9952250E+01
 1.3679251E+01  2.9980665E+01
 1.3690751E+01  2.9946184E+01
 1.3702250E+01  2.9904366E+01
 1.3713751E+01  2.9852989E+01
 1.3725250E+01  2.9877502E+01
 1.3736751E+01  2.9834337E+01
 1.3748251E+01  2.9856432E+01
 1.3759750E+01  2.9797174E+01
 1.3771251E+01  2.9849318E+01
 1.3782751E+01  2.9828444E+01
 1.3794250E+01  2.9832689E+01
 1.3805751E+01  2.9840918E+01
 1.3817250E+01  2.9880497E+01
 1.3828751E+01  3.0057146E+01
 1.3840251E+01  3.0199392E+01
 1.3851750E+01  3.0518152E+01
 1.3863251E+01  3.0974810E+01
 1.3874751E+01  3.1922596E+01
 1.3886250E+01  3.3293842E+01
 1.3897751E+01  3.5433537E+01
 1.3909250E+01  3.8837841E+01
 1.3920751E+01  4.2404697E+01
 1.3932251E+01  4.5947159E+01
 1.3943750E+01  4.8897423E+01
 1.3955251E+01  5.0746037E+01
 1.3966751E+01  5.1630001E+01
 1.3978251E+01  4.9825516E+01
 1.3989751E+01  4.6451008E+01
 1.4001250E+01  4.2256271E+01
 1.4012751E+01  3.7740978E+01
 1.4024251E+01  3.4562313E+01
 1.4035750E+01  3.1846378E+01
 1.4047251E+01  3.0453384E+01
 1.4058751E+01  2.9412369E+01
 1.4070251E+01  2.8893148E+01
 1.4081751E+01  2.8459408E+01
 1.4093250E+01  2.8227438E+01
 1.4104751E+01  2.8060774E+01
 1.4116251E+01  2.7977604E+01
 1.4127750E+01  2.7882463E+01
 1.4139251E+01  2.7815269E+01
 1.4150751E+01  2.7730249E+01
 1.4162251E+01  2.7656475E+01
 1.4173751E+01  2.7545589E+01
 1.4185250E+01  2.7418724E+01
 1.4196751E+01  2.7301338E+01
 1.4208251E+01  2.7203728E+01
 1.4219750E+01  2.7077234E+01
 1.4231251E+01  2.6924994E+01
 1.4242751E+01  2.6772669E+01
 1.4254251E+01  2.6640770E+01
 1.4265751E+01  2.6555395E+01
 1.4277250E+01  2.6503023E+01
 1.4288751E+01  2.6478552E+01
 1.4300251E+01  2.6464737E+01
 1.4311750E+01  2.6454288E+01
 1.4323251E+01  2.6445578E+01
 1.4334751E+01  2.6386940E+01
 1.4346251E+01  2.6338825E+01
 1.4357751E+01  2.6315184E+01
 1.4369250E+01  2.6283775E+01
 1.4380751E+01  2.6178143E+01
 1.4392251E+01  2.6093700E+01
 1.4403750E+01  2.6037865E+01
 1.4415251E+01  2.6052467E+01
 1.4426751E+01  2.6045280E+01
 1.4438251E+01  2.6019686E+01
 1.4449751E+01  2.5979849E+01
 1.4461250E+01  2.5947327E+01
 1.4472751E+01  2.5916853E+01
 1.4484251E+01  2.5879917E+01
 1.4495750E+01  2.5845812E+01
 1.4507251E+01  2.5816769E+01
 1.4518751E+01  2.5798237E+01
 1.4530251E+01  2.5811590E+01
 1.4541751E+01  2.5809431E+01
 1.4553250E+01  2.5818716E+01
 1.4564751E+01  2.5799044E+01
 1.4576251E+01  2.5739189E+01
 1.4587750E+01  2.5667099E+01
 1.4599251E+01  2.5558037E+01
 1.4610751E+01  2.5540167E+01
 1.4622251E+01  2.5514580E+01
 1.4633751E+01  2.5528006E+01
 1.4645250E+01  2.5532009E+01
 1.4656751E+01  2.5439167E+01
 1.4668251E+01  2.5399509E+01
 1.4679750E+01  2.5337288E+01
 1.4691251E+01  2.5352781E+01
 1.4702751E+01  2.5351568E+01
 1.4714251E+01  2.5411043E+01
 1.4725751E+01  2.5387365E+01
 1.4737250E+01  2.5372255E+01
 1.4748751E+01  2.5338232E+01
 1.4760251E+01  2.5328369E+01
 1.4771750E+01  2.5337540E+01
 1.4783251E+01  2.5312193E+01
 1.4794751E+01  2.5321362E+01
 1.4806251E+01  2.5239771E+01
 1.4817751E+01  2.5188015E+01
 1.4829250E+01  2.5126175E+01
 1.4840751E+01  2.5150499E+01
 1.4852251E+01  2.5151924E+01
 1.4863750E+01  2.5152267E+01
 1.4875251E+01  2.5109959E+01
 1.4886751E+01  2.5092001E+01
 1.4898251E+01  2.5096298E+01
 1.4909751E+01  2.5132124E+01
 1.4921250E+01  2.5130365E+01
 1.4932751E+01  2.5127842E+01
 1.4944251E+01  2.5061750E+01
 1.4955750E+01  2.5098520E+01
 1.4967251E+01  2.5128130E+01
 1.4978751E+01  2.5216002E+01
 1.4990251E+01  2.5172672E+01
 1.5001751E+01  2.5115267E+01
 1.5013250E+01  2.5091114E+01
 1.5024751E+01  2.5098969E+01
 1.5036251E+01  2.5049749E+01
 1.5047750E+01  2.5021763E+01
 1.5059251E+01  2.5028044E+01
 1.5070751E+01  2.5052509E+01
 1.5082251E+01  2.5026613E+01
 1.5093751E+01  2.5038420E+01
 1.5105250E+01  2.5160267E+01
 1.5116751E+01  2.5363642E+01
 1.5128251E+01  2.5697689E+01
 1.5139750E+01  2.6375200E+01
 1.5151251E+01  2.7420559E+01
 1.5162751E+01  2.8177650E+01
 1.5174251E+01  2.8939920E+01
 1.5185751E+01  2.9097240E+01
 1.5197250E+01  2.9410648E+01
 1.5208751E+01  2.9050486E+01
 1.5220251E+01  2.8767359E+01
 1.5231750E+01  2.7993555E+01
 1.5243251E+01  2.7253647E+01
 1.5254751E+01  2.6431602E+01
 1.5266251E+01  2.5814745E+01
 1.5277751E+01  2.5389727E+01
 1.5289250E+01  2.5150330E+01
 1.5300751E+01  2.4992260E+01
 1.5312251E+01  2.4952354E+01
 1.5323750E+01  2.4907738E+01
 1.5335251E+01  2.4857862E+01
 1.5346751E+01  2.4774822E+01
 1.5358251E+01  2.4739935E+01
 1.5369751E+01  2.4727646E+01
 1.5381250E+01  2.4709997E+01
 1.5392751E+01  2.4752764E+01
 1.5404251E+01  2.4779928E+01
 1.5415751E+01  2.4773754E+01
 1.5427251E+01  2.4717793E+01
 1.5438751E+01  2.4662169E+01
 1.5450251E+01  2.4631184E+01
 1.5461751E+01  2.4604841E+01
 1.5473250E+01  2.4577267E+01
 1.5484751E+01  2.4622379E+01
 1.5496251E+01  2.4650946E+01
 1.5507751E+01  2.4717804E+01
 1.5519251E+01  2.4741510E+01
 1.5530751E+01  2.4744471E+01
 1.5542251E+01  2.4721733E+01
 1.5553751E+01  2.4690258E+01
 1.5565250E+01  2.4697241E+01
 1.5576751E+01  2.4683302E+01
 1.5588251E+01  2.4702372E+01
 1.5599751E+01  2.4695515E+01
 1.5611251E+01  2.4657579E+01
 1.5622751E+01  2.4616133E+01
 1.5634251E+01  2.4590910E+01
 1.5645751E+01  2.4682468E+01
 1.5657250E+01  2.4694834E+01
 1.5668751E+01  2.4688215E+01
 1.5680251E+01  2.4650406E+01
 1.5691751E+01  2.4646801E+01
 1.5703251E+01  2.4690357E+01
 1.5714751E+01  2.4698732E+01
 1.5726251E+01  2.4734150E+01
 1.5737751E+01  2.4705364E+01
 1.5749250E+01  2.4735388E+01
 1.5760751E+01  2.4758875E+01
 1.5772251E+01  2.4806025E+01
 1.5783751E+01  2.4796429E+01
 1.5795251E+01  2.4822598E+01
 1.5806751E+01  2.4800459E+01
 1.5818251E+01  2.4786772E+01
 1.5829751E+01  2.4709721E+01
 1.5841250E+01  2.4696199E+01
 1.5852751E+01  2.4720812E+01
 1.5864251E+01  2.4704748E+01
 1.5875751E+01  2.4729279E+01
 1.5887251E+01  2.4754843E+01
 1.5898750E+01  2.4791557E+01
 1.5910251E+01  2.4763920E+01
 1.5921751E+01  2.4743732E+01
 1.5933250E+01  2.4725527E+01
 1.5944751E+01  2.4660917E+01
 1.5956251E+01  2.4618481E+01
 1.5967751E+01  2.4606762E+01
 1.5979251E+01  2.4640224E+01
 1.5990750E+01  2.4663885E+01
 1.6002251E+01  2.4705629E+01
 1.6013750E+01  2.4752617E+01
 1.6025251E+01  2.4773970E+01
 1.6036751E+01  2.4812231E+01
 1.6048250E+01  2.4842834E+01
 1.6059752E+01  2.4877598E+01
 1.6071251E+01  2.4873365E+01
 1.6082750E+01  2.4920914E+01
 1.6094252E+01  2.4953913E+01
 1.6105751E+01  2.5066589E+01
 1.6117250E+01  2.5117346E+01
 1.6128750E+01  2.5150740E+01
 1.6140251E+01  2.5125475E+01
 1.6151751E+01  2.5086885E+01
 1.6163250E+01  2.5085325E+01
 1.6174751E+01  2.5055834E+01
 1.6186251E+01  2.5197546E+01
 1.6197750E+01  2.5168760E+01
 1.6209251E+01  2.5476789E+01
 1.6220751E+01  2.5479462E+01
 1.6232250E+01  2.5789091E+01
 1.6243752E+01  2.5788218E+01
 1.6255251E+01  2.5951120E+01
 1.6266750E+01  2.6091219E+01
 1.6278252E+01  2.5856308E+01
 1.6289751E+01  2.5931120E+01
 1.6301250E+01  2.5383236E+01
 1.6312750E+01  2.5457613E+01
 1.6324251E+01  2.4988701E+01
 1.6335751E+01  2.5058422E+01
 1.6347250E+01  2.4854788E+01
 1.6358751E+01  2.4864290E+01
 1.6370251E+01  2.4764870E+01
 1.6381750E+01  2.4749031E+01
 1.6393251E+01  2.4804167E+01
 1.6404751E+01  2.4885656E+01
 1.6416250E+01  2.4956621E+01
 1.6427752E+01  2.4879341E+01
 1.6439251E+01  2.4859116E+01
 1.6450750E+01  2.4824074E+01
 1.6462252E+01  2.4841986E+01
 1.6473751E+01  2.4813452E+01
 1.6485250E+01  2.4828554E+01
 1.6496750E+01  2.4798975E+01
 1.6508251E+01  2.4744436E+01
 1.6519751E+01  2.4728552E+01
 1.6531250E+01  2.4727356E+01
 1.6542751E+01  2.4746988E+01
 1.6554251E+01  2.4760021E+01
 1.6565750E+01  2.4779354E+01
 1.6577251E+01  2.4761091E+01
 1.6588751E+01  2.4733421E+01
 1.6600250E+01  2.4731731E+01
 1.6611752E+01  2.4722904E+01
 1.6623251E+01  2.4677952E+01
 1.6634750E+01  2.4650663E+01
 1.6646252E+01  2.4650875E+01
 1.6657751E+01  2.4649044E+01
 1.6669250E+01  2.4621067E+01
 1.6680750E+01  2.4616322E+01
 1.6692251E+01  2.4639071E+01
 1.6703751E+01  2.4665630E+01
 1.6715250E+01  2.4648291E+01
 1.6726751E+01  2.4641773E+01
 1.6738251E+01  2.4631149E+01
 1.6749750E+01  2.4685814E+01
 1.6761251E+01  2.4623499E+01
 1.6772751E+01  2.4591623E+01
 1.6784250E+01  2.4483030E+01
 1.6795752E+01  2.4491610E+01
 1.6807251E+01  2.4480928E+01
 1.6818750E+01  2.4501822E+01
 1.6830252E+01  2.4478979E+01
 1.6841751E+01  2.4522818E+01
 1.6853251E+01  2.4558161E+01
 1.6864750E+01  2.4579634E+01
 1.6876251E+01  2.4606152E+01
 1.6887751E+01  2.4590256E+01
 1.6899250E+01  2.4614256E+01
 1.6910751E+01  2.4577608E+01
 1.6922251E+01  2.4623102E+01
 1.6933750E+01  2.4593018E+01
 1.6945251E+01  2.4605598E+01
 1.6956751E+01  2.4563208E+01
 1.6968250E+01  2.4529987E+01
 1.6979752E+01  2.4491804E+01
 1.6991251E+01  2.4438829E+01
 1.7002750E+01  2.4412500E+01
 1.7014252E+01  2.4388599E+01
 1.7025751E+01  2.4391552E+01
 1.7037251E+01  2.4362864E+01
 1.7048750E+01  2.4293539E+01
 1.7060251E+01  2.4256721E+01
 1.7071751E+01  2.4247198E+01
 1.7083250E+01  2.4298134E+01
 1.7094751E+01  2.4302616E+01
 1.7106251E+01  2.4312408E+01
 1.7117750E+01  2.4297331E+01
 1.7129251E+01  2.4317947E+01
 1.7140751E+01  2.4324797E+01
 1.7152250E+01  2.4323032E+01
 1.7163752E+01  2.4313246E+01
 1.7175251E+01  2.4297430E+01
 1.7186750E+01  2.4302286E+01
 1.7198252E+01  2.4319660E+01
 1.7209751E+01  2.4357018E+01
 1.7221251E+01  2.4340492E+01
 1.7232750E+01  2.4339909E+01
 1.7244251E+01  2.4295687E+01
 1.7255751E+01  2.4280449E+01
 1.7267250E+01  2.4278044E+01
 1.7278751E+01  2.4303755E+01
 1.7290251E+01  2.4348959E+01
 1.7301750E+01  2.4360014E+01
 1.7313251E+01  2.4347836E+01
 1.7324751E+01  2.4350382E+01
 1.7336250E+01  2.4297251E+01
 1.7347752E+01  2.4236979E+01
 1.7359251E+01  2.4163694E+01
 1.7370750E+01  2.4141464E+01
 1.7382252E+01  2.4150875E+01
 1.7393751E+01  2.4142811E+01
 1.7405251E+01  2.4127998E+01
 1.7416750E+01  2.4146519E+01
 1.7428251E+01  2.4189583E+01
 1.7439751E+01  2.4183596E+01
 1.7451250E+01  2.4100613E+01
 1.7462751E+01  2.4075258E+01
 1.7474251E+01  2.4086948E+01
 1.7485750E+01  2.4126722E+01
 1.7497252E+01  2.4137922E+01
 1.7508751E+01  2.4090397E+01
 1.7520250E+01  2.4053387E+01
 1.7531752E+01  2.4033340E+01
 1.7543251E+01  2.4097929E+01
 1.7554750E+01  2.4101139E+01
 1.7566252E+01  2.4103582E+01
 1.7577751E+01  2.4134968E+01
 1.7589251E+01  2.4132801E+01
 1.7600750E+01  2.4135443E+01
 1.7612251E+01  2.4071760E+01
 1.7623751E+01  2.4111835E+01
 1.7635250E+01  2.4073490E+01
 1.7646751E+01  2.4039095E+01
 1.7658251E+01  2.3966675E+01
 1.7669750E+01  2.3968523E+01
 1.7681252E+01  2.3944347E+01
 1.7692751E+01  2.3963789E+01
 1.7704250E+01  2.3962942E+01
 1.7715752E+01  2.4010284E+01
 1.7727251E+01  2.3995081E+01
 1.7738750E+01  2.4009985E+01
 1.7750252E+01  2.3977924E+01
 1.7761751E+01  2.3987534E+01
 1.7773251E+01  2.3971926E+01
 1.7784750E+01  2.3992142E+01
 1.7796251E+01  2.3982010E+01
 1.7807751E+01  2.3971783E+01
 1.7819250E+01  2.3902903E+01
 1.7830751E+01  2.3862368E+01
 1.7842251E+01  2.3884594E+01
 1.7853750E+01  2.3942572E+01
 1.7865252E+01  2.3980497E+01
 1.7876751E+01  2.3985525E+01
 1.7888250E+01  2.4015230E+01
 1.7899752E+01  2.4051487E+01
 1.7911251E+01  2.4137732E+01
 1.7922750E+01  2.4220072E+01
 1.7934252E+01  2.4278065E+01
 1.7945751E+01  2.4317692E+01
 1.7957251E+01  2.4391535E+01
 1.7968750E+01  2.4541458E+01
 1.7980251E+01  2.4761251E+01
 1.7991751E+01  2.4889536E+01
 1.8003250E+01  2.5174814E+01
 1.8014751E+01  2.5314137E+01
 1.8026251E+01  2.5554996E+01
 1.8037750E+01  2.5718521E+01
 1.8049252E+01  2.6167645E+01
 1.8060751E+01  2.6817959E+01
 1.8072250E+01  2.7748354E+01
 1.8083752E+01  2.9685211E+01
 1.8095251E+01  3.1176025E+01
 1.8106750E+01  3.5843250E+01
 1.8118252E+01  3.5943584E+01
 1.8129751E+01  4.1008003E+01
 1.8141251E+01  3.6541595E+01
 1.8152750E+01  3.7629158E+01
 1.8164251E+01  3.1582952E+01
 1.8175751E+01  3.0135420E+01
 1.8187250E+01  2.7192070E+01
 1.8198751E+01  2.6101025E+01
 1.8210251E+01  2.5382429E+01
 1.8221750E+01  2.4906828E+01
 1.8233252E+01  2.4679403E+01
 1.8244751E+01  2.4441835E+01
 1.8256250E+01  2.4310223E+01
 1.8267752E+01  2.4197250E+01
 1.8279251E+01  2.4118523E+01
 1.8290751E+01  2.4075151E+01
 1.8302252E+01  2.4065676E+01
 1.8313751E+01  2.4055490E+01
 1.8325251E+01  2.4033007E+01
 1.8336750E+01  2.3974916E+01
 1.8348251E+01  2.3942865E+01
 1.8359751E+01  2.3925253E+01
 1.8371250E+01  2.3921967E+01
 1.8382751E+01  2.3882433E+01
 1.8394251E+01  2.3877935E+01
 1.8405750E+01  2.3904877E+01
 1.8417252E+01  2.3919107E+01
 1.8428751E+01  2.3906511E+01
 1.8440250E+01  2.3929050E+01
 1.8451752E+01  2.3891457E+01
 1.8463251E+01  2.3870451E+01
 1.8474751E+01  2.3804226E+01
 1.8486252E+01  2.3772305E+01
 1.8497751E+01  2.3717867E+01
 1.8509251E+01  2.3725657E+01
 1.8520750E+01  2.3774263E+01
 1.8532251E+01  2.3797592E+01
 1.8543751E+01  2.3761335E+01
 1.8555250E+01  2.3744196E+01
 1.8566751E+01  2.3698629E+01
 1.8578251E+01  2.3767336E+01
 1.8589750E+01  2.3789890E+01
 1.8601252E+01  2.3840080E+01
 1.8612751E+01  2.3839382E+01
 1.8624250E+01  2.3790257E+01
 1.8635752E+01  2.3727531E+01
 1.8647251E+01  2.3663891E+01
 1.8658751E+01  2.3667198E+01
 1.8670252E+01  2.3655899E+01
 1.8681751E+01  2.3681274E+01
 1.8693251E+01  2.3716366E+01
 1.8704750E+01  2.3734161E+01
 1.8716251E+01  2.3724735E+01
 1.8727751E+01  2.3752361E+01
 1.8739250E+01  2.3716646E+01
 1.8750751E+01  2.3697897E+01
 1.8762251E+01  2.3673014E+01
 1.8773750E+01  2.3649168E+01
 1.8785252E+01  2.3657515E+01
 1.8796751E+01  2.3607199E+01
 1.8808250E+01  2.3616673E+01
 1.8819752E+01  2.3576906E+01
 1.8831251E+01  2.3596197E+01
 1.8842751E+01  2.3604025E+01
 1.8854252E+01  2.3617659E+01
 1.8865751E+01  2.3599117E+01
 1.8877251E+01  2.3599188E+01
 1.8888750E+01  2.3652420E+01
 1.8900251E+01  2.3763687E+01
 1.8911751E+01  2.3914370E+01
 1.8923250E+01  2.3966543E+01
 1.8934752E+01  2.3943356E+01
 1.8946251E+01  2.3850245E+01
 1.8957750E+01  2.3799818E+01
 1.8969252E+01  2.3696896E+01
 1.8980751E+01  2.3660505E+01
 1.8992250E+01  2.3612818E+01
 1.9003752E+01  2.3670809E+01
 1.9015251E+01  2.3715059E+01
 1.9026751E+01  2.3775028E+01
 1.9038252E+01  2.3791864E+01
 1.9049751E+01  2.3812897E+01
 1.9061251E+01  2.3817659E+01
 1.9072750E+01  2.3805206E+01
 1.9084251E+01  2.3796465E+01
 1.9095751E+01  2.3775730E+01
 1.9107250E+01  2.3761868E+01
 1.9118752E+01  2.3765158E+01
 1.9130251E+01  2.3778738E+01
 1.9141750E+01  2.3784058E+01
 1.9153252E+01  2.3786898E+01
 1.9164751E+01  2.3755793E+01
 1.9176250E+01  2.3733425E+01
 1.9187752E+01  2.3709089E+01
 1.9199251E+01  2.3705433E+01
 1.9210751E+01  2.3658800E+01
 1.9222252E+01  2.3627592E+01
 1.9233751E+01  2.3631432E+01
 1.9245251E+01  2.3680843E+01
 1.9256750E+01  2.3731091E+01
 1.9268251E+01  2.3758904E+01
 1.9279751E+01  2.3751965E+01
 1.9291250E+01  2.3782417E+01
 1.9302752E+01  2.3837374E+01
 1.9314251E+01  2.3912563E+01
 1.9325750E+01  2.3934765E+01
 1.9337252E+01  2.3936089E+01
 1.9348751E+01  2.3873306E+01
 1.9360250E+01  2.3818539E+01
 1.9371752E+01  2.3867191E+01
 1.9383251E+01  2.3903603E+01
 1.9394751E+01  2.3964148E+01
 1.9406250E+01  2.3915960E+01
 1.9417751E+01  2.3924862E+01
 1.9429251E+01  2.3869871E+01
 1.9440750E+01  2.3869711E+01
 1.9452251E+01  2.3866024E+01
 1.9463751E+01  2.3879908E+01
 1.9475250E+01  2.3899574E+01
 1.9486752E+01  2.3944479E+01
 1.9498251E+01  2.3954512E+01
 1.9509750E+01  2.3988394E+01
 1.9521252E+01  2.3997349E+01
 1.9532751E+01  2.4010025E+01
 1.9544250E+01  2.4042553E+01
 1.9555752E+01  2.4057905E+01
 1.9567251E+01  2.4120054E+01
 1.9578751E+01  2.4236008E+01
 1.9590250E+01  2.4337372E+01
 1.9601751E+01  2.4420666E+01
 1.9613251E+01  2.4485794E+01
 1.9624750E+01  2.4658499E+01
 1.9636251E+01  2.4861603E+01
 1.9647751E+01  2.5168337E+01
 1.9659250E+01  2.5745934E+01
 1.9670752E+01  2.6283024E+01
 1.9682251E+01  2.7218258E+01
 1.9693750E+01  2.8628124E+01
 1.9705252E+01  2.9563513E+01
 1.9716751E+01  2.9910727E+01
 1.9728251E+01  2.9920769E+01
 1.9739752E+01  2.9795282E+01
 1.9751251E+01  2.8873775E+01
 1.9762751E+01  2.8139830E+01
 1.9774250E+01  2.7819435E+01
 1.9785751E+01  2.7970640E+01
 1.9797251E+01  2.9285471E+01
 1.9808750E+01  3.1094751E+01
 1.9820251E+01  3.3786430E+01
 1.9831751E+01  3.6699188E+01
 1.9843250E+01  3.7662292E+01
 1.9854752E+01  3.8567421E+01
 1.9866251E+01  3.6718552E+01
 1.9877750E+01  3.4964275E+01
 1.9889252E+01  3.1569191E+01
 1.9900751E+01  2.9803514E+01
 1.9912251E+01  2.7828554E+01
 1.9923752E+01  2.6429529E+01
 1.9935251E+01  2.5743155E+01
 1.9946751E+01  2.5167625E+01
 1.9958250E+01  2.4876986E+01
 1.9969751E+01  2.4688248E+01
 1.9981251E+01  2.4511049E+01
 1.9992750E+01  2.4407509E+01
 2.0004251E+01  2.4271265E+01
 2.0015751E+01  2.4253456E+01
 2.0027250E+01  2.4228579E+01
 2.0038752E+01  2.4242271E+01
 2.0050251E+01  2.4264212E+01
 2.0061750E+01  2.4225378E+01
 2.0073252E+01  2.4202482E+01
 2.0084751E+01  2.4108973E+01
 2.0096251E+01  2.4088970E+01
 2.0107752E+01  2.4065207E+01
 2.0119251E+01  2.4089800E+01
 2.0130751E+01  2.4106628E+01
 2.0142250E+01  2.4121733E+01
 2.0153751E+01  2.4137238E+01
 2.0165251E+01  2.4110432E+01
 2.0176750E+01  2.4100555E+01
 2.0188251E+01  2.4089870E+01
 2.0199751E+01  2.4053146E+01
 2.0211250E+01  2.4017988E+01
 2.0222752E+01  2.4028530E+01
 2.0234251E+01  2.4076921E+01
 2.0245750E+01  2.4069582E+01
 2.0257252E+01  2.3982841E+01
 2.0268751E+01  2.3897322E+01
 2.0280251E+01  2.3860277E+01
 2.0291752E+01  2.3896173E+01
 2.0303251E+01  2.3831041E+01
 2.0314751E+01  2.3844250E+01
 2.0326250E+01  2.3826933E+01
 2.0337751E+01  2.3910301E+01
 2.0349251E+01  2.3952314E+01
 2.0360750E+01  2.3963459E+01
 2.0372252E+01  2.3934813E+01
 2.0383751E+01  2.3880486E+01
 2.0395250E+01  2.3899298E+01
 2.0406752E+01  2.3915295E+01
 2.0418251E+01  2.3950972E+01
 2.0429750E+01  2.3944351E+01
 2.0441252E+01  2.3898172E+01
 2.0452751E+01  2.3880032E+01
 2.0464251E+01  2.3852455E+01
 2.0475752E+01  2.3838243E+01
 2.0487251E+01  2.3800865E+01
 2.0498751E+01  2.3815306E+01
 2.0510250E+01  2.3823645E+01
 2.0521751E+01  2.3838581E+01
 2.0533251E+01  2.3831745E+01
 2.0544750E+01  2.3863682E+01
 2.0556252E+01  2.3946943E+01
 2.0567751E+01  2.4027672E+01
 2.0579250E+01  2.4103924E+01
 2.0590752E+01  2.4158112E+01
 2.0602251E+01  2.4234440E+01
 2.0613750E+01  2.4279789E+01
 2.0625252E+01  2.4330570E+01
 2.0636751E+01  2.4332132E+01
 2.0648251E+01  2.4352938E+01
 2.0659752E+01  2.4367945E+01
 2.0671251E+01  2.4461313E+01
 2.0682751E+01  2.4559763E+01
 2.0694250E+01  2.4778337E+01
 2.0705751E+01  2.5192785E+01
 2.0717251E+01  2.5811726E+01
 2.0728750E+01  2.6519085E+01
 2.0740252E+01  2.7193769E+01
 2.0751751E+01  2.7782442E+01
 2.0763250E+01  2.8300026E+01
 2.0774752E+01  2.8538706E+01
 2.0786251E+01  2.8804773E+01
 2.0797750E+01  2.8338818E+01
 2.0809252E+01  2.7487621E+01
 2.0820751E+01  2.6462252E+01
 2.0832251E+01  2.5722240E+01
 2.0843752E+01  2.5147322E+01
 2.0855251E+01  2.4798096E+01
 2.0866751E+01  2.4552895E+01
 2.0878250E+01  2.4412926E+01
 2.0889751E+01  2.4362650E+01
 2.0901251E+01  2.4366638E+01
 2.0912750E+01  2.4425154E+01
 2.0924252E+01  2.4427454E+01
 2.0935751E+01  2.4401060E+01
 2.0947250E+01  2.4326975E+01
 2.0958752E+01  2.4240702E+01
 2.0970251E+01  2.4130255E+01
 2.0981750E+01  2.4108501E+01
 2.0993252E+01  2.4122904E+01
 2.1004751E+01  2.4173176E+01
 2.1016251E+01  2.4170513E+01
 2.1027752E+01  2.4161160E+01
 2.1039251E+01  2.4111975E+01
 2.1050751E+01  2.4044233E+01
 2.1062250E+01  2.4007318E+01
 2.1073751E+01  2.3998148E+01
 2.1085251E+01  2.4016624E+01
 2.1096750E+01  2.4020433E+01
 2.1108252E+01  2.4087469E+01
 2.1119751E+01  2.4157745E+01
 2.1131250E+01  2.4186625E+01
 2.1142752E+01  2.4154943E+01
 2.1154251E+01  2.4102993E+01
 2.1165751E+01  2.4136000E+01
 2.1177252E+01  2.4152391E+01
 2.1188751E+01  2.4201387E+01
 2.1200251E+01  2.4161041E+01
 2.1211752E+01  2.4165934E+01
 2.1223251E+01  2.4123005E+01
 2.1234751E+01  2.4089087E+01
 2.1246250E+01  2.4083921E+01
 2.1257751E+01  2.4104652E+01
 2.1269251E+01  2.4157637E+01
 2.1280750E+01  2.4134769E+01
 2.1292252E+01  2.4135820E+01
 2.1303751E+01  2.4130175E+01
 2.1315250E+01  2.4103924E+01
 2.1326752E+01  2.4139971E+01
 2.1338251E+01  2.4141489E+01
 2.1349751E+01  2.4141932E+01
 2.1361252E+01  2.4164789E+01
 2.1372751E+01  2.4197599E+01
 2.1384251E+01  2.4193581E+01
 2.1395752E+01  2.4123238E+01
 2.1407251E+01  2.4138557E+01
 2.1418751E+01  2.4176558E+01
 2.1430250E+01  2.4238585E+01
 2.1441751E+01  2.4211435E+01
 2.1453251E+01  2.4181717E+01
 2.1464750E+01  2.4134596E+01
 2.1476252E+01  2.4091345E+01
 2.1487751E+01  2.4086809E+01
 2.1499250E+01  2.4086691E+01
 2.1510752E+01  2.4087288E+01
 2.1522251E+01  2.4088907E+01
 2.1533751E+01  2.4127600E+01
 2.1545252E+01  2.4157400E+01
 2.1556751E+01  2.4141485E+01
 2.1568251E+01  2.4120876E+01
 2.1579752E+01  2.4123350E+01
 2.1591251E+01  2.4150463E+01
 2.1602751E+01  2.4213322E+01
 2.1614250E+01  2.4252855E+01
 2.1625751E+01  2.4303509E+01
 2.1637251E+01  2.4291933E+01
 2.1648750E+01  2.4243210E+01
 2.1660252E+01  2.4186563E+01
 2.1671751E+01  2.4170731E+01
 2.1683250E+01  2.4164103E+01
 2.1694752E+01  2.4209087E+01
 2.1706251E+01  2.4249697E+01
 2.1717751E+01  2.4229227E+01
 2.1729252E+01  2.4184557E+01
 2.1740751E+01  2.4204153E+01
 2.1752251E+01  2.4257374E+01
 2.1763752E+01  2.4314898E+01
 2.1775251E+01  2.4337997E+01
 2.1786751E+01  2.4320183E+01
 2.1798250E+01  2.4309181E+01
 2.1809752E+01  2.4297094E+01
 2.1821251E+01  2.4293907E+01
 2.1832750E+01  2.4294758E+01
 2.1844252E+01  2.4286760E+01
 2.1855751E+01  2.4330900E+01
 2.1867250E+01  2.4350943E+01
 2.1878752E+01  2.4371832E+01
 2.1890251E+01  2.4333710E+01
 2.1901751E+01  2.4329863E+01
 2.1913252E+01  2.4363426E+01
 2.1924751E+01  2.4417599E+01
 2.1936251E+01  2.4450640E+01
 2.1947752E+01  2.4491394E+01
 2.1959251E+01  2.4464655E+01
 2.1970751E+01  2.4477453E+01
 2.1982250E+01  2.4421677E+01
 2.1993752E+01  2.4412947E+01
 2.2005251E+01  2.4395376E+01
 2.2016750E+01  2.4451452E+01
 2.2028252E+01  2.4447895E+01
 2.2039751E+01  2.4384634E+01
 2.2051250E+01  2.4386984E+01
 2.2062752E+01  2.4397810E+01
 2.2074251E+01  2.4551067E+01
 2.2085751E+01  2.4642742E+01
 2.2097252E+01  2.4717201E+01
 2.2108751E+01  2.4721247E+01
 2.2120251E+01  2.4733637E+01
 2.2131752E+01  2.4711750E+01
 2.2143251E+01  2.4699749E+01
 2.2154751E+01  2.4723095E+01
 2.2166250E+01  2.4721273E+01
 2.2177752E+01  2.4680387E+01
 2.2189251E+01  2.4605404E+01
 2.2200750E+01  2.4561871E+01
 2.2212252E+01  2.4596237E+01
 2.2223751E+01  2.4575312E+01
 2.2235250E+01  2.4576256E+01
 2.2246752E+01  2.4524082E+01
 2.2258251E+01  2.4485704E+01
 2.2269751E+01  2.4401075E+01
 2.2281252E+01  2.4400032E+01
 2.2292751E+01  2.4453606E+01
 2.2304251E+01  2.4572622E+01
 2.2315752E+01  2.4632093E+01
 2.2327251E+01  2.4650566E+01
 2.2338751E+01  2.4656403E+01
 2.2350250E+01  2.4663095E+01
 2.2361752E+01  2.4629301E+01
 2.2373251E+01  2.4602917E+01
 2.2384750E+01  2.4591932E+01
 2.2396252E+01  2.4574800E+01
 2.2407751E+01  2.4536108E+01
 2.2419250E+01  2.4534613E+01
 2.2430752E+01  2.4601027E+01
 2.2442251E+01  2.4722872E+01
 2.2453751E+01  2.4777882E+01
 2.2465252E+01  2.4796560E+01
 2.2476751E+01  2.4743383E+01
 2.2488251E+01  2.4790091E+01
 2.2499752E+01  2.4846861E+01
 2.2511251E+01  2.4917801E+01
 2.2522751E+01  2.4935221E+01
 2.2534250E+01  2.4911388E+01
 2.2545752E+01  2.4891712E+01
 2.2557251E+01  2.4901733E+01
 2.2568750E+01  2.4948689E+01
 2.2580252E+01  2.4988214E+01
 2.2591751E+01  2.5008512E+01
 2.2603251E+01  2.5015335E+01
 2.2614752E+01  2.5055475E+01
 2.2626251E+01  2.5081457E+01
 2.2637751E+01  2.5120729E+01
 2.2649252E+01  2.5119125E+01
 2.2660751E+01  2.5139341E+01
 2.2672251E+01  2.5153633E+01
 2.2683752E+01  2.5229546E+01
 2.2695251E+01  2.5303417E+01
 2.2706751E+01  2.5313946E+01
 2.2718250E+01  2.5350399E+01
 2.2729752E+01  2.5363400E+01
 2.2741251E+01  2.5425900E+01
 2.2752750E+01  2.5409050E+01
 2.2764252E+01  2.5406883E+01
 2.2775751E+01  2.5389849E+01
 2.2787251E+01  2.5320047E+01
 2.2798752E+01  2.5344887E+01
 2.2810251E+01  2.5457951E+01
 2.2821751E+01  2.5569748E+01
 2.2833252E+01  2.5618771E+01
 2.2844751E+01  2.5661858E+01
 2.2856251E+01  2.5746044E+01
 2.2867750E+01  2.5807055E+01
 2.2879251E+01  2.5907177E+01
 2.2890751E+01  2.5983555E+01
 2.2902250E+01  2.6038721E+01
 2.2913752E+01  2.6097553E+01
 2.2925251E+01  2.6157978E+01
 2.2936750E+01  2.6193262E+01
 2.2948252E+01  2.6216780E+01
 2.2959751E+01  2.6237570E+01
 2.2971251E+01  2.6338009E+01
 2.2982752E+01  2.6455822E+01
 2.2994251E+01  2.6583138E+01
