F:\20151113_APS_34IDE\\Brian\Particle1\OCV\Data_0125.tif
2-Theta Angle (Degrees)
Intensity
       2000
 5.7500005E-03  0.0000000E+00
 1.7250001E-02  0.0000000E+00
 2.8750001E-02  0.0000000E+00
 4.0250003E-02  0.0000000E+00
 5.1750004E-02  0.0000000E+00
 6.3250005E-02  0.0000000E+00
 7.4750006E-02  0.0000000E+00
 8.6250007E-02  0.0000000E+00
 9.7750008E-02  0.0000000E+00
 1.0925001E-01  0.0000000E+00
 1.2075000E-01  0.0000000E+00
 1.3225001E-01  0.0000000E+00
 1.4375001E-01  0.0000000E+00
 1.5525001E-01  0.0000000E+00
 1.6675001E-01  0.0000000E+00
 1.7825001E-01  0.0000000E+00
 1.8975002E-01  0.0000000E+00
 2.0125002E-01  0.0000000E+00
 2.1275002E-01  0.0000000E+00
 2.2425000E-01  0.0000000E+00
 2.3575000E-01  0.0000000E+00
 2.4725001E-01  0.0000000E+00
 2.5875002E-01  0.0000000E+00
 2.7025002E-01  0.0000000E+00
 2.8175002E-01  0.0000000E+00
 2.9325002E-01  0.0000000E+00
 3.0475003E-01  0.0000000E+00
 3.1625003E-01  0.0000000E+00
 3.2775003E-01  0.0000000E+00
 3.3925003E-01  0.0000000E+00
 3.5075003E-01  0.0000000E+00
 3.6225003E-01  0.0000000E+00
 3.7375003E-01  0.0000000E+00
 3.8525003E-01  0.0000000E+00
 3.9675003E-01  0.0000000E+00
 4.0825003E-01  0.0000000E+00
 4.1975003E-01  0.0000000E+00
 4.3125004E-01  0.0000000E+00
 4.4275001E-01  0.0000000E+00
 4.5425001E-01  0.0000000E+00
 4.6575001E-01  0.0000000E+00
 4.7725001E-01  0.0000000E+00
 4.8875001E-01  0.0000000E+00
 5.0025004E-01  0.0000000E+00
 5.1175004E-01  0.0000000E+00
 5.2325004E-01  0.0000000E+00
 5.3475004E-01  0.0000000E+00
 5.4625005E-01  0.0000000E+00
 5.5775005E-01  0.0000000E+00
 5.6925005E-01  0.0000000E+00
 5.8075005E-01  0.0000000E+00
 5.9225005E-01  0.0000000E+00
 6.0375005E-01  0.0000000E+00
 6.1525005E-01  0.0000000E+00
 6.2675005E-01  0.0000000E+00
 6.3825005E-01  0.0000000E+00
 6.4975005E-01  0.0000000E+00
 6.6125005E-01  0.0000000E+00
 6.7275006E-01  0.0000000E+00
 6.8425006E-01  0.0000000E+00
 6.9575006E-01  0.0000000E+00
 7.0725006E-01  0.0000000E+00
 7.1875006E-01  0.0000000E+00
 7.3025006E-01  0.0000000E+00
 7.4175006E-01  0.0000000E+00
 7.5325006E-01  0.0000000E+00
 7.6475006E-01  0.0000000E+00
 7.7625006E-01  0.0000000E+00
 7.8775007E-01  0.0000000E+00
 7.9925007E-01  0.0000000E+00
 8.1075007E-01  0.0000000E+00
 8.2225007E-01  0.0000000E+00
 8.3375007E-01  0.0000000E+00
 8.4525007E-01  0.0000000E+00
 8.5675007E-01  0.0000000E+00
 8.6825007E-01  0.0000000E+00
 8.7975001E-01  0.0000000E+00
 8.9125001E-01  0.0000000E+00
 9.0275002E-01  0.0000000E+00
 9.1425002E-01  0.0000000E+00
 9.2575002E-01  0.0000000E+00
 9.3725002E-01  0.0000000E+00
 9.4875002E-01  0.0000000E+00
 9.6025002E-01  0.0000000E+00
 9.7175002E-01  0.0000000E+00
 9.8325002E-01  0.0000000E+00
 9.9475002E-01  0.0000000E+00
 1.0062500E+00  0.0000000E+00
 1.0177500E+00  0.0000000E+00
 1.0292500E+00  0.0000000E+00
 1.0407500E+00  0.0000000E+00
 1.0522500E+00  0.0000000E+00
 1.0637500E+00  0.0000000E+00
 1.0752500E+00  0.0000000E+00
 1.0867500E+00  0.0000000E+00
 1.0982500E+00  0.0000000E+00
 1.1097500E+00  0.0000000E+00
 1.1212500E+00  0.0000000E+00
 1.1327500E+00  0.0000000E+00
 1.1442500E+00  0.0000000E+00
 1.1557500E+00  0.0000000E+00
 1.1672500E+00  0.0000000E+00
 1.1787500E+00  0.0000000E+00
 1.1902500E+00  0.0000000E+00
 1.2017500E+00  0.0000000E+00
 1.2132500E+00  0.0000000E+00
 1.2247500E+00  0.0000000E+00
 1.2362500E+00  0.0000000E+00
 1.2477500E+00  0.0000000E+00
 1.2592500E+00  0.0000000E+00
 1.2707500E+00  0.0000000E+00
 1.2822500E+00  0.0000000E+00
 1.2937500E+00  0.0000000E+00
 1.3052500E+00  0.0000000E+00
 1.3167500E+00  0.0000000E+00
 1.3282501E+00  0.0000000E+00
 1.3397501E+00  0.0000000E+00
 1.3512501E+00  0.0000000E+00
 1.3627501E+00  0.0000000E+00
 1.3742501E+00  0.0000000E+00
 1.3857501E+00  0.0000000E+00
 1.3972501E+00  0.0000000E+00
 1.4087501E+00  0.0000000E+00
 1.4202501E+00  0.0000000E+00
 1.4317501E+00  0.0000000E+00
 1.4432501E+00  0.0000000E+00
 1.4547501E+00  0.0000000E+00
 1.4662501E+00  0.0000000E+00
 1.4777501E+00  0.0000000E+00
 1.4892501E+00  0.0000000E+00
 1.5007501E+00  0.0000000E+00
 1.5122501E+00  0.0000000E+00
 1.5237501E+00  0.0000000E+00
 1.5352501E+00  0.0000000E+00
 1.5467501E+00  0.0000000E+00
 1.5582501E+00  0.0000000E+00
 1.5697501E+00  0.0000000E+00
 1.5812501E+00  0.0000000E+00
 1.5927501E+00  0.0000000E+00
 1.6042501E+00  0.0000000E+00
 1.6157501E+00  0.0000000E+00
 1.6272501E+00  0.0000000E+00
 1.6387501E+00  0.0000000E+00
 1.6502501E+00  0.0000000E+00
 1.6617501E+00  0.0000000E+00
 1.6732501E+00  0.0000000E+00
 1.6847501E+00  0.0000000E+00
 1.6962501E+00  0.0000000E+00
 1.7077501E+00  0.0000000E+00
 1.7192501E+00  0.0000000E+00
 1.7307501E+00  0.0000000E+00
 1.7422501E+00  0.0000000E+00
 1.7537501E+00  0.0000000E+00
 1.7652501E+00  0.0000000E+00
 1.7767501E+00  0.0000000E+00
 1.7882501E+00  0.0000000E+00
 1.7997501E+00  0.0000000E+00
 1.8112501E+00  0.0000000E+00
 1.8227501E+00  0.0000000E+00
 1.8342501E+00  0.0000000E+00
 1.8457501E+00  0.0000000E+00
 1.8572501E+00  0.0000000E+00
 1.8687501E+00  0.0000000E+00
 1.8802501E+00  0.0000000E+00
 1.8917501E+00  0.0000000E+00
 1.9032501E+00  0.0000000E+00
 1.9147501E+00  0.0000000E+00
 1.9262501E+00  0.0000000E+00
 1.9377501E+00  0.0000000E+00
 1.9492501E+00  0.0000000E+00
 1.9607501E+00  0.0000000E+00
 1.9722501E+00  0.0000000E+00
 1.9837501E+00  0.0000000E+00
 1.9952501E+00  0.0000000E+00
 2.0067501E+00  0.0000000E+00
 2.0182500E+00  0.0000000E+00
 2.0297501E+00  0.0000000E+00
 2.0412500E+00  0.0000000E+00
 2.0527501E+00  0.0000000E+00
 2.0642500E+00  0.0000000E+00
 2.0757501E+00  0.0000000E+00
 2.0872500E+00  0.0000000E+00
 2.0987501E+00  0.0000000E+00
 2.1102500E+00  0.0000000E+00
 2.1217501E+00  0.0000000E+00
 2.1332500E+00  0.0000000E+00
 2.1447501E+00  0.0000000E+00
 2.1562500E+00  0.0000000E+00
 2.1677501E+00  0.0000000E+00
 2.1792500E+00  0.0000000E+00
 2.1907501E+00  0.0000000E+00
 2.2022500E+00  0.0000000E+00
 2.2137501E+00  0.0000000E+00
 2.2252500E+00  0.0000000E+00
 2.2367501E+00  0.0000000E+00
 2.2482500E+00  0.0000000E+00
 2.2597501E+00  0.0000000E+00
 2.2712500E+00  0.0000000E+00
 2.2827501E+00  0.0000000E+00
 2.2942500E+00  0.0000000E+00
 2.3057501E+00  0.0000000E+00
 2.3172500E+00  0.0000000E+00
 2.3287501E+00  0.0000000E+00
 2.3402500E+00  0.0000000E+00
 2.3517501E+00  0.0000000E+00
 2.3632500E+00  0.0000000E+00
 2.3747501E+00  0.0000000E+00
 2.3862500E+00  0.0000000E+00
 2.3977501E+00  0.0000000E+00
 2.4092500E+00  0.0000000E+00
 2.4207501E+00  0.0000000E+00
 2.4322500E+00  0.0000000E+00
 2.4437501E+00  0.0000000E+00
 2.4552500E+00  0.0000000E+00
 2.4667501E+00  0.0000000E+00
 2.4782500E+00  0.0000000E+00
 2.4897501E+00  0.0000000E+00
 2.5012500E+00  0.0000000E+00
 2.5127501E+00  0.0000000E+00
 2.5242500E+00  0.0000000E+00
 2.5357502E+00  0.0000000E+00
 2.5472500E+00  0.0000000E+00
 2.5587502E+00  0.0000000E+00
 2.5702500E+00  0.0000000E+00
 2.5817502E+00  0.0000000E+00
 2.5932500E+00  0.0000000E+00
 2.6047502E+00  0.0000000E+00
 2.6162500E+00  0.0000000E+00
 2.6277502E+00  0.0000000E+00
 2.6392500E+00  0.0000000E+00
 2.6507502E+00  0.0000000E+00
 2.6622500E+00  0.0000000E+00
 2.6737502E+00  0.0000000E+00
 2.6852500E+00  0.0000000E+00
 2.6967502E+00  0.0000000E+00
 2.7082500E+00  0.0000000E+00
 2.7197502E+00  0.0000000E+00
 2.7312500E+00  0.0000000E+00
 2.7427502E+00  0.0000000E+00
 2.7542500E+00  0.0000000E+00
 2.7657502E+00  0.0000000E+00
 2.7772501E+00  0.0000000E+00
 2.7887502E+00  0.0000000E+00
 2.8002501E+00  0.0000000E+00
 2.8117502E+00  0.0000000E+00
 2.8232501E+00  3.7934952E+01
 2.8347502E+00  3.6004478E+01
 2.8462501E+00  3.5058598E+01
 2.8577502E+00  3.4534523E+01
 2.8692501E+00  3.4298416E+01
 2.8807502E+00  3.4070293E+01
 2.8922501E+00  3.4010178E+01
 2.9037502E+00  3.4345337E+01
 2.9152501E+00  3.4890896E+01
 2.9267502E+00  3.5519196E+01
 2.9382501E+00  3.5921883E+01
 2.9497502E+00  3.5769485E+01
 2.9612501E+00  3.5482113E+01
 2.9727502E+00  3.4940155E+01
 2.9842501E+00  3.4812710E+01
 2.9957502E+00  3.4942734E+01
 3.0072501E+00  3.5382122E+01
 3.0187502E+00  3.5704372E+01
 3.0302501E+00  3.5900928E+01
 3.0417502E+00  3.5633278E+01
 3.0532501E+00  3.5099335E+01
 3.0647502E+00  3.4664616E+01
 3.0762501E+00  3.4222225E+01
 3.0877502E+00  3.4368221E+01
 3.0992501E+00  3.4243332E+01
 3.1107502E+00  3.4245319E+01
 3.1222501E+00  3.4230148E+01
 3.1337502E+00  3.4577213E+01
 3.1452501E+00  3.5055885E+01
 3.1567502E+00  3.5221561E+01
 3.1682501E+00  3.5276730E+01
 3.1797502E+00  3.5336407E+01
 3.1912501E+00  3.5302757E+01
 3.2027502E+00  3.5301655E+01
 3.2142501E+00  3.5308910E+01
 3.2257502E+00  3.5233204E+01
 3.2372501E+00  3.5481129E+01
 3.2487502E+00  3.5067177E+01
 3.2602501E+00  3.5157169E+01
 3.2717502E+00  3.4921223E+01
 3.2832501E+00  3.4875195E+01
 3.2947502E+00  3.4810650E+01
 3.3062501E+00  3.4632275E+01
 3.3177502E+00  3.4608288E+01
 3.3292501E+00  3.4531185E+01
 3.3407502E+00  3.4403767E+01
 3.3522501E+00  3.4291359E+01
 3.3637502E+00  3.4235233E+01
 3.3752501E+00  3.4355286E+01
 3.3867502E+00  3.4394932E+01
 3.3982501E+00  3.4686531E+01
 3.4097502E+00  3.4792336E+01
 3.4212501E+00  3.5063423E+01
 3.4327502E+00  3.5267227E+01
 3.4442501E+00  3.5122631E+01
 3.4557502E+00  3.4874527E+01
 3.4672501E+00  3.4597538E+01
 3.4787502E+00  3.4423611E+01
 3.4902501E+00  3.4437759E+01
 3.5017502E+00  3.4211597E+01
 3.5132501E+00  3.4046844E+01
 3.5247502E+00  3.4005562E+01
 3.5362501E+00  3.3870430E+01
 3.5477502E+00  3.3980465E+01
 3.5592501E+00  3.3933151E+01
 3.5707502E+00  3.3917458E+01
 3.5822501E+00  3.3629196E+01
 3.5937502E+00  3.3388222E+01
 3.6052501E+00  3.3146278E+01
 3.6167502E+00  3.2995869E+01
 3.6282501E+00  3.2984123E+01
 3.6397502E+00  3.2793781E+01
 3.6512501E+00  3.2695747E+01
 3.6627502E+00  3.2551159E+01
 3.6742501E+00  3.2545567E+01
 3.6857502E+00  3.2783100E+01
 3.6972501E+00  3.2884941E+01
 3.7087502E+00  3.3146790E+01
 3.7202501E+00  3.3185680E+01
 3.7317502E+00  3.3195431E+01
 3.7432501E+00  3.3286884E+01
 3.7547503E+00  3.3294456E+01
 3.7662501E+00  3.3379353E+01
 3.7777503E+00  3.3322212E+01
 3.7892501E+00  3.3279308E+01
 3.8007503E+00  3.3308666E+01
 3.8122501E+00  3.3323051E+01
 3.8237503E+00  3.3396076E+01
 3.8352501E+00  3.3357704E+01
 3.8467503E+00  3.3242672E+01
 3.8582501E+00  3.3154121E+01
 3.8697503E+00  3.3129017E+01
 3.8812501E+00  3.3176022E+01
 3.8927503E+00  3.3075764E+01
 3.9042501E+00  3.2840572E+01
 3.9157503E+00  3.2500664E+01
 3.9272501E+00  3.2509872E+01
 3.9387503E+00  3.2426174E+01
 3.9502501E+00  3.2472054E+01
 3.9617503E+00  3.2452793E+01
 3.9732502E+00  3.2517349E+01
 3.9847503E+00  3.2666092E+01
 3.9962502E+00  3.2741734E+01
 4.0077500E+00  3.2648746E+01
 4.0192504E+00  3.2458977E+01
 4.0307503E+00  3.2179054E+01
 4.0422502E+00  3.2071224E+01
 4.0537500E+00  3.2072567E+01
 4.0652504E+00  3.2220772E+01
 4.0767503E+00  3.2346813E+01
 4.0882502E+00  3.2386002E+01
 4.0997500E+00  3.2517849E+01
 4.1112504E+00  3.2461578E+01
 4.1227503E+00  3.2782211E+01
 4.1342502E+00  3.2823135E+01
 4.1457500E+00  3.2988266E+01
 4.1572504E+00  3.2792763E+01
 4.1687503E+00  3.2448902E+01
 4.1802502E+00  3.2063831E+01
 4.1917500E+00  3.1912678E+01
 4.2032504E+00  3.1911320E+01
 4.2147503E+00  3.1935499E+01
 4.2262502E+00  3.1960775E+01
 4.2377501E+00  3.2104820E+01
 4.2492504E+00  3.2020664E+01
 4.2607503E+00  3.2138668E+01
 4.2722502E+00  3.2173519E+01
 4.2837501E+00  3.2370445E+01
 4.2952504E+00  3.2350327E+01
 4.3067503E+00  3.2195789E+01
 4.3182502E+00  3.2162182E+01
 4.3297501E+00  3.2137291E+01
 4.3412504E+00  3.2193256E+01
 4.3527503E+00  3.2217148E+01
 4.3642502E+00  3.2182323E+01
 4.3757501E+00  3.2103428E+01
 4.3872504E+00  3.2186878E+01
 4.3987503E+00  3.2254025E+01
 4.4102502E+00  3.2325703E+01
 4.4217501E+00  3.2344700E+01
 4.4332504E+00  3.2402500E+01
 4.4447503E+00  3.2509750E+01
 4.4562502E+00  3.2689529E+01
 4.4677501E+00  3.2831581E+01
 4.4792504E+00  3.3024143E+01
 4.4907503E+00  3.2858662E+01
 4.5022502E+00  3.2861073E+01
 4.5137501E+00  3.2652729E+01
 4.5252504E+00  3.2656822E+01
 4.5367503E+00  3.2591549E+01
 4.5482502E+00  3.2641979E+01
 4.5597501E+00  3.2614037E+01
 4.5712504E+00  3.2636276E+01
 4.5827503E+00  3.2704132E+01
 4.5942502E+00  3.2764282E+01
 4.6057501E+00  3.2765305E+01
 4.6172504E+00  3.2696533E+01
 4.6287503E+00  3.2634151E+01
 4.6402502E+00  3.2656742E+01
 4.6517501E+00  3.2628902E+01
 4.6632504E+00  3.2714359E+01
 4.6747503E+00  3.2630005E+01
 4.6862502E+00  3.2639492E+01
 4.6977501E+00  3.2576168E+01
 4.7092505E+00  3.2662331E+01
 4.7207503E+00  3.2611923E+01
 4.7322502E+00  3.2533360E+01
 4.7437501E+00  3.2487606E+01
 4.7552505E+00  3.2430729E+01
 4.7667503E+00  3.2533455E+01
 4.7782502E+00  3.2481007E+01
 4.7897501E+00  3.2522953E+01
 4.8012505E+00  3.2484062E+01
 4.8127503E+00  3.2545425E+01
 4.8242502E+00  3.2614704E+01
 4.8357501E+00  3.2614544E+01
 4.8472505E+00  3.2609497E+01
 4.8587503E+00  3.2686649E+01
 4.8702502E+00  3.2697327E+01
 4.8817501E+00  3.2715031E+01
 4.8932505E+00  3.2703926E+01
 4.9047503E+00  3.2662971E+01
 4.9162502E+00  3.2730705E+01
 4.9277501E+00  3.2705231E+01
 4.9392505E+00  3.2867680E+01
 4.9507504E+00  3.2852917E+01
 4.9622502E+00  3.2984974E+01
 4.9737501E+00  3.3024483E+01
 4.9852505E+00  3.3153854E+01
 4.9967504E+00  3.3158554E+01
 5.0082502E+00  3.3034885E+01
 5.0197501E+00  3.2982368E+01
 5.0312505E+00  3.2930988E+01
 5.0427504E+00  3.3015541E+01
 5.0542502E+00  3.3129547E+01
 5.0657501E+00  3.3243015E+01
 5.0772505E+00  3.3325867E+01
 5.0887504E+00  3.3517036E+01
 5.1002502E+00  3.3643356E+01
 5.1117501E+00  3.3775925E+01
 5.1232505E+00  3.3797119E+01
 5.1347504E+00  3.3960869E+01
 5.1462502E+00  3.4065983E+01
 5.1577501E+00  3.4064728E+01
 5.1692505E+00  3.3942299E+01
 5.1807504E+00  3.3879688E+01
 5.1922503E+00  3.3942574E+01
 5.2037501E+00  3.3994156E+01
 5.2152505E+00  3.4043095E+01
 5.2267504E+00  3.3946377E+01
 5.2382503E+00  3.3873287E+01
 5.2497501E+00  3.3655106E+01
 5.2612505E+00  3.3708336E+01
 5.2727504E+00  3.3745773E+01
 5.2842503E+00  3.4025558E+01
 5.2957501E+00  3.4216579E+01
 5.3072500E+00  3.4321301E+01
 5.3187504E+00  3.4451561E+01
 5.3302503E+00  3.4457298E+01
 5.3417501E+00  3.4553505E+01
 5.3532500E+00  3.4523239E+01
 5.3647504E+00  3.4589245E+01
 5.3762503E+00  3.4694084E+01
 5.3877501E+00  3.4727062E+01
 5.3992500E+00  3.4671280E+01
 5.4107504E+00  3.4653889E+01
 5.4222503E+00  3.4591663E+01
 5.4337502E+00  3.4562355E+01
 5.4452500E+00  3.4601746E+01
 5.4567504E+00  3.4554905E+01
 5.4682503E+00  3.4658058E+01
 5.4797502E+00  3.4655113E+01
 5.4912500E+00  3.4682877E+01
 5.5027504E+00  3.4803509E+01
 5.5142503E+00  3.4834221E+01
 5.5257502E+00  3.4952423E+01
 5.5372500E+00  3.5032284E+01
 5.5487504E+00  3.5084282E+01
 5.5602503E+00  3.5094978E+01
 5.5717502E+00  3.5167049E+01
 5.5832500E+00  3.5132114E+01
 5.5947504E+00  3.5407536E+01
 5.6062503E+00  3.5466152E+01
 5.6177502E+00  3.5544235E+01
 5.6292500E+00  3.5447388E+01
 5.6407504E+00  3.5304901E+01
 5.6522503E+00  3.5260658E+01
 5.6637502E+00  3.5157581E+01
 5.6752501E+00  3.5287682E+01
 5.6867504E+00  3.5359158E+01
 5.6982503E+00  3.5407547E+01
 5.7097502E+00  3.5537876E+01
 5.7212501E+00  3.5574158E+01
 5.7327504E+00  3.5654667E+01
 5.7442503E+00  3.5528564E+01
 5.7557502E+00  3.5495239E+01
 5.7672501E+00  3.5544247E+01
 5.7787504E+00  3.5762627E+01
 5.7902503E+00  3.5886894E+01
 5.8017502E+00  3.5914101E+01
 5.8132501E+00  3.5836403E+01
 5.8247504E+00  3.5774853E+01
 5.8362503E+00  3.5836475E+01
 5.8477502E+00  3.5961994E+01
 5.8592501E+00  3.5997864E+01
 5.8707504E+00  3.6182415E+01
 5.8822503E+00  3.6291401E+01
 5.8937502E+00  3.6618248E+01
 5.9052501E+00  3.6808929E+01
 5.9167504E+00  3.7158855E+01
 5.9282503E+00  3.7648571E+01
 5.9397502E+00  3.8440418E+01
 5.9512501E+00  3.9879036E+01
 5.9627504E+00  4.1001408E+01
 5.9742503E+00  4.2115471E+01
 5.9857502E+00  4.3332043E+01
 5.9972501E+00  4.3224987E+01
 6.0087504E+00  4.3130413E+01
 6.0202503E+00  4.1482208E+01
 6.0317502E+00  4.0346497E+01
 6.0432501E+00  3.8861652E+01
 6.0547504E+00  3.7603939E+01
 6.0662503E+00  3.7117096E+01
 6.0777502E+00  3.6769554E+01
 6.0892501E+00  3.6631794E+01
 6.1007504E+00  3.6654640E+01
 6.1122503E+00  3.6671597E+01
 6.1237502E+00  3.6725311E+01
 6.1352501E+00  3.6683678E+01
 6.1467505E+00  3.6643448E+01
 6.1582503E+00  3.6751286E+01
 6.1697502E+00  3.6736423E+01
 6.1812501E+00  3.6783382E+01
 6.1927505E+00  3.6733448E+01
 6.2042503E+00  3.6743073E+01
 6.2157502E+00  3.6807785E+01
 6.2272501E+00  3.6945721E+01
 6.2387505E+00  3.7037868E+01
 6.2502503E+00  3.7183929E+01
 6.2617502E+00  3.7163395E+01
 6.2732501E+00  3.7260014E+01
 6.2847505E+00  3.7253853E+01
 6.2962503E+00  3.7311722E+01
 6.3077502E+00  3.7355690E+01
 6.3192501E+00  3.7418449E+01
 6.3307505E+00  3.7549110E+01
 6.3422503E+00  3.7679218E+01
 6.3537502E+00  3.7849369E+01
 6.3652501E+00  3.7946075E+01
 6.3767505E+00  3.8060490E+01
 6.3882504E+00  3.8066940E+01
 6.3997502E+00  3.8078701E+01
 6.4112501E+00  3.8165886E+01
 6.4227505E+00  3.8232048E+01
 6.4342504E+00  3.8388306E+01
 6.4457502E+00  3.8449482E+01
 6.4572501E+00  3.8514507E+01
 6.4687505E+00  3.8757912E+01
 6.4802504E+00  3.8811409E+01
 6.4917502E+00  3.8899281E+01
 6.5032501E+00  3.8959095E+01
 6.5147505E+00  3.9058250E+01
 6.5262504E+00  3.9153728E+01
 6.5377502E+00  3.9223381E+01
 6.5492501E+00  3.9306992E+01
 6.5607505E+00  3.9424961E+01
 6.5722504E+00  3.9382534E+01
 6.5837502E+00  3.9413612E+01
 6.5952501E+00  3.9482513E+01
 6.6067505E+00  3.9575867E+01
 6.6182504E+00  3.9700790E+01
 6.6297503E+00  3.9803848E+01
 6.6412501E+00  4.0023998E+01
 6.6527505E+00  4.0106827E+01
 6.6642504E+00  4.0225468E+01
 6.6757503E+00  4.0218216E+01
 6.6872501E+00  4.0166637E+01
 6.6987505E+00  4.0117043E+01
 6.7102504E+00  4.0233559E+01
 6.7217503E+00  4.0380840E+01
 6.7332501E+00  4.0638813E+01
 6.7447505E+00  4.0793568E+01
 6.7562504E+00  4.1118153E+01
 6.7677503E+00  4.1311523E+01
 6.7792501E+00  4.1451908E+01
 6.7907505E+00  4.1424397E+01
 6.8022504E+00  4.1472912E+01
 6.8137503E+00  4.1521572E+01
 6.8252501E+00  4.1513504E+01
 6.8367505E+00  4.1489475E+01
 6.8482504E+00  4.1464481E+01
 6.8597503E+00  4.1568104E+01
 6.8712502E+00  4.1682220E+01
 6.8827505E+00  4.1842518E+01
 6.8942504E+00  4.1975094E+01
 6.9057503E+00  4.2024830E+01
 6.9172502E+00  4.2006527E+01
 6.9287505E+00  4.1952042E+01
 6.9402504E+00  4.1930870E+01
 6.9517503E+00  4.1947620E+01
 6.9632502E+00  4.1905804E+01
 6.9747505E+00  4.1937935E+01
 6.9862504E+00  4.1936089E+01
 6.9977503E+00  4.2007450E+01
 7.0092502E+00  4.2069389E+01
 7.0207505E+00  4.2195522E+01
 7.0322504E+00  4.2275795E+01
 7.0437503E+00  4.2382744E+01
 7.0552502E+00  4.2484692E+01
 7.0667505E+00  4.2635880E+01
 7.0782504E+00  4.2698536E+01
 7.0897503E+00  4.2867233E+01
 7.1012502E+00  4.2939003E+01
 7.1127505E+00  4.3004822E+01
 7.1242504E+00  4.3082016E+01
 7.1357503E+00  4.3079910E+01
 7.1472502E+00  4.3161961E+01
 7.1587505E+00  4.3181614E+01
 7.1702504E+00  4.3329929E+01
 7.1817503E+00  4.3456051E+01
 7.1932502E+00  4.3470039E+01
 7.2047505E+00  4.3406593E+01
 7.2162504E+00  4.3406120E+01
 7.2277503E+00  4.3395401E+01
 7.2392502E+00  4.3476990E+01
 7.2507505E+00  4.3530624E+01
 7.2622504E+00  4.3596157E+01
 7.2737503E+00  4.3675735E+01
 7.2852502E+00  4.3735374E+01
 7.2967505E+00  4.3743942E+01
 7.3082504E+00  4.3785881E+01
 7.3197503E+00  4.3813972E+01
 7.3312502E+00  4.3951183E+01
 7.3427505E+00  4.4014496E+01
 7.3542504E+00  4.4087635E+01
 7.3657503E+00  4.4072453E+01
 7.3772502E+00  4.3978268E+01
 7.3887506E+00  4.3985500E+01
 7.4002504E+00  4.3975861E+01
 7.4117503E+00  4.4080326E+01
 7.4232502E+00  4.4108219E+01
 7.4347506E+00  4.4083599E+01
 7.4462504E+00  4.4077682E+01
 7.4577503E+00  4.4179390E+01
 7.4692502E+00  4.4167435E+01
 7.4807506E+00  4.4221737E+01
 7.4922504E+00  4.4088867E+01
 7.5037503E+00  4.4118210E+01
 7.5152502E+00  4.4138126E+01
 7.5267506E+00  4.4245438E+01
 7.5382504E+00  4.4378448E+01
 7.5497503E+00  4.4469906E+01
 7.5612502E+00  4.4506374E+01
 7.5727506E+00  4.4527679E+01
 7.5842505E+00  4.4439796E+01
 7.5957503E+00  4.4427311E+01
 7.6072502E+00  4.4457893E+01
 7.6187506E+00  4.4497536E+01
 7.6302505E+00  4.4529854E+01
 7.6417503E+00  4.4411861E+01
 7.6532502E+00  4.4431927E+01
 7.6647506E+00  4.4365757E+01
 7.6762505E+00  4.4352482E+01
 7.6877503E+00  4.4300636E+01
 7.6992502E+00  4.4277332E+01
 7.7107506E+00  4.4233479E+01
 7.7222505E+00  4.4182331E+01
 7.7337503E+00  4.4014595E+01
 7.7452502E+00  4.4016331E+01
 7.7567506E+00  4.3910721E+01
 7.7682505E+00  4.3999447E+01
 7.7797503E+00  4.3923149E+01
 7.7912502E+00  4.4011738E+01
 7.8027506E+00  4.3992577E+01
 7.8142505E+00  4.3997894E+01
 7.8257504E+00  4.3933079E+01
 7.8372502E+00  4.3962978E+01
 7.8487506E+00  4.4017078E+01
 7.8602505E+00  4.4059025E+01
 7.8717504E+00  4.3934147E+01
 7.8832502E+00  4.3727810E+01
 7.8947506E+00  4.3595779E+01
 7.9062505E+00  4.3479485E+01
 7.9177504E+00  4.3461769E+01
 7.9292502E+00  4.3389629E+01
 7.9407506E+00  4.3322777E+01
 7.9522505E+00  4.3280552E+01
 7.9637504E+00  4.3312172E+01
 7.9752502E+00  4.3367149E+01
 7.9867506E+00  4.3455173E+01
 7.9982505E+00  4.3509216E+01
 8.0097504E+00  4.3442032E+01
 8.0212507E+00  4.3401863E+01
 8.0327501E+00  4.3215836E+01
 8.0442505E+00  4.3155781E+01
 8.0557508E+00  4.3056293E+01
 8.0672503E+00  4.2954906E+01
 8.0787506E+00  4.2966930E+01
 8.0902500E+00  4.2932335E+01
 8.1017504E+00  4.2997696E+01
 8.1132507E+00  4.2904140E+01
 8.1247501E+00  4.2807640E+01
 8.1362505E+00  4.2662743E+01
 8.1477509E+00  4.2581768E+01
 8.1592503E+00  4.2440678E+01
 8.1707506E+00  4.2305614E+01
 8.1822500E+00  4.2142010E+01
 8.1937504E+00  4.2041962E+01
 8.2052507E+00  4.1860367E+01
 8.2167501E+00  4.1710434E+01
 8.2282505E+00  4.1530403E+01
 8.2397509E+00  4.1425453E+01
 8.2512503E+00  4.1257751E+01
 8.2627506E+00  4.1224766E+01
 8.2742500E+00  4.1216610E+01
 8.2857504E+00  4.1193703E+01
 8.2972507E+00  4.1108742E+01
 8.3087502E+00  4.0897255E+01
 8.3202505E+00  4.0849567E+01
 8.3317509E+00  4.0665958E+01
 8.3432503E+00  4.0517883E+01
 8.3547506E+00  4.0241512E+01
 8.3662500E+00  3.9994057E+01
 8.3777504E+00  3.9753857E+01
 8.3892508E+00  3.9544930E+01
 8.4007502E+00  3.9416813E+01
 8.4122505E+00  3.9283459E+01
 8.4237509E+00  3.9220421E+01
 8.4352503E+00  3.9056171E+01
 8.4467506E+00  3.8960255E+01
 8.4582500E+00  3.8772472E+01
 8.4697504E+00  3.8651024E+01
 8.4812508E+00  3.8511482E+01
 8.4927502E+00  3.8341270E+01
 8.5042505E+00  3.8258965E+01
 8.5157509E+00  3.7953995E+01
 8.5272503E+00  3.7729343E+01
 8.5387506E+00  3.7394760E+01
 8.5502501E+00  3.7149567E+01
 8.5617504E+00  3.6979317E+01
 8.5732508E+00  3.6855278E+01
 8.5847502E+00  3.6779854E+01
 8.5962505E+00  3.6622597E+01
 8.6077509E+00  3.6426407E+01
 8.6192503E+00  3.6372276E+01
 8.6307507E+00  3.6246201E+01
 8.6422501E+00  3.6104252E+01
 8.6537504E+00  3.5797707E+01
 8.6652508E+00  3.5559620E+01
 8.6767502E+00  3.5328735E+01
 8.6882505E+00  3.5165295E+01
 8.6997509E+00  3.5065365E+01
 8.7112503E+00  3.4935543E+01
 8.7227507E+00  3.4764168E+01
 8.7342501E+00  3.4537498E+01
 8.7457504E+00  3.4218468E+01
 8.7572508E+00  3.4025314E+01
 8.7687502E+00  3.3772820E+01
 8.7802505E+00  3.3656349E+01
 8.7917500E+00  3.3506466E+01
 8.8032503E+00  3.3346985E+01
 8.8147507E+00  3.3183578E+01
 8.8262501E+00  3.2995041E+01
 8.8377504E+00  3.2880028E+01
 8.8492508E+00  3.2751114E+01
 8.8607502E+00  3.2634480E+01
 8.8722506E+00  3.2532833E+01
 8.8837500E+00  3.2422188E+01
 8.8952503E+00  3.2259457E+01
 8.9067507E+00  3.2102661E+01
 8.9182501E+00  3.1957535E+01
 8.9297504E+00  3.1768557E+01
 8.9412508E+00  3.1555941E+01
 8.9527502E+00  3.1355375E+01
 8.9642506E+00  3.1223490E+01
 8.9757500E+00  3.1101545E+01
 8.9872503E+00  3.0989573E+01
 8.9987507E+00  3.0825418E+01
 9.0102501E+00  3.0647377E+01
 9.0217505E+00  3.0442492E+01
 9.0332508E+00  3.0328894E+01
 9.0447502E+00  3.0168413E+01
 9.0562506E+00  2.9942690E+01
 9.0677500E+00  2.9762468E+01
 9.0792503E+00  2.9602385E+01
 9.0907507E+00  2.9547384E+01
 9.1022501E+00  2.9445988E+01
 9.1137505E+00  2.9434277E+01
 9.1252508E+00  2.9336155E+01
 9.1367502E+00  2.9265461E+01
 9.1482506E+00  2.9134066E+01
 9.1597500E+00  2.9063866E+01
 9.1712503E+00  2.8927086E+01
 9.1827507E+00  2.8813902E+01
 9.1942501E+00  2.8695271E+01
 9.2057505E+00  2.8590137E+01
 9.2172508E+00  2.8509548E+01
 9.2287502E+00  2.8372675E+01
 9.2402506E+00  2.8313564E+01
 9.2517500E+00  2.8225733E+01
 9.2632504E+00  2.8129414E+01
 9.2747507E+00  2.7993933E+01
 9.2862501E+00  2.7824924E+01
 9.2977505E+00  2.7744379E+01
 9.3092508E+00  2.7631516E+01
 9.3207502E+00  2.7555384E+01
 9.3322506E+00  2.7466452E+01
 9.3437500E+00  2.7317225E+01
 9.3552504E+00  2.7223488E+01
 9.3667507E+00  2.7111414E+01
 9.3782501E+00  2.7006058E+01
 9.3897505E+00  2.6889906E+01
 9.4012508E+00  2.6860985E+01
 9.4127502E+00  2.6849924E+01
 9.4242506E+00  2.6789873E+01
 9.4357500E+00  2.6679689E+01
 9.4472504E+00  2.6586155E+01
 9.4587507E+00  2.6551664E+01
 9.4702501E+00  2.6518471E+01
 9.4817505E+00  2.6575615E+01
 9.4932508E+00  2.6549051E+01
 9.5047503E+00  2.6525146E+01
 9.5162506E+00  2.6459831E+01
 9.5277500E+00  2.6403803E+01
 9.5392504E+00  2.6317284E+01
 9.5507507E+00  2.6175219E+01
 9.5622501E+00  2.6084827E+01
 9.5737505E+00  2.5964472E+01
 9.5852509E+00  2.5840252E+01
 9.5967503E+00  2.5759478E+01
 9.6082506E+00  2.5662516E+01
 9.6197500E+00  2.5692024E+01
 9.6312504E+00  2.5634771E+01
 9.6427507E+00  2.5601339E+01
 9.6542501E+00  2.5570269E+01
 9.6657505E+00  2.5537312E+01
 9.6772509E+00  2.5496679E+01
 9.6887503E+00  2.5371994E+01
 9.7002506E+00  2.5359589E+01
 9.7117500E+00  2.5355928E+01
 9.7232504E+00  2.5395554E+01
 9.7347507E+00  2.5337318E+01
 9.7462502E+00  2.5266642E+01
 9.7577505E+00  2.5167736E+01
 9.7692509E+00  2.5163124E+01
 9.7807503E+00  2.5157351E+01
 9.7922506E+00  2.5129372E+01
 9.8037500E+00  2.5065351E+01
 9.8152504E+00  2.4948027E+01
 9.8267508E+00  2.4890808E+01
 9.8382502E+00  2.4754129E+01
 9.8497505E+00  2.4722473E+01
 9.8612509E+00  2.4574087E+01
 9.8727503E+00  2.4552420E+01
 9.8842506E+00  2.4473635E+01
 9.8957500E+00  2.4545809E+01
 9.9072504E+00  2.4518429E+01
 9.9187508E+00  2.4559227E+01
 9.9302502E+00  2.4478233E+01
 9.9417505E+00  2.4452311E+01
 9.9532509E+00  2.4384247E+01
 9.9647503E+00  2.4317776E+01
 9.9762506E+00  2.4248882E+01
 9.9877501E+00  2.4137753E+01
 9.9992504E+00  2.4120975E+01
 1.0010751E+01  2.4080730E+01
 1.0022250E+01  2.4101475E+01
 1.0033751E+01  2.4119783E+01
 1.0045251E+01  2.4108747E+01
 1.0056750E+01  2.4047695E+01
 1.0068251E+01  2.4002241E+01
 1.0079750E+01  2.3941833E+01
 1.0091250E+01  2.3906694E+01
 1.0102751E+01  2.3865246E+01
 1.0114250E+01  2.3866146E+01
 1.0125751E+01  2.3901943E+01
 1.0137251E+01  2.3909340E+01
 1.0148750E+01  2.3964041E+01
 1.0160251E+01  2.3979225E+01
 1.0171750E+01  2.3971401E+01
 1.0183250E+01  2.3891172E+01
 1.0194751E+01  2.3893188E+01
 1.0206250E+01  2.3876112E+01
 1.0217751E+01  2.3900723E+01
 1.0229251E+01  2.3852926E+01
 1.0240750E+01  2.3788580E+01
 1.0252251E+01  2.3661758E+01
 1.0263750E+01  2.3583755E+01
 1.0275250E+01  2.3569124E+01
 1.0286751E+01  2.3619793E+01
 1.0298250E+01  2.3701122E+01
 1.0309751E+01  2.3726116E+01
 1.0321251E+01  2.3734327E+01
 1.0332750E+01  2.3645714E+01
 1.0344251E+01  2.3561129E+01
 1.0355750E+01  2.3481529E+01
 1.0367250E+01  2.3429358E+01
 1.0378751E+01  2.3426981E+01
 1.0390250E+01  2.3426500E+01
 1.0401751E+01  2.3416800E+01
 1.0413251E+01  2.3351326E+01
 1.0424750E+01  2.3265530E+01
 1.0436251E+01  2.3203625E+01
 1.0447750E+01  2.3171278E+01
 1.0459250E+01  2.3183027E+01
 1.0470751E+01  2.3133404E+01
 1.0482250E+01  2.3157923E+01
 1.0493751E+01  2.3151091E+01
 1.0505251E+01  2.3200453E+01
 1.0516750E+01  2.3194696E+01
 1.0528251E+01  2.3127068E+01
 1.0539750E+01  2.3089815E+01
 1.0551250E+01  2.3021225E+01
 1.0562751E+01  2.3044701E+01
 1.0574250E+01  2.2960888E+01
 1.0585751E+01  2.2946630E+01
 1.0597251E+01  2.2918045E+01
 1.0608750E+01  2.2961401E+01
 1.0620251E+01  2.3006155E+01
 1.0631750E+01  2.3027449E+01
 1.0643250E+01  2.3094671E+01
 1.0654751E+01  2.3118486E+01
 1.0666250E+01  2.3106289E+01
 1.0677751E+01  2.3061049E+01
 1.0689251E+01  2.3015343E+01
 1.0700750E+01  2.2999626E+01
 1.0712251E+01  2.2915047E+01
 1.0723750E+01  2.2911993E+01
 1.0735250E+01  2.2829365E+01
 1.0746751E+01  2.2804728E+01
 1.0758250E+01  2.2726938E+01
 1.0769751E+01  2.2690882E+01
 1.0781251E+01  2.2738792E+01
 1.0792750E+01  2.2703402E+01
 1.0804251E+01  2.2724680E+01
 1.0815750E+01  2.2693562E+01
 1.0827250E+01  2.2726995E+01
 1.0838751E+01  2.2710609E+01
 1.0850250E+01  2.2738045E+01
 1.0861751E+01  2.2710449E+01
 1.0873251E+01  2.2759493E+01
 1.0884750E+01  2.2684612E+01
 1.0896251E+01  2.2695179E+01
 1.0907750E+01  2.2653109E+01
 1.0919250E+01  2.2679855E+01
 1.0930751E+01  2.2724939E+01
 1.0942250E+01  2.2725325E+01
 1.0953751E+01  2.2715624E+01
 1.0965251E+01  2.2652929E+01
 1.0976750E+01  2.2661263E+01
 1.0988251E+01  2.2625401E+01
 1.0999750E+01  2.2626064E+01
 1.1011250E+01  2.2586628E+01
 1.1022751E+01  2.2622717E+01
 1.1034250E+01  2.2528442E+01
 1.1045751E+01  2.2489559E+01
 1.1057251E+01  2.2457060E+01
 1.1068750E+01  2.2531427E+01
 1.1080251E+01  2.2595770E+01
 1.1091750E+01  2.2606020E+01
 1.1103251E+01  2.2653471E+01
 1.1114751E+01  2.2639093E+01
 1.1126250E+01  2.2629658E+01
 1.1137751E+01  2.2526827E+01
 1.1149251E+01  2.2505215E+01
 1.1160750E+01  2.2429304E+01
 1.1172251E+01  2.2422705E+01
 1.1183750E+01  2.2437349E+01
 1.1195251E+01  2.2450762E+01
 1.1206751E+01  2.2464905E+01
 1.1218250E+01  2.2390778E+01
 1.1229751E+01  2.2396376E+01
 1.1241251E+01  2.2390265E+01
 1.1252750E+01  2.2379311E+01
 1.1264251E+01  2.2377619E+01
 1.1275750E+01  2.2356524E+01
 1.1287251E+01  2.2358444E+01
 1.1298751E+01  2.2335823E+01
 1.1310250E+01  2.2347666E+01
 1.1321751E+01  2.2373945E+01
 1.1333251E+01  2.2420315E+01
 1.1344750E+01  2.2413174E+01
 1.1356251E+01  2.2437754E+01
 1.1367750E+01  2.2463432E+01
 1.1379251E+01  2.2522202E+01
 1.1390751E+01  2.2553608E+01
 1.1402250E+01  2.2680311E+01
 1.1413751E+01  2.2720278E+01
 1.1425251E+01  2.2746601E+01
 1.1436750E+01  2.2735081E+01
 1.1448251E+01  2.2820499E+01
 1.1459750E+01  2.2951315E+01
 1.1471251E+01  2.3087801E+01
 1.1482751E+01  2.3158129E+01
 1.1494250E+01  2.3306431E+01
 1.1505751E+01  2.3372456E+01
 1.1517251E+01  2.3747005E+01
 1.1528750E+01  2.4352324E+01
 1.1540251E+01  2.5343987E+01
 1.1551750E+01  2.7574173E+01
 1.1563251E+01  3.0421722E+01
 1.1574751E+01  3.4049740E+01
 1.1586250E+01  4.0015419E+01
 1.1597751E+01  4.3228325E+01
 1.1609251E+01  4.3600540E+01
 1.1620750E+01  3.8747341E+01
 1.1632251E+01  3.4172623E+01
 1.1643750E+01  3.0246983E+01
 1.1655251E+01  2.7171909E+01
 1.1666751E+01  2.5285061E+01
 1.1678250E+01  2.4168312E+01
 1.1689751E+01  2.3474361E+01
 1.1701251E+01  2.3074350E+01
 1.1712750E+01  2.2854965E+01
 1.1724251E+01  2.2631344E+01
 1.1735750E+01  2.2509766E+01
 1.1747251E+01  2.2474220E+01
 1.1758751E+01  2.2512114E+01
 1.1770250E+01  2.2487404E+01
 1.1781751E+01  2.2527784E+01
 1.1793251E+01  2.2541372E+01
 1.1804750E+01  2.2614407E+01
 1.1816251E+01  2.2537861E+01
 1.1827750E+01  2.2494417E+01
 1.1839251E+01  2.2471581E+01
 1.1850751E+01  2.2460484E+01
 1.1862250E+01  2.2437664E+01
 1.1873751E+01  2.2386850E+01
 1.1885251E+01  2.2399872E+01
 1.1896750E+01  2.2488493E+01
 1.1908251E+01  2.2535458E+01
 1.1919750E+01  2.2566698E+01
 1.1931251E+01  2.2534451E+01
 1.1942751E+01  2.2499712E+01
 1.1954250E+01  2.2506863E+01
 1.1965751E+01  2.2581980E+01
 1.1977251E+01  2.2716051E+01
 1.1988750E+01  2.2803308E+01
 1.2000251E+01  2.2820206E+01
 1.2011750E+01  2.2888969E+01
 1.2023251E+01  2.2883827E+01
 1.2034751E+01  2.2931454E+01
 1.2046250E+01  2.2920111E+01
 1.2057751E+01  2.3013041E+01
 1.2069251E+01  2.3164082E+01
 1.2080750E+01  2.3409349E+01
 1.2092251E+01  2.3574638E+01
 1.2103750E+01  2.3815769E+01
 1.2115251E+01  2.3801115E+01
 1.2126751E+01  2.3776239E+01
 1.2138250E+01  2.3528324E+01
 1.2149751E+01  2.3313881E+01
 1.2161251E+01  2.3041267E+01
 1.2172750E+01  2.2774929E+01
 1.2184251E+01  2.2594879E+01
 1.2195750E+01  2.2496103E+01
 1.2207251E+01  2.2408197E+01
 1.2218751E+01  2.2341888E+01
 1.2230250E+01  2.2323769E+01
 1.2241751E+01  2.2288134E+01
 1.2253251E+01  2.2315117E+01
 1.2264750E+01  2.2299152E+01
 1.2276251E+01  2.2319807E+01
 1.2287750E+01  2.2335693E+01
 1.2299251E+01  2.2344456E+01
 1.2310751E+01  2.2387499E+01
 1.2322250E+01  2.2385693E+01
 1.2333751E+01  2.2383402E+01
 1.2345250E+01  2.2412663E+01
 1.2356750E+01  2.2427862E+01
 1.2368251E+01  2.2445904E+01
 1.2379750E+01  2.2406212E+01
 1.2391251E+01  2.2360537E+01
 1.2402751E+01  2.2320860E+01
 1.2414250E+01  2.2282194E+01
 1.2425751E+01  2.2238758E+01
 1.2437250E+01  2.2278152E+01
 1.2448750E+01  2.2330814E+01
 1.2460251E+01  2.2419416E+01
 1.2471750E+01  2.2460688E+01
 1.2483251E+01  2.2485985E+01
 1.2494751E+01  2.2453358E+01
 1.2506250E+01  2.2443100E+01
 1.2517751E+01  2.2409529E+01
 1.2529250E+01  2.2483820E+01
 1.2540751E+01  2.2516283E+01
 1.2552251E+01  2.2560743E+01
 1.2563750E+01  2.2550945E+01
 1.2575251E+01  2.2555679E+01
 1.2586751E+01  2.2619141E+01
 1.2598250E+01  2.2622143E+01
 1.2609751E+01  2.2670591E+01
 1.2621250E+01  2.2637167E+01
 1.2632751E+01  2.2662971E+01
 1.2644251E+01  2.2569746E+01
 1.2655750E+01  2.2575575E+01
 1.2667251E+01  2.2563898E+01
 1.2678751E+01  2.2627337E+01
 1.2690250E+01  2.2677021E+01
 1.2701751E+01  2.2746033E+01
 1.2713250E+01  2.2852602E+01
 1.2724751E+01  2.2856119E+01
 1.2736251E+01  2.2883972E+01
 1.2747750E+01  2.2855112E+01
 1.2759251E+01  2.2898073E+01
 1.2770751E+01  2.2846668E+01
 1.2782250E+01  2.2861938E+01
 1.2793751E+01  2.2799522E+01
 1.2805250E+01  2.2843023E+01
 1.2816751E+01  2.2872911E+01
 1.2828251E+01  2.3036665E+01
 1.2839750E+01  2.3126568E+01
 1.2851251E+01  2.3232862E+01
 1.2862751E+01  2.3218227E+01
 1.2874250E+01  2.3235575E+01
 1.2885751E+01  2.3173012E+01
 1.2897250E+01  2.3209234E+01
 1.2908751E+01  2.3267590E+01
 1.2920251E+01  2.3372181E+01
 1.2931750E+01  2.3458170E+01
 1.2943251E+01  2.3526611E+01
 1.2954751E+01  2.3550455E+01
 1.2966250E+01  2.3589724E+01
 1.2977751E+01  2.3697430E+01
 1.2989250E+01  2.3729269E+01
 1.3000751E+01  2.3826405E+01
 1.3012251E+01  2.3818211E+01
 1.3023750E+01  2.3928131E+01
 1.3035251E+01  2.3942617E+01
 1.3046751E+01  2.4067366E+01
 1.3058250E+01  2.4166636E+01
 1.3069751E+01  2.4247681E+01
 1.3081250E+01  2.4329117E+01
 1.3092751E+01  2.4439013E+01
 1.3104251E+01  2.4625315E+01
 1.3115750E+01  2.4735254E+01
 1.3127251E+01  2.4870779E+01
 1.3138751E+01  2.4928820E+01
 1.3150250E+01  2.5025801E+01
 1.3161751E+01  2.5126108E+01
 1.3173250E+01  2.5251360E+01
 1.3184751E+01  2.5356529E+01
 1.3196251E+01  2.5445129E+01
 1.3207750E+01  2.5577093E+01
 1.3219251E+01  2.5749880E+01
 1.3230751E+01  2.5940329E+01
 1.3242250E+01  2.6162037E+01
 1.3253751E+01  2.6279333E+01
 1.3265250E+01  2.6369255E+01
 1.3276751E+01  2.6470314E+01
 1.3288251E+01  2.6633623E+01
 1.3299750E+01  2.6816124E+01
 1.3311251E+01  2.6953278E+01
 1.3322751E+01  2.7127024E+01
 1.3334250E+01  2.7309042E+01
 1.3345751E+01  2.7497053E+01
 1.3357250E+01  2.7665487E+01
 1.3368751E+01  2.7772316E+01
 1.3380251E+01  2.7955324E+01
 1.3391750E+01  2.8060379E+01
 1.3403251E+01  2.8212904E+01
 1.3414751E+01  2.8293766E+01
 1.3426250E+01  2.8463053E+01
 1.3437751E+01  2.8581493E+01
 1.3449250E+01  2.8682848E+01
 1.3460751E+01  2.8730062E+01
 1.3472251E+01  2.8800085E+01
 1.3483750E+01  2.8916531E+01
 1.3495251E+01  2.9053379E+01
 1.3506751E+01  2.9208475E+01
 1.3518250E+01  2.9296242E+01
 1.3529751E+01  2.9394835E+01
 1.3541250E+01  2.9508469E+01
 1.3552751E+01  2.9588453E+01
 1.3564251E+01  2.9720541E+01
 1.3575750E+01  2.9771339E+01
 1.3587251E+01  2.9852514E+01
 1.3598751E+01  2.9854155E+01
 1.3610250E+01  2.9814390E+01
 1.3621751E+01  2.9737587E+01
 1.3633250E+01  2.9657518E+01
 1.3644751E+01  2.9645670E+01
 1.3656251E+01  2.9635206E+01
 1.3667750E+01  2.9679493E+01
 1.3679251E+01  2.9627327E+01
 1.3690751E+01  2.9558468E+01
 1.3702250E+01  2.9464102E+01
 1.3713751E+01  2.9406467E+01
 1.3725250E+01  2.9405743E+01
 1.3736751E+01  2.9329336E+01
 1.3748251E+01  2.9280535E+01
 1.3759750E+01  2.9163599E+01
 1.3771251E+01  2.9080601E+01
 1.3782751E+01  2.8961050E+01
 1.3794250E+01  2.8853754E+01
 1.3805751E+01  2.8813955E+01
 1.3817250E+01  2.8785236E+01
 1.3828751E+01  2.8790533E+01
 1.3840251E+01  2.8784737E+01
 1.3851750E+01  2.8839344E+01
 1.3863251E+01  2.8929773E+01
 1.3874751E+01  2.9014210E+01
 1.3886250E+01  2.9150604E+01
 1.3897751E+01  2.9401615E+01
 1.3909250E+01  2.9759666E+01
 1.3920751E+01  3.0147520E+01
 1.3932251E+01  3.0494133E+01
 1.3943750E+01  3.0732227E+01
 1.3955251E+01  3.0857281E+01
 1.3966751E+01  3.0934807E+01
 1.3978251E+01  3.0836626E+01
 1.3989751E+01  3.0449486E+01
 1.4001250E+01  2.9930777E+01
 1.4012751E+01  2.9282513E+01
 1.4024251E+01  2.8720310E+01
 1.4035750E+01  2.8203056E+01
 1.4047251E+01  2.7889702E+01
 1.4058751E+01  2.7655212E+01
 1.4070251E+01  2.7495632E+01
 1.4081751E+01  2.7310650E+01
 1.4093250E+01  2.7220057E+01
 1.4104751E+01  2.7158981E+01
 1.4116251E+01  2.7107912E+01
 1.4127750E+01  2.7024979E+01
 1.4139251E+01  2.6899303E+01
 1.4150751E+01  2.6799236E+01
 1.4162251E+01  2.6727615E+01
 1.4173751E+01  2.6660387E+01
 1.4185250E+01  2.6606421E+01
 1.4196751E+01  2.6595404E+01
 1.4208251E+01  2.6540010E+01
 1.4219750E+01  2.6503031E+01
 1.4231251E+01  2.6450260E+01
 1.4242751E+01  2.6446909E+01
 1.4254251E+01  2.6418409E+01
 1.4265751E+01  2.6380621E+01
 1.4277250E+01  2.6343706E+01
 1.4288751E+01  2.6262632E+01
 1.4300251E+01  2.6190502E+01
 1.4311750E+01  2.6097708E+01
 1.4323251E+01  2.6057594E+01
 1.4334751E+01  2.6014280E+01
 1.4346251E+01  2.5999907E+01
 1.4357751E+01  2.5933611E+01
 1.4369250E+01  2.5899828E+01
 1.4380751E+01  2.5881018E+01
 1.4392251E+01  2.5888641E+01
 1.4403750E+01  2.5909670E+01
 1.4415251E+01  2.5921534E+01
 1.4426751E+01  2.5904161E+01
 1.4438251E+01  2.5899069E+01
 1.4449751E+01  2.5843655E+01
 1.4461250E+01  2.5798988E+01
 1.4472751E+01  2.5689425E+01
 1.4484251E+01  2.5622177E+01
 1.4495750E+01  2.5566927E+01
 1.4507251E+01  2.5550108E+01
 1.4518751E+01  2.5542761E+01
 1.4530251E+01  2.5521116E+01
 1.4541751E+01  2.5511568E+01
 1.4553250E+01  2.5537762E+01
 1.4564751E+01  2.5561058E+01
 1.4576251E+01  2.5505846E+01
 1.4587750E+01  2.5433659E+01
 1.4599251E+01  2.5324711E+01
 1.4610751E+01  2.5288031E+01
 1.4622251E+01  2.5248245E+01
 1.4633751E+01  2.5258339E+01
 1.4645250E+01  2.5243095E+01
 1.4656751E+01  2.5204605E+01
 1.4668251E+01  2.5142962E+01
 1.4679750E+01  2.5097635E+01
 1.4691251E+01  2.5059814E+01
 1.4702751E+01  2.5053505E+01
 1.4714251E+01  2.4987278E+01
 1.4725751E+01  2.4925011E+01
 1.4737250E+01  2.4884033E+01
 1.4748751E+01  2.4877190E+01
 1.4760251E+01  2.4923120E+01
 1.4771750E+01  2.4979656E+01
 1.4783251E+01  2.4993643E+01
 1.4794751E+01  2.5033195E+01
 1.4806251E+01  2.5000479E+01
 1.4817751E+01  2.5007456E+01
 1.4829250E+01  2.4959291E+01
 1.4840751E+01  2.4924255E+01
 1.4852251E+01  2.4901890E+01
 1.4863750E+01  2.4828829E+01
 1.4875251E+01  2.4814230E+01
 1.4886751E+01  2.4781908E+01
 1.4898251E+01  2.4790880E+01
 1.4909751E+01  2.4809357E+01
 1.4921250E+01  2.4731144E+01
 1.4932751E+01  2.4715086E+01
 1.4944251E+01  2.4629892E+01
 1.4955750E+01  2.4673315E+01
 1.4967251E+01  2.4598822E+01
 1.4978751E+01  2.4611452E+01
 1.4990251E+01  2.4563375E+01
 1.5001751E+01  2.4566133E+01
 1.5013250E+01  2.4611925E+01
 1.5024751E+01  2.4703381E+01
 1.5036251E+01  2.4721117E+01
 1.5047750E+01  2.4682701E+01
 1.5059251E+01  2.4626740E+01
 1.5070751E+01  2.4635130E+01
 1.5082251E+01  2.4695776E+01
 1.5093751E+01  2.4768541E+01
 1.5105250E+01  2.4847563E+01
 1.5116751E+01  2.4853588E+01
 1.5128251E+01  2.4905579E+01
 1.5139750E+01  2.5006054E+01
 1.5151251E+01  2.5290213E+01
 1.5162751E+01  2.5618927E+01
 1.5174251E+01  2.5871178E+01
 1.5185751E+01  2.6006117E+01
 1.5197250E+01  2.5949480E+01
 1.5208751E+01  2.5841991E+01
 1.5220251E+01  2.5601446E+01
 1.5231750E+01  2.5390100E+01
 1.5243251E+01  2.5139702E+01
 1.5254751E+01  2.4953291E+01
 1.5266251E+01  2.4729769E+01
 1.5277751E+01  2.4593594E+01
 1.5289250E+01  2.4536358E+01
 1.5300751E+01  2.4517200E+01
 1.5312251E+01  2.4519020E+01
 1.5323750E+01  2.4485954E+01
 1.5335251E+01  2.4514050E+01
 1.5346751E+01  2.4510500E+01
 1.5358251E+01  2.4508722E+01
 1.5369751E+01  2.4491243E+01
 1.5381250E+01  2.4431482E+01
 1.5392751E+01  2.4409685E+01
 1.5404251E+01  2.4395788E+01
 1.5415751E+01  2.4431490E+01
 1.5427251E+01  2.4431511E+01
 1.5438751E+01  2.4476339E+01
 1.5450251E+01  2.4503517E+01
 1.5461751E+01  2.4529741E+01
 1.5473250E+01  2.4516453E+01
 1.5484751E+01  2.4500772E+01
 1.5496251E+01  2.4491518E+01
 1.5507751E+01  2.4470961E+01
 1.5519251E+01  2.4429249E+01
 1.5530751E+01  2.4379211E+01
 1.5542251E+01  2.4309795E+01
 1.5553751E+01  2.4303051E+01
 1.5565250E+01  2.4320103E+01
 1.5576751E+01  2.4275623E+01
 1.5588251E+01  2.4256598E+01
 1.5599751E+01  2.4257187E+01
 1.5611251E+01  2.4293716E+01
 1.5622751E+01  2.4291761E+01
 1.5634251E+01  2.4301153E+01
 1.5645751E+01  2.4334297E+01
 1.5657250E+01  2.4367413E+01
 1.5668751E+01  2.4400034E+01
 1.5680251E+01  2.4416758E+01
 1.5691751E+01  2.4397617E+01
 1.5703251E+01  2.4381882E+01
 1.5714751E+01  2.4355860E+01
 1.5726251E+01  2.4374743E+01
 1.5737751E+01  2.4339090E+01
 1.5749250E+01  2.4337477E+01
 1.5760751E+01  2.4331316E+01
 1.5772251E+01  2.4400877E+01
 1.5783751E+01  2.4394032E+01
 1.5795251E+01  2.4351913E+01
 1.5806751E+01  2.4347094E+01
 1.5818251E+01  2.4364820E+01
 1.5829751E+01  2.4381222E+01
 1.5841250E+01  2.4349766E+01
 1.5852751E+01  2.4413898E+01
 1.5864251E+01  2.4427284E+01
 1.5875751E+01  2.4491642E+01
 1.5887251E+01  2.4519241E+01
 1.5898750E+01  2.4561346E+01
 1.5910251E+01  2.4567497E+01
 1.5921751E+01  2.4561468E+01
 1.5933250E+01  2.4528381E+01
 1.5944751E+01  2.4444708E+01
 1.5956251E+01  2.4379118E+01
 1.5967751E+01  2.4393099E+01
 1.5979251E+01  2.4429115E+01
 1.5990750E+01  2.4503344E+01
 1.6002251E+01  2.4509247E+01
 1.6013750E+01  2.4524061E+01
 1.6025251E+01  2.4497990E+01
 1.6036751E+01  2.4487774E+01
 1.6048250E+01  2.4457626E+01
 1.6059752E+01  2.4467772E+01
 1.6071251E+01  2.4449697E+01
 1.6082750E+01  2.4514454E+01
 1.6094252E+01  2.4504190E+01
 1.6105751E+01  2.4601088E+01
 1.6117250E+01  2.4595779E+01
 1.6128750E+01  2.4628454E+01
 1.6140251E+01  2.4704517E+01
 1.6151751E+01  2.4745031E+01
 1.6163250E+01  2.4892759E+01
 1.6174751E+01  2.4817419E+01
 1.6186251E+01  2.5054972E+01
 1.6197750E+01  2.4986387E+01
 1.6209251E+01  2.5514482E+01
 1.6220751E+01  2.5586407E+01
 1.6232250E+01  2.6305151E+01
 1.6243752E+01  2.6561270E+01
 1.6255251E+01  2.6899876E+01
 1.6266750E+01  2.6963655E+01
 1.6278252E+01  2.6423557E+01
 1.6289751E+01  2.6321714E+01
 1.6301250E+01  2.5449530E+01
 1.6312750E+01  2.5465855E+01
 1.6324251E+01  2.4888731E+01
 1.6335751E+01  2.4905787E+01
 1.6347250E+01  2.4652996E+01
 1.6358751E+01  2.4662718E+01
 1.6370251E+01  2.4610941E+01
 1.6381750E+01  2.4620661E+01
 1.6393251E+01  2.4662060E+01
 1.6404751E+01  2.4722963E+01
 1.6416250E+01  2.4806572E+01
 1.6427752E+01  2.4781693E+01
 1.6439251E+01  2.4768785E+01
 1.6450750E+01  2.4699232E+01
 1.6462252E+01  2.4690733E+01
 1.6473751E+01  2.4627275E+01
 1.6485250E+01  2.4646969E+01
 1.6496750E+01  2.4657261E+01
 1.6508251E+01  2.4638393E+01
 1.6519751E+01  2.4553623E+01
 1.6531250E+01  2.4468216E+01
 1.6542751E+01  2.4477428E+01
 1.6554251E+01  2.4526466E+01
 1.6565750E+01  2.4610558E+01
 1.6577251E+01  2.4683598E+01
 1.6588751E+01  2.4771788E+01
 1.6600250E+01  2.4830317E+01
 1.6611752E+01  2.4885546E+01
 1.6623251E+01  2.4890476E+01
 1.6634750E+01  2.4862808E+01
 1.6646252E+01  2.4803894E+01
 1.6657751E+01  2.4714043E+01
 1.6669250E+01  2.4696987E+01
 1.6680750E+01  2.4666508E+01
 1.6692251E+01  2.4663898E+01
 1.6703751E+01  2.4599758E+01
 1.6715250E+01  2.4525457E+01
 1.6726751E+01  2.4480764E+01
 1.6738251E+01  2.4494877E+01
 1.6749750E+01  2.4493505E+01
 1.6761251E+01  2.4471144E+01
 1.6772751E+01  2.4477459E+01
 1.6784250E+01  2.4449768E+01
 1.6795752E+01  2.4422060E+01
 1.6807251E+01  2.4350447E+01
 1.6818750E+01  2.4339296E+01
 1.6830252E+01  2.4318142E+01
 1.6841751E+01  2.4362967E+01
 1.6853251E+01  2.4350798E+01
 1.6864750E+01  2.4346262E+01
 1.6876251E+01  2.4255894E+01
 1.6887751E+01  2.4223812E+01
 1.6899250E+01  2.4173870E+01
 1.6910751E+01  2.4187906E+01
 1.6922251E+01  2.4214369E+01
 1.6933750E+01  2.4218622E+01
 1.6945251E+01  2.4208225E+01
 1.6956751E+01  2.4167545E+01
 1.6968250E+01  2.4123360E+01
 1.6979752E+01  2.4146046E+01
 1.6991251E+01  2.4172363E+01
 1.7002750E+01  2.4226971E+01
 1.7014252E+01  2.4247307E+01
 1.7025751E+01  2.4229012E+01
 1.7037251E+01  2.4193249E+01
 1.7048750E+01  2.4069881E+01
 1.7060251E+01  2.4032934E+01
 1.7071751E+01  2.4008448E+01
 1.7083250E+01  2.4049152E+01
 1.7094751E+01  2.4024960E+01
 1.7106251E+01  2.4020060E+01
 1.7117750E+01  2.3999186E+01
 1.7129251E+01  2.3977757E+01
 1.7140751E+01  2.3958445E+01
 1.7152250E+01  2.3953444E+01
 1.7163752E+01  2.4004879E+01
 1.7175251E+01  2.4058914E+01
 1.7186750E+01  2.4109270E+01
 1.7198252E+01  2.4121016E+01
 1.7209751E+01  2.4124649E+01
 1.7221251E+01  2.4072800E+01
 1.7232750E+01  2.4047792E+01
 1.7244251E+01  2.4025478E+01
 1.7255751E+01  2.4020229E+01
 1.7267250E+01  2.3982086E+01
 1.7278751E+01  2.3951797E+01
 1.7290251E+01  2.3950209E+01
 1.7301750E+01  2.3987242E+01
 1.7313251E+01  2.3992382E+01
 1.7324751E+01  2.4039679E+01
 1.7336250E+01  2.4092693E+01
 1.7347752E+01  2.4069746E+01
 1.7359251E+01  2.4046087E+01
 1.7370750E+01  2.3983900E+01
 1.7382252E+01  2.3922358E+01
 1.7393751E+01  2.3857168E+01
 1.7405251E+01  2.3798046E+01
 1.7416750E+01  2.3757841E+01
 1.7428251E+01  2.3755039E+01
 1.7439751E+01  2.3795275E+01
 1.7451250E+01  2.3854160E+01
 1.7462751E+01  2.3898235E+01
 1.7474251E+01  2.3919594E+01
 1.7485750E+01  2.3905025E+01
 1.7497252E+01  2.3824539E+01
 1.7508751E+01  2.3789364E+01
 1.7520250E+01  2.3779160E+01
 1.7531752E+01  2.3768759E+01
 1.7543251E+01  2.3739111E+01
 1.7554750E+01  2.3729317E+01
 1.7566252E+01  2.3667128E+01
 1.7577751E+01  2.3646130E+01
 1.7589251E+01  2.3594278E+01
 1.7600750E+01  2.3620089E+01
 1.7612251E+01  2.3574589E+01
 1.7623751E+01  2.3621534E+01
 1.7635250E+01  2.3553509E+01
 1.7646751E+01  2.3543972E+01
 1.7658251E+01  2.3518660E+01
 1.7669750E+01  2.3592325E+01
 1.7681252E+01  2.3629128E+01
 1.7692751E+01  2.3676430E+01
 1.7704250E+01  2.3654930E+01
 1.7715752E+01  2.3614212E+01
 1.7727251E+01  2.3552275E+01
 1.7738750E+01  2.3528791E+01
 1.7750252E+01  2.3541924E+01
 1.7761751E+01  2.3580721E+01
 1.7773251E+01  2.3573027E+01
 1.7784750E+01  2.3603487E+01
 1.7796251E+01  2.3606064E+01
 1.7807751E+01  2.3595770E+01
 1.7819250E+01  2.3568596E+01
 1.7830751E+01  2.3581675E+01
 1.7842251E+01  2.3626778E+01
 1.7853750E+01  2.3606180E+01
 1.7865252E+01  2.3615568E+01
 1.7876751E+01  2.3578878E+01
 1.7888250E+01  2.3560555E+01
 1.7899752E+01  2.3502018E+01
 1.7911251E+01  2.3519026E+01
 1.7922750E+01  2.3498346E+01
 1.7934252E+01  2.3495155E+01
 1.7945751E+01  2.3520720E+01
 1.7957251E+01  2.3559483E+01
 1.7968750E+01  2.3590649E+01
 1.7980251E+01  2.3629576E+01
 1.7991751E+01  2.3777040E+01
 1.8003250E+01  2.3913975E+01
 1.8014751E+01  2.4031702E+01
 1.8026251E+01  2.4141018E+01
 1.8037750E+01  2.4280813E+01
 1.8049252E+01  2.4412394E+01
 1.8060751E+01  2.4600868E+01
 1.8072250E+01  2.4680716E+01
 1.8083752E+01  2.4864447E+01
 1.8095251E+01  2.4800417E+01
 1.8106750E+01  2.4806519E+01
 1.8118252E+01  2.4601091E+01
 1.8129751E+01  2.4465237E+01
 1.8141251E+01  2.4270107E+01
 1.8152750E+01  2.4107635E+01
 1.8164251E+01  2.3972795E+01
 1.8175751E+01  2.3897766E+01
 1.8187250E+01  2.3778053E+01
 1.8198751E+01  2.3738501E+01
 1.8210251E+01  2.3651081E+01
 1.8221750E+01  2.3612656E+01
 1.8233252E+01  2.3513678E+01
 1.8244751E+01  2.3528357E+01
 1.8256250E+01  2.3519852E+01
 1.8267752E+01  2.3533148E+01
 1.8279251E+01  2.3485447E+01
 1.8290751E+01  2.3475502E+01
 1.8302252E+01  2.3460302E+01
 1.8313751E+01  2.3466173E+01
 1.8325251E+01  2.3435061E+01
 1.8336750E+01  2.3427362E+01
 1.8348251E+01  2.3463247E+01
 1.8359751E+01  2.3547676E+01
 1.8371250E+01  2.3576670E+01
 1.8382751E+01  2.3597851E+01
 1.8394251E+01  2.3560364E+01
 1.8405750E+01  2.3543112E+01
 1.8417252E+01  2.3451626E+01
 1.8428751E+01  2.3409733E+01
 1.8440250E+01  2.3383842E+01
 1.8451752E+01  2.3366375E+01
 1.8463251E+01  2.3401802E+01
 1.8474751E+01  2.3396681E+01
 1.8486252E+01  2.3365038E+01
 1.8497751E+01  2.3351204E+01
 1.8509251E+01  2.3370697E+01
 1.8520750E+01  2.3422323E+01
 1.8532251E+01  2.3421797E+01
 1.8543751E+01  2.3352230E+01
 1.8555250E+01  2.3315119E+01
 1.8566751E+01  2.3284613E+01
 1.8578251E+01  2.3340675E+01
 1.8589750E+01  2.3396338E+01
 1.8601252E+01  2.3419161E+01
 1.8612751E+01  2.3416901E+01
 1.8624250E+01  2.3413105E+01
 1.8635752E+01  2.3428827E+01
 1.8647251E+01  2.3399572E+01
 1.8658751E+01  2.3414911E+01
 1.8670252E+01  2.3437366E+01
 1.8681751E+01  2.3463614E+01
 1.8693251E+01  2.3451311E+01
 1.8704750E+01  2.3444611E+01
 1.8716251E+01  2.3393816E+01
 1.8727751E+01  2.3370012E+01
 1.8739250E+01  2.3329706E+01
 1.8750751E+01  2.3340540E+01
 1.8762251E+01  2.3333202E+01
 1.8773750E+01  2.3322781E+01
 1.8785252E+01  2.3282030E+01
 1.8796751E+01  2.3323921E+01
 1.8808250E+01  2.3325552E+01
 1.8819752E+01  2.3344889E+01
 1.8831251E+01  2.3331137E+01
 1.8842751E+01  2.3355072E+01
 1.8854252E+01  2.3301105E+01
 1.8865751E+01  2.3252886E+01
 1.8877251E+01  2.3214098E+01
 1.8888750E+01  2.3217184E+01
 1.8900251E+01  2.3240763E+01
 1.8911751E+01  2.3259739E+01
 1.8923250E+01  2.3321096E+01
 1.8934752E+01  2.3338001E+01
 1.8946251E+01  2.3376806E+01
 1.8957750E+01  2.3373466E+01
 1.8969252E+01  2.3324053E+01
 1.8980751E+01  2.3273401E+01
 1.8992250E+01  2.3216030E+01
 1.9003752E+01  2.3235950E+01
 1.9015251E+01  2.3270893E+01
 1.9026751E+01  2.3340796E+01
 1.9038252E+01  2.3339186E+01
 1.9049751E+01  2.3346878E+01
 1.9061251E+01  2.3328533E+01
 1.9072750E+01  2.3368223E+01
 1.9084251E+01  2.3389141E+01
 1.9095751E+01  2.3358700E+01
 1.9107250E+01  2.3347858E+01
 1.9118752E+01  2.3325037E+01
 1.9130251E+01  2.3369221E+01
 1.9141750E+01  2.3363144E+01
 1.9153252E+01  2.3399906E+01
 1.9164751E+01  2.3425692E+01
 1.9176250E+01  2.3423752E+01
 1.9187752E+01  2.3471342E+01
 1.9199251E+01  2.3469877E+01
 1.9210751E+01  2.3524817E+01
 1.9222252E+01  2.3478056E+01
 1.9233751E+01  2.3459549E+01
 1.9245251E+01  2.3447451E+01
 1.9256750E+01  2.3493330E+01
 1.9268251E+01  2.3487461E+01
 1.9279751E+01  2.3392771E+01
 1.9291250E+01  2.3315788E+01
 1.9302752E+01  2.3304079E+01
 1.9314251E+01  2.3331192E+01
 1.9325750E+01  2.3355906E+01
 1.9337252E+01  2.3422327E+01
 1.9348751E+01  2.3492685E+01
 1.9360250E+01  2.3560081E+01
 1.9371752E+01  2.3589195E+01
 1.9383251E+01  2.3624651E+01
 1.9394751E+01  2.3617285E+01
 1.9406250E+01  2.3550125E+01
 1.9417751E+01  2.3492640E+01
 1.9429251E+01  2.3432764E+01
 1.9440750E+01  2.3426006E+01
 1.9452251E+01  2.3420885E+01
 1.9463751E+01  2.3456293E+01
 1.9475250E+01  2.3467346E+01
 1.9486752E+01  2.3461874E+01
 1.9498251E+01  2.3444345E+01
 1.9509750E+01  2.3448137E+01
 1.9521252E+01  2.3441067E+01
 1.9532751E+01  2.3415815E+01
 1.9544250E+01  2.3431370E+01
 1.9555752E+01  2.3416811E+01
 1.9567251E+01  2.3435608E+01
 1.9578751E+01  2.3502691E+01
 1.9590250E+01  2.3558372E+01
 1.9601751E+01  2.3583017E+01
 1.9613251E+01  2.3592247E+01
 1.9624750E+01  2.3681435E+01
 1.9636251E+01  2.3757568E+01
 1.9647751E+01  2.3874123E+01
 1.9659250E+01  2.4025602E+01
 1.9670752E+01  2.4192564E+01
 1.9682251E+01  2.4400990E+01
 1.9693750E+01  2.4599018E+01
 1.9705252E+01  2.4819349E+01
 1.9716751E+01  2.4931723E+01
 1.9728251E+01  2.5021372E+01
 1.9739752E+01  2.4945904E+01
 1.9751251E+01  2.4917143E+01
 1.9762751E+01  2.4800398E+01
 1.9774250E+01  2.4714106E+01
 1.9785751E+01  2.4686623E+01
 1.9797251E+01  2.4772051E+01
 1.9808750E+01  2.4924116E+01
 1.9820251E+01  2.5082298E+01
 1.9831751E+01  2.5267841E+01
 1.9843250E+01  2.5368708E+01
 1.9854752E+01  2.5412876E+01
 1.9866251E+01  2.5342344E+01
 1.9877750E+01  2.5231928E+01
 1.9889252E+01  2.5029406E+01
 1.9900751E+01  2.4773184E+01
 1.9912251E+01  2.4482817E+01
 1.9923752E+01  2.4195074E+01
 1.9935251E+01  2.3940033E+01
 1.9946751E+01  2.3791462E+01
 1.9958250E+01  2.3706009E+01
 1.9969751E+01  2.3674303E+01
 1.9981251E+01  2.3656570E+01
 1.9992750E+01  2.3621311E+01
 2.0004251E+01  2.3604660E+01
 2.0015751E+01  2.3558636E+01
 2.0027250E+01  2.3612221E+01
 2.0038752E+01  2.3598230E+01
 2.0050251E+01  2.3632879E+01
 2.0061750E+01  2.3582882E+01
 2.0073252E+01  2.3566599E+01
 2.0084751E+01  2.3529831E+01
 2.0096251E+01  2.3535774E+01
 2.0107752E+01  2.3535475E+01
 2.0119251E+01  2.3565619E+01
 2.0130751E+01  2.3548084E+01
 2.0142250E+01  2.3512651E+01
 2.0153751E+01  2.3495512E+01
 2.0165251E+01  2.3515713E+01
 2.0176750E+01  2.3544840E+01
 2.0188251E+01  2.3522999E+01
 2.0199751E+01  2.3544992E+01
 2.0211250E+01  2.3515892E+01
 2.0222752E+01  2.3519480E+01
 2.0234251E+01  2.3473799E+01
 2.0245750E+01  2.3491581E+01
 2.0257252E+01  2.3485062E+01
 2.0268751E+01  2.3473631E+01
 2.0280251E+01  2.3474810E+01
 2.0291752E+01  2.3499910E+01
 2.0303251E+01  2.3480825E+01
 2.0314751E+01  2.3432184E+01
 2.0326250E+01  2.3402025E+01
 2.0337751E+01  2.3414213E+01
 2.0349251E+01  2.3410839E+01
 2.0360750E+01  2.3436363E+01
 2.0372252E+01  2.3427315E+01
 2.0383751E+01  2.3444252E+01
 2.0395250E+01  2.3477839E+01
 2.0406752E+01  2.3529936E+01
 2.0418251E+01  2.3596485E+01
 2.0429750E+01  2.3653576E+01
 2.0441252E+01  2.3632498E+01
 2.0452751E+01  2.3612713E+01
 2.0464251E+01  2.3538733E+01
 2.0475752E+01  2.3520573E+01
 2.0487251E+01  2.3496546E+01
 2.0498751E+01  2.3542683E+01
 2.0510250E+01  2.3556417E+01
 2.0521751E+01  2.3551191E+01
 2.0533251E+01  2.3525106E+01
 2.0544750E+01  2.3528854E+01
 2.0556252E+01  2.3566797E+01
 2.0567751E+01  2.3592085E+01
 2.0579250E+01  2.3563988E+01
 2.0590752E+01  2.3607964E+01
 2.0602251E+01  2.3615200E+01
 2.0613750E+01  2.3659788E+01
 2.0625252E+01  2.3673218E+01
 2.0636751E+01  2.3725292E+01
 2.0648251E+01  2.3796871E+01
 2.0659752E+01  2.3850092E+01
 2.0671251E+01  2.3896633E+01
 2.0682751E+01  2.4011814E+01
 2.0694250E+01  2.4191875E+01
 2.0705751E+01  2.4409267E+01
 2.0717251E+01  2.4871494E+01
 2.0728750E+01  2.5221056E+01
 2.0740252E+01  2.5702795E+01
 2.0751751E+01  2.6205164E+01
 2.0763250E+01  2.6558882E+01
 2.0774752E+01  2.6752068E+01
 2.0786251E+01  2.6652336E+01
 2.0797750E+01  2.6385166E+01
 2.0809252E+01  2.5792612E+01
 2.0820751E+01  2.5271160E+01
 2.0832251E+01  2.4780014E+01
 2.0843752E+01  2.4380096E+01
 2.0855251E+01  2.4186592E+01
 2.0866751E+01  2.4050499E+01
 2.0878250E+01  2.3980717E+01
 2.0889751E+01  2.3951725E+01
 2.0901251E+01  2.3893391E+01
 2.0912750E+01  2.3841621E+01
 2.0924252E+01  2.3807999E+01
 2.0935751E+01  2.3835955E+01
 2.0947250E+01  2.3859699E+01
 2.0958752E+01  2.3785414E+01
 2.0970251E+01  2.3707996E+01
 2.0981750E+01  2.3705101E+01
 2.0993252E+01  2.3716610E+01
 2.1004751E+01  2.3722973E+01
 2.1016251E+01  2.3677620E+01
 2.1027752E+01  2.3661642E+01
 2.1039251E+01  2.3649361E+01
 2.1050751E+01  2.3657776E+01
 2.1062250E+01  2.3636089E+01
 2.1073751E+01  2.3717247E+01
 2.1085251E+01  2.3712467E+01
 2.1096750E+01  2.3692717E+01
 2.1108252E+01  2.3707434E+01
 2.1119751E+01  2.3719538E+01
 2.1131250E+01  2.3715921E+01
 2.1142752E+01  2.3615044E+01
 2.1154251E+01  2.3620941E+01
 2.1165751E+01  2.3680183E+01
 2.1177252E+01  2.3797766E+01
 2.1188751E+01  2.3803591E+01
 2.1200251E+01  2.3804569E+01
 2.1211752E+01  2.3779932E+01
 2.1223251E+01  2.3723995E+01
 2.1234751E+01  2.3674366E+01
 2.1246250E+01  2.3667822E+01
 2.1257751E+01  2.3712673E+01
 2.1269251E+01  2.3723518E+01
 2.1280750E+01  2.3758730E+01
 2.1292252E+01  2.3701719E+01
 2.1303751E+01  2.3662119E+01
 2.1315250E+01  2.3647303E+01
 2.1326752E+01  2.3664312E+01
 2.1338251E+01  2.3678343E+01
 2.1349751E+01  2.3673466E+01
 2.1361252E+01  2.3683729E+01
 2.1372751E+01  2.3696886E+01
 2.1384251E+01  2.3712961E+01
 2.1395752E+01  2.3728556E+01
 2.1407251E+01  2.3717327E+01
 2.1418751E+01  2.3728542E+01
 2.1430250E+01  2.3702402E+01
 2.1441751E+01  2.3650753E+01
 2.1453251E+01  2.3644976E+01
 2.1464750E+01  2.3686872E+01
 2.1476252E+01  2.3721962E+01
 2.1487751E+01  2.3809671E+01
 2.1499250E+01  2.3884760E+01
 2.1510752E+01  2.3866854E+01
 2.1522251E+01  2.3885319E+01
 2.1533751E+01  2.3886873E+01
 2.1545252E+01  2.3908508E+01
 2.1556751E+01  2.3831448E+01
 2.1568251E+01  2.3842554E+01
 2.1579752E+01  2.3853260E+01
 2.1591251E+01  2.3877295E+01
 2.1602751E+01  2.3857128E+01
 2.1614250E+01  2.3827400E+01
 2.1625751E+01  2.3783579E+01
 2.1637251E+01  2.3765995E+01
 2.1648750E+01  2.3798038E+01
 2.1660252E+01  2.3869057E+01
 2.1671751E+01  2.3911797E+01
 2.1683250E+01  2.3937304E+01
 2.1694752E+01  2.3937689E+01
 2.1706251E+01  2.3923763E+01
 2.1717751E+01  2.3872646E+01
 2.1729252E+01  2.3831150E+01
 2.1740751E+01  2.3836645E+01
 2.1752251E+01  2.3818426E+01
 2.1763752E+01  2.3813999E+01
 2.1775251E+01  2.3801834E+01
 2.1786751E+01  2.3857893E+01
 2.1798250E+01  2.3910994E+01
 2.1809752E+01  2.3942289E+01
 2.1821251E+01  2.3995350E+01
 2.1832750E+01  2.3978479E+01
 2.1844252E+01  2.3975853E+01
 2.1855751E+01  2.3951571E+01
 2.1867250E+01  2.3981546E+01
 2.1878752E+01  2.4001629E+01
 2.1890251E+01  2.3992544E+01
 2.1901751E+01  2.3973625E+01
 2.1913252E+01  2.3942440E+01
 2.1924751E+01  2.3902052E+01
 2.1936251E+01  2.3917210E+01
 2.1947752E+01  2.3940285E+01
 2.1959251E+01  2.3959192E+01
 2.1970751E+01  2.3979296E+01
 2.1982250E+01  2.3965839E+01
 2.1993752E+01  2.3998959E+01
 2.2005251E+01  2.4016399E+01
 2.2016750E+01  2.4057961E+01
 2.2028252E+01  2.4121775E+01
 2.2039751E+01  2.4101954E+01
 2.2051250E+01  2.4103989E+01
 2.2062752E+01  2.4056295E+01
 2.2074251E+01  2.4089958E+01
 2.2085751E+01  2.4090292E+01
 2.2097252E+01  2.4100626E+01
 2.2108751E+01  2.4097950E+01
 2.2120251E+01  2.4158924E+01
 2.2131752E+01  2.4201826E+01
 2.2143251E+01  2.4218700E+01
 2.2154751E+01  2.4192556E+01
 2.2166250E+01  2.4236115E+01
 2.2177752E+01  2.4210091E+01
 2.2189251E+01  2.4159281E+01
 2.2200750E+01  2.4133432E+01
 2.2212252E+01  2.4149231E+01
 2.2223751E+01  2.4232906E+01
 2.2235250E+01  2.4239353E+01
 2.2246752E+01  2.4228275E+01
 2.2258251E+01  2.4140265E+01
 2.2269751E+01  2.4083899E+01
 2.2281252E+01  2.4078753E+01
 2.2292751E+01  2.4089838E+01
 2.2304251E+01  2.4155375E+01
 2.2315752E+01  2.4232798E+01
 2.2327251E+01  2.4297503E+01
 2.2338751E+01  2.4353941E+01
 2.2350250E+01  2.4362091E+01
 2.2361752E+01  2.4382248E+01
 2.2373251E+01  2.4431980E+01
 2.2384750E+01  2.4422714E+01
 2.2396252E+01  2.4422188E+01
 2.2407751E+01  2.4378014E+01
 2.2419250E+01  2.4380228E+01
 2.2430752E+01  2.4351263E+01
 2.2442251E+01  2.4378838E+01
 2.2453751E+01  2.4456507E+01
 2.2465252E+01  2.4462700E+01
 2.2476751E+01  2.4438402E+01
 2.2488251E+01  2.4436895E+01
 2.2499752E+01  2.4526686E+01
 2.2511251E+01  2.4572641E+01
 2.2522751E+01  2.4637455E+01
 2.2534250E+01  2.4646368E+01
 2.2545752E+01  2.4661905E+01
 2.2557251E+01  2.4601608E+01
 2.2568750E+01  2.4594934E+01
 2.2580252E+01  2.4593891E+01
 2.2591751E+01  2.4652203E+01
 2.2603251E+01  2.4704597E+01
 2.2614752E+01  2.4794867E+01
 2.2626251E+01  2.4818218E+01
 2.2637751E+01  2.4850008E+01
 2.2649252E+01  2.4888056E+01
 2.2660751E+01  2.4929867E+01
 2.2672251E+01  2.4957226E+01
 2.2683752E+01  2.4953587E+01
 2.2695251E+01  2.4939423E+01
 2.2706751E+01  2.4883722E+01
 2.2718250E+01  2.4908463E+01
 2.2729752E+01  2.4919106E+01
 2.2741251E+01  2.4935812E+01
 2.2752750E+01  2.4956356E+01
 2.2764252E+01  2.5020838E+01
 2.2775751E+01  2.5044161E+01
 2.2787251E+01  2.5019547E+01
 2.2798752E+01  2.5092392E+01
 2.2810251E+01  2.5148193E+01
 2.2821751E+01  2.5193005E+01
 2.2833252E+01  2.5253559E+01
 2.2844751E+01  2.5276196E+01
 2.2856251E+01  2.5301645E+01
 2.2867750E+01  2.5335423E+01
 2.2879251E+01  2.5410477E+01
 2.2890751E+01  2.5487129E+01
 2.2902250E+01  2.5541164E+01
 2.2913752E+01  2.5645634E+01
 2.2925251E+01  2.5749832E+01
 2.2936750E+01  2.5817778E+01
 2.2948252E+01  2.5876701E+01
 2.2959751E+01  2.5875168E+01
 2.2971251E+01  2.5927349E+01
 2.2982752E+01  2.5972878E+01
 2.2994251E+01  2.6062698E+01
