F:\20151113_APS_34IDE\\Brian\Particle1\OCV\Data_0135.tif
2-Theta Angle (Degrees)
Intensity
       2000
 5.7500005E-03  0.0000000E+00
 1.7250001E-02  0.0000000E+00
 2.8750001E-02  0.0000000E+00
 4.0250003E-02  0.0000000E+00
 5.1750004E-02  0.0000000E+00
 6.3250005E-02  0.0000000E+00
 7.4750006E-02  0.0000000E+00
 8.6250007E-02  0.0000000E+00
 9.7750008E-02  0.0000000E+00
 1.0925001E-01  0.0000000E+00
 1.2075000E-01  0.0000000E+00
 1.3225001E-01  0.0000000E+00
 1.4375001E-01  0.0000000E+00
 1.5525001E-01  0.0000000E+00
 1.6675001E-01  0.0000000E+00
 1.7825001E-01  0.0000000E+00
 1.8975002E-01  0.0000000E+00
 2.0125002E-01  0.0000000E+00
 2.1275002E-01  0.0000000E+00
 2.2425000E-01  0.0000000E+00
 2.3575000E-01  0.0000000E+00
 2.4725001E-01  0.0000000E+00
 2.5875002E-01  0.0000000E+00
 2.7025002E-01  0.0000000E+00
 2.8175002E-01  0.0000000E+00
 2.9325002E-01  0.0000000E+00
 3.0475003E-01  0.0000000E+00
 3.1625003E-01  0.0000000E+00
 3.2775003E-01  0.0000000E+00
 3.3925003E-01  0.0000000E+00
 3.5075003E-01  0.0000000E+00
 3.6225003E-01  0.0000000E+00
 3.7375003E-01  0.0000000E+00
 3.8525003E-01  0.0000000E+00
 3.9675003E-01  0.0000000E+00
 4.0825003E-01  0.0000000E+00
 4.1975003E-01  0.0000000E+00
 4.3125004E-01  0.0000000E+00
 4.4275001E-01  0.0000000E+00
 4.5425001E-01  0.0000000E+00
 4.6575001E-01  0.0000000E+00
 4.7725001E-01  0.0000000E+00
 4.8875001E-01  0.0000000E+00
 5.0025004E-01  0.0000000E+00
 5.1175004E-01  0.0000000E+00
 5.2325004E-01  0.0000000E+00
 5.3475004E-01  0.0000000E+00
 5.4625005E-01  0.0000000E+00
 5.5775005E-01  0.0000000E+00
 5.6925005E-01  0.0000000E+00
 5.8075005E-01  0.0000000E+00
 5.9225005E-01  0.0000000E+00
 6.0375005E-01  0.0000000E+00
 6.1525005E-01  0.0000000E+00
 6.2675005E-01  0.0000000E+00
 6.3825005E-01  0.0000000E+00
 6.4975005E-01  0.0000000E+00
 6.6125005E-01  0.0000000E+00
 6.7275006E-01  0.0000000E+00
 6.8425006E-01  0.0000000E+00
 6.9575006E-01  0.0000000E+00
 7.0725006E-01  0.0000000E+00
 7.1875006E-01  0.0000000E+00
 7.3025006E-01  0.0000000E+00
 7.4175006E-01  0.0000000E+00
 7.5325006E-01  0.0000000E+00
 7.6475006E-01  0.0000000E+00
 7.7625006E-01  0.0000000E+00
 7.8775007E-01  0.0000000E+00
 7.9925007E-01  0.0000000E+00
 8.1075007E-01  0.0000000E+00
 8.2225007E-01  0.0000000E+00
 8.3375007E-01  0.0000000E+00
 8.4525007E-01  0.0000000E+00
 8.5675007E-01  0.0000000E+00
 8.6825007E-01  0.0000000E+00
 8.7975001E-01  0.0000000E+00
 8.9125001E-01  0.0000000E+00
 9.0275002E-01  0.0000000E+00
 9.1425002E-01  0.0000000E+00
 9.2575002E-01  0.0000000E+00
 9.3725002E-01  0.0000000E+00
 9.4875002E-01  0.0000000E+00
 9.6025002E-01  0.0000000E+00
 9.7175002E-01  0.0000000E+00
 9.8325002E-01  0.0000000E+00
 9.9475002E-01  0.0000000E+00
 1.0062500E+00  0.0000000E+00
 1.0177500E+00  0.0000000E+00
 1.0292500E+00  0.0000000E+00
 1.0407500E+00  0.0000000E+00
 1.0522500E+00  0.0000000E+00
 1.0637500E+00  0.0000000E+00
 1.0752500E+00  0.0000000E+00
 1.0867500E+00  0.0000000E+00
 1.0982500E+00  0.0000000E+00
 1.1097500E+00  0.0000000E+00
 1.1212500E+00  0.0000000E+00
 1.1327500E+00  0.0000000E+00
 1.1442500E+00  0.0000000E+00
 1.1557500E+00  0.0000000E+00
 1.1672500E+00  0.0000000E+00
 1.1787500E+00  0.0000000E+00
 1.1902500E+00  0.0000000E+00
 1.2017500E+00  0.0000000E+00
 1.2132500E+00  0.0000000E+00
 1.2247500E+00  0.0000000E+00
 1.2362500E+00  0.0000000E+00
 1.2477500E+00  0.0000000E+00
 1.2592500E+00  0.0000000E+00
 1.2707500E+00  0.0000000E+00
 1.2822500E+00  0.0000000E+00
 1.2937500E+00  0.0000000E+00
 1.3052500E+00  0.0000000E+00
 1.3167500E+00  0.0000000E+00
 1.3282501E+00  0.0000000E+00
 1.3397501E+00  0.0000000E+00
 1.3512501E+00  0.0000000E+00
 1.3627501E+00  0.0000000E+00
 1.3742501E+00  0.0000000E+00
 1.3857501E+00  0.0000000E+00
 1.3972501E+00  0.0000000E+00
 1.4087501E+00  0.0000000E+00
 1.4202501E+00  0.0000000E+00
 1.4317501E+00  0.0000000E+00
 1.4432501E+00  0.0000000E+00
 1.4547501E+00  0.0000000E+00
 1.4662501E+00  0.0000000E+00
 1.4777501E+00  0.0000000E+00
 1.4892501E+00  0.0000000E+00
 1.5007501E+00  0.0000000E+00
 1.5122501E+00  0.0000000E+00
 1.5237501E+00  0.0000000E+00
 1.5352501E+00  0.0000000E+00
 1.5467501E+00  0.0000000E+00
 1.5582501E+00  0.0000000E+00
 1.5697501E+00  0.0000000E+00
 1.5812501E+00  0.0000000E+00
 1.5927501E+00  0.0000000E+00
 1.6042501E+00  0.0000000E+00
 1.6157501E+00  0.0000000E+00
 1.6272501E+00  0.0000000E+00
 1.6387501E+00  0.0000000E+00
 1.6502501E+00  0.0000000E+00
 1.6617501E+00  0.0000000E+00
 1.6732501E+00  0.0000000E+00
 1.6847501E+00  0.0000000E+00
 1.6962501E+00  0.0000000E+00
 1.7077501E+00  0.0000000E+00
 1.7192501E+00  0.0000000E+00
 1.7307501E+00  0.0000000E+00
 1.7422501E+00  0.0000000E+00
 1.7537501E+00  0.0000000E+00
 1.7652501E+00  0.0000000E+00
 1.7767501E+00  0.0000000E+00
 1.7882501E+00  0.0000000E+00
 1.7997501E+00  0.0000000E+00
 1.8112501E+00  0.0000000E+00
 1.8227501E+00  0.0000000E+00
 1.8342501E+00  0.0000000E+00
 1.8457501E+00  0.0000000E+00
 1.8572501E+00  0.0000000E+00
 1.8687501E+00  0.0000000E+00
 1.8802501E+00  0.0000000E+00
 1.8917501E+00  0.0000000E+00
 1.9032501E+00  0.0000000E+00
 1.9147501E+00  0.0000000E+00
 1.9262501E+00  0.0000000E+00
 1.9377501E+00  0.0000000E+00
 1.9492501E+00  0.0000000E+00
 1.9607501E+00  0.0000000E+00
 1.9722501E+00  0.0000000E+00
 1.9837501E+00  0.0000000E+00
 1.9952501E+00  0.0000000E+00
 2.0067501E+00  0.0000000E+00
 2.0182500E+00  0.0000000E+00
 2.0297501E+00  0.0000000E+00
 2.0412500E+00  0.0000000E+00
 2.0527501E+00  0.0000000E+00
 2.0642500E+00  0.0000000E+00
 2.0757501E+00  0.0000000E+00
 2.0872500E+00  0.0000000E+00
 2.0987501E+00  0.0000000E+00
 2.1102500E+00  0.0000000E+00
 2.1217501E+00  0.0000000E+00
 2.1332500E+00  0.0000000E+00
 2.1447501E+00  0.0000000E+00
 2.1562500E+00  0.0000000E+00
 2.1677501E+00  0.0000000E+00
 2.1792500E+00  0.0000000E+00
 2.1907501E+00  0.0000000E+00
 2.2022500E+00  0.0000000E+00
 2.2137501E+00  0.0000000E+00
 2.2252500E+00  0.0000000E+00
 2.2367501E+00  0.0000000E+00
 2.2482500E+00  0.0000000E+00
 2.2597501E+00  0.0000000E+00
 2.2712500E+00  0.0000000E+00
 2.2827501E+00  0.0000000E+00
 2.2942500E+00  0.0000000E+00
 2.3057501E+00  0.0000000E+00
 2.3172500E+00  0.0000000E+00
 2.3287501E+00  0.0000000E+00
 2.3402500E+00  0.0000000E+00
 2.3517501E+00  0.0000000E+00
 2.3632500E+00  0.0000000E+00
 2.3747501E+00  0.0000000E+00
 2.3862500E+00  0.0000000E+00
 2.3977501E+00  0.0000000E+00
 2.4092500E+00  0.0000000E+00
 2.4207501E+00  0.0000000E+00
 2.4322500E+00  0.0000000E+00
 2.4437501E+00  0.0000000E+00
 2.4552500E+00  0.0000000E+00
 2.4667501E+00  0.0000000E+00
 2.4782500E+00  0.0000000E+00
 2.4897501E+00  0.0000000E+00
 2.5012500E+00  0.0000000E+00
 2.5127501E+00  0.0000000E+00
 2.5242500E+00  0.0000000E+00
 2.5357502E+00  0.0000000E+00
 2.5472500E+00  0.0000000E+00
 2.5587502E+00  0.0000000E+00
 2.5702500E+00  0.0000000E+00
 2.5817502E+00  0.0000000E+00
 2.5932500E+00  0.0000000E+00
 2.6047502E+00  0.0000000E+00
 2.6162500E+00  0.0000000E+00
 2.6277502E+00  0.0000000E+00
 2.6392500E+00  0.0000000E+00
 2.6507502E+00  0.0000000E+00
 2.6622500E+00  0.0000000E+00
 2.6737502E+00  0.0000000E+00
 2.6852500E+00  0.0000000E+00
 2.6967502E+00  0.0000000E+00
 2.7082500E+00  0.0000000E+00
 2.7197502E+00  0.0000000E+00
 2.7312500E+00  0.0000000E+00
 2.7427502E+00  0.0000000E+00
 2.7542500E+00  0.0000000E+00
 2.7657502E+00  0.0000000E+00
 2.7772501E+00  0.0000000E+00
 2.7887502E+00  0.0000000E+00
 2.8002501E+00  0.0000000E+00
 2.8117502E+00  0.0000000E+00
 2.8232501E+00  3.3296337E+01
 2.8347502E+00  3.6971680E+01
 2.8462501E+00  3.6062531E+01
 2.8577502E+00  3.6116039E+01
 2.8692501E+00  3.6200226E+01
 2.8807502E+00  3.6644634E+01
 2.8922501E+00  3.7115711E+01
 2.9037502E+00  3.7358070E+01
 2.9152501E+00  3.7297199E+01
 2.9267502E+00  3.7323906E+01
 2.9382501E+00  3.6989403E+01
 2.9497502E+00  3.6741741E+01
 2.9612501E+00  3.6350662E+01
 2.9727502E+00  3.5893978E+01
 2.9842501E+00  3.5598022E+01
 2.9957502E+00  3.5658367E+01
 3.0072501E+00  3.5464104E+01
 3.0187502E+00  3.5589077E+01
 3.0302501E+00  3.5569492E+01
 3.0417502E+00  3.5815624E+01
 3.0532501E+00  3.5700912E+01
 3.0647502E+00  3.5619926E+01
 3.0762501E+00  3.5356052E+01
 3.0877502E+00  3.5501110E+01
 3.0992501E+00  3.5663506E+01
 3.1107502E+00  3.5604187E+01
 3.1222501E+00  3.5327286E+01
 3.1337502E+00  3.4991230E+01
 3.1452501E+00  3.4909496E+01
 3.1567502E+00  3.5229923E+01
 3.1682501E+00  3.5359833E+01
 3.1797502E+00  3.5256699E+01
 3.1912501E+00  3.5057823E+01
 3.2027502E+00  3.5057087E+01
 3.2142501E+00  3.5139736E+01
 3.2257502E+00  3.5054974E+01
 3.2372501E+00  3.4984779E+01
 3.2487502E+00  3.5184200E+01
 3.2602501E+00  3.5122292E+01
 3.2717502E+00  3.5290646E+01
 3.2832501E+00  3.5153336E+01
 3.2947502E+00  3.5484207E+01
 3.3062501E+00  3.5798851E+01
 3.3177502E+00  3.5969971E+01
 3.3292501E+00  3.5886829E+01
 3.3407502E+00  3.5466293E+01
 3.3522501E+00  3.5263523E+01
 3.3637502E+00  3.5277122E+01
 3.3752501E+00  3.5326366E+01
 3.3867502E+00  3.5086388E+01
 3.3982501E+00  3.4639805E+01
 3.4097502E+00  3.4510250E+01
 3.4212501E+00  3.4514187E+01
 3.4327502E+00  3.4770710E+01
 3.4442501E+00  3.4851143E+01
 3.4557502E+00  3.4723122E+01
 3.4672501E+00  3.4390877E+01
 3.4787502E+00  3.4197201E+01
 3.4902501E+00  3.3950108E+01
 3.5017502E+00  3.3965298E+01
 3.5132501E+00  3.3711926E+01
 3.5247502E+00  3.3850040E+01
 3.5362501E+00  3.3834953E+01
 3.5477502E+00  3.3847191E+01
 3.5592501E+00  3.3622173E+01
 3.5707502E+00  3.3613602E+01
 3.5822501E+00  3.3536720E+01
 3.5937502E+00  3.3601479E+01
 3.6052501E+00  3.3391010E+01
 3.6167502E+00  3.3335751E+01
 3.6282501E+00  3.3296810E+01
 3.6397502E+00  3.3287823E+01
 3.6512501E+00  3.3224308E+01
 3.6627502E+00  3.3170345E+01
 3.6742501E+00  3.3002083E+01
 3.6857502E+00  3.2896084E+01
 3.6972501E+00  3.2823814E+01
 3.7087502E+00  3.2704155E+01
 3.7202501E+00  3.2809265E+01
 3.7317502E+00  3.3013031E+01
 3.7432501E+00  3.3242355E+01
 3.7547503E+00  3.3449970E+01
 3.7662501E+00  3.3316784E+01
 3.7777503E+00  3.3289143E+01
 3.7892501E+00  3.3061634E+01
 3.8007503E+00  3.2935219E+01
 3.8122501E+00  3.2782688E+01
 3.8237503E+00  3.2684906E+01
 3.8352501E+00  3.2547729E+01
 3.8467503E+00  3.2359631E+01
 3.8582501E+00  3.2399734E+01
 3.8697503E+00  3.2382675E+01
 3.8812501E+00  3.2529640E+01
 3.8927503E+00  3.2513306E+01
 3.9042501E+00  3.2606216E+01
 3.9157503E+00  3.2599289E+01
 3.9272501E+00  3.2778126E+01
 3.9387503E+00  3.2861145E+01
 3.9502501E+00  3.2805477E+01
 3.9617503E+00  3.2668308E+01
 3.9732502E+00  3.2508083E+01
 3.9847503E+00  3.2497379E+01
 3.9962502E+00  3.2667221E+01
 4.0077500E+00  3.2569614E+01
 4.0192504E+00  3.2658951E+01
 4.0307503E+00  3.2584793E+01
 4.0422502E+00  3.2653133E+01
 4.0537500E+00  3.2540150E+01
 4.0652504E+00  3.2361008E+01
 4.0767503E+00  3.2219105E+01
 4.0882502E+00  3.2109093E+01
 4.0997500E+00  3.2064312E+01
 4.1112504E+00  3.2080471E+01
 4.1227503E+00  3.2099297E+01
 4.1342502E+00  3.2211380E+01
 4.1457500E+00  3.2221832E+01
 4.1572504E+00  3.2378773E+01
 4.1687503E+00  3.2524300E+01
 4.1802502E+00  3.2456924E+01
 4.1917500E+00  3.2600742E+01
 4.2032504E+00  3.2391079E+01
 4.2147503E+00  3.2445938E+01
 4.2262502E+00  3.2246746E+01
 4.2377501E+00  3.2126141E+01
 4.2492504E+00  3.2159279E+01
 4.2607503E+00  3.2292259E+01
 4.2722502E+00  3.2618034E+01
 4.2837501E+00  3.2780525E+01
 4.2952504E+00  3.2797428E+01
 4.3067503E+00  3.2634586E+01
 4.3182502E+00  3.2466602E+01
 4.3297501E+00  3.2252834E+01
 4.3412504E+00  3.2212769E+01
 4.3527503E+00  3.2107159E+01
 4.3642502E+00  3.2219086E+01
 4.3757501E+00  3.2281979E+01
 4.3872504E+00  3.2494736E+01
 4.3987503E+00  3.2504749E+01
 4.4102502E+00  3.2568367E+01
 4.4217501E+00  3.2538570E+01
 4.4332504E+00  3.2488747E+01
 4.4447503E+00  3.2420731E+01
 4.4562502E+00  3.2395069E+01
 4.4677501E+00  3.2446941E+01
 4.4792504E+00  3.2428143E+01
 4.4907503E+00  3.2401619E+01
 4.5022502E+00  3.2361992E+01
 4.5137501E+00  3.2292492E+01
 4.5252504E+00  3.2297882E+01
 4.5367503E+00  3.2260334E+01
 4.5482502E+00  3.2399654E+01
 4.5597501E+00  3.2394943E+01
 4.5712504E+00  3.2510590E+01
 4.5827503E+00  3.2602043E+01
 4.5942502E+00  3.2608250E+01
 4.6057501E+00  3.2641754E+01
 4.6172504E+00  3.2588497E+01
 4.6287503E+00  3.2595779E+01
 4.6402502E+00  3.2696003E+01
 4.6517501E+00  3.2709339E+01
 4.6632504E+00  3.2648087E+01
 4.6747503E+00  3.2630905E+01
 4.6862502E+00  3.2467033E+01
 4.6977501E+00  3.2452492E+01
 4.7092505E+00  3.2289879E+01
 4.7207503E+00  3.2162121E+01
 4.7322502E+00  3.2024494E+01
 4.7437501E+00  3.1927391E+01
 4.7552505E+00  3.1952868E+01
 4.7667503E+00  3.2219181E+01
 4.7782502E+00  3.2435955E+01
 4.7897501E+00  3.2581982E+01
 4.8012505E+00  3.2612747E+01
 4.8127503E+00  3.2676094E+01
 4.8242502E+00  3.2577099E+01
 4.8357501E+00  3.2632252E+01
 4.8472505E+00  3.2604588E+01
 4.8587503E+00  3.2736576E+01
 4.8702502E+00  3.2810444E+01
 4.8817501E+00  3.2732162E+01
 4.8932505E+00  3.2795746E+01
 4.9047503E+00  3.2698963E+01
 4.9162502E+00  3.2799725E+01
 4.9277501E+00  3.2763229E+01
 4.9392505E+00  3.2795456E+01
 4.9507504E+00  3.2735672E+01
 4.9622502E+00  3.2808186E+01
 4.9737501E+00  3.2820072E+01
 4.9852505E+00  3.2991360E+01
 4.9967504E+00  3.3072685E+01
 5.0082502E+00  3.3212337E+01
 5.0197501E+00  3.3250935E+01
 5.0312505E+00  3.3347599E+01
 5.0427504E+00  3.3453354E+01
 5.0542502E+00  3.3430092E+01
 5.0657501E+00  3.3339565E+01
 5.0772505E+00  3.3251709E+01
 5.0887504E+00  3.3302948E+01
 5.1002502E+00  3.3371731E+01
 5.1117501E+00  3.3487316E+01
 5.1232505E+00  3.3475937E+01
 5.1347504E+00  3.3589672E+01
 5.1462502E+00  3.3565369E+01
 5.1577501E+00  3.3726902E+01
 5.1692505E+00  3.3713707E+01
 5.1807504E+00  3.3731613E+01
 5.1922503E+00  3.3711739E+01
 5.2037501E+00  3.3729458E+01
 5.2152505E+00  3.3927494E+01
 5.2267504E+00  3.3971378E+01
 5.2382503E+00  3.4040745E+01
 5.2497501E+00  3.4051861E+01
 5.2612505E+00  3.4103176E+01
 5.2727504E+00  3.4169857E+01
 5.2842503E+00  3.4160610E+01
 5.2957501E+00  3.4142128E+01
 5.3072500E+00  3.4060963E+01
 5.3187504E+00  3.4041965E+01
 5.3302503E+00  3.3968208E+01
 5.3417501E+00  3.4000957E+01
 5.3532500E+00  3.3995388E+01
 5.3647504E+00  3.4036224E+01
 5.3762503E+00  3.4171452E+01
 5.3877501E+00  3.4279648E+01
 5.3992500E+00  3.4425659E+01
 5.4107504E+00  3.4499130E+01
 5.4222503E+00  3.4396881E+01
 5.4337502E+00  3.4379932E+01
 5.4452500E+00  3.4401318E+01
 5.4567504E+00  3.4536533E+01
 5.4682503E+00  3.4651573E+01
 5.4797502E+00  3.4655384E+01
 5.4912500E+00  3.4633633E+01
 5.5027504E+00  3.4622364E+01
 5.5142503E+00  3.4627308E+01
 5.5257502E+00  3.4790657E+01
 5.5372500E+00  3.4902622E+01
 5.5487504E+00  3.5019054E+01
 5.5602503E+00  3.5051537E+01
 5.5717502E+00  3.5004330E+01
 5.5832500E+00  3.4919060E+01
 5.5947504E+00  3.4893463E+01
 5.6062503E+00  3.4894726E+01
 5.6177502E+00  3.5022945E+01
 5.6292500E+00  3.4979515E+01
 5.6407504E+00  3.4931992E+01
 5.6522503E+00  3.4795723E+01
 5.6637502E+00  3.4910583E+01
 5.6752501E+00  3.5030819E+01
 5.6867504E+00  3.5115295E+01
 5.6982503E+00  3.5094650E+01
 5.7097502E+00  3.5098747E+01
 5.7212501E+00  3.5139450E+01
 5.7327504E+00  3.5152767E+01
 5.7442503E+00  3.5180626E+01
 5.7557502E+00  3.5299335E+01
 5.7672501E+00  3.5369503E+01
 5.7787504E+00  3.5425594E+01
 5.7902503E+00  3.5444199E+01
 5.8017502E+00  3.5393200E+01
 5.8132501E+00  3.5368145E+01
 5.8247504E+00  3.5491016E+01
 5.8362503E+00  3.5620720E+01
 5.8477502E+00  3.5728172E+01
 5.8592501E+00  3.5626434E+01
 5.8707504E+00  3.5636402E+01
 5.8822503E+00  3.5644783E+01
 5.8937502E+00  3.5810833E+01
 5.9052501E+00  3.5917095E+01
 5.9167504E+00  3.6095676E+01
 5.9282503E+00  3.6194717E+01
 5.9397502E+00  3.6665897E+01
 5.9512501E+00  3.7209679E+01
 5.9627504E+00  3.7737659E+01
 5.9742503E+00  3.8297558E+01
 5.9857502E+00  3.8351994E+01
 5.9972501E+00  3.8619160E+01
 6.0087504E+00  3.8223228E+01
 6.0202503E+00  3.7999428E+01
 6.0317502E+00  3.7391773E+01
 6.0432501E+00  3.6993435E+01
 6.0547504E+00  3.6479351E+01
 6.0662503E+00  3.6346951E+01
 6.0777502E+00  3.6184666E+01
 6.0892501E+00  3.6306892E+01
 6.1007504E+00  3.6280586E+01
 6.1122503E+00  3.6347256E+01
 6.1237502E+00  3.6347324E+01
 6.1352501E+00  3.6269096E+01
 6.1467505E+00  3.6307674E+01
 6.1582503E+00  3.6414940E+01
 6.1697502E+00  3.6552139E+01
 6.1812501E+00  3.6642941E+01
 6.1927505E+00  3.6708500E+01
 6.2042503E+00  3.6814022E+01
 6.2157502E+00  3.6975109E+01
 6.2272501E+00  3.7145912E+01
 6.2387505E+00  3.7204170E+01
 6.2502503E+00  3.7233109E+01
 6.2617502E+00  3.7241295E+01
 6.2732501E+00  3.7322269E+01
 6.2847505E+00  3.7366985E+01
 6.2962503E+00  3.7366402E+01
 6.3077502E+00  3.7392559E+01
 6.3192501E+00  3.7409927E+01
 6.3307505E+00  3.7537296E+01
 6.3422503E+00  3.7581196E+01
 6.3537502E+00  3.7678169E+01
 6.3652501E+00  3.7803379E+01
 6.3767505E+00  3.7949932E+01
 6.3882504E+00  3.8088974E+01
 6.3997502E+00  3.8122826E+01
 6.4112501E+00  3.8245804E+01
 6.4227505E+00  3.8370090E+01
 6.4342504E+00  3.8540710E+01
 6.4457502E+00  3.8643250E+01
 6.4572501E+00  3.8712086E+01
 6.4687505E+00  3.8725002E+01
 6.4802504E+00  3.8761673E+01
 6.4917502E+00  3.8865280E+01
 6.5032501E+00  3.9007614E+01
 6.5147505E+00  3.9191513E+01
 6.5262504E+00  3.9289677E+01
 6.5377502E+00  3.9525322E+01
 6.5492501E+00  3.9512218E+01
 6.5607505E+00  3.9582653E+01
 6.5722504E+00  3.9551899E+01
 6.5837502E+00  3.9667587E+01
 6.5952501E+00  3.9667595E+01
 6.6067505E+00  3.9769112E+01
 6.6182504E+00  3.9868767E+01
 6.6297503E+00  3.9959553E+01
 6.6412501E+00  3.9953312E+01
 6.6527505E+00  4.0005795E+01
 6.6642504E+00  4.0101685E+01
 6.6757503E+00  4.0207390E+01
 6.6872501E+00  4.0250206E+01
 6.6987505E+00  4.0327900E+01
 6.7102504E+00  4.0311405E+01
 6.7217503E+00  4.0337971E+01
 6.7332501E+00  4.0338581E+01
 6.7447505E+00  4.0424957E+01
 6.7562504E+00  4.0623295E+01
 6.7677503E+00  4.0722683E+01
 6.7792501E+00  4.0847725E+01
 6.7907505E+00  4.0788807E+01
 6.8022504E+00  4.0821728E+01
 6.8137503E+00  4.0977177E+01
 6.8252501E+00  4.1243286E+01
 6.8367505E+00  4.1423115E+01
 6.8482504E+00  4.1584648E+01
 6.8597503E+00  4.1659039E+01
 6.8712502E+00  4.1907928E+01
 6.8827505E+00  4.1959480E+01
 6.8942504E+00  4.2006863E+01
 6.9057503E+00  4.2047649E+01
 6.9172502E+00  4.2056229E+01
 6.9287505E+00  4.2017735E+01
 6.9402504E+00  4.1997448E+01
 6.9517503E+00  4.2042480E+01
 6.9632502E+00  4.2131695E+01
 6.9747505E+00  4.2078823E+01
 6.9862504E+00  4.2024048E+01
 6.9977503E+00  4.2016823E+01
 7.0092502E+00  4.2077400E+01
 7.0207505E+00  4.2228344E+01
 7.0322504E+00  4.2338787E+01
 7.0437503E+00  4.2479271E+01
 7.0552502E+00  4.2553371E+01
 7.0667505E+00  4.2717159E+01
 7.0782504E+00  4.2751823E+01
 7.0897503E+00  4.2823784E+01
 7.1012502E+00  4.2870178E+01
 7.1127505E+00  4.2858112E+01
 7.1242504E+00  4.2957500E+01
 7.1357503E+00  4.2947445E+01
 7.1472502E+00  4.2996643E+01
 7.1587505E+00  4.2962208E+01
 7.1702504E+00  4.2934662E+01
 7.1817503E+00  4.2970047E+01
 7.1932502E+00  4.2958958E+01
 7.2047505E+00  4.3034573E+01
 7.2162504E+00  4.3138733E+01
 7.2277503E+00  4.3315563E+01
 7.2392502E+00  4.3459240E+01
 7.2507505E+00  4.3603313E+01
 7.2622504E+00  4.3617958E+01
 7.2737503E+00  4.3542744E+01
 7.2852502E+00  4.3465816E+01
 7.2967505E+00  4.3470352E+01
 7.3082504E+00  4.3527073E+01
 7.3197503E+00  4.3640976E+01
 7.3312502E+00  4.3687107E+01
 7.3427505E+00  4.3754063E+01
 7.3542504E+00  4.3672348E+01
 7.3657503E+00  4.3742409E+01
 7.3772502E+00  4.3841652E+01
 7.3887506E+00  4.3934559E+01
 7.4002504E+00  4.4040020E+01
 7.4117503E+00  4.3989872E+01
 7.4232502E+00  4.3921066E+01
 7.4347506E+00  4.3851036E+01
 7.4462504E+00  4.3882446E+01
 7.4577503E+00  4.4028370E+01
 7.4692502E+00  4.4103611E+01
 7.4807506E+00  4.4186138E+01
 7.4922504E+00  4.4306679E+01
 7.5037503E+00  4.4348541E+01
 7.5152502E+00  4.4345066E+01
 7.5267506E+00  4.4329700E+01
 7.5382504E+00  4.4367287E+01
 7.5497503E+00  4.4386528E+01
 7.5612502E+00  4.4400257E+01
 7.5727506E+00  4.4370178E+01
 7.5842505E+00  4.4364986E+01
 7.5957503E+00  4.4325188E+01
 7.6072502E+00  4.4215057E+01
 7.6187506E+00  4.4201820E+01
 7.6302505E+00  4.4188026E+01
 7.6417503E+00  4.4235645E+01
 7.6532502E+00  4.4233917E+01
 7.6647506E+00  4.4092445E+01
 7.6762505E+00  4.4048985E+01
 7.6877503E+00  4.3981297E+01
 7.6992502E+00  4.4010208E+01
 7.7107506E+00  4.4037083E+01
 7.7222505E+00  4.4146675E+01
 7.7337503E+00  4.4168804E+01
 7.7452502E+00  4.4161572E+01
 7.7567506E+00  4.4187382E+01
 7.7682505E+00  4.4271832E+01
 7.7797503E+00  4.4405823E+01
 7.7912502E+00  4.4286652E+01
 7.8027506E+00  4.4238705E+01
 7.8142505E+00  4.4034859E+01
 7.8257504E+00  4.4041183E+01
 7.8372502E+00  4.3896713E+01
 7.8487506E+00  4.3936798E+01
 7.8602505E+00  4.3882130E+01
 7.8717504E+00  4.3887608E+01
 7.8832502E+00  4.3777157E+01
 7.8947506E+00  4.3782444E+01
 7.9062505E+00  4.3715019E+01
 7.9177504E+00  4.3699268E+01
 7.9292502E+00  4.3600876E+01
 7.9407506E+00  4.3596363E+01
 7.9522505E+00  4.3562328E+01
 7.9637504E+00  4.3440166E+01
 7.9752502E+00  4.3373539E+01
 7.9867506E+00  4.3343754E+01
 7.9982505E+00  4.3348251E+01
 8.0097504E+00  4.3234135E+01
 8.0212507E+00  4.3218189E+01
 8.0327501E+00  4.3189564E+01
 8.0442505E+00  4.3180668E+01
 8.0557508E+00  4.3134888E+01
 8.0672503E+00  4.3011654E+01
 8.0787506E+00  4.2932358E+01
 8.0902500E+00  4.2848118E+01
 8.1017504E+00  4.2797321E+01
 8.1132507E+00  4.2745960E+01
 8.1247501E+00  4.2683128E+01
 8.1362505E+00  4.2610203E+01
 8.1477509E+00  4.2543331E+01
 8.1592503E+00  4.2444889E+01
 8.1707506E+00  4.2446861E+01
 8.1822500E+00  4.2230568E+01
 8.1937504E+00  4.1993587E+01
 8.2052507E+00  4.1718845E+01
 8.2167501E+00  4.1429699E+01
 8.2282505E+00  4.1322109E+01
 8.2397509E+00  4.1110699E+01
 8.2512503E+00  4.1136459E+01
 8.2627506E+00  4.1027515E+01
 8.2742500E+00  4.0990047E+01
 8.2857504E+00  4.0924885E+01
 8.2972507E+00  4.0820442E+01
 8.3087502E+00  4.0623310E+01
 8.3202505E+00  4.0476898E+01
 8.3317509E+00  4.0344318E+01
 8.3432503E+00  4.0205097E+01
 8.3547506E+00  4.0051666E+01
 8.3662500E+00  3.9788418E+01
 8.3777504E+00  3.9570827E+01
 8.3892508E+00  3.9405510E+01
 8.4007502E+00  3.9164948E+01
 8.4122505E+00  3.9034332E+01
 8.4237509E+00  3.8805740E+01
 8.4352503E+00  3.8703400E+01
 8.4467506E+00  3.8567837E+01
 8.4582500E+00  3.8405174E+01
 8.4697504E+00  3.8299576E+01
 8.4812508E+00  3.8192112E+01
 8.4927502E+00  3.8115925E+01
 8.5042505E+00  3.8045921E+01
 8.5157509E+00  3.7870884E+01
 8.5272503E+00  3.7724949E+01
 8.5387506E+00  3.7578426E+01
 8.5502501E+00  3.7396385E+01
 8.5617504E+00  3.7154713E+01
 8.5732508E+00  3.6899708E+01
 8.5847502E+00  3.6627567E+01
 8.5962505E+00  3.6390247E+01
 8.6077509E+00  3.6130013E+01
 8.6192503E+00  3.5943596E+01
 8.6307507E+00  3.5810764E+01
 8.6422501E+00  3.5648106E+01
 8.6537504E+00  3.5393593E+01
 8.6652508E+00  3.5122849E+01
 8.6767502E+00  3.4917313E+01
 8.6882505E+00  3.4771019E+01
 8.6997509E+00  3.4688332E+01
 8.7112503E+00  3.4522530E+01
 8.7227507E+00  3.4369030E+01
 8.7342501E+00  3.4144535E+01
 8.7457504E+00  3.3961815E+01
 8.7572508E+00  3.3825626E+01
 8.7687502E+00  3.3659782E+01
 8.7802505E+00  3.3504494E+01
 8.7917500E+00  3.3346703E+01
 8.8032503E+00  3.3224533E+01
 8.8147507E+00  3.3175331E+01
 8.8262501E+00  3.3050686E+01
 8.8377504E+00  3.2966541E+01
 8.8492508E+00  3.2764454E+01
 8.8607502E+00  3.2632687E+01
 8.8722506E+00  3.2421886E+01
 8.8837500E+00  3.2205479E+01
 8.8952503E+00  3.2018024E+01
 8.9067507E+00  3.1906507E+01
 8.9182501E+00  3.1869413E+01
 8.9297504E+00  3.1757305E+01
 8.9412508E+00  3.1608227E+01
 8.9527502E+00  3.1421379E+01
 8.9642506E+00  3.1164190E+01
 8.9757500E+00  3.0981358E+01
 8.9872503E+00  3.0755417E+01
 8.9987507E+00  3.0630108E+01
 9.0102501E+00  3.0477695E+01
 9.0217505E+00  3.0306665E+01
 9.0332508E+00  3.0219465E+01
 9.0447502E+00  3.0120510E+01
 9.0562506E+00  3.0000769E+01
 9.0677500E+00  2.9866152E+01
 9.0792503E+00  2.9734842E+01
 9.0907507E+00  2.9607874E+01
 9.1022501E+00  2.9444208E+01
 9.1137505E+00  2.9290100E+01
 9.1252508E+00  2.9186964E+01
 9.1367502E+00  2.9116611E+01
 9.1482506E+00  2.9036945E+01
 9.1597500E+00  2.8928057E+01
 9.1712503E+00  2.8866636E+01
 9.1827507E+00  2.8831774E+01
 9.1942501E+00  2.8757347E+01
 9.2057505E+00  2.8602734E+01
 9.2172508E+00  2.8438021E+01
 9.2287502E+00  2.8190697E+01
 9.2402506E+00  2.8062660E+01
 9.2517500E+00  2.7893398E+01
 9.2632504E+00  2.7881809E+01
 9.2747507E+00  2.7753847E+01
 9.2862501E+00  2.7659101E+01
 9.2977505E+00  2.7538830E+01
 9.3092508E+00  2.7427851E+01
 9.3207502E+00  2.7334654E+01
 9.3322506E+00  2.7274071E+01
 9.3437500E+00  2.7228727E+01
 9.3552504E+00  2.7183714E+01
 9.3667507E+00  2.7161280E+01
 9.3782501E+00  2.7127678E+01
 9.3897505E+00  2.7130535E+01
 9.4012508E+00  2.7093300E+01
 9.4127502E+00  2.7044647E+01
 9.4242506E+00  2.6861362E+01
 9.4357500E+00  2.6725962E+01
 9.4472504E+00  2.6578768E+01
 9.4587507E+00  2.6503807E+01
 9.4702501E+00  2.6443428E+01
 9.4817505E+00  2.6436272E+01
 9.4932508E+00  2.6364902E+01
 9.5047503E+00  2.6319096E+01
 9.5162506E+00  2.6231569E+01
 9.5277500E+00  2.6137659E+01
 9.5392504E+00  2.6006145E+01
 9.5507507E+00  2.5854160E+01
 9.5622501E+00  2.5745207E+01
 9.5737505E+00  2.5638195E+01
 9.5852509E+00  2.5623350E+01
 9.5967503E+00  2.5650991E+01
 9.6082506E+00  2.5675312E+01
 9.6197500E+00  2.5667374E+01
 9.6312504E+00  2.5588526E+01
 9.6427507E+00  2.5479757E+01
 9.6542501E+00  2.5380875E+01
 9.6657505E+00  2.5317633E+01
 9.6772509E+00  2.5238113E+01
 9.6887503E+00  2.5129280E+01
 9.7002506E+00  2.5063009E+01
 9.7117500E+00  2.4997372E+01
 9.7232504E+00  2.4994833E+01
 9.7347507E+00  2.4957056E+01
 9.7462502E+00  2.4964758E+01
 9.7577505E+00  2.4918678E+01
 9.7692509E+00  2.4891209E+01
 9.7807503E+00  2.4851959E+01
 9.7922506E+00  2.4794806E+01
 9.8037500E+00  2.4815235E+01
 9.8152504E+00  2.4773071E+01
 9.8267508E+00  2.4759600E+01
 9.8382502E+00  2.4686567E+01
 9.8497505E+00  2.4568140E+01
 9.8612509E+00  2.4483469E+01
 9.8727503E+00  2.4430784E+01
 9.8842506E+00  2.4431101E+01
 9.8957500E+00  2.4449402E+01
 9.9072504E+00  2.4354084E+01
 9.9187508E+00  2.4326857E+01
 9.9302502E+00  2.4286467E+01
 9.9417505E+00  2.4279490E+01
 9.9532509E+00  2.4234499E+01
 9.9647503E+00  2.4217264E+01
 9.9762506E+00  2.4220388E+01
 9.9877501E+00  2.4209440E+01
 9.9992504E+00  2.4271448E+01
 1.0010751E+01  2.4317314E+01
 1.0022250E+01  2.4326979E+01
 1.0033751E+01  2.4245289E+01
 1.0045251E+01  2.4127844E+01
 1.0056750E+01  2.4148796E+01
 1.0068251E+01  2.4115271E+01
 1.0079750E+01  2.4016010E+01
 1.0091250E+01  2.3908375E+01
 1.0102751E+01  2.3841331E+01
 1.0114250E+01  2.3813887E+01
 1.0125751E+01  2.3790920E+01
 1.0137251E+01  2.3791183E+01
 1.0148750E+01  2.3844564E+01
 1.0160251E+01  2.3846909E+01
 1.0171750E+01  2.3804836E+01
 1.0183250E+01  2.3766905E+01
 1.0194751E+01  2.3664577E+01
 1.0206250E+01  2.3563776E+01
 1.0217751E+01  2.3503088E+01
 1.0229251E+01  2.3518330E+01
 1.0240750E+01  2.3507612E+01
 1.0252251E+01  2.3473488E+01
 1.0263750E+01  2.3407375E+01
 1.0275250E+01  2.3389305E+01
 1.0286751E+01  2.3341341E+01
 1.0298250E+01  2.3351469E+01
 1.0309751E+01  2.3350538E+01
 1.0321251E+01  2.3313679E+01
 1.0332750E+01  2.3319178E+01
 1.0344251E+01  2.3267130E+01
 1.0355750E+01  2.3245380E+01
 1.0367250E+01  2.3191977E+01
 1.0378751E+01  2.3191248E+01
 1.0390250E+01  2.3216497E+01
 1.0401751E+01  2.3216475E+01
 1.0413251E+01  2.3159901E+01
 1.0424750E+01  2.3117662E+01
 1.0436251E+01  2.3062885E+01
 1.0447750E+01  2.3054472E+01
 1.0459250E+01  2.3042675E+01
 1.0470751E+01  2.3038593E+01
 1.0482250E+01  2.3070936E+01
 1.0493751E+01  2.3106955E+01
 1.0505251E+01  2.3094662E+01
 1.0516750E+01  2.3048895E+01
 1.0528251E+01  2.2919952E+01
 1.0539750E+01  2.2895536E+01
 1.0551250E+01  2.2820843E+01
 1.0562751E+01  2.2857906E+01
 1.0574250E+01  2.2781170E+01
 1.0585751E+01  2.2736191E+01
 1.0597251E+01  2.2672335E+01
 1.0608750E+01  2.2626717E+01
 1.0620251E+01  2.2656982E+01
 1.0631750E+01  2.2734880E+01
 1.0643250E+01  2.2827726E+01
 1.0654751E+01  2.2875193E+01
 1.0666250E+01  2.2901890E+01
 1.0677751E+01  2.2906313E+01
 1.0689251E+01  2.2840805E+01
 1.0700750E+01  2.2790993E+01
 1.0712251E+01  2.2705946E+01
 1.0723750E+01  2.2770525E+01
 1.0735250E+01  2.2690294E+01
 1.0746751E+01  2.2728872E+01
 1.0758250E+01  2.2657862E+01
 1.0769751E+01  2.2665283E+01
 1.0781251E+01  2.2654684E+01
 1.0792750E+01  2.2607357E+01
 1.0804251E+01  2.2588633E+01
 1.0815750E+01  2.2554977E+01
 1.0827250E+01  2.2597197E+01
 1.0838751E+01  2.2623802E+01
 1.0850250E+01  2.2636185E+01
 1.0861751E+01  2.2623047E+01
 1.0873251E+01  2.2600142E+01
 1.0884750E+01  2.2551680E+01
 1.0896251E+01  2.2528336E+01
 1.0907750E+01  2.2575865E+01
 1.0919250E+01  2.2557764E+01
 1.0930751E+01  2.2629911E+01
 1.0942250E+01  2.2654263E+01
 1.0953751E+01  2.2692862E+01
 1.0965251E+01  2.2644650E+01
 1.0976750E+01  2.2546841E+01
 1.0988251E+01  2.2441185E+01
 1.0999750E+01  2.2354074E+01
 1.1011250E+01  2.2280005E+01
 1.1022751E+01  2.2294197E+01
 1.1034250E+01  2.2228741E+01
 1.1045751E+01  2.2204268E+01
 1.1057251E+01  2.2191582E+01
 1.1068750E+01  2.2241919E+01
 1.1080251E+01  2.2255970E+01
 1.1091750E+01  2.2243036E+01
 1.1103251E+01  2.2259634E+01
 1.1114751E+01  2.2263340E+01
 1.1126250E+01  2.2306652E+01
 1.1137751E+01  2.2249470E+01
 1.1149251E+01  2.2265554E+01
 1.1160750E+01  2.2275711E+01
 1.1172251E+01  2.2307329E+01
 1.1183750E+01  2.2309891E+01
 1.1195251E+01  2.2301588E+01
 1.1206751E+01  2.2306299E+01
 1.1218250E+01  2.2312180E+01
 1.1229751E+01  2.2259504E+01
 1.1241251E+01  2.2207249E+01
 1.1252750E+01  2.2171516E+01
 1.1264251E+01  2.2134689E+01
 1.1275750E+01  2.2109821E+01
 1.1287251E+01  2.2075686E+01
 1.1298751E+01  2.2084700E+01
 1.1310250E+01  2.2103294E+01
 1.1321751E+01  2.2079067E+01
 1.1333251E+01  2.2044062E+01
 1.1344750E+01  2.2048761E+01
 1.1356251E+01  2.2070532E+01
 1.1367750E+01  2.2130716E+01
 1.1379251E+01  2.2189627E+01
 1.1390751E+01  2.2246870E+01
 1.1402250E+01  2.2370979E+01
 1.1413751E+01  2.2380568E+01
 1.1425251E+01  2.2464994E+01
 1.1436750E+01  2.2449577E+01
 1.1448251E+01  2.2490114E+01
 1.1459750E+01  2.2461403E+01
 1.1471251E+01  2.2442549E+01
 1.1482751E+01  2.2370445E+01
 1.1494250E+01  2.2328926E+01
 1.1505751E+01  2.2273731E+01
 1.1517251E+01  2.2405020E+01
 1.1528750E+01  2.2589630E+01
 1.1540251E+01  2.2870275E+01
 1.1551750E+01  2.3127796E+01
 1.1563251E+01  2.3389450E+01
 1.1574751E+01  2.3675352E+01
 1.1586250E+01  2.3828703E+01
 1.1597751E+01  2.3849840E+01
 1.1609251E+01  2.3708004E+01
 1.1620750E+01  2.3454466E+01
 1.1632251E+01  2.3150974E+01
 1.1643750E+01  2.2783812E+01
 1.1655251E+01  2.2547825E+01
 1.1666751E+01  2.2349764E+01
 1.1678250E+01  2.2289450E+01
 1.1689751E+01  2.2201212E+01
 1.1701251E+01  2.2181910E+01
 1.1712750E+01  2.2117550E+01
 1.1724251E+01  2.2105717E+01
 1.1735750E+01  2.2109411E+01
 1.1747251E+01  2.2144348E+01
 1.1758751E+01  2.2158186E+01
 1.1770250E+01  2.2129402E+01
 1.1781751E+01  2.2158562E+01
 1.1793251E+01  2.2157715E+01
 1.1804750E+01  2.2212387E+01
 1.1816251E+01  2.2236385E+01
 1.1827750E+01  2.2307796E+01
 1.1839251E+01  2.2346525E+01
 1.1850751E+01  2.2346210E+01
 1.1862250E+01  2.2319336E+01
 1.1873751E+01  2.2328827E+01
 1.1885251E+01  2.2299253E+01
 1.1896750E+01  2.2333536E+01
 1.1908251E+01  2.2319515E+01
 1.1919750E+01  2.2366196E+01
 1.1931251E+01  2.2409128E+01
 1.1942751E+01  2.2481634E+01
 1.1954250E+01  2.2533400E+01
 1.1965751E+01  2.2591146E+01
 1.1977251E+01  2.2601919E+01
 1.1988750E+01  2.2585670E+01
 1.2000251E+01  2.2531448E+01
 1.2011750E+01  2.2489689E+01
 1.2023251E+01  2.2474339E+01
 1.2034751E+01  2.2488409E+01
 1.2046250E+01  2.2506020E+01
 1.2057751E+01  2.2560257E+01
 1.2069251E+01  2.2653255E+01
 1.2080750E+01  2.2721771E+01
 1.2092251E+01  2.2771175E+01
 1.2103750E+01  2.2800262E+01
 1.2115251E+01  2.2748333E+01
 1.2126751E+01  2.2678434E+01
 1.2138250E+01  2.2593206E+01
 1.2149751E+01  2.2525230E+01
 1.2161251E+01  2.2440136E+01
 1.2172750E+01  2.2351137E+01
 1.2184251E+01  2.2350039E+01
 1.2195750E+01  2.2348778E+01
 1.2207251E+01  2.2339424E+01
 1.2218751E+01  2.2315163E+01
 1.2230250E+01  2.2281950E+01
 1.2241751E+01  2.2255184E+01
 1.2253251E+01  2.2228739E+01
 1.2264750E+01  2.2211166E+01
 1.2276251E+01  2.2152098E+01
 1.2287750E+01  2.2126829E+01
 1.2299251E+01  2.2143055E+01
 1.2310751E+01  2.2203997E+01
 1.2322250E+01  2.2198782E+01
 1.2333751E+01  2.2210398E+01
 1.2345250E+01  2.2188425E+01
 1.2356750E+01  2.2292927E+01
 1.2368251E+01  2.2303175E+01
 1.2379750E+01  2.2368109E+01
 1.2391251E+01  2.2396349E+01
 1.2402751E+01  2.2407167E+01
 1.2414250E+01  2.2383211E+01
 1.2425751E+01  2.2300337E+01
 1.2437250E+01  2.2349197E+01
 1.2448750E+01  2.2353840E+01
 1.2460251E+01  2.2391304E+01
 1.2471750E+01  2.2343252E+01
 1.2483251E+01  2.2347576E+01
 1.2494751E+01  2.2328857E+01
 1.2506250E+01  2.2324274E+01
 1.2517751E+01  2.2336243E+01
 1.2529250E+01  2.2380287E+01
 1.2540751E+01  2.2400829E+01
 1.2552251E+01  2.2431473E+01
 1.2563750E+01  2.2428850E+01
 1.2575251E+01  2.2443983E+01
 1.2586751E+01  2.2443012E+01
 1.2598250E+01  2.2467854E+01
 1.2609751E+01  2.2493217E+01
 1.2621250E+01  2.2543612E+01
 1.2632751E+01  2.2560066E+01
 1.2644251E+01  2.2584394E+01
 1.2655750E+01  2.2589743E+01
 1.2667251E+01  2.2634888E+01
 1.2678751E+01  2.2685030E+01
 1.2690250E+01  2.2709774E+01
 1.2701751E+01  2.2741276E+01
 1.2713250E+01  2.2806158E+01
 1.2724751E+01  2.2794327E+01
 1.2736251E+01  2.2782228E+01
 1.2747750E+01  2.2762495E+01
 1.2759251E+01  2.2799131E+01
 1.2770751E+01  2.2815319E+01
 1.2782250E+01  2.2847399E+01
 1.2793751E+01  2.2825882E+01
 1.2805250E+01  2.2888708E+01
 1.2816751E+01  2.2947046E+01
 1.2828251E+01  2.3080368E+01
 1.2839750E+01  2.3133276E+01
 1.2851251E+01  2.3162344E+01
 1.2862751E+01  2.3146048E+01
 1.2874250E+01  2.3149124E+01
 1.2885751E+01  2.3168056E+01
 1.2897250E+01  2.3173439E+01
 1.2908751E+01  2.3232576E+01
 1.2920251E+01  2.3236254E+01
 1.2931750E+01  2.3326231E+01
 1.2943251E+01  2.3335096E+01
 1.2954751E+01  2.3398190E+01
 1.2966250E+01  2.3460560E+01
 1.2977751E+01  2.3506601E+01
 1.2989250E+01  2.3575855E+01
 1.3000751E+01  2.3714500E+01
 1.3012251E+01  2.3796890E+01
 1.3023750E+01  2.3844021E+01
 1.3035251E+01  2.3839899E+01
 1.3046751E+01  2.3933416E+01
 1.3058250E+01  2.4078119E+01
 1.3069751E+01  2.4168921E+01
 1.3081250E+01  2.4281145E+01
 1.3092751E+01  2.4346188E+01
 1.3104251E+01  2.4452665E+01
 1.3115750E+01  2.4567678E+01
 1.3127251E+01  2.4651489E+01
 1.3138751E+01  2.4742304E+01
 1.3150250E+01  2.4895088E+01
 1.3161751E+01  2.5051050E+01
 1.3173250E+01  2.5205715E+01
 1.3184751E+01  2.5298222E+01
 1.3196251E+01  2.5445557E+01
 1.3207750E+01  2.5612108E+01
 1.3219251E+01  2.5790085E+01
 1.3230751E+01  2.5984619E+01
 1.3242250E+01  2.6163834E+01
 1.3253751E+01  2.6186834E+01
 1.3265250E+01  2.6248297E+01
 1.3276751E+01  2.6285139E+01
 1.3288251E+01  2.6462727E+01
 1.3299750E+01  2.6588535E+01
 1.3311251E+01  2.6742504E+01
 1.3322751E+01  2.6907858E+01
 1.3334250E+01  2.7075163E+01
 1.3345751E+01  2.7231672E+01
 1.3357250E+01  2.7437536E+01
 1.3368751E+01  2.7576725E+01
 1.3380251E+01  2.7737263E+01
 1.3391750E+01  2.7888573E+01
 1.3403251E+01  2.7995184E+01
 1.3414751E+01  2.8083918E+01
 1.3426250E+01  2.8110264E+01
 1.3437751E+01  2.8238564E+01
 1.3449250E+01  2.8370924E+01
 1.3460751E+01  2.8547901E+01
 1.3472251E+01  2.8646389E+01
 1.3483750E+01  2.8793142E+01
 1.3495251E+01  2.8904047E+01
 1.3506751E+01  2.9093422E+01
 1.3518250E+01  2.9173119E+01
 1.3529751E+01  2.9293280E+01
 1.3541250E+01  2.9339573E+01
 1.3552751E+01  2.9392845E+01
 1.3564251E+01  2.9386473E+01
 1.3575750E+01  2.9390247E+01
 1.3587251E+01  2.9467484E+01
 1.3598751E+01  2.9460247E+01
 1.3610250E+01  2.9473043E+01
 1.3621751E+01  2.9415236E+01
 1.3633250E+01  2.9406940E+01
 1.3644751E+01  2.9395298E+01
 1.3656251E+01  2.9401489E+01
 1.3667750E+01  2.9426311E+01
 1.3679251E+01  2.9506557E+01
 1.3690751E+01  2.9553833E+01
 1.3702250E+01  2.9555166E+01
 1.3713751E+01  2.9502491E+01
 1.3725250E+01  2.9467554E+01
 1.3736751E+01  2.9453028E+01
 1.3748251E+01  2.9361601E+01
 1.3759750E+01  2.9285181E+01
 1.3771251E+01  2.9255812E+01
 1.3782751E+01  2.9194353E+01
 1.3794250E+01  2.9087774E+01
 1.3805751E+01  2.8999435E+01
 1.3817250E+01  2.8873484E+01
 1.3828751E+01  2.8835985E+01
 1.3840251E+01  2.8752220E+01
 1.3851750E+01  2.8773760E+01
 1.3863251E+01  2.8714485E+01
 1.3874751E+01  2.8632076E+01
 1.3886250E+01  2.8576712E+01
 1.3897751E+01  2.8672005E+01
 1.3909250E+01  2.8843470E+01
 1.3920751E+01  2.9063719E+01
 1.3932251E+01  2.9205408E+01
 1.3943750E+01  2.9314230E+01
 1.3955251E+01  2.9419537E+01
 1.3966751E+01  2.9303106E+01
 1.3978251E+01  2.9121279E+01
 1.3989751E+01  2.8715670E+01
 1.4001250E+01  2.8379374E+01
 1.4012751E+01  2.8009729E+01
 1.4024251E+01  2.7744476E+01
 1.4035750E+01  2.7506607E+01
 1.4047251E+01  2.7397284E+01
 1.4058751E+01  2.7303827E+01
 1.4070251E+01  2.7279715E+01
 1.4081751E+01  2.7151564E+01
 1.4093250E+01  2.7044155E+01
 1.4104751E+01  2.6980026E+01
 1.4116251E+01  2.6957300E+01
 1.4127750E+01  2.6930655E+01
 1.4139251E+01  2.6881655E+01
 1.4150751E+01  2.6790407E+01
 1.4162251E+01  2.6726929E+01
 1.4173751E+01  2.6579020E+01
 1.4185250E+01  2.6518665E+01
 1.4196751E+01  2.6441351E+01
 1.4208251E+01  2.6381947E+01
 1.4219750E+01  2.6306787E+01
 1.4231251E+01  2.6208151E+01
 1.4242751E+01  2.6194565E+01
 1.4254251E+01  2.6183859E+01
 1.4265751E+01  2.6231977E+01
 1.4277250E+01  2.6187824E+01
 1.4288751E+01  2.6171419E+01
 1.4300251E+01  2.6122227E+01
 1.4311750E+01  2.6101763E+01
 1.4323251E+01  2.6018478E+01
 1.4334751E+01  2.5972271E+01
 1.4346251E+01  2.5975363E+01
 1.4357751E+01  2.6014381E+01
 1.4369250E+01  2.6039541E+01
 1.4380751E+01  2.5991583E+01
 1.4392251E+01  2.5937279E+01
 1.4403750E+01  2.5790829E+01
 1.4415251E+01  2.5646000E+01
 1.4426751E+01  2.5550011E+01
 1.4438251E+01  2.5557045E+01
 1.4449751E+01  2.5588589E+01
 1.4461250E+01  2.5592680E+01
 1.4472751E+01  2.5591581E+01
 1.4484251E+01  2.5549604E+01
 1.4495750E+01  2.5515806E+01
 1.4507251E+01  2.5455427E+01
 1.4518751E+01  2.5460680E+01
 1.4530251E+01  2.5432541E+01
 1.4541751E+01  2.5403513E+01
 1.4553250E+01  2.5371407E+01
 1.4564751E+01  2.5379807E+01
 1.4576251E+01  2.5378571E+01
 1.4587750E+01  2.5368019E+01
 1.4599251E+01  2.5301701E+01
 1.4610751E+01  2.5297153E+01
 1.4622251E+01  2.5237236E+01
 1.4633751E+01  2.5188250E+01
 1.4645250E+01  2.5100952E+01
 1.4656751E+01  2.4992697E+01
 1.4668251E+01  2.4873512E+01
 1.4679750E+01  2.4795185E+01
 1.4691251E+01  2.4795933E+01
 1.4702751E+01  2.4857645E+01
 1.4714251E+01  2.4892855E+01
 1.4725751E+01  2.4913912E+01
 1.4737250E+01  2.4929579E+01
 1.4748751E+01  2.4934650E+01
 1.4760251E+01  2.4913366E+01
 1.4771750E+01  2.4891323E+01
 1.4783251E+01  2.4821138E+01
 1.4794751E+01  2.4843414E+01
 1.4806251E+01  2.4860939E+01
 1.4817751E+01  2.4883854E+01
 1.4829250E+01  2.4854118E+01
 1.4840751E+01  2.4830776E+01
 1.4852251E+01  2.4811771E+01
 1.4863750E+01  2.4719927E+01
 1.4875251E+01  2.4634066E+01
 1.4886751E+01  2.4598305E+01
 1.4898251E+01  2.4626438E+01
 1.4909751E+01  2.4655607E+01
 1.4921250E+01  2.4673140E+01
 1.4932751E+01  2.4707716E+01
 1.4944251E+01  2.4701797E+01
 1.4955750E+01  2.4727650E+01
 1.4967251E+01  2.4722609E+01
 1.4978751E+01  2.4750368E+01
 1.4990251E+01  2.4676809E+01
 1.5001751E+01  2.4637489E+01
 1.5013250E+01  2.4597553E+01
 1.5024751E+01  2.4630035E+01
 1.5036251E+01  2.4555134E+01
 1.5047750E+01  2.4523695E+01
 1.5059251E+01  2.4494495E+01
 1.5070751E+01  2.4546276E+01
 1.5082251E+01  2.4521198E+01
 1.5093751E+01  2.4478598E+01
 1.5105250E+01  2.4433174E+01
 1.5116751E+01  2.4384026E+01
 1.5128251E+01  2.4339872E+01
 1.5139750E+01  2.4371178E+01
 1.5151251E+01  2.4473988E+01
 1.5162751E+01  2.4620178E+01
 1.5174251E+01  2.4687569E+01
 1.5185751E+01  2.4756538E+01
 1.5197250E+01  2.4720310E+01
 1.5208751E+01  2.4734129E+01
 1.5220251E+01  2.4687826E+01
 1.5231750E+01  2.4645359E+01
 1.5243251E+01  2.4539972E+01
 1.5254751E+01  2.4488346E+01
 1.5266251E+01  2.4440350E+01
 1.5277751E+01  2.4423811E+01
 1.5289250E+01  2.4461987E+01
 1.5300751E+01  2.4494455E+01
 1.5312251E+01  2.4547441E+01
 1.5323750E+01  2.4508478E+01
 1.5335251E+01  2.4530279E+01
 1.5346751E+01  2.4503731E+01
 1.5358251E+01  2.4561726E+01
 1.5369751E+01  2.4509565E+01
 1.5381250E+01  2.4419668E+01
 1.5392751E+01  2.4307169E+01
 1.5404251E+01  2.4285440E+01
 1.5415751E+01  2.4285204E+01
 1.5427251E+01  2.4286232E+01
 1.5438751E+01  2.4278851E+01
 1.5450251E+01  2.4292492E+01
 1.5461751E+01  2.4298521E+01
 1.5473250E+01  2.4295927E+01
 1.5484751E+01  2.4330235E+01
 1.5496251E+01  2.4382782E+01
 1.5507751E+01  2.4407825E+01
 1.5519251E+01  2.4364363E+01
 1.5530751E+01  2.4287849E+01
 1.5542251E+01  2.4204830E+01
 1.5553751E+01  2.4156458E+01
 1.5565250E+01  2.4176123E+01
 1.5576751E+01  2.4232023E+01
 1.5588251E+01  2.4304817E+01
 1.5599751E+01  2.4292030E+01
 1.5611251E+01  2.4280920E+01
 1.5622751E+01  2.4205164E+01
 1.5634251E+01  2.4143156E+01
 1.5645751E+01  2.4103489E+01
 1.5657250E+01  2.4118328E+01
 1.5668751E+01  2.4177416E+01
 1.5680251E+01  2.4202171E+01
 1.5691751E+01  2.4233168E+01
 1.5703251E+01  2.4296635E+01
 1.5714751E+01  2.4325356E+01
 1.5726251E+01  2.4361530E+01
 1.5737751E+01  2.4307497E+01
 1.5749250E+01  2.4292484E+01
 1.5760751E+01  2.4283012E+01
 1.5772251E+01  2.4318521E+01
 1.5783751E+01  2.4334255E+01
 1.5795251E+01  2.4356892E+01
 1.5806751E+01  2.4376961E+01
 1.5818251E+01  2.4406853E+01
 1.5829751E+01  2.4383619E+01
 1.5841250E+01  2.4341038E+01
 1.5852751E+01  2.4336081E+01
 1.5864251E+01  2.4234505E+01
 1.5875751E+01  2.4253775E+01
 1.5887251E+01  2.4233456E+01
 1.5898750E+01  2.4345449E+01
 1.5910251E+01  2.4383690E+01
 1.5921751E+01  2.4387033E+01
 1.5933250E+01  2.4366711E+01
 1.5944751E+01  2.4306433E+01
 1.5956251E+01  2.4327776E+01
 1.5967751E+01  2.4349602E+01
 1.5979251E+01  2.4410820E+01
 1.5990750E+01  2.4437428E+01
 1.6002251E+01  2.4446239E+01
 1.6013750E+01  2.4445766E+01
 1.6025251E+01  2.4443787E+01
 1.6036751E+01  2.4471802E+01
 1.6048250E+01  2.4485184E+01
 1.6059752E+01  2.4514824E+01
 1.6071251E+01  2.4463350E+01
 1.6082750E+01  2.4511887E+01
 1.6094252E+01  2.4472464E+01
 1.6105751E+01  2.4550488E+01
 1.6117250E+01  2.4552126E+01
 1.6128750E+01  2.4620993E+01
 1.6140251E+01  2.4641806E+01
 1.6151751E+01  2.4603962E+01
 1.6163250E+01  2.4663706E+01
 1.6174751E+01  2.4654512E+01
 1.6186251E+01  2.4969187E+01
 1.6197750E+01  2.4940214E+01
 1.6209251E+01  2.5668013E+01
 1.6220751E+01  2.5839806E+01
 1.6232250E+01  2.6948359E+01
 1.6243752E+01  2.7380066E+01
 1.6255251E+01  2.7954554E+01
 1.6266750E+01  2.8064182E+01
 1.6278252E+01  2.7286480E+01
 1.6289751E+01  2.6996206E+01
 1.6301250E+01  2.5645935E+01
 1.6312750E+01  2.5555754E+01
 1.6324251E+01  2.4777651E+01
 1.6335751E+01  2.4835346E+01
 1.6347250E+01  2.4603716E+01
 1.6358751E+01  2.4628897E+01
 1.6370251E+01  2.4564732E+01
 1.6381750E+01  2.4583778E+01
 1.6393251E+01  2.4591171E+01
 1.6404751E+01  2.4589705E+01
 1.6416250E+01  2.4560110E+01
 1.6427752E+01  2.4514595E+01
 1.6439251E+01  2.4475876E+01
 1.6450750E+01  2.4493469E+01
 1.6462252E+01  2.4514473E+01
 1.6473751E+01  2.4524899E+01
 1.6485250E+01  2.4544750E+01
 1.6496750E+01  2.4605433E+01
 1.6508251E+01  2.4616913E+01
 1.6519751E+01  2.4608128E+01
 1.6531250E+01  2.4553106E+01
 1.6542751E+01  2.4540907E+01
 1.6554251E+01  2.4509340E+01
 1.6565750E+01  2.4499998E+01
 1.6577251E+01  2.4452477E+01
 1.6588751E+01  2.4471159E+01
 1.6600250E+01  2.4501331E+01
 1.6611752E+01  2.4561779E+01
 1.6623251E+01  2.4553900E+01
 1.6634750E+01  2.4578594E+01
 1.6646252E+01  2.4603800E+01
 1.6657751E+01  2.4623735E+01
 1.6669250E+01  2.4589251E+01
 1.6680750E+01  2.4544098E+01
 1.6692251E+01  2.4537781E+01
 1.6703751E+01  2.4496603E+01
 1.6715250E+01  2.4437738E+01
 1.6726751E+01  2.4400640E+01
 1.6738251E+01  2.4365240E+01
 1.6749750E+01  2.4374184E+01
 1.6761251E+01  2.4327202E+01
 1.6772751E+01  2.4323921E+01
 1.6784250E+01  2.4273920E+01
 1.6795752E+01  2.4243635E+01
 1.6807251E+01  2.4198469E+01
 1.6818750E+01  2.4156017E+01
 1.6830252E+01  2.4111744E+01
 1.6841751E+01  2.4084339E+01
 1.6853251E+01  2.4074123E+01
 1.6864750E+01  2.4118736E+01
 1.6876251E+01  2.4139826E+01
 1.6887751E+01  2.4163038E+01
 1.6899250E+01  2.4160225E+01
 1.6910751E+01  2.4177324E+01
 1.6922251E+01  2.4217281E+01
 1.6933750E+01  2.4203762E+01
 1.6945251E+01  2.4175941E+01
 1.6956751E+01  2.4143286E+01
 1.6968250E+01  2.4145987E+01
 1.6979752E+01  2.4102737E+01
 1.6991251E+01  2.4069193E+01
 1.7002750E+01  2.4047073E+01
 1.7014252E+01  2.4129108E+01
 1.7025751E+01  2.4156561E+01
 1.7037251E+01  2.4121799E+01
 1.7048750E+01  2.4079828E+01
 1.7060251E+01  2.4018324E+01
 1.7071751E+01  2.4020346E+01
 1.7083250E+01  2.3950422E+01
 1.7094751E+01  2.3941969E+01
 1.7106251E+01  2.3932837E+01
 1.7117750E+01  2.3940140E+01
 1.7129251E+01  2.3922146E+01
 1.7140751E+01  2.3911837E+01
 1.7152250E+01  2.3888548E+01
 1.7163752E+01  2.3883804E+01
 1.7175251E+01  2.3895201E+01
 1.7186750E+01  2.3924225E+01
 1.7198252E+01  2.4020502E+01
 1.7209751E+01  2.4027021E+01
 1.7221251E+01  2.4046701E+01
 1.7232750E+01  2.4000738E+01
 1.7244251E+01  2.3943575E+01
 1.7255751E+01  2.3811590E+01
 1.7267250E+01  2.3671215E+01
 1.7278751E+01  2.3640644E+01
 1.7290251E+01  2.3661314E+01
 1.7301750E+01  2.3770580E+01
 1.7313251E+01  2.3830688E+01
 1.7324751E+01  2.3896193E+01
 1.7336250E+01  2.3874752E+01
 1.7347752E+01  2.3837519E+01
 1.7359251E+01  2.3780022E+01
 1.7370750E+01  2.3737383E+01
 1.7382252E+01  2.3719852E+01
 1.7393751E+01  2.3715986E+01
 1.7405251E+01  2.3720747E+01
 1.7416750E+01  2.3723385E+01
 1.7428251E+01  2.3726538E+01
 1.7439751E+01  2.3730137E+01
 1.7451250E+01  2.3676960E+01
 1.7462751E+01  2.3626699E+01
 1.7474251E+01  2.3591112E+01
 1.7485750E+01  2.3636677E+01
 1.7497252E+01  2.3648636E+01
 1.7508751E+01  2.3707043E+01
 1.7520250E+01  2.3725725E+01
 1.7531752E+01  2.3760357E+01
 1.7543251E+01  2.3811430E+01
 1.7554750E+01  2.3796192E+01
 1.7566252E+01  2.3744267E+01
 1.7577751E+01  2.3649715E+01
 1.7589251E+01  2.3560532E+01
 1.7600750E+01  2.3481667E+01
 1.7612251E+01  2.3415962E+01
 1.7623751E+01  2.3468987E+01
 1.7635250E+01  2.3481968E+01
 1.7646751E+01  2.3504967E+01
 1.7658251E+01  2.3487322E+01
 1.7669750E+01  2.3573256E+01
 1.7681252E+01  2.3578314E+01
 1.7692751E+01  2.3618713E+01
 1.7704250E+01  2.3594145E+01
 1.7715752E+01  2.3585741E+01
 1.7727251E+01  2.3496315E+01
 1.7738750E+01  2.3427486E+01
 1.7750252E+01  2.3429049E+01
 1.7761751E+01  2.3465660E+01
 1.7773251E+01  2.3555325E+01
 1.7784750E+01  2.3590799E+01
 1.7796251E+01  2.3648367E+01
 1.7807751E+01  2.3592077E+01
 1.7819250E+01  2.3530731E+01
 1.7830751E+01  2.3467533E+01
 1.7842251E+01  2.3449986E+01
 1.7853750E+01  2.3453596E+01
 1.7865252E+01  2.3461868E+01
 1.7876751E+01  2.3439451E+01
 1.7888250E+01  2.3443079E+01
 1.7899752E+01  2.3449553E+01
 1.7911251E+01  2.3498219E+01
 1.7922750E+01  2.3498260E+01
 1.7934252E+01  2.3445175E+01
 1.7945751E+01  2.3427151E+01
 1.7957251E+01  2.3387632E+01
 1.7968750E+01  2.3415764E+01
 1.7980251E+01  2.3443018E+01
 1.7991751E+01  2.3490183E+01
 1.8003250E+01  2.3517759E+01
 1.8014751E+01  2.3530617E+01
 1.8026251E+01  2.3544428E+01
 1.8037750E+01  2.3553755E+01
 1.8049252E+01  2.3603374E+01
 1.8060751E+01  2.3710817E+01
 1.8072250E+01  2.3733971E+01
 1.8083752E+01  2.3779114E+01
 1.8095251E+01  2.3817200E+01
 1.8106750E+01  2.3843561E+01
 1.8118252E+01  2.3798058E+01
 1.8129751E+01  2.3747227E+01
 1.8141251E+01  2.3670938E+01
 1.8152750E+01  2.3569374E+01
 1.8164251E+01  2.3526068E+01
 1.8175751E+01  2.3495247E+01
 1.8187250E+01  2.3433935E+01
 1.8198751E+01  2.3385960E+01
 1.8210251E+01  2.3392857E+01
 1.8221750E+01  2.3401184E+01
 1.8233252E+01  2.3374277E+01
 1.8244751E+01  2.3340101E+01
 1.8256250E+01  2.3326305E+01
 1.8267752E+01  2.3337944E+01
 1.8279251E+01  2.3349203E+01
 1.8290751E+01  2.3391350E+01
 1.8302252E+01  2.3401501E+01
 1.8313751E+01  2.3335005E+01
 1.8325251E+01  2.3292683E+01
 1.8336750E+01  2.3301989E+01
 1.8348251E+01  2.3364893E+01
 1.8359751E+01  2.3382931E+01
 1.8371250E+01  2.3407085E+01
 1.8382751E+01  2.3407169E+01
 1.8394251E+01  2.3404099E+01
 1.8405750E+01  2.3405413E+01
 1.8417252E+01  2.3396620E+01
 1.8428751E+01  2.3400949E+01
 1.8440250E+01  2.3360510E+01
 1.8451752E+01  2.3320278E+01
 1.8463251E+01  2.3310757E+01
 1.8474751E+01  2.3341331E+01
 1.8486252E+01  2.3354528E+01
 1.8497751E+01  2.3368765E+01
 1.8509251E+01  2.3364218E+01
 1.8520750E+01  2.3376497E+01
 1.8532251E+01  2.3345778E+01
 1.8543751E+01  2.3344799E+01
 1.8555250E+01  2.3333418E+01
 1.8566751E+01  2.3367609E+01
 1.8578251E+01  2.3353592E+01
 1.8589750E+01  2.3339975E+01
 1.8601252E+01  2.3292885E+01
 1.8612751E+01  2.3235254E+01
 1.8624250E+01  2.3174334E+01
 1.8635752E+01  2.3141426E+01
 1.8647251E+01  2.3157019E+01
 1.8658751E+01  2.3121683E+01
 1.8670252E+01  2.3128325E+01
 1.8681751E+01  2.3134384E+01
 1.8693251E+01  2.3185110E+01
 1.8704750E+01  2.3161860E+01
 1.8716251E+01  2.3159128E+01
 1.8727751E+01  2.3173409E+01
 1.8739250E+01  2.3184078E+01
 1.8750751E+01  2.3161644E+01
 1.8762251E+01  2.3107912E+01
 1.8773750E+01  2.3112371E+01
 1.8785252E+01  2.3191780E+01
 1.8796751E+01  2.3238272E+01
 1.8808250E+01  2.3212706E+01
 1.8819752E+01  2.3210161E+01
 1.8831251E+01  2.3210661E+01
 1.8842751E+01  2.3212746E+01
 1.8854252E+01  2.3177982E+01
 1.8865751E+01  2.3157646E+01
 1.8877251E+01  2.3136915E+01
 1.8888750E+01  2.3188765E+01
 1.8900251E+01  2.3245022E+01
 1.8911751E+01  2.3301964E+01
 1.8923250E+01  2.3299561E+01
 1.8934752E+01  2.3296602E+01
 1.8946251E+01  2.3331530E+01
 1.8957750E+01  2.3311995E+01
 1.8969252E+01  2.3303560E+01
 1.8980751E+01  2.3255142E+01
 1.8992250E+01  2.3208441E+01
 1.9003752E+01  2.3167356E+01
 1.9015251E+01  2.3196598E+01
 1.9026751E+01  2.3234819E+01
 1.9038252E+01  2.3232107E+01
 1.9049751E+01  2.3195745E+01
 1.9061251E+01  2.3202129E+01
 1.9072750E+01  2.3205616E+01
 1.9084251E+01  2.3193316E+01
 1.9095751E+01  2.3165792E+01
 1.9107250E+01  2.3169048E+01
 1.9118752E+01  2.3178162E+01
 1.9130251E+01  2.3248777E+01
 1.9141750E+01  2.3286106E+01
 1.9153252E+01  2.3306147E+01
 1.9164751E+01  2.3228922E+01
 1.9176250E+01  2.3161081E+01
 1.9187752E+01  2.3133055E+01
 1.9199251E+01  2.3152643E+01
 1.9210751E+01  2.3180098E+01
 1.9222252E+01  2.3197311E+01
 1.9233751E+01  2.3204208E+01
 1.9245251E+01  2.3197548E+01
 1.9256750E+01  2.3208921E+01
 1.9268251E+01  2.3186798E+01
 1.9279751E+01  2.3165447E+01
 1.9291250E+01  2.3183060E+01
 1.9302752E+01  2.3234303E+01
 1.9314251E+01  2.3251078E+01
 1.9325750E+01  2.3269146E+01
 1.9337252E+01  2.3268219E+01
 1.9348751E+01  2.3256176E+01
 1.9360250E+01  2.3227421E+01
 1.9371752E+01  2.3250034E+01
 1.9383251E+01  2.3276075E+01
 1.9394751E+01  2.3311735E+01
 1.9406250E+01  2.3351618E+01
 1.9417751E+01  2.3347672E+01
 1.9429251E+01  2.3329557E+01
 1.9440750E+01  2.3309843E+01
 1.9452251E+01  2.3322319E+01
 1.9463751E+01  2.3350609E+01
 1.9475250E+01  2.3405588E+01
 1.9486752E+01  2.3414656E+01
 1.9498251E+01  2.3362780E+01
 1.9509750E+01  2.3321857E+01
 1.9521252E+01  2.3338284E+01
 1.9532751E+01  2.3348127E+01
 1.9544250E+01  2.3389360E+01
 1.9555752E+01  2.3370871E+01
 1.9567251E+01  2.3416048E+01
 1.9578751E+01  2.3453428E+01
 1.9590250E+01  2.3487768E+01
 1.9601751E+01  2.3480812E+01
 1.9613251E+01  2.3417713E+01
 1.9624750E+01  2.3424480E+01
 1.9636251E+01  2.3441982E+01
 1.9647751E+01  2.3460636E+01
 1.9659250E+01  2.3501253E+01
 1.9670752E+01  2.3573187E+01
 1.9682251E+01  2.3658741E+01
 1.9693750E+01  2.3728891E+01
 1.9705252E+01  2.3828205E+01
 1.9716751E+01  2.3872551E+01
 1.9728251E+01  2.3847734E+01
 1.9739752E+01  2.3783594E+01
 1.9751251E+01  2.3774120E+01
 1.9762751E+01  2.3754858E+01
 1.9774250E+01  2.3683002E+01
 1.9785751E+01  2.3630775E+01
 1.9797251E+01  2.3687872E+01
 1.9808750E+01  2.3777679E+01
 1.9820251E+01  2.3923180E+01
 1.9831751E+01  2.4157799E+01
 1.9843250E+01  2.4297745E+01
 1.9854752E+01  2.4386343E+01
 1.9866251E+01  2.4293587E+01
 1.9877750E+01  2.4252789E+01
 1.9889252E+01  2.4125189E+01
 1.9900751E+01  2.4070515E+01
 1.9912251E+01  2.3927343E+01
 1.9923752E+01  2.3760155E+01
 1.9935251E+01  2.3559519E+01
 1.9946751E+01  2.3442026E+01
 1.9958250E+01  2.3360130E+01
 1.9969751E+01  2.3365425E+01
 1.9981251E+01  2.3383160E+01
 1.9992750E+01  2.3416559E+01
 2.0004251E+01  2.3392525E+01
 2.0015751E+01  2.3384647E+01
 2.0027250E+01  2.3368877E+01
 2.0038752E+01  2.3438549E+01
 2.0050251E+01  2.3494179E+01
 2.0061750E+01  2.3518278E+01
 2.0073252E+01  2.3503901E+01
 2.0084751E+01  2.3484079E+01
 2.0096251E+01  2.3442547E+01
 2.0107752E+01  2.3447659E+01
 2.0119251E+01  2.3480728E+01
 2.0130751E+01  2.3468597E+01
 2.0142250E+01  2.3440220E+01
 2.0153751E+01  2.3403254E+01
 2.0165251E+01  2.3378119E+01
 2.0176750E+01  2.3385494E+01
 2.0188251E+01  2.3368742E+01
 2.0199751E+01  2.3382805E+01
 2.0211250E+01  2.3403809E+01
 2.0222752E+01  2.3428123E+01
 2.0234251E+01  2.3420282E+01
 2.0245750E+01  2.3395004E+01
 2.0257252E+01  2.3381025E+01
 2.0268751E+01  2.3355619E+01
 2.0280251E+01  2.3380972E+01
 2.0291752E+01  2.3402094E+01
 2.0303251E+01  2.3358902E+01
 2.0314751E+01  2.3323332E+01
 2.0326250E+01  2.3306013E+01
 2.0337751E+01  2.3365030E+01
 2.0349251E+01  2.3376001E+01
 2.0360750E+01  2.3361803E+01
 2.0372252E+01  2.3304171E+01
 2.0383751E+01  2.3266504E+01
 2.0395250E+01  2.3307665E+01
 2.0406752E+01  2.3369652E+01
 2.0418251E+01  2.3458532E+01
 2.0429750E+01  2.3489868E+01
 2.0441252E+01  2.3483379E+01
 2.0452751E+01  2.3466732E+01
 2.0464251E+01  2.3380424E+01
 2.0475752E+01  2.3332260E+01
 2.0487251E+01  2.3286039E+01
 2.0498751E+01  2.3358606E+01
 2.0510250E+01  2.3362909E+01
 2.0521751E+01  2.3366938E+01
 2.0533251E+01  2.3347582E+01
 2.0544750E+01  2.3383478E+01
 2.0556252E+01  2.3391865E+01
 2.0567751E+01  2.3593031E+01
 2.0579250E+01  2.3744020E+01
 2.0590752E+01  2.3770866E+01
 2.0602251E+01  2.3512552E+01
 2.0613750E+01  2.3451822E+01
 2.0625252E+01  2.3444481E+01
 2.0636751E+01  2.3441326E+01
 2.0648251E+01  2.3438223E+01
 2.0659752E+01  2.3417765E+01
 2.0671251E+01  2.3437284E+01
 2.0682751E+01  2.3495609E+01
 2.0694250E+01  2.3615931E+01
 2.0705751E+01  2.3753233E+01
 2.0717251E+01  2.3843250E+01
 2.0728750E+01  2.3932472E+01
 2.0740252E+01  2.3955872E+01
 2.0751751E+01  2.4004391E+01
 2.0763250E+01  2.4006420E+01
 2.0774752E+01  2.3973528E+01
 2.0786251E+01  2.3915447E+01
 2.0797750E+01  2.3820114E+01
 2.0809252E+01  2.3748938E+01
 2.0820751E+01  2.3663864E+01
 2.0832251E+01  2.3618408E+01
 2.0843752E+01  2.3547930E+01
 2.0855251E+01  2.3511795E+01
 2.0866751E+01  2.3501114E+01
 2.0878250E+01  2.3530312E+01
 2.0889751E+01  2.3560141E+01
 2.0901251E+01  2.3590979E+01
 2.0912750E+01  2.3589579E+01
 2.0924252E+01  2.3595974E+01
 2.0935751E+01  2.3593752E+01
 2.0947250E+01  2.3582556E+01
 2.0958752E+01  2.3488295E+01
 2.0970251E+01  2.3451843E+01
 2.0981750E+01  2.3424616E+01
 2.0993252E+01  2.3443666E+01
 2.1004751E+01  2.3415819E+01
 2.1016251E+01  2.3451374E+01
 2.1027752E+01  2.3475214E+01
 2.1039251E+01  2.3480246E+01
 2.1050751E+01  2.3491659E+01
 2.1062250E+01  2.3509123E+01
 2.1073751E+01  2.3546347E+01
 2.1085251E+01  2.3517113E+01
 2.1096750E+01  2.3513884E+01
 2.1108252E+01  2.3512238E+01
 2.1119751E+01  2.3593155E+01
 2.1131250E+01  2.3647106E+01
 2.1142752E+01  2.3658018E+01
 2.1154251E+01  2.3626722E+01
 2.1165751E+01  2.3586697E+01
 2.1177252E+01  2.3607870E+01
 2.1188751E+01  2.3637232E+01
 2.1200251E+01  2.3670870E+01
 2.1211752E+01  2.3685410E+01
 2.1223251E+01  2.3673784E+01
 2.1234751E+01  2.3653862E+01
 2.1246250E+01  2.3612585E+01
 2.1257751E+01  2.3616095E+01
 2.1269251E+01  2.3588276E+01
 2.1280750E+01  2.3604086E+01
 2.1292252E+01  2.3643408E+01
 2.1303751E+01  2.3684340E+01
 2.1315250E+01  2.3697548E+01
 2.1326752E+01  2.3719193E+01
 2.1338251E+01  2.3756643E+01
 2.1349751E+01  2.3739546E+01
 2.1361252E+01  2.3734678E+01
 2.1372751E+01  2.3758921E+01
 2.1384251E+01  2.3719246E+01
 2.1395752E+01  2.3705601E+01
 2.1407251E+01  2.3659918E+01
 2.1418751E+01  2.3670645E+01
 2.1430250E+01  2.3641003E+01
 2.1441751E+01  2.3641592E+01
 2.1453251E+01  2.3647818E+01
 2.1464750E+01  2.3677708E+01
 2.1476252E+01  2.3651365E+01
 2.1487751E+01  2.3681820E+01
 2.1499250E+01  2.3687365E+01
 2.1510752E+01  2.3697147E+01
 2.1522251E+01  2.3663797E+01
 2.1533751E+01  2.3634317E+01
 2.1545252E+01  2.3590412E+01
 2.1556751E+01  2.3570702E+01
 2.1568251E+01  2.3618706E+01
 2.1579752E+01  2.3686865E+01
 2.1591251E+01  2.3747419E+01
 2.1602751E+01  2.3750860E+01
 2.1614250E+01  2.3788157E+01
 2.1625751E+01  2.3792007E+01
 2.1637251E+01  2.3802494E+01
 2.1648750E+01  2.3846012E+01
 2.1660252E+01  2.3858418E+01
 2.1671751E+01  2.3856276E+01
 2.1683250E+01  2.3798363E+01
 2.1694752E+01  2.3764376E+01
 2.1706251E+01  2.3746559E+01
 2.1717751E+01  2.3800089E+01
 2.1729252E+01  2.3830894E+01
 2.1740751E+01  2.3864386E+01
 2.1752251E+01  2.3874933E+01
 2.1763752E+01  2.3831423E+01
 2.1775251E+01  2.3821152E+01
 2.1786751E+01  2.3831812E+01
 2.1798250E+01  2.3886246E+01
 2.1809752E+01  2.3897224E+01
 2.1821251E+01  2.3907536E+01
 2.1832750E+01  2.3880373E+01
 2.1844252E+01  2.3886000E+01
 2.1855751E+01  2.3896458E+01
 2.1867250E+01  2.3915533E+01
 2.1878752E+01  2.3919062E+01
 2.1890251E+01  2.3898235E+01
 2.1901751E+01  2.3878511E+01
 2.1913252E+01  2.3814642E+01
 2.1924751E+01  2.3781858E+01
 2.1936251E+01  2.3759443E+01
 2.1947752E+01  2.3814331E+01
 2.1959251E+01  2.3846823E+01
 2.1970751E+01  2.3889734E+01
 2.1982250E+01  2.3894068E+01
 2.1993752E+01  2.3918018E+01
 2.2005251E+01  2.3930946E+01
 2.2016750E+01  2.3966610E+01
 2.2028252E+01  2.3982891E+01
 2.2039751E+01  2.3989470E+01
 2.2051250E+01  2.4001940E+01
 2.2062752E+01  2.3971113E+01
 2.2074251E+01  2.3956688E+01
 2.2085751E+01  2.3961329E+01
 2.2097252E+01  2.3989481E+01
 2.2108751E+01  2.4001110E+01
 2.2120251E+01  2.4059561E+01
 2.2131752E+01  2.4055809E+01
 2.2143251E+01  2.4095915E+01
 2.2154751E+01  2.4085083E+01
 2.2166250E+01  2.4096865E+01
 2.2177752E+01  2.4022329E+01
 2.2189251E+01  2.4002884E+01
 2.2200750E+01  2.4009499E+01
 2.2212252E+01  2.4031517E+01
 2.2223751E+01  2.4064758E+01
 2.2235250E+01  2.4102081E+01
 2.2246752E+01  2.4169500E+01
 2.2258251E+01  2.4204977E+01
 2.2269751E+01  2.4256142E+01
 2.2281252E+01  2.4278824E+01
 2.2292751E+01  2.4308411E+01
 2.2304251E+01  2.4312376E+01
 2.2315752E+01  2.4239550E+01
 2.2327251E+01  2.4199009E+01
 2.2338751E+01  2.4175472E+01
 2.2350250E+01  2.4190018E+01
 2.2361752E+01  2.4220903E+01
 2.2373251E+01  2.4244806E+01
 2.2384750E+01  2.4182396E+01
 2.2396252E+01  2.4114670E+01
 2.2407751E+01  2.4106369E+01
 2.2419250E+01  2.4148878E+01
 2.2430752E+01  2.4223576E+01
 2.2442251E+01  2.4268059E+01
 2.2453751E+01  2.4335377E+01
 2.2465252E+01  2.4333755E+01
 2.2476751E+01  2.4336721E+01
 2.2488251E+01  2.4364731E+01
 2.2499752E+01  2.4401432E+01
 2.2511251E+01  2.4408014E+01
 2.2522751E+01  2.4396584E+01
 2.2534250E+01  2.4406231E+01
 2.2545752E+01  2.4428516E+01
 2.2557251E+01  2.4429758E+01
 2.2568750E+01  2.4431904E+01
 2.2580252E+01  2.4464273E+01
 2.2591751E+01  2.4526752E+01
 2.2603251E+01  2.4599367E+01
 2.2614752E+01  2.4684010E+01
 2.2626251E+01  2.4727770E+01
 2.2637751E+01  2.4712124E+01
 2.2649252E+01  2.4657789E+01
 2.2660751E+01  2.4626860E+01
 2.2672251E+01  2.4680723E+01
 2.2683752E+01  2.4758451E+01
 2.2695251E+01  2.4833925E+01
 2.2706751E+01  2.4835539E+01
 2.2718250E+01  2.4853605E+01
 2.2729752E+01  2.4841370E+01
 2.2741251E+01  2.4836514E+01
 2.2752750E+01  2.4878050E+01
 2.2764252E+01  2.4909044E+01
 2.2775751E+01  2.4948149E+01
 2.2787251E+01  2.4925323E+01
 2.2798752E+01  2.4941906E+01
 2.2810251E+01  2.5013651E+01
 2.2821751E+01  2.5075558E+01
 2.2833252E+01  2.5147964E+01
 2.2844751E+01  2.5164602E+01
 2.2856251E+01  2.5179195E+01
 2.2867750E+01  2.5209351E+01
 2.2879251E+01  2.5228643E+01
 2.2890751E+01  2.5287069E+01
 2.2902250E+01  2.5324017E+01
 2.2913752E+01  2.5435852E+01
 2.2925251E+01  2.5516518E+01
 2.2936750E+01  2.5567638E+01
 2.2948252E+01  2.5588413E+01
 2.2959751E+01  2.5651608E+01
 2.2971251E+01  2.5740656E+01
 2.2982752E+01  2.5811953E+01
 2.2994251E+01  2.5871027E+01
