F:\20151113_APS_34IDE\\Brian\Particle1\OCV\Data_0040.tif
2-Theta Angle (Degrees)
Intensity
       2000
 5.7500005E-03  0.0000000E+00
 1.7250001E-02  0.0000000E+00
 2.8750001E-02  0.0000000E+00
 4.0250003E-02  0.0000000E+00
 5.1750004E-02  0.0000000E+00
 6.3250005E-02  0.0000000E+00
 7.4750006E-02  0.0000000E+00
 8.6250007E-02  0.0000000E+00
 9.7750008E-02  0.0000000E+00
 1.0925001E-01  0.0000000E+00
 1.2075000E-01  0.0000000E+00
 1.3225001E-01  0.0000000E+00
 1.4375001E-01  0.0000000E+00
 1.5525001E-01  0.0000000E+00
 1.6675001E-01  0.0000000E+00
 1.7825001E-01  0.0000000E+00
 1.8975002E-01  0.0000000E+00
 2.0125002E-01  0.0000000E+00
 2.1275002E-01  0.0000000E+00
 2.2425000E-01  0.0000000E+00
 2.3575000E-01  0.0000000E+00
 2.4725001E-01  0.0000000E+00
 2.5875002E-01  0.0000000E+00
 2.7025002E-01  0.0000000E+00
 2.8175002E-01  0.0000000E+00
 2.9325002E-01  0.0000000E+00
 3.0475003E-01  0.0000000E+00
 3.1625003E-01  0.0000000E+00
 3.2775003E-01  0.0000000E+00
 3.3925003E-01  0.0000000E+00
 3.5075003E-01  0.0000000E+00
 3.6225003E-01  0.0000000E+00
 3.7375003E-01  0.0000000E+00
 3.8525003E-01  0.0000000E+00
 3.9675003E-01  0.0000000E+00
 4.0825003E-01  0.0000000E+00
 4.1975003E-01  0.0000000E+00
 4.3125004E-01  0.0000000E+00
 4.4275001E-01  0.0000000E+00
 4.5425001E-01  0.0000000E+00
 4.6575001E-01  0.0000000E+00
 4.7725001E-01  0.0000000E+00
 4.8875001E-01  0.0000000E+00
 5.0025004E-01  0.0000000E+00
 5.1175004E-01  0.0000000E+00
 5.2325004E-01  0.0000000E+00
 5.3475004E-01  0.0000000E+00
 5.4625005E-01  0.0000000E+00
 5.5775005E-01  0.0000000E+00
 5.6925005E-01  0.0000000E+00
 5.8075005E-01  0.0000000E+00
 5.9225005E-01  0.0000000E+00
 6.0375005E-01  0.0000000E+00
 6.1525005E-01  0.0000000E+00
 6.2675005E-01  0.0000000E+00
 6.3825005E-01  0.0000000E+00
 6.4975005E-01  0.0000000E+00
 6.6125005E-01  0.0000000E+00
 6.7275006E-01  0.0000000E+00
 6.8425006E-01  0.0000000E+00
 6.9575006E-01  0.0000000E+00
 7.0725006E-01  0.0000000E+00
 7.1875006E-01  0.0000000E+00
 7.3025006E-01  0.0000000E+00
 7.4175006E-01  0.0000000E+00
 7.5325006E-01  0.0000000E+00
 7.6475006E-01  0.0000000E+00
 7.7625006E-01  0.0000000E+00
 7.8775007E-01  0.0000000E+00
 7.9925007E-01  0.0000000E+00
 8.1075007E-01  0.0000000E+00
 8.2225007E-01  0.0000000E+00
 8.3375007E-01  0.0000000E+00
 8.4525007E-01  0.0000000E+00
 8.5675007E-01  0.0000000E+00
 8.6825007E-01  0.0000000E+00
 8.7975001E-01  0.0000000E+00
 8.9125001E-01  0.0000000E+00
 9.0275002E-01  0.0000000E+00
 9.1425002E-01  0.0000000E+00
 9.2575002E-01  0.0000000E+00
 9.3725002E-01  0.0000000E+00
 9.4875002E-01  0.0000000E+00
 9.6025002E-01  0.0000000E+00
 9.7175002E-01  0.0000000E+00
 9.8325002E-01  0.0000000E+00
 9.9475002E-01  0.0000000E+00
 1.0062500E+00  0.0000000E+00
 1.0177500E+00  0.0000000E+00
 1.0292500E+00  0.0000000E+00
 1.0407500E+00  0.0000000E+00
 1.0522500E+00  0.0000000E+00
 1.0637500E+00  0.0000000E+00
 1.0752500E+00  0.0000000E+00
 1.0867500E+00  0.0000000E+00
 1.0982500E+00  0.0000000E+00
 1.1097500E+00  0.0000000E+00
 1.1212500E+00  0.0000000E+00
 1.1327500E+00  0.0000000E+00
 1.1442500E+00  0.0000000E+00
 1.1557500E+00  0.0000000E+00
 1.1672500E+00  0.0000000E+00
 1.1787500E+00  0.0000000E+00
 1.1902500E+00  0.0000000E+00
 1.2017500E+00  0.0000000E+00
 1.2132500E+00  0.0000000E+00
 1.2247500E+00  0.0000000E+00
 1.2362500E+00  0.0000000E+00
 1.2477500E+00  0.0000000E+00
 1.2592500E+00  0.0000000E+00
 1.2707500E+00  0.0000000E+00
 1.2822500E+00  0.0000000E+00
 1.2937500E+00  0.0000000E+00
 1.3052500E+00  0.0000000E+00
 1.3167500E+00  0.0000000E+00
 1.3282501E+00  0.0000000E+00
 1.3397501E+00  0.0000000E+00
 1.3512501E+00  0.0000000E+00
 1.3627501E+00  0.0000000E+00
 1.3742501E+00  0.0000000E+00
 1.3857501E+00  0.0000000E+00
 1.3972501E+00  0.0000000E+00
 1.4087501E+00  0.0000000E+00
 1.4202501E+00  0.0000000E+00
 1.4317501E+00  0.0000000E+00
 1.4432501E+00  0.0000000E+00
 1.4547501E+00  0.0000000E+00
 1.4662501E+00  0.0000000E+00
 1.4777501E+00  0.0000000E+00
 1.4892501E+00  0.0000000E+00
 1.5007501E+00  0.0000000E+00
 1.5122501E+00  0.0000000E+00
 1.5237501E+00  0.0000000E+00
 1.5352501E+00  0.0000000E+00
 1.5467501E+00  0.0000000E+00
 1.5582501E+00  0.0000000E+00
 1.5697501E+00  0.0000000E+00
 1.5812501E+00  0.0000000E+00
 1.5927501E+00  0.0000000E+00
 1.6042501E+00  0.0000000E+00
 1.6157501E+00  0.0000000E+00
 1.6272501E+00  0.0000000E+00
 1.6387501E+00  0.0000000E+00
 1.6502501E+00  0.0000000E+00
 1.6617501E+00  0.0000000E+00
 1.6732501E+00  0.0000000E+00
 1.6847501E+00  0.0000000E+00
 1.6962501E+00  0.0000000E+00
 1.7077501E+00  0.0000000E+00
 1.7192501E+00  0.0000000E+00
 1.7307501E+00  0.0000000E+00
 1.7422501E+00  0.0000000E+00
 1.7537501E+00  0.0000000E+00
 1.7652501E+00  0.0000000E+00
 1.7767501E+00  0.0000000E+00
 1.7882501E+00  0.0000000E+00
 1.7997501E+00  0.0000000E+00
 1.8112501E+00  0.0000000E+00
 1.8227501E+00  0.0000000E+00
 1.8342501E+00  0.0000000E+00
 1.8457501E+00  0.0000000E+00
 1.8572501E+00  0.0000000E+00
 1.8687501E+00  0.0000000E+00
 1.8802501E+00  0.0000000E+00
 1.8917501E+00  0.0000000E+00
 1.9032501E+00  0.0000000E+00
 1.9147501E+00  0.0000000E+00
 1.9262501E+00  0.0000000E+00
 1.9377501E+00  0.0000000E+00
 1.9492501E+00  0.0000000E+00
 1.9607501E+00  0.0000000E+00
 1.9722501E+00  0.0000000E+00
 1.9837501E+00  0.0000000E+00
 1.9952501E+00  0.0000000E+00
 2.0067501E+00  0.0000000E+00
 2.0182500E+00  0.0000000E+00
 2.0297501E+00  0.0000000E+00
 2.0412500E+00  0.0000000E+00
 2.0527501E+00  0.0000000E+00
 2.0642500E+00  0.0000000E+00
 2.0757501E+00  0.0000000E+00
 2.0872500E+00  0.0000000E+00
 2.0987501E+00  0.0000000E+00
 2.1102500E+00  0.0000000E+00
 2.1217501E+00  0.0000000E+00
 2.1332500E+00  0.0000000E+00
 2.1447501E+00  0.0000000E+00
 2.1562500E+00  0.0000000E+00
 2.1677501E+00  0.0000000E+00
 2.1792500E+00  0.0000000E+00
 2.1907501E+00  0.0000000E+00
 2.2022500E+00  0.0000000E+00
 2.2137501E+00  0.0000000E+00
 2.2252500E+00  0.0000000E+00
 2.2367501E+00  0.0000000E+00
 2.2482500E+00  0.0000000E+00
 2.2597501E+00  0.0000000E+00
 2.2712500E+00  0.0000000E+00
 2.2827501E+00  0.0000000E+00
 2.2942500E+00  0.0000000E+00
 2.3057501E+00  0.0000000E+00
 2.3172500E+00  0.0000000E+00
 2.3287501E+00  0.0000000E+00
 2.3402500E+00  0.0000000E+00
 2.3517501E+00  0.0000000E+00
 2.3632500E+00  0.0000000E+00
 2.3747501E+00  0.0000000E+00
 2.3862500E+00  0.0000000E+00
 2.3977501E+00  0.0000000E+00
 2.4092500E+00  0.0000000E+00
 2.4207501E+00  0.0000000E+00
 2.4322500E+00  0.0000000E+00
 2.4437501E+00  0.0000000E+00
 2.4552500E+00  0.0000000E+00
 2.4667501E+00  0.0000000E+00
 2.4782500E+00  0.0000000E+00
 2.4897501E+00  0.0000000E+00
 2.5012500E+00  0.0000000E+00
 2.5127501E+00  0.0000000E+00
 2.5242500E+00  0.0000000E+00
 2.5357502E+00  0.0000000E+00
 2.5472500E+00  0.0000000E+00
 2.5587502E+00  0.0000000E+00
 2.5702500E+00  0.0000000E+00
 2.5817502E+00  0.0000000E+00
 2.5932500E+00  0.0000000E+00
 2.6047502E+00  0.0000000E+00
 2.6162500E+00  0.0000000E+00
 2.6277502E+00  0.0000000E+00
 2.6392500E+00  0.0000000E+00
 2.6507502E+00  0.0000000E+00
 2.6622500E+00  0.0000000E+00
 2.6737502E+00  0.0000000E+00
 2.6852500E+00  0.0000000E+00
 2.6967502E+00  0.0000000E+00
 2.7082500E+00  0.0000000E+00
 2.7197502E+00  0.0000000E+00
 2.7312500E+00  0.0000000E+00
 2.7427502E+00  0.0000000E+00
 2.7542500E+00  0.0000000E+00
 2.7657502E+00  0.0000000E+00
 2.7772501E+00  0.0000000E+00
 2.7887502E+00  0.0000000E+00
 2.8002501E+00  0.0000000E+00
 2.8117502E+00  0.0000000E+00
 2.8232501E+00  3.1735863E+01
 2.8347502E+00  3.2102051E+01
 2.8462501E+00  3.2646046E+01
 2.8577502E+00  3.2591286E+01
 2.8692501E+00  3.2640018E+01
 2.8807502E+00  3.3167599E+01
 2.8922501E+00  3.3195103E+01
 2.9037502E+00  3.4020576E+01
 2.9152501E+00  3.4689762E+01
 2.9267502E+00  3.5112190E+01
 2.9382501E+00  3.5449760E+01
 2.9497502E+00  3.5217537E+01
 2.9612501E+00  3.5087681E+01
 2.9727502E+00  3.4934429E+01
 2.9842501E+00  3.4884377E+01
 2.9957502E+00  3.5662521E+01
 3.0072501E+00  3.5929966E+01
 3.0187502E+00  3.5938740E+01
 3.0302501E+00  3.5280155E+01
 3.0417502E+00  3.4972832E+01
 3.0532501E+00  3.5199722E+01
 3.0647502E+00  3.5537132E+01
 3.0762501E+00  3.5856369E+01
 3.0877502E+00  3.6238117E+01
 3.0992501E+00  3.6383545E+01
 3.1107502E+00  3.6024788E+01
 3.1222501E+00  3.5491581E+01
 3.1337502E+00  3.5223637E+01
 3.1452501E+00  3.5244713E+01
 3.1567502E+00  3.5385780E+01
 3.1682501E+00  3.5179943E+01
 3.1797502E+00  3.5138779E+01
 3.1912501E+00  3.4765163E+01
 3.2027502E+00  3.4690662E+01
 3.2142501E+00  3.4652855E+01
 3.2257502E+00  3.4805370E+01
 3.2372501E+00  3.4949665E+01
 3.2487502E+00  3.5064175E+01
 3.2602501E+00  3.5142151E+01
 3.2717502E+00  3.4832657E+01
 3.2832501E+00  3.4392067E+01
 3.2947502E+00  3.3997108E+01
 3.3062501E+00  3.3679295E+01
 3.3177502E+00  3.3703892E+01
 3.3292501E+00  3.3686081E+01
 3.3407502E+00  3.4000282E+01
 3.3522501E+00  3.3935577E+01
 3.3637502E+00  3.4222630E+01
 3.3752501E+00  3.4487503E+01
 3.3867502E+00  3.4561413E+01
 3.3982501E+00  3.4400074E+01
 3.4097502E+00  3.4245289E+01
 3.4212501E+00  3.4051876E+01
 3.4327502E+00  3.4032055E+01
 3.4442501E+00  3.3750973E+01
 3.4557502E+00  3.3847282E+01
 3.4672501E+00  3.3798634E+01
 3.4787502E+00  3.3943333E+01
 3.4902501E+00  3.3737267E+01
 3.5017502E+00  3.3408440E+01
 3.5132501E+00  3.2895195E+01
 3.5247502E+00  3.2626652E+01
 3.5362501E+00  3.2512772E+01
 3.5477502E+00  3.2527523E+01
 3.5592501E+00  3.2608059E+01
 3.5707502E+00  3.2645084E+01
 3.5822501E+00  3.2757740E+01
 3.5937502E+00  3.2803032E+01
 3.6052501E+00  3.2968159E+01
 3.6167502E+00  3.2957409E+01
 3.6282501E+00  3.2983608E+01
 3.6397502E+00  3.2911022E+01
 3.6512501E+00  3.2938782E+01
 3.6627502E+00  3.2859772E+01
 3.6742501E+00  3.2918781E+01
 3.6857502E+00  3.2915340E+01
 3.6972501E+00  3.2986794E+01
 3.7087502E+00  3.2984947E+01
 3.7202501E+00  3.2888721E+01
 3.7317502E+00  3.3028755E+01
 3.7432501E+00  3.3113892E+01
 3.7547503E+00  3.3061207E+01
 3.7662501E+00  3.2879547E+01
 3.7777503E+00  3.2622864E+01
 3.7892501E+00  3.2554718E+01
 3.8007503E+00  3.2440678E+01
 3.8122501E+00  3.2547302E+01
 3.8237503E+00  3.2518879E+01
 3.8352501E+00  3.2388004E+01
 3.8467503E+00  3.2255169E+01
 3.8582501E+00  3.2110516E+01
 3.8697503E+00  3.2087257E+01
 3.8812501E+00  3.2041172E+01
 3.8927503E+00  3.1890562E+01
 3.9042501E+00  3.1933027E+01
 3.9157503E+00  3.1838724E+01
 3.9272501E+00  3.2107388E+01
 3.9387503E+00  3.2167336E+01
 3.9502501E+00  3.2124626E+01
 3.9617503E+00  3.2061153E+01
 3.9732502E+00  3.2074642E+01
 3.9847503E+00  3.2065884E+01
 3.9962502E+00  3.2161404E+01
 4.0077500E+00  3.1857815E+01
 4.0192504E+00  3.1891232E+01
 4.0307503E+00  3.1751247E+01
 4.0422502E+00  3.1733360E+01
 4.0537500E+00  3.1737135E+01
 4.0652504E+00  3.1902277E+01
 4.0767503E+00  3.2006901E+01
 4.0882502E+00  3.2332619E+01
 4.0997500E+00  3.2331085E+01
 4.1112504E+00  3.2476997E+01
 4.1227503E+00  3.2245228E+01
 4.1342502E+00  3.2196522E+01
 4.1457500E+00  3.2184177E+01
 4.1572504E+00  3.2132778E+01
 4.1687503E+00  3.2022655E+01
 4.1802502E+00  3.1809496E+01
 4.1917500E+00  3.1914019E+01
 4.2032504E+00  3.1904701E+01
 4.2147503E+00  3.1913414E+01
 4.2262502E+00  3.1763119E+01
 4.2377501E+00  3.1572456E+01
 4.2492504E+00  3.1575272E+01
 4.2607503E+00  3.1560867E+01
 4.2722502E+00  3.1672022E+01
 4.2837501E+00  3.1744202E+01
 4.2952504E+00  3.1737911E+01
 4.3067503E+00  3.1644777E+01
 4.3182502E+00  3.1565292E+01
 4.3297501E+00  3.1443571E+01
 4.3412504E+00  3.1491562E+01
 4.3527503E+00  3.1506294E+01
 4.3642502E+00  3.1571354E+01
 4.3757501E+00  3.1745520E+01
 4.3872504E+00  3.1716883E+01
 4.3987503E+00  3.1815514E+01
 4.4102502E+00  3.1780220E+01
 4.4217501E+00  3.1787781E+01
 4.4332504E+00  3.1961786E+01
 4.4447503E+00  3.2093811E+01
 4.4562502E+00  3.2137661E+01
 4.4677501E+00  3.2037251E+01
 4.4792504E+00  3.2048794E+01
 4.4907503E+00  3.1979513E+01
 4.5022502E+00  3.1965370E+01
 4.5137501E+00  3.1898550E+01
 4.5252504E+00  3.2027737E+01
 4.5367503E+00  3.1981279E+01
 4.5482502E+00  3.1918615E+01
 4.5597501E+00  3.1910088E+01
 4.5712504E+00  3.2059284E+01
 4.5827503E+00  3.2118221E+01
 4.5942502E+00  3.2209251E+01
 4.6057501E+00  3.2119427E+01
 4.6172504E+00  3.2018848E+01
 4.6287503E+00  3.1985977E+01
 4.6402502E+00  3.2143406E+01
 4.6517501E+00  3.2423431E+01
 4.6632504E+00  3.2638809E+01
 4.6747503E+00  3.2635971E+01
 4.6862502E+00  3.2569630E+01
 4.6977501E+00  3.2460922E+01
 4.7092505E+00  3.2462620E+01
 4.7207503E+00  3.2351391E+01
 4.7322502E+00  3.2232121E+01
 4.7437501E+00  3.1959852E+01
 4.7552505E+00  3.1800594E+01
 4.7667503E+00  3.1644066E+01
 4.7782502E+00  3.1557013E+01
 4.7897501E+00  3.1517056E+01
 4.8012505E+00  3.1555658E+01
 4.8127503E+00  3.1741632E+01
 4.8242502E+00  3.1982828E+01
 4.8357501E+00  3.2153706E+01
 4.8472505E+00  3.2349846E+01
 4.8587503E+00  3.2466480E+01
 4.8702502E+00  3.2554863E+01
 4.8817501E+00  3.2617409E+01
 4.8932505E+00  3.2686043E+01
 4.9047503E+00  3.2784241E+01
 4.9162502E+00  3.2919697E+01
 4.9277501E+00  3.2881935E+01
 4.9392505E+00  3.2883297E+01
 4.9507504E+00  3.2700130E+01
 4.9622502E+00  3.2768013E+01
 4.9737501E+00  3.2727882E+01
 4.9852505E+00  3.2760391E+01
 4.9967504E+00  3.2839729E+01
 5.0082502E+00  3.2957695E+01
 5.0197501E+00  3.3136497E+01
 5.0312505E+00  3.3179558E+01
 5.0427504E+00  3.3126606E+01
 5.0542502E+00  3.3003567E+01
 5.0657501E+00  3.2890701E+01
 5.0772505E+00  3.2794941E+01
 5.0887504E+00  3.2784119E+01
 5.1002502E+00  3.2873074E+01
 5.1117501E+00  3.3066990E+01
 5.1232505E+00  3.3173084E+01
 5.1347504E+00  3.3314201E+01
 5.1462502E+00  3.3407070E+01
 5.1577501E+00  3.3377079E+01
 5.1692505E+00  3.3378036E+01
 5.1807504E+00  3.3334118E+01
 5.1922503E+00  3.3322437E+01
 5.2037501E+00  3.3315483E+01
 5.2152505E+00  3.3244808E+01
 5.2267504E+00  3.3337440E+01
 5.2382503E+00  3.3291622E+01
 5.2497501E+00  3.3335709E+01
 5.2612505E+00  3.3426567E+01
 5.2727504E+00  3.3493725E+01
 5.2842503E+00  3.3660862E+01
 5.2957501E+00  3.3808743E+01
 5.3072500E+00  3.3881310E+01
 5.3187504E+00  3.4015690E+01
 5.3302503E+00  3.3933102E+01
 5.3417501E+00  3.3882381E+01
 5.3532500E+00  3.3771828E+01
 5.3647504E+00  3.3774620E+01
 5.3762503E+00  3.3963383E+01
 5.3877501E+00  3.4172333E+01
 5.3992500E+00  3.4318935E+01
 5.4107504E+00  3.4436386E+01
 5.4222503E+00  3.4465683E+01
 5.4337502E+00  3.4350159E+01
 5.4452500E+00  3.4381908E+01
 5.4567504E+00  3.4320190E+01
 5.4682503E+00  3.4417458E+01
 5.4797502E+00  3.4375038E+01
 5.4912500E+00  3.4220509E+01
 5.5027504E+00  3.4144508E+01
 5.5142503E+00  3.4107288E+01
 5.5257502E+00  3.4250668E+01
 5.5372500E+00  3.4345360E+01
 5.5487504E+00  3.4417236E+01
 5.5602503E+00  3.4450912E+01
 5.5717502E+00  3.4571625E+01
 5.5832500E+00  3.4477810E+01
 5.5947504E+00  3.4489223E+01
 5.6062503E+00  3.4494350E+01
 5.6177502E+00  3.4636032E+01
 5.6292500E+00  3.4628033E+01
 5.6407504E+00  3.4688313E+01
 5.6522503E+00  3.4721218E+01
 5.6637502E+00  3.4922901E+01
 5.6752501E+00  3.5063824E+01
 5.6867504E+00  3.5099972E+01
 5.6982503E+00  3.5118626E+01
 5.7097502E+00  3.5005283E+01
 5.7212501E+00  3.5030682E+01
 5.7327504E+00  3.5078835E+01
 5.7442503E+00  3.5115093E+01
 5.7557502E+00  3.5198669E+01
 5.7672501E+00  3.5263706E+01
 5.7787504E+00  3.5444920E+01
 5.7902503E+00  3.5498028E+01
 5.8017502E+00  3.5543400E+01
 5.8132501E+00  3.5664337E+01
 5.8247504E+00  3.5669006E+01
 5.8362503E+00  3.5869049E+01
 5.8477502E+00  3.5861664E+01
 5.8592501E+00  3.5874226E+01
 5.8707504E+00  3.6142876E+01
 5.8822503E+00  3.6237713E+01
 5.8937502E+00  3.6747425E+01
 5.9052501E+00  3.7966759E+01
 5.9167504E+00  3.8501476E+01
 5.9282503E+00  4.0959026E+01
 5.9397502E+00  4.4513100E+01
 5.9512501E+00  4.5636539E+01
 5.9627504E+00  5.2767712E+01
 5.9742503E+00  5.4841217E+01
 5.9857502E+00  5.5515251E+01
 5.9972501E+00  5.6063992E+01
 6.0087504E+00  5.0626274E+01
 6.0202503E+00  4.9269775E+01
 6.0317502E+00  4.2506691E+01
 6.0432501E+00  3.9478020E+01
 6.0547504E+00  3.8617565E+01
 6.0662503E+00  3.7364170E+01
 6.0777502E+00  3.7014679E+01
 6.0892501E+00  3.6915802E+01
 6.1007504E+00  3.6697861E+01
 6.1122503E+00  3.6690475E+01
 6.1237502E+00  3.6614182E+01
 6.1352501E+00  3.6553993E+01
 6.1467505E+00  3.6622120E+01
 6.1582503E+00  3.6687935E+01
 6.1697502E+00  3.6758915E+01
 6.1812501E+00  3.6800346E+01
 6.1927505E+00  3.6772724E+01
 6.2042503E+00  3.6790928E+01
 6.2157502E+00  3.6806339E+01
 6.2272501E+00  3.6879940E+01
 6.2387505E+00  3.6893757E+01
 6.2502503E+00  3.6955463E+01
 6.2617502E+00  3.7007370E+01
 6.2732501E+00  3.7129940E+01
 6.2847505E+00  3.7217083E+01
 6.2962503E+00  3.7314362E+01
 6.3077502E+00  3.7435734E+01
 6.3192501E+00  3.7567383E+01
 6.3307505E+00  3.7653511E+01
 6.3422503E+00  3.7671101E+01
 6.3537502E+00  3.7761631E+01
 6.3652501E+00  3.7714989E+01
 6.3767505E+00  3.7821098E+01
 6.3882504E+00  3.7779987E+01
 6.3997502E+00  3.7910995E+01
 6.4112501E+00  3.8050011E+01
 6.4227505E+00  3.8166557E+01
 6.4342504E+00  3.8192738E+01
 6.4457502E+00  3.8176891E+01
 6.4572501E+00  3.8103878E+01
 6.4687505E+00  3.8174503E+01
 6.4802504E+00  3.8060028E+01
 6.4917502E+00  3.8157509E+01
 6.5032501E+00  3.8327873E+01
 6.5147505E+00  3.8560059E+01
 6.5262504E+00  3.8689404E+01
 6.5377502E+00  3.8725933E+01
 6.5492501E+00  3.8711784E+01
 6.5607505E+00  3.8813118E+01
 6.5722504E+00  3.8815643E+01
 6.5837502E+00  3.9017216E+01
 6.5952501E+00  3.9083977E+01
 6.6067505E+00  3.9248314E+01
 6.6182504E+00  3.9383213E+01
 6.6297503E+00  3.9524826E+01
 6.6412501E+00  3.9661945E+01
 6.6527505E+00  3.9722542E+01
 6.6642504E+00  3.9875603E+01
 6.6757503E+00  3.9859631E+01
 6.6872501E+00  3.9878033E+01
 6.6987505E+00  3.9884403E+01
 6.7102504E+00  3.9973782E+01
 6.7217503E+00  4.0092319E+01
 6.7332501E+00  4.0096817E+01
 6.7447505E+00  4.0137596E+01
 6.7562504E+00  4.0217964E+01
 6.7677503E+00  4.0347351E+01
 6.7792501E+00  4.0574245E+01
 6.7907505E+00  4.0738010E+01
 6.8022504E+00  4.1011627E+01
 6.8137503E+00  4.1211300E+01
 6.8252501E+00  4.1432423E+01
 6.8367505E+00  4.1446140E+01
 6.8482504E+00  4.1483360E+01
 6.8597503E+00  4.1438923E+01
 6.8712502E+00  4.1387291E+01
 6.8827505E+00  4.1313908E+01
 6.8942504E+00  4.1283165E+01
 6.9057503E+00  4.1273808E+01
 6.9172502E+00  4.1340191E+01
 6.9287505E+00  4.1273983E+01
 6.9402504E+00  4.1427185E+01
 6.9517503E+00  4.1467365E+01
 6.9632502E+00  4.1653114E+01
 6.9747505E+00  4.1789394E+01
 6.9862504E+00  4.1920155E+01
 6.9977503E+00  4.2066902E+01
 7.0092502E+00  4.2132511E+01
 7.0207505E+00  4.2224464E+01
 7.0322504E+00  4.2308498E+01
 7.0437503E+00  4.2295132E+01
 7.0552502E+00  4.2392426E+01
 7.0667505E+00  4.2359737E+01
 7.0782504E+00  4.2398216E+01
 7.0897503E+00  4.2394176E+01
 7.1012502E+00  4.2372482E+01
 7.1127505E+00  4.2469635E+01
 7.1242504E+00  4.2585110E+01
 7.1357503E+00  4.2586781E+01
 7.1472502E+00  4.2577744E+01
 7.1587505E+00  4.2564568E+01
 7.1702504E+00  4.2742298E+01
 7.1817503E+00  4.2859257E+01
 7.1932502E+00  4.2950359E+01
 7.2047505E+00  4.3036259E+01
 7.2162504E+00  4.3067940E+01
 7.2277503E+00  4.3143066E+01
 7.2392502E+00  4.3104736E+01
 7.2507505E+00  4.3200203E+01
 7.2622504E+00  4.3236362E+01
 7.2737503E+00  4.3362911E+01
 7.2852502E+00  4.3430313E+01
 7.2967505E+00  4.3397934E+01
 7.3082504E+00  4.3387760E+01
 7.3197503E+00  4.3340225E+01
 7.3312502E+00  4.3406052E+01
 7.3427505E+00  4.3428200E+01
 7.3542504E+00  4.3549309E+01
 7.3657503E+00  4.3595901E+01
 7.3772502E+00  4.3553055E+01
 7.3887506E+00  4.3498474E+01
 7.4002504E+00  4.3445129E+01
 7.4117503E+00  4.3566231E+01
 7.4232502E+00  4.3557274E+01
 7.4347506E+00  4.3585495E+01
 7.4462504E+00  4.3598930E+01
 7.4577503E+00  4.3698738E+01
 7.4692502E+00  4.3798615E+01
 7.4807506E+00  4.3796909E+01
 7.4922504E+00  4.3760517E+01
 7.5037503E+00  4.3710060E+01
 7.5152502E+00  4.3677715E+01
 7.5267506E+00  4.3782070E+01
 7.5382504E+00  4.3874111E+01
 7.5497503E+00  4.3973778E+01
 7.5612502E+00  4.3979439E+01
 7.5727506E+00  4.3953602E+01
 7.5842505E+00  4.3984058E+01
 7.5957503E+00  4.3893288E+01
 7.6072502E+00  4.3906898E+01
 7.6187506E+00  4.3888115E+01
 7.6302505E+00  4.3958908E+01
 7.6417503E+00  4.3958187E+01
 7.6532502E+00  4.3950485E+01
 7.6647506E+00  4.3988621E+01
 7.6762505E+00  4.3927498E+01
 7.6877503E+00  4.3935379E+01
 7.6992502E+00  4.3794010E+01
 7.7107506E+00  4.3834118E+01
 7.7222505E+00  4.3836311E+01
 7.7337503E+00  4.3873569E+01
 7.7452502E+00  4.3831932E+01
 7.7567506E+00  4.3638058E+01
 7.7682505E+00  4.3551704E+01
 7.7797503E+00  4.3462814E+01
 7.7912502E+00  4.3522072E+01
 7.8027506E+00  4.3512119E+01
 7.8142505E+00  4.3608185E+01
 7.8257504E+00  4.3681145E+01
 7.8372502E+00  4.3818604E+01
 7.8487506E+00  4.3865170E+01
 7.8602505E+00  4.3891674E+01
 7.8717504E+00  4.3846478E+01
 7.8832502E+00  4.3770840E+01
 7.8947506E+00  4.3674175E+01
 7.9062505E+00  4.3570972E+01
 7.9177504E+00  4.3449032E+01
 7.9292502E+00  4.3337269E+01
 7.9407506E+00  4.3295383E+01
 7.9522505E+00  4.3285023E+01
 7.9637504E+00  4.3255550E+01
 7.9752502E+00  4.3139484E+01
 7.9867506E+00  4.3140953E+01
 7.9982505E+00  4.3228291E+01
 8.0097504E+00  4.3278481E+01
 8.0212507E+00  4.3285549E+01
 8.0327501E+00  4.3082867E+01
 8.0442505E+00  4.2992367E+01
 8.0557508E+00  4.2897892E+01
 8.0672503E+00  4.2774078E+01
 8.0787506E+00  4.2633690E+01
 8.0902500E+00  4.2386047E+01
 8.1017504E+00  4.2273407E+01
 8.1132507E+00  4.2174328E+01
 8.1247501E+00  4.2113499E+01
 8.1362505E+00  4.1994438E+01
 8.1477509E+00  4.1952057E+01
 8.1592503E+00  4.1846848E+01
 8.1707506E+00  4.1839233E+01
 8.1822500E+00  4.1703609E+01
 8.1937504E+00  4.1616714E+01
 8.2052507E+00  4.1518875E+01
 8.2167501E+00  4.1506832E+01
 8.2282505E+00  4.1414749E+01
 8.2397509E+00  4.1299908E+01
 8.2512503E+00  4.1133400E+01
 8.2627506E+00  4.0925983E+01
 8.2742500E+00  4.0696480E+01
 8.2857504E+00  4.0423843E+01
 8.2972507E+00  4.0239742E+01
 8.3087502E+00  4.0060802E+01
 8.3202505E+00  3.9932423E+01
 8.3317509E+00  3.9816025E+01
 8.3432503E+00  3.9717255E+01
 8.3547506E+00  3.9610790E+01
 8.3662500E+00  3.9519039E+01
 8.3777504E+00  3.9433064E+01
 8.3892508E+00  3.9290787E+01
 8.4007502E+00  3.9156414E+01
 8.4122505E+00  3.8986168E+01
 8.4237509E+00  3.8859737E+01
 8.4352503E+00  3.8682190E+01
 8.4467506E+00  3.8629799E+01
 8.4582500E+00  3.8508644E+01
 8.4697504E+00  3.8468769E+01
 8.4812508E+00  3.8235317E+01
 8.4927502E+00  3.7995312E+01
 8.5042505E+00  3.7677979E+01
 8.5157509E+00  3.7503487E+01
 8.5272503E+00  3.7318874E+01
 8.5387506E+00  3.7178963E+01
 8.5502501E+00  3.6936741E+01
 8.5617504E+00  3.6719635E+01
 8.5732508E+00  3.6551807E+01
 8.5847502E+00  3.6371552E+01
 8.5962505E+00  3.6187759E+01
 8.6077509E+00  3.6005760E+01
 8.6192503E+00  3.5879009E+01
 8.6307507E+00  3.5790440E+01
 8.6422501E+00  3.5707405E+01
 8.6537504E+00  3.5565418E+01
 8.6652508E+00  3.5384537E+01
 8.6767502E+00  3.5142067E+01
 8.6882505E+00  3.4963367E+01
 8.6997509E+00  3.4766277E+01
 8.7112503E+00  3.4534439E+01
 8.7227507E+00  3.4293922E+01
 8.7342501E+00  3.4099167E+01
 8.7457504E+00  3.3949158E+01
 8.7572508E+00  3.3759647E+01
 8.7687502E+00  3.3606953E+01
 8.7802505E+00  3.3430374E+01
 8.7917500E+00  3.3229805E+01
 8.8032503E+00  3.3020153E+01
 8.8147507E+00  3.2846073E+01
 8.8262501E+00  3.2766628E+01
 8.8377504E+00  3.2689472E+01
 8.8492508E+00  3.2535709E+01
 8.8607502E+00  3.2364811E+01
 8.8722506E+00  3.2176300E+01
 8.8837500E+00  3.2010487E+01
 8.8952503E+00  3.1848610E+01
 8.9067507E+00  3.1779442E+01
 8.9182501E+00  3.1655785E+01
 8.9297504E+00  3.1538509E+01
 8.9412508E+00  3.1223827E+01
 8.9527502E+00  3.1039354E+01
 8.9642506E+00  3.0850685E+01
 8.9757500E+00  3.0819363E+01
 8.9872503E+00  3.0748995E+01
 8.9987507E+00  3.0616524E+01
 9.0102501E+00  3.0496988E+01
 9.0217505E+00  3.0418932E+01
 9.0332508E+00  3.0377138E+01
 9.0447502E+00  3.0270523E+01
 9.0562506E+00  3.0154648E+01
 9.0677500E+00  2.9967213E+01
 9.0792503E+00  2.9791878E+01
 9.0907507E+00  2.9645342E+01
 9.1022501E+00  2.9533859E+01
 9.1137505E+00  2.9411169E+01
 9.1252508E+00  2.9199297E+01
 9.1367502E+00  2.9042929E+01
 9.1482506E+00  2.8920822E+01
 9.1597500E+00  2.8850380E+01
 9.1712503E+00  2.8717297E+01
 9.1827507E+00  2.8648382E+01
 9.1942501E+00  2.8523321E+01
 9.2057505E+00  2.8376612E+01
 9.2172508E+00  2.8186855E+01
 9.2287502E+00  2.7999664E+01
 9.2402506E+00  2.7963190E+01
 9.2517500E+00  2.7917616E+01
 9.2632504E+00  2.7944405E+01
 9.2747507E+00  2.7847563E+01
 9.2862501E+00  2.7733080E+01
 9.2977505E+00  2.7569424E+01
 9.3092508E+00  2.7505198E+01
 9.3207502E+00  2.7490351E+01
 9.3322506E+00  2.7426357E+01
 9.3437500E+00  2.7402163E+01
 9.3552504E+00  2.7279406E+01
 9.3667507E+00  2.7197815E+01
 9.3782501E+00  2.7026127E+01
 9.3897505E+00  2.6899939E+01
 9.4012508E+00  2.6832870E+01
 9.4127502E+00  2.6810692E+01
 9.4242506E+00  2.6740061E+01
 9.4357500E+00  2.6640671E+01
 9.4472504E+00  2.6523699E+01
 9.4587507E+00  2.6500135E+01
 9.4702501E+00  2.6464060E+01
 9.4817505E+00  2.6455305E+01
 9.4932508E+00  2.6350258E+01
 9.5047503E+00  2.6246140E+01
 9.5162506E+00  2.6079473E+01
 9.5277500E+00  2.5944561E+01
 9.5392504E+00  2.5874895E+01
 9.5507507E+00  2.5861389E+01
 9.5622501E+00  2.5879999E+01
 9.5737505E+00  2.5841116E+01
 9.5852509E+00  2.5771664E+01
 9.5967503E+00  2.5731600E+01
 9.6082506E+00  2.5666208E+01
 9.6197500E+00  2.5616915E+01
 9.6312504E+00  2.5528986E+01
 9.6427507E+00  2.5398937E+01
 9.6542501E+00  2.5294847E+01
 9.6657505E+00  2.5234447E+01
 9.6772509E+00  2.5191702E+01
 9.6887503E+00  2.5109980E+01
 9.7002506E+00  2.5048195E+01
 9.7117500E+00  2.5035027E+01
 9.7232504E+00  2.5023176E+01
 9.7347507E+00  2.5036379E+01
 9.7462502E+00  2.5018379E+01
 9.7577505E+00  2.4972908E+01
 9.7692509E+00  2.4883883E+01
 9.7807503E+00  2.4846834E+01
 9.7922506E+00  2.4875364E+01
 9.8037500E+00  2.4910782E+01
 9.8152504E+00  2.4892986E+01
 9.8267508E+00  2.4782263E+01
 9.8382502E+00  2.4682896E+01
 9.8497505E+00  2.4583866E+01
 9.8612509E+00  2.4504366E+01
 9.8727503E+00  2.4424988E+01
 9.8842506E+00  2.4367222E+01
 9.8957500E+00  2.4427351E+01
 9.9072504E+00  2.4398785E+01
 9.9187508E+00  2.4419933E+01
 9.9302502E+00  2.4354147E+01
 9.9417505E+00  2.4337162E+01
 9.9532509E+00  2.4238493E+01
 9.9647503E+00  2.4212563E+01
 9.9762506E+00  2.4153719E+01
 9.9877501E+00  2.4130487E+01
 9.9992504E+00  2.4060156E+01
 1.0010751E+01  2.4063225E+01
 1.0022250E+01  2.4024605E+01
 1.0033751E+01  2.4062565E+01
 1.0045251E+01  2.4006218E+01
 1.0056750E+01  2.3985910E+01
 1.0068251E+01  2.3940355E+01
 1.0079750E+01  2.3916039E+01
 1.0091250E+01  2.3913181E+01
 1.0102751E+01  2.3853434E+01
 1.0114250E+01  2.3817987E+01
 1.0125751E+01  2.3802362E+01
 1.0137251E+01  2.3761209E+01
 1.0148750E+01  2.3787474E+01
 1.0160251E+01  2.3768711E+01
 1.0171750E+01  2.3776138E+01
 1.0183250E+01  2.3757612E+01
 1.0194751E+01  2.3746964E+01
 1.0206250E+01  2.3704712E+01
 1.0217751E+01  2.3680498E+01
 1.0229251E+01  2.3597435E+01
 1.0240750E+01  2.3580833E+01
 1.0252251E+01  2.3458328E+01
 1.0263750E+01  2.3404829E+01
 1.0275250E+01  2.3326187E+01
 1.0286751E+01  2.3296616E+01
 1.0298250E+01  2.3308855E+01
 1.0309751E+01  2.3334124E+01
 1.0321251E+01  2.3344257E+01
 1.0332750E+01  2.3328552E+01
 1.0344251E+01  2.3320520E+01
 1.0355750E+01  2.3336123E+01
 1.0367250E+01  2.3329857E+01
 1.0378751E+01  2.3304003E+01
 1.0390250E+01  2.3312630E+01
 1.0401751E+01  2.3289337E+01
 1.0413251E+01  2.3265154E+01
 1.0424750E+01  2.3204672E+01
 1.0436251E+01  2.3106421E+01
 1.0447750E+01  2.3084877E+01
 1.0459250E+01  2.3036093E+01
 1.0470751E+01  2.3037994E+01
 1.0482250E+01  2.3059368E+01
 1.0493751E+01  2.3116577E+01
 1.0505251E+01  2.3184246E+01
 1.0516750E+01  2.3194452E+01
 1.0528251E+01  2.3191137E+01
 1.0539750E+01  2.3176754E+01
 1.0551250E+01  2.3149302E+01
 1.0562751E+01  2.3130621E+01
 1.0574250E+01  2.3074425E+01
 1.0585751E+01  2.3034027E+01
 1.0597251E+01  2.2963957E+01
 1.0608750E+01  2.2967999E+01
 1.0620251E+01  2.2956301E+01
 1.0631750E+01  2.2977680E+01
 1.0643250E+01  2.2982496E+01
 1.0654751E+01  2.3005899E+01
 1.0666250E+01  2.2975163E+01
 1.0677751E+01  2.2953867E+01
 1.0689251E+01  2.2861715E+01
 1.0700750E+01  2.2806095E+01
 1.0712251E+01  2.2720449E+01
 1.0723750E+01  2.2715620E+01
 1.0735250E+01  2.2705935E+01
 1.0746751E+01  2.2775991E+01
 1.0758250E+01  2.2784250E+01
 1.0769751E+01  2.2835119E+01
 1.0781251E+01  2.2855221E+01
 1.0792750E+01  2.2856470E+01
 1.0804251E+01  2.2854006E+01
 1.0815750E+01  2.2825109E+01
 1.0827250E+01  2.2822508E+01
 1.0838751E+01  2.2736431E+01
 1.0850250E+01  2.2670040E+01
 1.0861751E+01  2.2667381E+01
 1.0873251E+01  2.2713615E+01
 1.0884750E+01  2.2704636E+01
 1.0896251E+01  2.2662769E+01
 1.0907750E+01  2.2680553E+01
 1.0919250E+01  2.2734257E+01
 1.0930751E+01  2.2744722E+01
 1.0942250E+01  2.2706213E+01
 1.0953751E+01  2.2674362E+01
 1.0965251E+01  2.2629786E+01
 1.0976750E+01  2.2647392E+01
 1.0988251E+01  2.2616383E+01
 1.0999750E+01  2.2587301E+01
 1.1011250E+01  2.2538492E+01
 1.1022751E+01  2.2479807E+01
 1.1034250E+01  2.2499395E+01
 1.1045751E+01  2.2439833E+01
 1.1057251E+01  2.2431414E+01
 1.1068750E+01  2.2395266E+01
 1.1080251E+01  2.2466946E+01
 1.1091750E+01  2.2533133E+01
 1.1103251E+01  2.2616182E+01
 1.1114751E+01  2.2609434E+01
 1.1126250E+01  2.2572372E+01
 1.1137751E+01  2.2478069E+01
 1.1149251E+01  2.2376097E+01
 1.1160750E+01  2.2333162E+01
 1.1172251E+01  2.2303604E+01
 1.1183750E+01  2.2337088E+01
 1.1195251E+01  2.2310837E+01
 1.1206751E+01  2.2353741E+01
 1.1218250E+01  2.2361700E+01
 1.1229751E+01  2.2438547E+01
 1.1241251E+01  2.2420626E+01
 1.1252750E+01  2.2421276E+01
 1.1264251E+01  2.2417419E+01
 1.1275750E+01  2.2429146E+01
 1.1287251E+01  2.2438107E+01
 1.1298751E+01  2.2461082E+01
 1.1310250E+01  2.2506071E+01
 1.1321751E+01  2.2558617E+01
 1.1333251E+01  2.2556284E+01
 1.1344750E+01  2.2622488E+01
 1.1356251E+01  2.2675190E+01
 1.1367750E+01  2.2786345E+01
 1.1379251E+01  2.2940472E+01
 1.1390751E+01  2.2982214E+01
 1.1402250E+01  2.3374187E+01
 1.1413751E+01  2.3316668E+01
 1.1425251E+01  2.3388948E+01
 1.1436750E+01  2.3108419E+01
 1.1448251E+01  2.3133135E+01
 1.1459750E+01  2.3205175E+01
 1.1471251E+01  2.3318239E+01
 1.1482751E+01  2.3499458E+01
 1.1494250E+01  2.3691961E+01
 1.1505751E+01  2.4224054E+01
 1.1517251E+01  2.4775768E+01
 1.1528750E+01  2.7229698E+01
 1.1540251E+01  2.8461454E+01
 1.1551750E+01  3.4969620E+01
 1.1563251E+01  3.7155464E+01
 1.1574751E+01  4.5512844E+01
 1.1586250E+01  4.4394043E+01
 1.1597751E+01  4.8468105E+01
 1.1609251E+01  4.1696724E+01
 1.1620750E+01  3.9619644E+01
 1.1632251E+01  3.1952595E+01
 1.1643750E+01  2.9465622E+01
 1.1655251E+01  2.5920645E+01
 1.1666751E+01  2.4871586E+01
 1.1678250E+01  2.4009253E+01
 1.1689751E+01  2.3543541E+01
 1.1701251E+01  2.3279167E+01
 1.1712750E+01  2.3061396E+01
 1.1724251E+01  2.2899700E+01
 1.1735750E+01  2.2775202E+01
 1.1747251E+01  2.2689074E+01
 1.1758751E+01  2.2674061E+01
 1.1770250E+01  2.2627516E+01
 1.1781751E+01  2.2599241E+01
 1.1793251E+01  2.2583614E+01
 1.1804750E+01  2.2615068E+01
 1.1816251E+01  2.2646498E+01
 1.1827750E+01  2.2619690E+01
 1.1839251E+01  2.2611172E+01
 1.1850751E+01  2.2528069E+01
 1.1862250E+01  2.2484232E+01
 1.1873751E+01  2.2411289E+01
 1.1885251E+01  2.2391016E+01
 1.1896750E+01  2.2457777E+01
 1.1908251E+01  2.2518803E+01
 1.1919750E+01  2.2687271E+01
 1.1931251E+01  2.2814835E+01
 1.1942751E+01  2.2954224E+01
 1.1954250E+01  2.3167511E+01
 1.1965751E+01  2.3326315E+01
 1.1977251E+01  2.3585249E+01
 1.1988750E+01  2.3686211E+01
 1.2000251E+01  2.3838778E+01
 1.2011750E+01  2.3825573E+01
 1.2023251E+01  2.3829317E+01
 1.2034751E+01  2.3932873E+01
 1.2046250E+01  2.4366903E+01
 1.2057751E+01  2.4892836E+01
 1.2069251E+01  2.7647659E+01
 1.2080750E+01  2.8634912E+01
 1.2092251E+01  3.1890242E+01
 1.2103750E+01  3.1577192E+01
 1.2115251E+01  3.3311108E+01
 1.2126751E+01  3.0677042E+01
 1.2138250E+01  2.9647686E+01
 1.2149751E+01  2.6821690E+01
 1.2161251E+01  2.5880863E+01
 1.2172750E+01  2.4204655E+01
 1.2184251E+01  2.3718672E+01
 1.2195750E+01  2.3190216E+01
 1.2207251E+01  2.2983053E+01
 1.2218751E+01  2.2864084E+01
 1.2230250E+01  2.2798151E+01
 1.2241751E+01  2.2765829E+01
 1.2253251E+01  2.2679668E+01
 1.2264750E+01  2.2597286E+01
 1.2276251E+01  2.2572348E+01
 1.2287750E+01  2.2577961E+01
 1.2299251E+01  2.2583376E+01
 1.2310751E+01  2.2610868E+01
 1.2322250E+01  2.2586258E+01
 1.2333751E+01  2.2562185E+01
 1.2345250E+01  2.2515430E+01
 1.2356750E+01  2.2516909E+01
 1.2368251E+01  2.2535330E+01
 1.2379750E+01  2.2540707E+01
 1.2391251E+01  2.2573090E+01
 1.2402751E+01  2.2517197E+01
 1.2414250E+01  2.2527016E+01
 1.2425751E+01  2.2481346E+01
 1.2437250E+01  2.2541431E+01
 1.2448750E+01  2.2552996E+01
 1.2460251E+01  2.2628885E+01
 1.2471750E+01  2.2662825E+01
 1.2483251E+01  2.2705423E+01
 1.2494751E+01  2.2662956E+01
 1.2506250E+01  2.2604801E+01
 1.2517751E+01  2.2580294E+01
 1.2529250E+01  2.2636757E+01
 1.2540751E+01  2.2689930E+01
 1.2552251E+01  2.2732702E+01
 1.2563750E+01  2.2737869E+01
 1.2575251E+01  2.2711048E+01
 1.2586751E+01  2.2672501E+01
 1.2598250E+01  2.2664799E+01
 1.2609751E+01  2.2764456E+01
 1.2621250E+01  2.2817554E+01
 1.2632751E+01  2.2893219E+01
 1.2644251E+01  2.2874454E+01
 1.2655750E+01  2.2885237E+01
 1.2667251E+01  2.2845798E+01
 1.2678751E+01  2.2828722E+01
 1.2690250E+01  2.2818420E+01
 1.2701751E+01  2.2812126E+01
 1.2713250E+01  2.2908096E+01
 1.2724751E+01  2.2940506E+01
 1.2736251E+01  2.3009613E+01
 1.2747750E+01  2.3045109E+01
 1.2759251E+01  2.3064911E+01
 1.2770751E+01  2.3149162E+01
 1.2782250E+01  2.3224504E+01
 1.2793751E+01  2.3278719E+01
 1.2805250E+01  2.3243273E+01
 1.2816751E+01  2.3175930E+01
 1.2828251E+01  2.3151081E+01
 1.2839750E+01  2.3119427E+01
 1.2851251E+01  2.3133858E+01
 1.2862751E+01  2.3135479E+01
 1.2874250E+01  2.3186378E+01
 1.2885751E+01  2.3178328E+01
 1.2897250E+01  2.3249084E+01
 1.2908751E+01  2.3324675E+01
 1.2920251E+01  2.3416714E+01
 1.2931750E+01  2.3498159E+01
 1.2943251E+01  2.3517023E+01
 1.2954751E+01  2.3564617E+01
 1.2966250E+01  2.3602549E+01
 1.2977751E+01  2.3672089E+01
 1.2989250E+01  2.3730680E+01
 1.3000751E+01  2.3808161E+01
 1.3012251E+01  2.3875334E+01
 1.3023750E+01  2.4001356E+01
 1.3035251E+01  2.4120731E+01
 1.3046751E+01  2.4239397E+01
 1.3058250E+01  2.4325319E+01
 1.3069751E+01  2.4414600E+01
 1.3081250E+01  2.4526180E+01
 1.3092751E+01  2.4576342E+01
 1.3104251E+01  2.4731222E+01
 1.3115750E+01  2.4833429E+01
 1.3127251E+01  2.4953251E+01
 1.3138751E+01  2.5081583E+01
 1.3150250E+01  2.5226845E+01
 1.3161751E+01  2.5364367E+01
 1.3173250E+01  2.5438341E+01
 1.3184751E+01  2.5571062E+01
 1.3196251E+01  2.5688528E+01
 1.3207750E+01  2.5831623E+01
 1.3219251E+01  2.5913437E+01
 1.3230751E+01  2.6025013E+01
 1.3242250E+01  2.6063663E+01
 1.3253751E+01  2.6152733E+01
 1.3265250E+01  2.6239439E+01
 1.3276751E+01  2.6363335E+01
 1.3288251E+01  2.6533237E+01
 1.3299750E+01  2.6694151E+01
 1.3311251E+01  2.6841984E+01
 1.3322751E+01  2.6910280E+01
 1.3334250E+01  2.7094725E+01
 1.3345751E+01  2.7215000E+01
 1.3357250E+01  2.7460869E+01
 1.3368751E+01  2.7592796E+01
 1.3380251E+01  2.7768124E+01
 1.3391750E+01  2.7886572E+01
 1.3403251E+01  2.7997118E+01
 1.3414751E+01  2.8131910E+01
 1.3426250E+01  2.8182518E+01
 1.3437751E+01  2.8263102E+01
 1.3449250E+01  2.8368401E+01
 1.3460751E+01  2.8544104E+01
 1.3472251E+01  2.8720343E+01
 1.3483750E+01  2.8887808E+01
 1.3495251E+01  2.8996683E+01
 1.3506751E+01  2.9137699E+01
 1.3518250E+01  2.9286140E+01
 1.3529751E+01  2.9433500E+01
 1.3541250E+01  2.9499081E+01
 1.3552751E+01  2.9513945E+01
 1.3564251E+01  2.9517376E+01
 1.3575750E+01  2.9463268E+01
 1.3587251E+01  2.9422607E+01
 1.3598751E+01  2.9403294E+01
 1.3610250E+01  2.9456549E+01
 1.3621751E+01  2.9496155E+01
 1.3633250E+01  2.9510138E+01
 1.3644751E+01  2.9549204E+01
 1.3656251E+01  2.9535322E+01
 1.3667750E+01  2.9565428E+01
 1.3679251E+01  2.9493824E+01
 1.3690751E+01  2.9439367E+01
 1.3702250E+01  2.9330706E+01
 1.3713751E+01  2.9319304E+01
 1.3725250E+01  2.9330099E+01
 1.3736751E+01  2.9398148E+01
 1.3748251E+01  2.9408468E+01
 1.3759750E+01  2.9429430E+01
 1.3771251E+01  2.9348053E+01
 1.3782751E+01  2.9328087E+01
 1.3794250E+01  2.9228958E+01
 1.3805751E+01  2.9219025E+01
 1.3817250E+01  2.9197687E+01
 1.3828751E+01  2.9295280E+01
 1.3840251E+01  2.9418705E+01
 1.3851750E+01  2.9673990E+01
 1.3863251E+01  3.0019384E+01
 1.3874751E+01  3.0630182E+01
 1.3886250E+01  3.1527758E+01
 1.3897751E+01  3.3241611E+01
 1.3909250E+01  3.5805840E+01
 1.3920751E+01  3.8086742E+01
 1.3932251E+01  4.1561836E+01
 1.3943750E+01  4.3243607E+01
 1.3955251E+01  4.4471233E+01
 1.3966751E+01  4.2452839E+01
 1.3978251E+01  4.0641464E+01
 1.3989751E+01  3.7198719E+01
 1.4001250E+01  3.4770439E+01
 1.4012751E+01  3.2021271E+01
 1.4024251E+01  3.0742123E+01
 1.4035750E+01  2.9356098E+01
 1.4047251E+01  2.8747393E+01
 1.4058751E+01  2.8300009E+01
 1.4070251E+01  2.8050285E+01
 1.4081751E+01  2.7821459E+01
 1.4093250E+01  2.7653936E+01
 1.4104751E+01  2.7555004E+01
 1.4116251E+01  2.7456976E+01
 1.4127750E+01  2.7391190E+01
 1.4139251E+01  2.7250158E+01
 1.4150751E+01  2.7161613E+01
 1.4162251E+01  2.7062433E+01
 1.4173751E+01  2.6986813E+01
 1.4185250E+01  2.6920397E+01
 1.4196751E+01  2.6875542E+01
 1.4208251E+01  2.6832663E+01
 1.4219750E+01  2.6749739E+01
 1.4231251E+01  2.6635824E+01
 1.4242751E+01  2.6569860E+01
 1.4254251E+01  2.6493830E+01
 1.4265751E+01  2.6466572E+01
 1.4277250E+01  2.6419901E+01
 1.4288751E+01  2.6388018E+01
 1.4300251E+01  2.6310957E+01
 1.4311750E+01  2.6193680E+01
 1.4323251E+01  2.6059574E+01
 1.4334751E+01  2.5959040E+01
 1.4346251E+01  2.5920977E+01
 1.4357751E+01  2.5896597E+01
 1.4369250E+01  2.5911692E+01
 1.4380751E+01  2.5919397E+01
 1.4392251E+01  2.5912695E+01
 1.4403750E+01  2.5887871E+01
 1.4415251E+01  2.5855915E+01
 1.4426751E+01  2.5844681E+01
 1.4438251E+01  2.5775993E+01
 1.4449751E+01  2.5701773E+01
 1.4461250E+01  2.5645311E+01
 1.4472751E+01  2.5557396E+01
 1.4484251E+01  2.5552099E+01
 1.4495750E+01  2.5508923E+01
 1.4507251E+01  2.5586344E+01
 1.4518751E+01  2.5518087E+01
 1.4530251E+01  2.5517744E+01
 1.4541751E+01  2.5463198E+01
 1.4553250E+01  2.5468721E+01
 1.4564751E+01  2.5433638E+01
 1.4576251E+01  2.5443125E+01
 1.4587750E+01  2.5440170E+01
 1.4599251E+01  2.5421621E+01
 1.4610751E+01  2.5383875E+01
 1.4622251E+01  2.5326082E+01
 1.4633751E+01  2.5272446E+01
 1.4645250E+01  2.5200914E+01
 1.4656751E+01  2.5177805E+01
 1.4668251E+01  2.5151546E+01
 1.4679750E+01  2.5159369E+01
 1.4691251E+01  2.5101480E+01
 1.4702751E+01  2.5079016E+01
 1.4714251E+01  2.4987402E+01
 1.4725751E+01  2.4953722E+01
 1.4737250E+01  2.4885355E+01
 1.4748751E+01  2.4879183E+01
 1.4760251E+01  2.4917109E+01
 1.4771750E+01  2.4955456E+01
 1.4783251E+01  2.4994059E+01
 1.4794751E+01  2.5002018E+01
 1.4806251E+01  2.4966892E+01
 1.4817751E+01  2.4928102E+01
 1.4829250E+01  2.4940599E+01
 1.4840751E+01  2.5001282E+01
 1.4852251E+01  2.5036718E+01
 1.4863750E+01  2.4982351E+01
 1.4875251E+01  2.4897266E+01
 1.4886751E+01  2.4797825E+01
 1.4898251E+01  2.4799377E+01
 1.4909751E+01  2.4788635E+01
 1.4921250E+01  2.4876209E+01
 1.4932751E+01  2.4880213E+01
 1.4944251E+01  2.4888586E+01
 1.4955750E+01  2.4870247E+01
 1.4967251E+01  2.4814127E+01
 1.4978751E+01  2.4748655E+01
 1.4990251E+01  2.4648489E+01
 1.5001751E+01  2.4635397E+01
 1.5013250E+01  2.4697416E+01
 1.5024751E+01  2.4728476E+01
 1.5036251E+01  2.4779192E+01
 1.5047750E+01  2.4765400E+01
 1.5059251E+01  2.4783754E+01
 1.5070751E+01  2.4832653E+01
 1.5082251E+01  2.4830933E+01
 1.5093751E+01  2.4890032E+01
 1.5105250E+01  2.4922325E+01
 1.5116751E+01  2.5065300E+01
 1.5128251E+01  2.5267244E+01
 1.5139750E+01  2.5584373E+01
 1.5151251E+01  2.6115070E+01
 1.5162751E+01  2.6831667E+01
 1.5174251E+01  2.7594095E+01
 1.5185751E+01  2.8165047E+01
 1.5197250E+01  2.8602324E+01
 1.5208751E+01  2.8570784E+01
 1.5220251E+01  2.8228851E+01
 1.5231750E+01  2.7645563E+01
 1.5243251E+01  2.6840797E+01
 1.5254751E+01  2.6140921E+01
 1.5266251E+01  2.5320330E+01
 1.5277751E+01  2.5030350E+01
 1.5289250E+01  2.4774294E+01
 1.5300751E+01  2.4720665E+01
 1.5312251E+01  2.4702660E+01
 1.5323750E+01  2.4649723E+01
 1.5335251E+01  2.4648869E+01
 1.5346751E+01  2.4637714E+01
 1.5358251E+01  2.4647024E+01
 1.5369751E+01  2.4585197E+01
 1.5381250E+01  2.4524796E+01
 1.5392751E+01  2.4491444E+01
 1.5404251E+01  2.4474409E+01
 1.5415751E+01  2.4445793E+01
 1.5427251E+01  2.4431551E+01
 1.5438751E+01  2.4425491E+01
 1.5450251E+01  2.4451687E+01
 1.5461751E+01  2.4451464E+01
 1.5473250E+01  2.4430550E+01
 1.5484751E+01  2.4398687E+01
 1.5496251E+01  2.4350101E+01
 1.5507751E+01  2.4373299E+01
 1.5519251E+01  2.4430649E+01
 1.5530751E+01  2.4502214E+01
 1.5542251E+01  2.4496929E+01
 1.5553751E+01  2.4425867E+01
 1.5565250E+01  2.4359869E+01
 1.5576751E+01  2.4349644E+01
 1.5588251E+01  2.4361153E+01
 1.5599751E+01  2.4396643E+01
 1.5611251E+01  2.4367203E+01
 1.5622751E+01  2.4419279E+01
 1.5634251E+01  2.4390835E+01
 1.5645751E+01  2.4462088E+01
 1.5657250E+01  2.4492357E+01
 1.5668751E+01  2.4571466E+01
 1.5680251E+01  2.4545404E+01
 1.5691751E+01  2.4526459E+01
 1.5703251E+01  2.4487820E+01
 1.5714751E+01  2.4455168E+01
 1.5726251E+01  2.4416908E+01
 1.5737751E+01  2.4378044E+01
 1.5749250E+01  2.4359688E+01
 1.5760751E+01  2.4322815E+01
 1.5772251E+01  2.4350655E+01
 1.5783751E+01  2.4348619E+01
 1.5795251E+01  2.4388918E+01
 1.5806751E+01  2.4376728E+01
 1.5818251E+01  2.4380453E+01
 1.5829751E+01  2.4341402E+01
 1.5841250E+01  2.4309139E+01
 1.5852751E+01  2.4348036E+01
 1.5864251E+01  2.4385975E+01
 1.5875751E+01  2.4473742E+01
 1.5887251E+01  2.4511356E+01
 1.5898750E+01  2.4531677E+01
 1.5910251E+01  2.4528816E+01
 1.5921751E+01  2.4526716E+01
 1.5933250E+01  2.4487604E+01
 1.5944751E+01  2.4485451E+01
 1.5956251E+01  2.4447859E+01
 1.5967751E+01  2.4456022E+01
 1.5979251E+01  2.4354685E+01
 1.5990750E+01  2.4402798E+01
 1.6002251E+01  2.4390320E+01
 1.6013750E+01  2.4486477E+01
 1.6025251E+01  2.4490353E+01
 1.6036751E+01  2.4546734E+01
 1.6048250E+01  2.4540363E+01
 1.6059752E+01  2.4570755E+01
 1.6071251E+01  2.4501547E+01
 1.6082750E+01  2.4515108E+01
 1.6094252E+01  2.4484495E+01
 1.6105751E+01  2.4586172E+01
 1.6117250E+01  2.4579292E+01
 1.6128750E+01  2.4596186E+01
 1.6140251E+01  2.4633022E+01
 1.6151751E+01  2.4626963E+01
 1.6163250E+01  2.4696178E+01
 1.6174751E+01  2.4608042E+01
 1.6186251E+01  2.4698450E+01
 1.6197750E+01  2.4606867E+01
 1.6209251E+01  2.4841341E+01
 1.6220751E+01  2.4813967E+01
 1.6232250E+01  2.5083704E+01
 1.6243752E+01  2.5176918E+01
 1.6255251E+01  2.5419472E+01
 1.6266750E+01  2.5594072E+01
 1.6278252E+01  2.5479296E+01
 1.6289751E+01  2.5530479E+01
 1.6301250E+01  2.5073753E+01
 1.6312750E+01  2.5166737E+01
 1.6324251E+01  2.4819544E+01
 1.6335751E+01  2.4843527E+01
 1.6347250E+01  2.4604015E+01
 1.6358751E+01  2.4540499E+01
 1.6370251E+01  2.4476324E+01
 1.6381750E+01  2.4481327E+01
 1.6393251E+01  2.4533213E+01
 1.6404751E+01  2.4564558E+01
 1.6416250E+01  2.4601223E+01
 1.6427752E+01  2.4557337E+01
 1.6439251E+01  2.4510706E+01
 1.6450750E+01  2.4508562E+01
 1.6462252E+01  2.4559914E+01
 1.6473751E+01  2.4556667E+01
 1.6485250E+01  2.4575838E+01
 1.6496750E+01  2.4582333E+01
 1.6508251E+01  2.4571087E+01
 1.6519751E+01  2.4573969E+01
 1.6531250E+01  2.4539747E+01
 1.6542751E+01  2.4602720E+01
 1.6554251E+01  2.4588816E+01
 1.6565750E+01  2.4615000E+01
 1.6577251E+01  2.4585037E+01
 1.6588751E+01  2.4568800E+01
 1.6600250E+01  2.4596716E+01
 1.6611752E+01  2.4607075E+01
 1.6623251E+01  2.4569445E+01
 1.6634750E+01  2.4513609E+01
 1.6646252E+01  2.4472715E+01
 1.6657751E+01  2.4524971E+01
 1.6669250E+01  2.4575260E+01
 1.6680750E+01  2.4582710E+01
 1.6692251E+01  2.4579077E+01
 1.6703751E+01  2.4509232E+01
 1.6715250E+01  2.4468786E+01
 1.6726751E+01  2.4389925E+01
 1.6738251E+01  2.4378784E+01
 1.6749750E+01  2.4413702E+01
 1.6761251E+01  2.4423948E+01
 1.6772751E+01  2.4425533E+01
 1.6784250E+01  2.4413610E+01
 1.6795752E+01  2.4429707E+01
 1.6807251E+01  2.4439756E+01
 1.6818750E+01  2.4393373E+01
 1.6830252E+01  2.4379400E+01
 1.6841751E+01  2.4379211E+01
 1.6853251E+01  2.4378698E+01
 1.6864750E+01  2.4377497E+01
 1.6876251E+01  2.4345144E+01
 1.6887751E+01  2.4322285E+01
 1.6899250E+01  2.4293972E+01
 1.6910751E+01  2.4282467E+01
 1.6922251E+01  2.4252802E+01
 1.6933750E+01  2.4178221E+01
 1.6945251E+01  2.4140390E+01
 1.6956751E+01  2.4131054E+01
 1.6968250E+01  2.4164450E+01
 1.6979752E+01  2.4192457E+01
 1.6991251E+01  2.4186623E+01
 1.7002750E+01  2.4123768E+01
 1.7014252E+01  2.4131414E+01
 1.7025751E+01  2.4129976E+01
 1.7037251E+01  2.4157408E+01
 1.7048750E+01  2.4111160E+01
 1.7060251E+01  2.4081083E+01
 1.7071751E+01  2.4072798E+01
 1.7083250E+01  2.4043924E+01
 1.7094751E+01  2.4007671E+01
 1.7106251E+01  2.3967493E+01
 1.7117750E+01  2.3938879E+01
 1.7129251E+01  2.4029015E+01
 1.7140751E+01  2.4074509E+01
 1.7152250E+01  2.4135559E+01
 1.7163752E+01  2.4142527E+01
 1.7175251E+01  2.4139574E+01
 1.7186750E+01  2.4102360E+01
 1.7198252E+01  2.4079617E+01
 1.7209751E+01  2.4056044E+01
 1.7221251E+01  2.4051157E+01
 1.7232750E+01  2.3989790E+01
 1.7244251E+01  2.3990391E+01
 1.7255751E+01  2.3949238E+01
 1.7267250E+01  2.3917843E+01
 1.7278751E+01  2.3873154E+01
 1.7290251E+01  2.3887280E+01
 1.7301750E+01  2.3933302E+01
 1.7313251E+01  2.3944805E+01
 1.7324751E+01  2.3941441E+01
 1.7336250E+01  2.3957680E+01
 1.7347752E+01  2.3983191E+01
 1.7359251E+01  2.3992964E+01
 1.7370750E+01  2.3982275E+01
 1.7382252E+01  2.3938183E+01
 1.7393751E+01  2.3914118E+01
 1.7405251E+01  2.3891075E+01
 1.7416750E+01  2.3918644E+01
 1.7428251E+01  2.3917904E+01
 1.7439751E+01  2.3943428E+01
 1.7451250E+01  2.3927647E+01
 1.7462751E+01  2.3981792E+01
 1.7474251E+01  2.3979795E+01
 1.7485750E+01  2.3991505E+01
 1.7497252E+01  2.3935501E+01
 1.7508751E+01  2.3871685E+01
 1.7520250E+01  2.3817438E+01
 1.7531752E+01  2.3790794E+01
 1.7543251E+01  2.3819996E+01
 1.7554750E+01  2.3814838E+01
 1.7566252E+01  2.3785707E+01
 1.7577751E+01  2.3772310E+01
 1.7589251E+01  2.3759924E+01
 1.7600750E+01  2.3771429E+01
 1.7612251E+01  2.3749971E+01
 1.7623751E+01  2.3758728E+01
 1.7635250E+01  2.3722382E+01
 1.7646751E+01  2.3658798E+01
 1.7658251E+01  2.3583643E+01
 1.7669750E+01  2.3593765E+01
 1.7681252E+01  2.3634504E+01
 1.7692751E+01  2.3732172E+01
 1.7704250E+01  2.3758059E+01
 1.7715752E+01  2.3837702E+01
 1.7727251E+01  2.3829218E+01
 1.7738750E+01  2.3840815E+01
 1.7750252E+01  2.3733526E+01
 1.7761751E+01  2.3670464E+01
 1.7773251E+01  2.3677279E+01
 1.7784750E+01  2.3705635E+01
 1.7796251E+01  2.3773678E+01
 1.7807751E+01  2.3779930E+01
 1.7819250E+01  2.3808653E+01
 1.7830751E+01  2.3765457E+01
 1.7842251E+01  2.3788757E+01
 1.7853750E+01  2.3731251E+01
 1.7865252E+01  2.3738823E+01
 1.7876751E+01  2.3703817E+01
 1.7888250E+01  2.3680565E+01
 1.7899752E+01  2.3633062E+01
 1.7911251E+01  2.3676559E+01
 1.7922750E+01  2.3698168E+01
 1.7934252E+01  2.3689484E+01
 1.7945751E+01  2.3683487E+01
 1.7957251E+01  2.3705364E+01
 1.7968750E+01  2.3735250E+01
 1.7980251E+01  2.3789791E+01
 1.7991751E+01  2.3883194E+01
 1.8003250E+01  2.4010033E+01
 1.8014751E+01  2.4131893E+01
 1.8026251E+01  2.4319883E+01
 1.8037750E+01  2.4523949E+01
 1.8049252E+01  2.4718227E+01
 1.8060751E+01  2.4927557E+01
 1.8072250E+01  2.5073999E+01
 1.8083752E+01  2.5279701E+01
 1.8095251E+01  2.5407684E+01
 1.8106750E+01  2.5409985E+01
 1.8118252E+01  2.5270418E+01
 1.8129751E+01  2.4959137E+01
 1.8141251E+01  2.4636862E+01
 1.8152750E+01  2.4288883E+01
 1.8164251E+01  2.4069317E+01
 1.8175751E+01  2.3926853E+01
 1.8187250E+01  2.3844591E+01
 1.8198751E+01  2.3792978E+01
 1.8210251E+01  2.3767084E+01
 1.8221750E+01  2.3728846E+01
 1.8233252E+01  2.3662926E+01
 1.8244751E+01  2.3602318E+01
 1.8256250E+01  2.3564358E+01
 1.8267752E+01  2.3540905E+01
 1.8279251E+01  2.3511604E+01
 1.8290751E+01  2.3472733E+01
 1.8302252E+01  2.3495394E+01
 1.8313751E+01  2.3515495E+01
 1.8325251E+01  2.3503593E+01
 1.8336750E+01  2.3494524E+01
 1.8348251E+01  2.3502789E+01
 1.8359751E+01  2.3542662E+01
 1.8371250E+01  2.3522787E+01
 1.8382751E+01  2.3543509E+01
 1.8394251E+01  2.3552189E+01
 1.8405750E+01  2.3579536E+01
 1.8417252E+01  2.3552845E+01
 1.8428751E+01  2.3547939E+01
 1.8440250E+01  2.3540785E+01
 1.8451752E+01  2.3544569E+01
 1.8463251E+01  2.3566660E+01
 1.8474751E+01  2.3592110E+01
 1.8486252E+01  2.3582655E+01
 1.8497751E+01  2.3576872E+01
 1.8509251E+01  2.3573202E+01
 1.8520750E+01  2.3544252E+01
 1.8532251E+01  2.3523464E+01
 1.8543751E+01  2.3493813E+01
 1.8555250E+01  2.3521357E+01
 1.8566751E+01  2.3514996E+01
 1.8578251E+01  2.3556158E+01
 1.8589750E+01  2.3548447E+01
 1.8601252E+01  2.3496632E+01
 1.8612751E+01  2.3451044E+01
 1.8624250E+01  2.3424713E+01
 1.8635752E+01  2.3427526E+01
 1.8647251E+01  2.3423246E+01
 1.8658751E+01  2.3390408E+01
 1.8670252E+01  2.3415134E+01
 1.8681751E+01  2.3417818E+01
 1.8693251E+01  2.3430079E+01
 1.8704750E+01  2.3413307E+01
 1.8716251E+01  2.3416012E+01
 1.8727751E+01  2.3393398E+01
 1.8739250E+01  2.3379835E+01
 1.8750751E+01  2.3368910E+01
 1.8762251E+01  2.3370584E+01
 1.8773750E+01  2.3375580E+01
 1.8785252E+01  2.3359661E+01
 1.8796751E+01  2.3341711E+01
 1.8808250E+01  2.3324255E+01
 1.8819752E+01  2.3383469E+01
 1.8831251E+01  2.3377237E+01
 1.8842751E+01  2.3367954E+01
 1.8854252E+01  2.3337496E+01
 1.8865751E+01  2.3348736E+01
 1.8877251E+01  2.3333109E+01
 1.8888750E+01  2.3321554E+01
 1.8900251E+01  2.3287815E+01
 1.8911751E+01  2.3285982E+01
 1.8923250E+01  2.3375555E+01
 1.8934752E+01  2.3462086E+01
 1.8946251E+01  2.3547205E+01
 1.8957750E+01  2.3558586E+01
 1.8969252E+01  2.3514151E+01
 1.8980751E+01  2.3554049E+01
 1.8992250E+01  2.3548038E+01
 1.9003752E+01  2.3800886E+01
 1.9015251E+01  2.3825300E+01
 1.9026751E+01  2.3935942E+01
 1.9038252E+01  2.3771219E+01
 1.9049751E+01  2.3595545E+01
 1.9061251E+01  2.3493753E+01
 1.9072750E+01  2.3452774E+01
 1.9084251E+01  2.3431877E+01
 1.9095751E+01  2.3414377E+01
 1.9107250E+01  2.3371731E+01
 1.9118752E+01  2.3368782E+01
 1.9130251E+01  2.3392433E+01
 1.9141750E+01  2.3448624E+01
 1.9153252E+01  2.3561499E+01
 1.9164751E+01  2.3575354E+01
 1.9176250E+01  2.3549803E+01
 1.9187752E+01  2.3483957E+01
 1.9199251E+01  2.3488033E+01
 1.9210751E+01  2.3473814E+01
 1.9222252E+01  2.3441071E+01
 1.9233751E+01  2.3416283E+01
 1.9245251E+01  2.3468523E+01
 1.9256750E+01  2.3499336E+01
 1.9268251E+01  2.3510174E+01
 1.9279751E+01  2.3494551E+01
 1.9291250E+01  2.3520742E+01
 1.9302752E+01  2.3517002E+01
 1.9314251E+01  2.3510281E+01
 1.9325750E+01  2.3474562E+01
 1.9337252E+01  2.3483940E+01
 1.9348751E+01  2.3495497E+01
 1.9360250E+01  2.3525183E+01
 1.9371752E+01  2.3550543E+01
 1.9383251E+01  2.3608608E+01
 1.9394751E+01  2.3701714E+01
 1.9406250E+01  2.3725666E+01
 1.9417751E+01  2.3721041E+01
 1.9429251E+01  2.3651735E+01
 1.9440750E+01  2.3635967E+01
 1.9452251E+01  2.3617428E+01
 1.9463751E+01  2.3619864E+01
 1.9475250E+01  2.3579058E+01
 1.9486752E+01  2.3561583E+01
 1.9498251E+01  2.3509180E+01
 1.9509750E+01  2.3535315E+01
 1.9521252E+01  2.3560125E+01
 1.9532751E+01  2.3632591E+01
 1.9544250E+01  2.3691847E+01
 1.9555752E+01  2.3691891E+01
 1.9567251E+01  2.3712484E+01
 1.9578751E+01  2.3684517E+01
 1.9590250E+01  2.3683880E+01
 1.9601751E+01  2.3655005E+01
 1.9613251E+01  2.3728237E+01
 1.9624750E+01  2.3800293E+01
 1.9636251E+01  2.3935102E+01
 1.9647751E+01  2.4048590E+01
 1.9659250E+01  2.4322123E+01
 1.9670752E+01  2.4608599E+01
 1.9682251E+01  2.4976044E+01
 1.9693750E+01  2.5574970E+01
 1.9705252E+01  2.5803354E+01
 1.9716751E+01  2.6126528E+01
 1.9728251E+01  2.5984695E+01
 1.9739752E+01  2.5865486E+01
 1.9751251E+01  2.5325304E+01
 1.9762751E+01  2.4967876E+01
 1.9774250E+01  2.4706457E+01
 1.9785751E+01  2.4475321E+01
 1.9797251E+01  2.4524439E+01
 1.9808750E+01  2.4699741E+01
 1.9820251E+01  2.5017752E+01
 1.9831751E+01  2.5528358E+01
 1.9843250E+01  2.5795261E+01
 1.9854752E+01  2.6193115E+01
 1.9866251E+01  2.6157734E+01
 1.9877750E+01  2.6089272E+01
 1.9889252E+01  2.5642313E+01
 1.9900751E+01  2.5200090E+01
 1.9912251E+01  2.4764942E+01
 1.9923752E+01  2.4339157E+01
 1.9935251E+01  2.4092339E+01
 1.9946751E+01  2.3925629E+01
 1.9958250E+01  2.3820917E+01
 1.9969751E+01  2.3776909E+01
 1.9981251E+01  2.3710129E+01
 1.9992750E+01  2.3737482E+01
 2.0004251E+01  2.3717733E+01
 2.0015751E+01  2.3726349E+01
 2.0027250E+01  2.3704580E+01
 2.0038752E+01  2.3670620E+01
 2.0050251E+01  2.3652493E+01
 2.0061750E+01  2.3625130E+01
 2.0073252E+01  2.3644341E+01
 2.0084751E+01  2.3671968E+01
 2.0096251E+01  2.3747456E+01
 2.0107752E+01  2.3786707E+01
 2.0119251E+01  2.3796219E+01
 2.0130751E+01  2.3734886E+01
 2.0142250E+01  2.3672590E+01
 2.0153751E+01  2.3637171E+01
 2.0165251E+01  2.3644148E+01
 2.0176750E+01  2.3623976E+01
 2.0188251E+01  2.3626116E+01
 2.0199751E+01  2.3633516E+01
 2.0211250E+01  2.3667082E+01
 2.0222752E+01  2.3698498E+01
 2.0234251E+01  2.3722933E+01
 2.0245750E+01  2.3714897E+01
 2.0257252E+01  2.3666540E+01
 2.0268751E+01  2.3607664E+01
 2.0280251E+01  2.3599504E+01
 2.0291752E+01  2.3635893E+01
 2.0303251E+01  2.3568640E+01
 2.0314751E+01  2.3563406E+01
 2.0326250E+01  2.3541887E+01
 2.0337751E+01  2.3646832E+01
 2.0349251E+01  2.3667173E+01
 2.0360750E+01  2.3707458E+01
 2.0372252E+01  2.3670797E+01
 2.0383751E+01  2.3683771E+01
 2.0395250E+01  2.3662022E+01
 2.0406752E+01  2.3687992E+01
 2.0418251E+01  2.3706038E+01
 2.0429750E+01  2.3749231E+01
 2.0441252E+01  2.3698061E+01
 2.0452751E+01  2.3647127E+01
 2.0464251E+01  2.3635853E+01
 2.0475752E+01  2.3662470E+01
 2.0487251E+01  2.3646971E+01
 2.0498751E+01  2.3690964E+01
 2.0510250E+01  2.3661089E+01
 2.0521751E+01  2.3651068E+01
 2.0533251E+01  2.3594809E+01
 2.0544750E+01  2.3624914E+01
 2.0556252E+01  2.3716230E+01
 2.0567751E+01  2.3747303E+01
 2.0579250E+01  2.3783955E+01
 2.0590752E+01  2.3794689E+01
 2.0602251E+01  2.3868643E+01
 2.0613750E+01  2.3884108E+01
 2.0625252E+01  2.3908543E+01
 2.0636751E+01  2.3957546E+01
 2.0648251E+01  2.3995571E+01
 2.0659752E+01  2.4028934E+01
 2.0671251E+01  2.4060423E+01
 2.0682751E+01  2.4202478E+01
 2.0694250E+01  2.4397680E+01
 2.0705751E+01  2.4634138E+01
 2.0717251E+01  2.5003517E+01
 2.0728750E+01  2.5424711E+01
 2.0740252E+01  2.5994446E+01
 2.0751751E+01  2.6415880E+01
 2.0763250E+01  2.6683134E+01
 2.0774752E+01  2.6668610E+01
 2.0786251E+01  2.6529247E+01
 2.0797750E+01  2.6240736E+01
 2.0809252E+01  2.5796799E+01
 2.0820751E+01  2.5263329E+01
 2.0832251E+01  2.4806000E+01
 2.0843752E+01  2.4481579E+01
 2.0855251E+01  2.4300081E+01
 2.0866751E+01  2.4145203E+01
 2.0878250E+01  2.4041067E+01
 2.0889751E+01  2.3983360E+01
 2.0901251E+01  2.3978296E+01
 2.0912750E+01  2.3965542E+01
 2.0924252E+01  2.3924614E+01
 2.0935751E+01  2.3942846E+01
 2.0947250E+01  2.3939537E+01
 2.0958752E+01  2.3951662E+01
 2.0970251E+01  2.3935488E+01
 2.0981750E+01  2.3924505E+01
 2.0993252E+01  2.3899376E+01
 2.1004751E+01  2.3858109E+01
 2.1016251E+01  2.3812607E+01
 2.1027752E+01  2.3826353E+01
 2.1039251E+01  2.3851437E+01
 2.1050751E+01  2.3813427E+01
 2.1062250E+01  2.3806953E+01
 2.1073751E+01  2.3829042E+01
 2.1085251E+01  2.3875090E+01
 2.1096750E+01  2.3853180E+01
 2.1108252E+01  2.3843954E+01
 2.1119751E+01  2.3868538E+01
 2.1131250E+01  2.3879673E+01
 2.1142752E+01  2.3845407E+01
 2.1154251E+01  2.3758917E+01
 2.1165751E+01  2.3761066E+01
 2.1177252E+01  2.3810266E+01
 2.1188751E+01  2.3849709E+01
 2.1200251E+01  2.3882872E+01
 2.1211752E+01  2.3916124E+01
 2.1223251E+01  2.3882851E+01
 2.1234751E+01  2.3817850E+01
 2.1246250E+01  2.3850147E+01
 2.1257751E+01  2.3896126E+01
 2.1269251E+01  2.3914780E+01
 2.1280750E+01  2.3888588E+01
 2.1292252E+01  2.3913446E+01
 2.1303751E+01  2.3883825E+01
 2.1315250E+01  2.3833912E+01
 2.1326752E+01  2.3832123E+01
 2.1338251E+01  2.3867018E+01
 2.1349751E+01  2.3910028E+01
 2.1361252E+01  2.3930737E+01
 2.1372751E+01  2.3910801E+01
 2.1384251E+01  2.3913574E+01
 2.1395752E+01  2.3921261E+01
 2.1407251E+01  2.3966021E+01
 2.1418751E+01  2.3947683E+01
 2.1430250E+01  2.3948364E+01
 2.1441751E+01  2.3875225E+01
 2.1453251E+01  2.3842209E+01
 2.1464750E+01  2.3811876E+01
 2.1476252E+01  2.3840826E+01
 2.1487751E+01  2.3894335E+01
 2.1499250E+01  2.3963358E+01
 2.1510752E+01  2.4010118E+01
 2.1522251E+01  2.4040905E+01
 2.1533751E+01  2.4061241E+01
 2.1545252E+01  2.4041153E+01
 2.1556751E+01  2.4052761E+01
 2.1568251E+01  2.4050791E+01
 2.1579752E+01  2.4065765E+01
 2.1591251E+01  2.4071135E+01
 2.1602751E+01  2.4085295E+01
 2.1614250E+01  2.4065042E+01
 2.1625751E+01  2.4052296E+01
 2.1637251E+01  2.4070992E+01
 2.1648750E+01  2.4038675E+01
 2.1660252E+01  2.3983074E+01
 2.1671751E+01  2.3970064E+01
 2.1683250E+01  2.3960379E+01
 2.1694752E+01  2.3968155E+01
 2.1706251E+01  2.3970367E+01
 2.1717751E+01  2.4011305E+01
 2.1729252E+01  2.4058516E+01
 2.1740751E+01  2.4084703E+01
 2.1752251E+01  2.4060217E+01
 2.1763752E+01  2.4026007E+01
 2.1775251E+01  2.4064993E+01
 2.1786751E+01  2.4111340E+01
 2.1798250E+01  2.4113697E+01
 2.1809752E+01  2.4082918E+01
 2.1821251E+01  2.4082163E+01
 2.1832750E+01  2.4073040E+01
 2.1844252E+01  2.4110329E+01
 2.1855751E+01  2.4151798E+01
 2.1867250E+01  2.4191971E+01
 2.1878752E+01  2.4152016E+01
 2.1890251E+01  2.4028156E+01
 2.1901751E+01  2.3993820E+01
 2.1913252E+01  2.4012871E+01
 2.1924751E+01  2.4049509E+01
 2.1936251E+01  2.4092817E+01
 2.1947752E+01  2.4137829E+01
 2.1959251E+01  2.4175474E+01
 2.1970751E+01  2.4146841E+01
 2.1982250E+01  2.4161879E+01
 2.1993752E+01  2.4128286E+01
 2.2005251E+01  2.4115458E+01
 2.2016750E+01  2.4108582E+01
 2.2028252E+01  2.4123163E+01
 2.2039751E+01  2.4133768E+01
 2.2051250E+01  2.4195406E+01
 2.2062752E+01  2.4206606E+01
 2.2074251E+01  2.4203728E+01
 2.2085751E+01  2.4161081E+01
 2.2097252E+01  2.4190025E+01
 2.2108751E+01  2.4162355E+01
 2.2120251E+01  2.4229225E+01
 2.2131752E+01  2.4272190E+01
 2.2143251E+01  2.4324900E+01
 2.2154751E+01  2.4283213E+01
 2.2166250E+01  2.4271740E+01
 2.2177752E+01  2.4305742E+01
 2.2189251E+01  2.4317978E+01
 2.2200750E+01  2.4302641E+01
 2.2212252E+01  2.4291904E+01
 2.2223751E+01  2.4357800E+01
 2.2235250E+01  2.4376411E+01
 2.2246752E+01  2.4401876E+01
 2.2258251E+01  2.4378908E+01
 2.2269751E+01  2.4383976E+01
 2.2281252E+01  2.4368837E+01
 2.2292751E+01  2.4386116E+01
 2.2304251E+01  2.4430889E+01
 2.2315752E+01  2.4500786E+01
 2.2327251E+01  2.4482569E+01
 2.2338751E+01  2.4478203E+01
 2.2350250E+01  2.4481842E+01
 2.2361752E+01  2.4534254E+01
 2.2373251E+01  2.4598358E+01
 2.2384750E+01  2.4557728E+01
 2.2396252E+01  2.4521046E+01
 2.2407751E+01  2.4454741E+01
 2.2419250E+01  2.4430916E+01
 2.2430752E+01  2.4464386E+01
 2.2442251E+01  2.4531591E+01
 2.2453751E+01  2.4571877E+01
 2.2465252E+01  2.4586504E+01
 2.2476751E+01  2.4550386E+01
 2.2488251E+01  2.4542301E+01
 2.2499752E+01  2.4552553E+01
 2.2511251E+01  2.4545652E+01
 2.2522751E+01  2.4551960E+01
 2.2534250E+01  2.4608047E+01
 2.2545752E+01  2.4671246E+01
 2.2557251E+01  2.4679140E+01
 2.2568750E+01  2.4678312E+01
 2.2580252E+01  2.4683317E+01
 2.2591751E+01  2.4684875E+01
 2.2603251E+01  2.4768396E+01
 2.2614752E+01  2.4858500E+01
 2.2626251E+01  2.4931660E+01
 2.2637751E+01  2.4899855E+01
 2.2649252E+01  2.4863228E+01
 2.2660751E+01  2.4859343E+01
 2.2672251E+01  2.4910118E+01
 2.2683752E+01  2.5019060E+01
 2.2695251E+01  2.5057802E+01
 2.2706751E+01  2.5031603E+01
 2.2718250E+01  2.5021564E+01
 2.2729752E+01  2.5064756E+01
 2.2741251E+01  2.5113110E+01
 2.2752750E+01  2.5123926E+01
 2.2764252E+01  2.5156361E+01
 2.2775751E+01  2.5222097E+01
 2.2787251E+01  2.5200903E+01
 2.2798752E+01  2.5241924E+01
 2.2810251E+01  2.5291281E+01
 2.2821751E+01  2.5368469E+01
 2.2833252E+01  2.5382648E+01
 2.2844751E+01  2.5401989E+01
 2.2856251E+01  2.5406199E+01
 2.2867750E+01  2.5456429E+01
 2.2879251E+01  2.5472994E+01
 2.2890751E+01  2.5535200E+01
 2.2902250E+01  2.5577808E+01
 2.2913752E+01  2.5706778E+01
 2.2925251E+01  2.5816925E+01
 2.2936750E+01  2.5910603E+01
 2.2948252E+01  2.5970154E+01
 2.2959751E+01  2.6037773E+01
 2.2971251E+01  2.6170513E+01
 2.2982752E+01  2.6304636E+01
 2.2994251E+01  2.6428883E+01
