F:\20151113_APS_34IDE\\Brian\Particle1\OCV\Data_0091.tif
2-Theta Angle (Degrees)
Intensity
       2000
 5.7500005E-03  0.0000000E+00
 1.7250001E-02  0.0000000E+00
 2.8750001E-02  0.0000000E+00
 4.0250003E-02  0.0000000E+00
 5.1750004E-02  0.0000000E+00
 6.3250005E-02  0.0000000E+00
 7.4750006E-02  0.0000000E+00
 8.6250007E-02  0.0000000E+00
 9.7750008E-02  0.0000000E+00
 1.0925001E-01  0.0000000E+00
 1.2075000E-01  0.0000000E+00
 1.3225001E-01  0.0000000E+00
 1.4375001E-01  0.0000000E+00
 1.5525001E-01  0.0000000E+00
 1.6675001E-01  0.0000000E+00
 1.7825001E-01  0.0000000E+00
 1.8975002E-01  0.0000000E+00
 2.0125002E-01  0.0000000E+00
 2.1275002E-01  0.0000000E+00
 2.2425000E-01  0.0000000E+00
 2.3575000E-01  0.0000000E+00
 2.4725001E-01  0.0000000E+00
 2.5875002E-01  0.0000000E+00
 2.7025002E-01  0.0000000E+00
 2.8175002E-01  0.0000000E+00
 2.9325002E-01  0.0000000E+00
 3.0475003E-01  0.0000000E+00
 3.1625003E-01  0.0000000E+00
 3.2775003E-01  0.0000000E+00
 3.3925003E-01  0.0000000E+00
 3.5075003E-01  0.0000000E+00
 3.6225003E-01  0.0000000E+00
 3.7375003E-01  0.0000000E+00
 3.8525003E-01  0.0000000E+00
 3.9675003E-01  0.0000000E+00
 4.0825003E-01  0.0000000E+00
 4.1975003E-01  0.0000000E+00
 4.3125004E-01  0.0000000E+00
 4.4275001E-01  0.0000000E+00
 4.5425001E-01  0.0000000E+00
 4.6575001E-01  0.0000000E+00
 4.7725001E-01  0.0000000E+00
 4.8875001E-01  0.0000000E+00
 5.0025004E-01  0.0000000E+00
 5.1175004E-01  0.0000000E+00
 5.2325004E-01  0.0000000E+00
 5.3475004E-01  0.0000000E+00
 5.4625005E-01  0.0000000E+00
 5.5775005E-01  0.0000000E+00
 5.6925005E-01  0.0000000E+00
 5.8075005E-01  0.0000000E+00
 5.9225005E-01  0.0000000E+00
 6.0375005E-01  0.0000000E+00
 6.1525005E-01  0.0000000E+00
 6.2675005E-01  0.0000000E+00
 6.3825005E-01  0.0000000E+00
 6.4975005E-01  0.0000000E+00
 6.6125005E-01  0.0000000E+00
 6.7275006E-01  0.0000000E+00
 6.8425006E-01  0.0000000E+00
 6.9575006E-01  0.0000000E+00
 7.0725006E-01  0.0000000E+00
 7.1875006E-01  0.0000000E+00
 7.3025006E-01  0.0000000E+00
 7.4175006E-01  0.0000000E+00
 7.5325006E-01  0.0000000E+00
 7.6475006E-01  0.0000000E+00
 7.7625006E-01  0.0000000E+00
 7.8775007E-01  0.0000000E+00
 7.9925007E-01  0.0000000E+00
 8.1075007E-01  0.0000000E+00
 8.2225007E-01  0.0000000E+00
 8.3375007E-01  0.0000000E+00
 8.4525007E-01  0.0000000E+00
 8.5675007E-01  0.0000000E+00
 8.6825007E-01  0.0000000E+00
 8.7975001E-01  0.0000000E+00
 8.9125001E-01  0.0000000E+00
 9.0275002E-01  0.0000000E+00
 9.1425002E-01  0.0000000E+00
 9.2575002E-01  0.0000000E+00
 9.3725002E-01  0.0000000E+00
 9.4875002E-01  0.0000000E+00
 9.6025002E-01  0.0000000E+00
 9.7175002E-01  0.0000000E+00
 9.8325002E-01  0.0000000E+00
 9.9475002E-01  0.0000000E+00
 1.0062500E+00  0.0000000E+00
 1.0177500E+00  0.0000000E+00
 1.0292500E+00  0.0000000E+00
 1.0407500E+00  0.0000000E+00
 1.0522500E+00  0.0000000E+00
 1.0637500E+00  0.0000000E+00
 1.0752500E+00  0.0000000E+00
 1.0867500E+00  0.0000000E+00
 1.0982500E+00  0.0000000E+00
 1.1097500E+00  0.0000000E+00
 1.1212500E+00  0.0000000E+00
 1.1327500E+00  0.0000000E+00
 1.1442500E+00  0.0000000E+00
 1.1557500E+00  0.0000000E+00
 1.1672500E+00  0.0000000E+00
 1.1787500E+00  0.0000000E+00
 1.1902500E+00  0.0000000E+00
 1.2017500E+00  0.0000000E+00
 1.2132500E+00  0.0000000E+00
 1.2247500E+00  0.0000000E+00
 1.2362500E+00  0.0000000E+00
 1.2477500E+00  0.0000000E+00
 1.2592500E+00  0.0000000E+00
 1.2707500E+00  0.0000000E+00
 1.2822500E+00  0.0000000E+00
 1.2937500E+00  0.0000000E+00
 1.3052500E+00  0.0000000E+00
 1.3167500E+00  0.0000000E+00
 1.3282501E+00  0.0000000E+00
 1.3397501E+00  0.0000000E+00
 1.3512501E+00  0.0000000E+00
 1.3627501E+00  0.0000000E+00
 1.3742501E+00  0.0000000E+00
 1.3857501E+00  0.0000000E+00
 1.3972501E+00  0.0000000E+00
 1.4087501E+00  0.0000000E+00
 1.4202501E+00  0.0000000E+00
 1.4317501E+00  0.0000000E+00
 1.4432501E+00  0.0000000E+00
 1.4547501E+00  0.0000000E+00
 1.4662501E+00  0.0000000E+00
 1.4777501E+00  0.0000000E+00
 1.4892501E+00  0.0000000E+00
 1.5007501E+00  0.0000000E+00
 1.5122501E+00  0.0000000E+00
 1.5237501E+00  0.0000000E+00
 1.5352501E+00  0.0000000E+00
 1.5467501E+00  0.0000000E+00
 1.5582501E+00  0.0000000E+00
 1.5697501E+00  0.0000000E+00
 1.5812501E+00  0.0000000E+00
 1.5927501E+00  0.0000000E+00
 1.6042501E+00  0.0000000E+00
 1.6157501E+00  0.0000000E+00
 1.6272501E+00  0.0000000E+00
 1.6387501E+00  0.0000000E+00
 1.6502501E+00  0.0000000E+00
 1.6617501E+00  0.0000000E+00
 1.6732501E+00  0.0000000E+00
 1.6847501E+00  0.0000000E+00
 1.6962501E+00  0.0000000E+00
 1.7077501E+00  0.0000000E+00
 1.7192501E+00  0.0000000E+00
 1.7307501E+00  0.0000000E+00
 1.7422501E+00  0.0000000E+00
 1.7537501E+00  0.0000000E+00
 1.7652501E+00  0.0000000E+00
 1.7767501E+00  0.0000000E+00
 1.7882501E+00  0.0000000E+00
 1.7997501E+00  0.0000000E+00
 1.8112501E+00  0.0000000E+00
 1.8227501E+00  0.0000000E+00
 1.8342501E+00  0.0000000E+00
 1.8457501E+00  0.0000000E+00
 1.8572501E+00  0.0000000E+00
 1.8687501E+00  0.0000000E+00
 1.8802501E+00  0.0000000E+00
 1.8917501E+00  0.0000000E+00
 1.9032501E+00  0.0000000E+00
 1.9147501E+00  0.0000000E+00
 1.9262501E+00  0.0000000E+00
 1.9377501E+00  0.0000000E+00
 1.9492501E+00  0.0000000E+00
 1.9607501E+00  0.0000000E+00
 1.9722501E+00  0.0000000E+00
 1.9837501E+00  0.0000000E+00
 1.9952501E+00  0.0000000E+00
 2.0067501E+00  0.0000000E+00
 2.0182500E+00  0.0000000E+00
 2.0297501E+00  0.0000000E+00
 2.0412500E+00  0.0000000E+00
 2.0527501E+00  0.0000000E+00
 2.0642500E+00  0.0000000E+00
 2.0757501E+00  0.0000000E+00
 2.0872500E+00  0.0000000E+00
 2.0987501E+00  0.0000000E+00
 2.1102500E+00  0.0000000E+00
 2.1217501E+00  0.0000000E+00
 2.1332500E+00  0.0000000E+00
 2.1447501E+00  0.0000000E+00
 2.1562500E+00  0.0000000E+00
 2.1677501E+00  0.0000000E+00
 2.1792500E+00  0.0000000E+00
 2.1907501E+00  0.0000000E+00
 2.2022500E+00  0.0000000E+00
 2.2137501E+00  0.0000000E+00
 2.2252500E+00  0.0000000E+00
 2.2367501E+00  0.0000000E+00
 2.2482500E+00  0.0000000E+00
 2.2597501E+00  0.0000000E+00
 2.2712500E+00  0.0000000E+00
 2.2827501E+00  0.0000000E+00
 2.2942500E+00  0.0000000E+00
 2.3057501E+00  0.0000000E+00
 2.3172500E+00  0.0000000E+00
 2.3287501E+00  0.0000000E+00
 2.3402500E+00  0.0000000E+00
 2.3517501E+00  0.0000000E+00
 2.3632500E+00  0.0000000E+00
 2.3747501E+00  0.0000000E+00
 2.3862500E+00  0.0000000E+00
 2.3977501E+00  0.0000000E+00
 2.4092500E+00  0.0000000E+00
 2.4207501E+00  0.0000000E+00
 2.4322500E+00  0.0000000E+00
 2.4437501E+00  0.0000000E+00
 2.4552500E+00  0.0000000E+00
 2.4667501E+00  0.0000000E+00
 2.4782500E+00  0.0000000E+00
 2.4897501E+00  0.0000000E+00
 2.5012500E+00  0.0000000E+00
 2.5127501E+00  0.0000000E+00
 2.5242500E+00  0.0000000E+00
 2.5357502E+00  0.0000000E+00
 2.5472500E+00  0.0000000E+00
 2.5587502E+00  0.0000000E+00
 2.5702500E+00  0.0000000E+00
 2.5817502E+00  0.0000000E+00
 2.5932500E+00  0.0000000E+00
 2.6047502E+00  0.0000000E+00
 2.6162500E+00  0.0000000E+00
 2.6277502E+00  0.0000000E+00
 2.6392500E+00  0.0000000E+00
 2.6507502E+00  0.0000000E+00
 2.6622500E+00  0.0000000E+00
 2.6737502E+00  0.0000000E+00
 2.6852500E+00  0.0000000E+00
 2.6967502E+00  0.0000000E+00
 2.7082500E+00  0.0000000E+00
 2.7197502E+00  0.0000000E+00
 2.7312500E+00  0.0000000E+00
 2.7427502E+00  0.0000000E+00
 2.7542500E+00  0.0000000E+00
 2.7657502E+00  0.0000000E+00
 2.7772501E+00  0.0000000E+00
 2.7887502E+00  0.0000000E+00
 2.8002501E+00  0.0000000E+00
 2.8117502E+00  0.0000000E+00
 2.8232501E+00  3.7647648E+01
 2.8347502E+00  3.6678944E+01
 2.8462501E+00  3.5279175E+01
 2.8577502E+00  3.4796211E+01
 2.8692501E+00  3.4693119E+01
 2.8807502E+00  3.5306999E+01
 2.8922501E+00  3.5902958E+01
 2.9037502E+00  3.6118244E+01
 2.9152501E+00  3.6102646E+01
 2.9267502E+00  3.5883743E+01
 2.9382501E+00  3.5908226E+01
 2.9497502E+00  3.6000729E+01
 2.9612501E+00  3.5813423E+01
 2.9727502E+00  3.5634995E+01
 2.9842501E+00  3.5181679E+01
 2.9957502E+00  3.5142879E+01
 3.0072501E+00  3.5394157E+01
 3.0187502E+00  3.5950085E+01
 3.0302501E+00  3.6210426E+01
 3.0417502E+00  3.6196339E+01
 3.0532501E+00  3.5948566E+01
 3.0647502E+00  3.5949638E+01
 3.0762501E+00  3.6388760E+01
 3.0877502E+00  3.6419556E+01
 3.0992501E+00  3.6825386E+01
 3.1107502E+00  3.6090458E+01
 3.1222501E+00  3.5811340E+01
 3.1337502E+00  3.5238041E+01
 3.1452501E+00  3.5234261E+01
 3.1567502E+00  3.5203571E+01
 3.1682501E+00  3.5415985E+01
 3.1797502E+00  3.5286434E+01
 3.1912501E+00  3.5007027E+01
 3.2027502E+00  3.4751534E+01
 3.2142501E+00  3.4514362E+01
 3.2257502E+00  3.4600105E+01
 3.2372501E+00  3.4194103E+01
 3.2487502E+00  3.3778912E+01
 3.2602501E+00  3.3520264E+01
 3.2717502E+00  3.3504456E+01
 3.2832501E+00  3.3574661E+01
 3.2947502E+00  3.3694408E+01
 3.3062501E+00  3.3875847E+01
 3.3177502E+00  3.4192410E+01
 3.3292501E+00  3.4370163E+01
 3.3407502E+00  3.4439644E+01
 3.3522501E+00  3.4436352E+01
 3.3637502E+00  3.4515377E+01
 3.3752501E+00  3.4499340E+01
 3.3867502E+00  3.4258137E+01
 3.3982501E+00  3.4240105E+01
 3.4097502E+00  3.4202103E+01
 3.4212501E+00  3.4254021E+01
 3.4327502E+00  3.4428837E+01
 3.4442501E+00  3.4532951E+01
 3.4557502E+00  3.4798019E+01
 3.4672501E+00  3.4720509E+01
 3.4787502E+00  3.4738419E+01
 3.4902501E+00  3.4733189E+01
 3.5017502E+00  3.4537285E+01
 3.5132501E+00  3.4476677E+01
 3.5247502E+00  3.4358906E+01
 3.5362501E+00  3.4357212E+01
 3.5477502E+00  3.4121685E+01
 3.5592501E+00  3.3960400E+01
 3.5707502E+00  3.3851791E+01
 3.5822501E+00  3.3952637E+01
 3.5937502E+00  3.3857853E+01
 3.6052501E+00  3.3735321E+01
 3.6167502E+00  3.3485741E+01
 3.6282501E+00  3.3380310E+01
 3.6397502E+00  3.3535732E+01
 3.6512501E+00  3.3653969E+01
 3.6627502E+00  3.3722172E+01
 3.6742501E+00  3.3458385E+01
 3.6857502E+00  3.3460739E+01
 3.6972501E+00  3.3466053E+01
 3.7087502E+00  3.3418354E+01
 3.7202501E+00  3.3204136E+01
 3.7317502E+00  3.3085217E+01
 3.7432501E+00  3.3035664E+01
 3.7547503E+00  3.3134987E+01
 3.7662501E+00  3.3080822E+01
 3.7777503E+00  3.3191719E+01
 3.7892501E+00  3.3098087E+01
 3.8007503E+00  3.3113499E+01
 3.8122501E+00  3.3171852E+01
 3.8237503E+00  3.3201607E+01
 3.8352501E+00  3.3157917E+01
 3.8467503E+00  3.3012207E+01
 3.8582501E+00  3.2864277E+01
 3.8697503E+00  3.3011845E+01
 3.8812501E+00  3.2963085E+01
 3.8927503E+00  3.2947430E+01
 3.9042501E+00  3.2984009E+01
 3.9157503E+00  3.2936230E+01
 3.9272501E+00  3.3064476E+01
 3.9387503E+00  3.3109039E+01
 3.9502501E+00  3.3189316E+01
 3.9617503E+00  3.3330296E+01
 3.9732502E+00  3.3299458E+01
 3.9847503E+00  3.3173225E+01
 3.9962502E+00  3.3142651E+01
 4.0077500E+00  3.3000778E+01
 4.0192504E+00  3.2984592E+01
 4.0307503E+00  3.2863441E+01
 4.0422502E+00  3.2756317E+01
 4.0537500E+00  3.2646145E+01
 4.0652504E+00  3.2658512E+01
 4.0767503E+00  3.2726009E+01
 4.0882502E+00  3.2885574E+01
 4.0997500E+00  3.2802624E+01
 4.1112504E+00  3.2732803E+01
 4.1227503E+00  3.2540257E+01
 4.1342502E+00  3.2627110E+01
 4.1457500E+00  3.2604290E+01
 4.1572504E+00  3.2599331E+01
 4.1687503E+00  3.2505741E+01
 4.1802502E+00  3.2362549E+01
 4.1917500E+00  3.2432232E+01
 4.2032504E+00  3.2301994E+01
 4.2147503E+00  3.2409172E+01
 4.2262502E+00  3.2312740E+01
 4.2377501E+00  3.2420761E+01
 4.2492504E+00  3.2416645E+01
 4.2607503E+00  3.2744541E+01
 4.2722502E+00  3.2939529E+01
 4.2837501E+00  3.3264240E+01
 4.2952504E+00  3.3313419E+01
 4.3067503E+00  3.3266930E+01
 4.3182502E+00  3.3227131E+01
 4.3297501E+00  3.3030975E+01
 4.3412504E+00  3.2833374E+01
 4.3527503E+00  3.2647121E+01
 4.3642502E+00  3.2467876E+01
 4.3757501E+00  3.2456554E+01
 4.3872504E+00  3.2404415E+01
 4.3987503E+00  3.2578583E+01
 4.4102502E+00  3.2709496E+01
 4.4217501E+00  3.2873421E+01
 4.4332504E+00  3.2988422E+01
 4.4447503E+00  3.2957634E+01
 4.4562502E+00  3.2944462E+01
 4.4677501E+00  3.2877254E+01
 4.4792504E+00  3.2877090E+01
 4.4907503E+00  3.2801540E+01
 4.5022502E+00  3.2735832E+01
 4.5137501E+00  3.2757481E+01
 4.5252504E+00  3.2689766E+01
 4.5367503E+00  3.2607269E+01
 4.5482502E+00  3.2538338E+01
 4.5597501E+00  3.2514664E+01
 4.5712504E+00  3.2598171E+01
 4.5827503E+00  3.2738907E+01
 4.5942502E+00  3.3047298E+01
 4.6057501E+00  3.3132252E+01
 4.6172504E+00  3.3220772E+01
 4.6287503E+00  3.3269993E+01
 4.6402502E+00  3.3405792E+01
 4.6517501E+00  3.3441185E+01
 4.6632504E+00  3.3436527E+01
 4.6747503E+00  3.3337933E+01
 4.6862502E+00  3.3265446E+01
 4.6977501E+00  3.3238506E+01
 4.7092505E+00  3.3149727E+01
 4.7207503E+00  3.3056042E+01
 4.7322502E+00  3.2880203E+01
 4.7437501E+00  3.2792519E+01
 4.7552505E+00  3.2751926E+01
 4.7667503E+00  3.2787476E+01
 4.7782502E+00  3.2830875E+01
 4.7897501E+00  3.3035728E+01
 4.8012505E+00  3.2995094E+01
 4.8127503E+00  3.2992233E+01
 4.8242502E+00  3.2883381E+01
 4.8357501E+00  3.2907330E+01
 4.8472505E+00  3.3037430E+01
 4.8587503E+00  3.3166317E+01
 4.8702502E+00  3.3246845E+01
 4.8817501E+00  3.3280430E+01
 4.8932505E+00  3.3162033E+01
 4.9047503E+00  3.3114433E+01
 4.9162502E+00  3.3052608E+01
 4.9277501E+00  3.3132362E+01
 4.9392505E+00  3.3158890E+01
 4.9507504E+00  3.3169662E+01
 4.9622502E+00  3.3249348E+01
 4.9737501E+00  3.3469063E+01
 4.9852505E+00  3.3603741E+01
 4.9967504E+00  3.3628555E+01
 5.0082502E+00  3.3619930E+01
 5.0197501E+00  3.3517941E+01
 5.0312505E+00  3.3497677E+01
 5.0427504E+00  3.3455185E+01
 5.0542502E+00  3.3481499E+01
 5.0657501E+00  3.3603458E+01
 5.0772505E+00  3.3608379E+01
 5.0887504E+00  3.3612083E+01
 5.1002502E+00  3.3647869E+01
 5.1117501E+00  3.3672356E+01
 5.1232505E+00  3.3849300E+01
 5.1347504E+00  3.3904232E+01
 5.1462502E+00  3.4082497E+01
 5.1577501E+00  3.4157555E+01
 5.1692505E+00  3.4108070E+01
 5.1807504E+00  3.4065277E+01
 5.1922503E+00  3.4036327E+01
 5.2037501E+00  3.3984550E+01
 5.2152505E+00  3.3915478E+01
 5.2267504E+00  3.3879898E+01
 5.2382503E+00  3.3980484E+01
 5.2497501E+00  3.3990585E+01
 5.2612505E+00  3.4006195E+01
 5.2727504E+00  3.3977936E+01
 5.2842503E+00  3.4066044E+01
 5.2957501E+00  3.4162586E+01
 5.3072500E+00  3.4329849E+01
 5.3187504E+00  3.4561275E+01
 5.3302503E+00  3.4604488E+01
 5.3417501E+00  3.4700405E+01
 5.3532500E+00  3.4731659E+01
 5.3647504E+00  3.4814205E+01
 5.3762503E+00  3.4985149E+01
 5.3877501E+00  3.5098068E+01
 5.3992500E+00  3.5260754E+01
 5.4107504E+00  3.5235184E+01
 5.4222503E+00  3.5137604E+01
 5.4337502E+00  3.4921295E+01
 5.4452500E+00  3.4855721E+01
 5.4567504E+00  3.4748707E+01
 5.4682503E+00  3.4847427E+01
 5.4797502E+00  3.4865456E+01
 5.4912500E+00  3.4986794E+01
 5.5027504E+00  3.5102711E+01
 5.5142503E+00  3.5371098E+01
 5.5257502E+00  3.5540295E+01
 5.5372500E+00  3.5642525E+01
 5.5487504E+00  3.5626480E+01
 5.5602503E+00  3.5590633E+01
 5.5717502E+00  3.5613766E+01
 5.5832500E+00  3.5538132E+01
 5.5947504E+00  3.5609612E+01
 5.6062503E+00  3.5633617E+01
 5.6177502E+00  3.5694370E+01
 5.6292500E+00  3.5692860E+01
 5.6407504E+00  3.5729755E+01
 5.6522503E+00  3.5789482E+01
 5.6637502E+00  3.5831974E+01
 5.6752501E+00  3.5894726E+01
 5.6867504E+00  3.5828671E+01
 5.6982503E+00  3.5807034E+01
 5.7097502E+00  3.5843380E+01
 5.7212501E+00  3.5788292E+01
 5.7327504E+00  3.5984985E+01
 5.7442503E+00  3.5908184E+01
 5.7557502E+00  3.5969212E+01
 5.7672501E+00  3.5887905E+01
 5.7787504E+00  3.5895824E+01
 5.7902503E+00  3.5983444E+01
 5.8017502E+00  3.5900459E+01
 5.8132501E+00  3.5886051E+01
 5.8247504E+00  3.5884514E+01
 5.8362503E+00  3.6045536E+01
 5.8477502E+00  3.6281326E+01
 5.8592501E+00  3.6440948E+01
 5.8707504E+00  3.6571018E+01
 5.8822503E+00  3.6697247E+01
 5.8937502E+00  3.7026127E+01
 5.9052501E+00  3.7398251E+01
 5.9167504E+00  3.8551430E+01
 5.9282503E+00  3.9565125E+01
 5.9397502E+00  4.2496986E+01
 5.9512501E+00  4.5575089E+01
 5.9627504E+00  5.0720123E+01
 5.9742503E+00  5.1909893E+01
 5.9857502E+00  5.4607273E+01
 5.9972501E+00  5.1418468E+01
 6.0087504E+00  5.0653496E+01
 6.0202503E+00  4.5784721E+01
 6.0317502E+00  4.3682915E+01
 6.0432501E+00  4.1266754E+01
 6.0547504E+00  3.9747837E+01
 6.0662503E+00  3.8702812E+01
 6.0777502E+00  3.8022102E+01
 6.0892501E+00  3.7675812E+01
 6.1007504E+00  3.7512589E+01
 6.1122503E+00  3.7334949E+01
 6.1237502E+00  3.7293941E+01
 6.1352501E+00  3.7141312E+01
 6.1467505E+00  3.7143547E+01
 6.1582503E+00  3.7133438E+01
 6.1697502E+00  3.7175690E+01
 6.1812501E+00  3.7203442E+01
 6.1927505E+00  3.7240120E+01
 6.2042503E+00  3.7265553E+01
 6.2157502E+00  3.7406471E+01
 6.2272501E+00  3.7506985E+01
 6.2387505E+00  3.7611408E+01
 6.2502503E+00  3.7658958E+01
 6.2617502E+00  3.7710072E+01
 6.2732501E+00  3.7754745E+01
 6.2847505E+00  3.7858154E+01
 6.2962503E+00  3.7825165E+01
 6.3077502E+00  3.7871506E+01
 6.3192501E+00  3.7820290E+01
 6.3307505E+00  3.8022736E+01
 6.3422503E+00  3.8146076E+01
 6.3537502E+00  3.8353775E+01
 6.3652501E+00  3.8368984E+01
 6.3767505E+00  3.8412674E+01
 6.3882504E+00  3.8411190E+01
 6.3997502E+00  3.8489964E+01
 6.4112501E+00  3.8635872E+01
 6.4227505E+00  3.8713547E+01
 6.4342504E+00  3.8748371E+01
 6.4457502E+00  3.8732761E+01
 6.4572501E+00  3.8759510E+01
 6.4687505E+00  3.8809185E+01
 6.4802504E+00  3.8901508E+01
 6.4917502E+00  3.9019032E+01
 6.5032501E+00  3.9255886E+01
 6.5147505E+00  3.9454033E+01
 6.5262504E+00  3.9549240E+01
 6.5377502E+00  3.9578991E+01
 6.5492501E+00  3.9573494E+01
 6.5607505E+00  3.9663742E+01
 6.5722504E+00  3.9712414E+01
 6.5837502E+00  3.9734631E+01
 6.5952501E+00  3.9802536E+01
 6.6067505E+00  3.9869396E+01
 6.6182504E+00  3.9940113E+01
 6.6297503E+00  4.0019390E+01
 6.6412501E+00  4.0152874E+01
 6.6527505E+00  4.0328598E+01
 6.6642504E+00  4.0392002E+01
 6.6757503E+00  4.0341671E+01
 6.6872501E+00  4.0225239E+01
 6.6987505E+00  4.0222271E+01
 6.7102504E+00  4.0267857E+01
 6.7217503E+00  4.0417786E+01
 6.7332501E+00  4.0550152E+01
 6.7447505E+00  4.0730434E+01
 6.7562504E+00  4.0957081E+01
 6.7677503E+00  4.1155918E+01
 6.7792501E+00  4.1294468E+01
 6.7907505E+00  4.1336914E+01
 6.8022504E+00  4.1366745E+01
 6.8137503E+00  4.1397953E+01
 6.8252501E+00  4.1435497E+01
 6.8367505E+00  4.1527046E+01
 6.8482504E+00  4.1614796E+01
 6.8597503E+00  4.1788177E+01
 6.8712502E+00  4.1943558E+01
 6.8827505E+00  4.2136375E+01
 6.8942504E+00  4.2321247E+01
 6.9057503E+00  4.2378815E+01
 6.9172502E+00  4.2409927E+01
 6.9287505E+00  4.2261776E+01
 6.9402504E+00  4.2300587E+01
 6.9517503E+00  4.2270012E+01
 6.9632502E+00  4.2222878E+01
 6.9747505E+00  4.2206860E+01
 6.9862504E+00  4.2163940E+01
 6.9977503E+00  4.2227077E+01
 7.0092502E+00  4.2265816E+01
 7.0207505E+00  4.2416851E+01
 7.0322504E+00  4.2535965E+01
 7.0437503E+00  4.2610592E+01
 7.0552502E+00  4.2687084E+01
 7.0667505E+00  4.2860157E+01
 7.0782504E+00  4.2971924E+01
 7.0897503E+00  4.3110584E+01
 7.1012502E+00  4.3203453E+01
 7.1127505E+00  4.3278053E+01
 7.1242504E+00  4.3309074E+01
 7.1357503E+00  4.3328407E+01
 7.1472502E+00  4.3295223E+01
 7.1587505E+00  4.3241581E+01
 7.1702504E+00  4.3206013E+01
 7.1817503E+00  4.3231972E+01
 7.1932502E+00  4.3362049E+01
 7.2047505E+00  4.3545708E+01
 7.2162504E+00  4.3742737E+01
 7.2277503E+00  4.3862610E+01
 7.2392502E+00  4.3816353E+01
 7.2507505E+00  4.3811295E+01
 7.2622504E+00  4.3721806E+01
 7.2737503E+00  4.3702698E+01
 7.2852502E+00  4.3701817E+01
 7.2967505E+00  4.3833168E+01
 7.3082504E+00  4.3933567E+01
 7.3197503E+00  4.4103626E+01
 7.3312502E+00  4.4097210E+01
 7.3427505E+00  4.4131592E+01
 7.3542504E+00  4.4049919E+01
 7.3657503E+00  4.4074711E+01
 7.3772502E+00  4.4142204E+01
 7.3887506E+00  4.4210842E+01
 7.4002504E+00  4.4301739E+01
 7.4117503E+00  4.4401436E+01
 7.4232502E+00  4.4438217E+01
 7.4347506E+00  4.4502678E+01
 7.4462504E+00  4.4431107E+01
 7.4577503E+00  4.4526028E+01
 7.4692502E+00  4.4536747E+01
 7.4807506E+00  4.4653027E+01
 7.4922504E+00  4.4602764E+01
 7.5037503E+00  4.4626694E+01
 7.5152502E+00  4.4521168E+01
 7.5267506E+00  4.4507694E+01
 7.5382504E+00  4.4431164E+01
 7.5497503E+00  4.4381062E+01
 7.5612502E+00  4.4377518E+01
 7.5727506E+00  4.4417053E+01
 7.5842505E+00  4.4460865E+01
 7.5957503E+00  4.4656113E+01
 7.6072502E+00  4.4688679E+01
 7.6187506E+00  4.4804199E+01
 7.6302505E+00  4.4857513E+01
 7.6417503E+00  4.4870266E+01
 7.6532502E+00  4.5224350E+01
 7.6647506E+00  4.5574829E+01
 7.6762505E+00  4.5504002E+01
 7.6877503E+00  4.5197880E+01
 7.6992502E+00  4.4571495E+01
 7.7107506E+00  4.4513214E+01
 7.7222505E+00  4.4492386E+01
 7.7337503E+00  4.4436192E+01
 7.7452502E+00  4.4416965E+01
 7.7567506E+00  4.4259502E+01
 7.7682505E+00  4.4125484E+01
 7.7797503E+00  4.4134342E+01
 7.7912502E+00  4.4114918E+01
 7.8027506E+00  4.4196110E+01
 7.8142505E+00  4.4176064E+01
 7.8257504E+00  4.4208649E+01
 7.8372502E+00  4.4226730E+01
 7.8487506E+00  4.4173359E+01
 7.8602505E+00  4.4078720E+01
 7.8717504E+00  4.4027138E+01
 7.8832502E+00  4.3954155E+01
 7.8947506E+00  4.3891045E+01
 7.9062505E+00  4.3900379E+01
 7.9177504E+00  4.3955540E+01
 7.9292502E+00  4.3865501E+01
 7.9407506E+00  4.3979454E+01
 7.9522505E+00  4.3765442E+01
 7.9637504E+00  4.3723557E+01
 7.9752502E+00  4.3533150E+01
 7.9867506E+00  4.3550957E+01
 7.9982505E+00  4.3534481E+01
 8.0097504E+00  4.3398335E+01
 8.0212507E+00  4.3348392E+01
 8.0327501E+00  4.3310947E+01
 8.0442505E+00  4.3306675E+01
 8.0557508E+00  4.3225380E+01
 8.0672503E+00  4.3099522E+01
 8.0787506E+00  4.3023476E+01
 8.0902500E+00  4.2863705E+01
 8.1017504E+00  4.2760391E+01
 8.1132507E+00  4.2658371E+01
 8.1247501E+00  4.2440578E+01
 8.1362505E+00  4.2360970E+01
 8.1477509E+00  4.2170712E+01
 8.1592503E+00  4.2141300E+01
 8.1707506E+00  4.2148109E+01
 8.1822500E+00  4.2035488E+01
 8.1937504E+00  4.1980461E+01
 8.2052507E+00  4.1759151E+01
 8.2167501E+00  4.1648045E+01
 8.2282505E+00  4.1598129E+01
 8.2397509E+00  4.1570732E+01
 8.2512503E+00  4.1517673E+01
 8.2627506E+00  4.1442879E+01
 8.2742500E+00  4.1303829E+01
 8.2857504E+00  4.1113045E+01
 8.2972507E+00  4.0940716E+01
 8.3087502E+00  4.1056305E+01
 8.3202505E+00  4.1214455E+01
 8.3317509E+00  4.0978256E+01
 8.3432503E+00  4.1275177E+01
 8.3547506E+00  4.0933971E+01
 8.3662500E+00  4.0824154E+01
 8.3777504E+00  3.9987988E+01
 8.3892508E+00  3.9684834E+01
 8.4007502E+00  3.9502460E+01
 8.4122505E+00  3.9309566E+01
 8.4237509E+00  3.9176907E+01
 8.4352503E+00  3.8941326E+01
 8.4467506E+00  3.8815975E+01
 8.4582500E+00  3.8607975E+01
 8.4697504E+00  3.8385559E+01
 8.4812508E+00  3.8101479E+01
 8.4927502E+00  3.7895908E+01
 8.5042505E+00  3.7747681E+01
 8.5157509E+00  3.7665165E+01
 8.5272503E+00  3.7518227E+01
 8.5387506E+00  3.7477928E+01
 8.5502501E+00  3.7285355E+01
 8.5617504E+00  3.7068207E+01
 8.5732508E+00  3.6932114E+01
 8.5847502E+00  3.6719673E+01
 8.5962505E+00  3.6621552E+01
 8.6077509E+00  3.6370609E+01
 8.6192503E+00  3.6237576E+01
 8.6307507E+00  3.6007591E+01
 8.6422501E+00  3.5918476E+01
 8.6537504E+00  3.5673710E+01
 8.6652508E+00  3.5492897E+01
 8.6767502E+00  3.5176128E+01
 8.6882505E+00  3.5076180E+01
 8.6997509E+00  3.4850372E+01
 8.7112503E+00  3.4670555E+01
 8.7227507E+00  3.4500328E+01
 8.7342501E+00  3.4392437E+01
 8.7457504E+00  3.4282745E+01
 8.7572508E+00  3.4125259E+01
 8.7687502E+00  3.3886204E+01
 8.7802505E+00  3.3663738E+01
 8.7917500E+00  3.3401104E+01
 8.8032503E+00  3.3240559E+01
 8.8147507E+00  3.3138489E+01
 8.8262501E+00  3.3101765E+01
 8.8377504E+00  3.3044247E+01
 8.8492508E+00  3.2980091E+01
 8.8607502E+00  3.2812851E+01
 8.8722506E+00  3.2652687E+01
 8.8837500E+00  3.2414482E+01
 8.8952503E+00  3.2114292E+01
 8.9067507E+00  3.1888231E+01
 8.9182501E+00  3.1626749E+01
 8.9297504E+00  3.1506849E+01
 8.9412508E+00  3.1400309E+01
 8.9527502E+00  3.1355701E+01
 8.9642506E+00  3.1297338E+01
 8.9757500E+00  3.1142387E+01
 8.9872503E+00  3.1015690E+01
 8.9987507E+00  3.0833191E+01
 9.0102501E+00  3.0658167E+01
 9.0217505E+00  3.0519289E+01
 9.0332508E+00  3.0401699E+01
 9.0447502E+00  3.0302265E+01
 9.0562506E+00  3.0154488E+01
 9.0677500E+00  2.9973446E+01
 9.0792503E+00  2.9810759E+01
 9.0907507E+00  2.9585403E+01
 9.1022501E+00  2.9447807E+01
 9.1137505E+00  2.9353043E+01
 9.1252508E+00  2.9336630E+01
 9.1367502E+00  2.9312941E+01
 9.1482506E+00  2.9216833E+01
 9.1597500E+00  2.9088097E+01
 9.1712503E+00  2.8956743E+01
 9.1827507E+00  2.8809895E+01
 9.1942501E+00  2.8694448E+01
 9.2057505E+00  2.8502676E+01
 9.2172508E+00  2.8395086E+01
 9.2287502E+00  2.8241753E+01
 9.2402506E+00  2.8159790E+01
 9.2517500E+00  2.8127798E+01
 9.2632504E+00  2.8087694E+01
 9.2747507E+00  2.7975895E+01
 9.2862501E+00  2.7844128E+01
 9.2977505E+00  2.7658840E+01
 9.3092508E+00  2.7549547E+01
 9.3207502E+00  2.7385719E+01
 9.3322506E+00  2.7307684E+01
 9.3437500E+00  2.7223652E+01
 9.3552504E+00  2.7163355E+01
 9.3667507E+00  2.7041023E+01
 9.3782501E+00  2.6985716E+01
 9.3897505E+00  2.6865158E+01
 9.4012508E+00  2.6833649E+01
 9.4127502E+00  2.6654047E+01
 9.4242506E+00  2.6575613E+01
 9.4357500E+00  2.6459703E+01
 9.4472504E+00  2.6414749E+01
 9.4587507E+00  2.6362562E+01
 9.4702501E+00  2.6322361E+01
 9.4817505E+00  2.6316822E+01
 9.4932508E+00  2.6220047E+01
 9.5047503E+00  2.6173428E+01
 9.5162506E+00  2.6088928E+01
 9.5277500E+00  2.6030102E+01
 9.5392504E+00  2.5958179E+01
 9.5507507E+00  2.5923214E+01
 9.5622501E+00  2.5943529E+01
 9.5737505E+00  2.5891176E+01
 9.5852509E+00  2.5840290E+01
 9.5967503E+00  2.5802448E+01
 9.6082506E+00  2.5792982E+01
 9.6197500E+00  2.5772480E+01
 9.6312504E+00  2.5669561E+01
 9.6427507E+00  2.5648506E+01
 9.6542501E+00  2.5592949E+01
 9.6657505E+00  2.5535177E+01
 9.6772509E+00  2.5407812E+01
 9.6887503E+00  2.5296759E+01
 9.7002506E+00  2.5244574E+01
 9.7117500E+00  2.5176245E+01
 9.7232504E+00  2.5152906E+01
 9.7347507E+00  2.5137966E+01
 9.7462502E+00  2.5159523E+01
 9.7577505E+00  2.5118002E+01
 9.7692509E+00  2.5043100E+01
 9.7807503E+00  2.5003151E+01
 9.7922506E+00  2.4968412E+01
 9.8037500E+00  2.4950651E+01
 9.8152504E+00  2.4873335E+01
 9.8267508E+00  2.4755991E+01
 9.8382502E+00  2.4719927E+01
 9.8497505E+00  2.4622446E+01
 9.8612509E+00  2.4560860E+01
 9.8727503E+00  2.4517515E+01
 9.8842506E+00  2.4504951E+01
 9.8957500E+00  2.4535839E+01
 9.9072504E+00  2.4527847E+01
 9.9187508E+00  2.4518883E+01
 9.9302502E+00  2.4425228E+01
 9.9417505E+00  2.4348742E+01
 9.9532509E+00  2.4262480E+01
 9.9647503E+00  2.4326620E+01
 9.9762506E+00  2.4355589E+01
 9.9877501E+00  2.4388157E+01
 9.9992504E+00  2.4398743E+01
 1.0010751E+01  2.4294954E+01
 1.0022250E+01  2.4207373E+01
 1.0033751E+01  2.4125267E+01
 1.0045251E+01  2.4062317E+01
 1.0056750E+01  2.4028072E+01
 1.0068251E+01  2.3952991E+01
 1.0079750E+01  2.3959091E+01
 1.0091250E+01  2.3953772E+01
 1.0102751E+01  2.3927990E+01
 1.0114250E+01  2.3887724E+01
 1.0125751E+01  2.3870680E+01
 1.0137251E+01  2.3832983E+01
 1.0148750E+01  2.3870317E+01
 1.0160251E+01  2.3899000E+01
 1.0171750E+01  2.3923637E+01
 1.0183250E+01  2.3870991E+01
 1.0194751E+01  2.3835077E+01
 1.0206250E+01  2.3755266E+01
 1.0217751E+01  2.3737328E+01
 1.0229251E+01  2.3713507E+01
 1.0240750E+01  2.3698322E+01
 1.0252251E+01  2.3607931E+01
 1.0263750E+01  2.3533037E+01
 1.0275250E+01  2.3543104E+01
 1.0286751E+01  2.3566942E+01
 1.0298250E+01  2.3610586E+01
 1.0309751E+01  2.3649481E+01
 1.0321251E+01  2.3647619E+01
 1.0332750E+01  2.3582766E+01
 1.0344251E+01  2.3577454E+01
 1.0355750E+01  2.3528818E+01
 1.0367250E+01  2.3523006E+01
 1.0378751E+01  2.3427996E+01
 1.0390250E+01  2.3471909E+01
 1.0401751E+01  2.3454899E+01
 1.0413251E+01  2.3416718E+01
 1.0424750E+01  2.3340649E+01
 1.0436251E+01  2.3281197E+01
 1.0447750E+01  2.3242321E+01
 1.0459250E+01  2.3236467E+01
 1.0470751E+01  2.3213074E+01
 1.0482250E+01  2.3227119E+01
 1.0493751E+01  2.3233723E+01
 1.0505251E+01  2.3254221E+01
 1.0516750E+01  2.3210276E+01
 1.0528251E+01  2.3105358E+01
 1.0539750E+01  2.3062792E+01
 1.0551250E+01  2.3051353E+01
 1.0562751E+01  2.3039974E+01
 1.0574250E+01  2.2965693E+01
 1.0585751E+01  2.2915701E+01
 1.0597251E+01  2.2883444E+01
 1.0608750E+01  2.2904333E+01
 1.0620251E+01  2.2931334E+01
 1.0631750E+01  2.3028748E+01
 1.0643250E+01  2.3046869E+01
 1.0654751E+01  2.3103327E+01
 1.0666250E+01  2.3044403E+01
 1.0677751E+01  2.2938377E+01
 1.0689251E+01  2.2818163E+01
 1.0700750E+01  2.2757917E+01
 1.0712251E+01  2.2769766E+01
 1.0723750E+01  2.2822708E+01
 1.0735250E+01  2.2846584E+01
 1.0746751E+01  2.2871548E+01
 1.0758250E+01  2.2810732E+01
 1.0769751E+01  2.2808594E+01
 1.0781251E+01  2.2858723E+01
 1.0792750E+01  2.2889996E+01
 1.0804251E+01  2.2876152E+01
 1.0815750E+01  2.2876398E+01
 1.0827250E+01  2.2881948E+01
 1.0838751E+01  2.2884981E+01
 1.0850250E+01  2.2896391E+01
 1.0861751E+01  2.2855391E+01
 1.0873251E+01  2.2846191E+01
 1.0884750E+01  2.2789581E+01
 1.0896251E+01  2.2738176E+01
 1.0907750E+01  2.2753279E+01
 1.0919250E+01  2.2687777E+01
 1.0930751E+01  2.2660723E+01
 1.0942250E+01  2.2525063E+01
 1.0953751E+01  2.2503483E+01
 1.0965251E+01  2.2461073E+01
 1.0976750E+01  2.2471405E+01
 1.0988251E+01  2.2442904E+01
 1.0999750E+01  2.2469660E+01
 1.1011250E+01  2.2497444E+01
 1.1022751E+01  2.2548649E+01
 1.1034250E+01  2.2554785E+01
 1.1045751E+01  2.2512142E+01
 1.1057251E+01  2.2436190E+01
 1.1068750E+01  2.2497578E+01
 1.1080251E+01  2.2511127E+01
 1.1091750E+01  2.2506657E+01
 1.1103251E+01  2.2480667E+01
 1.1114751E+01  2.2455820E+01
 1.1126250E+01  2.2490938E+01
 1.1137751E+01  2.2446224E+01
 1.1149251E+01  2.2444223E+01
 1.1160750E+01  2.2471899E+01
 1.1172251E+01  2.2469145E+01
 1.1183750E+01  2.2465828E+01
 1.1195251E+01  2.2459259E+01
 1.1206751E+01  2.2453039E+01
 1.1218250E+01  2.2461416E+01
 1.1229751E+01  2.2453884E+01
 1.1241251E+01  2.2477673E+01
 1.1252750E+01  2.2537531E+01
 1.1264251E+01  2.2518898E+01
 1.1275750E+01  2.2534204E+01
 1.1287251E+01  2.2510738E+01
 1.1298751E+01  2.2548306E+01
 1.1310250E+01  2.2555233E+01
 1.1321751E+01  2.2562010E+01
 1.1333251E+01  2.2563152E+01
 1.1344750E+01  2.2513971E+01
 1.1356251E+01  2.2522247E+01
 1.1367750E+01  2.2581491E+01
 1.1379251E+01  2.2702156E+01
 1.1390751E+01  2.2791279E+01
 1.1402250E+01  2.2859037E+01
 1.1413751E+01  2.2885876E+01
 1.1425251E+01  2.2910067E+01
 1.1436750E+01  2.2922672E+01
 1.1448251E+01  2.2989077E+01
 1.1459750E+01  2.3087654E+01
 1.1471251E+01  2.3172724E+01
 1.1482751E+01  2.3253468E+01
 1.1494250E+01  2.3302395E+01
 1.1505751E+01  2.3593647E+01
 1.1517251E+01  2.3949205E+01
 1.1528750E+01  2.4498154E+01
 1.1540251E+01  2.6176287E+01
 1.1551750E+01  2.7273130E+01
 1.1563251E+01  2.9801245E+01
 1.1574751E+01  3.2322086E+01
 1.1586250E+01  3.3986820E+01
 1.1597751E+01  3.5030434E+01
 1.1609251E+01  3.3658085E+01
 1.1620750E+01  3.3015671E+01
 1.1632251E+01  3.0384604E+01
 1.1643750E+01  2.8135509E+01
 1.1655251E+01  2.6333139E+01
 1.1666751E+01  2.4995871E+01
 1.1678250E+01  2.4241728E+01
 1.1689751E+01  2.3594917E+01
 1.1701251E+01  2.3337254E+01
 1.1712750E+01  2.3147282E+01
 1.1724251E+01  2.3018093E+01
 1.1735750E+01  2.2939384E+01
 1.1747251E+01  2.2932817E+01
 1.1758751E+01  2.2846590E+01
 1.1770250E+01  2.2705696E+01
 1.1781751E+01  2.2620770E+01
 1.1793251E+01  2.2643625E+01
 1.1804750E+01  2.2707808E+01
 1.1816251E+01  2.2714922E+01
 1.1827750E+01  2.2700619E+01
 1.1839251E+01  2.2662046E+01
 1.1850751E+01  2.2634680E+01
 1.1862250E+01  2.2614668E+01
 1.1873751E+01  2.2666265E+01
 1.1885251E+01  2.2678869E+01
 1.1896750E+01  2.2785614E+01
 1.1908251E+01  2.2878288E+01
 1.1919750E+01  2.3060310E+01
 1.1931251E+01  2.3237785E+01
 1.1942751E+01  2.3539656E+01
 1.1954250E+01  2.3775713E+01
 1.1965751E+01  2.4013184E+01
 1.1977251E+01  2.4107185E+01
 1.1988750E+01  2.4134928E+01
 1.2000251E+01  2.3978470E+01
 1.2011750E+01  2.3791752E+01
 1.2023251E+01  2.3631817E+01
 1.2034751E+01  2.3712538E+01
 1.2046250E+01  2.3974556E+01
 1.2057751E+01  2.4522509E+01
 1.2069251E+01  2.5137335E+01
 1.2080750E+01  2.5793331E+01
 1.2092251E+01  2.6450783E+01
 1.2103750E+01  2.6524755E+01
 1.2115251E+01  2.6399237E+01
 1.2126751E+01  2.5727261E+01
 1.2138250E+01  2.5052214E+01
 1.2149751E+01  2.4384809E+01
 1.2161251E+01  2.3790796E+01
 1.2172750E+01  2.3444845E+01
 1.2184251E+01  2.3099808E+01
 1.2195750E+01  2.2952991E+01
 1.2207251E+01  2.2894835E+01
 1.2218751E+01  2.2802896E+01
 1.2230250E+01  2.2774300E+01
 1.2241751E+01  2.2665529E+01
 1.2253251E+01  2.2617462E+01
 1.2264750E+01  2.2561857E+01
 1.2276251E+01  2.2571285E+01
 1.2287750E+01  2.2589241E+01
 1.2299251E+01  2.2584358E+01
 1.2310751E+01  2.2604525E+01
 1.2322250E+01  2.2561028E+01
 1.2333751E+01  2.2535316E+01
 1.2345250E+01  2.2502802E+01
 1.2356750E+01  2.2526676E+01
 1.2368251E+01  2.2541897E+01
 1.2379750E+01  2.2569971E+01
 1.2391251E+01  2.2613531E+01
 1.2402751E+01  2.2627264E+01
 1.2414250E+01  2.2656315E+01
 1.2425751E+01  2.2604040E+01
 1.2437250E+01  2.2591909E+01
 1.2448750E+01  2.2574516E+01
 1.2460251E+01  2.2605679E+01
 1.2471750E+01  2.2585821E+01
 1.2483251E+01  2.2604006E+01
 1.2494751E+01  2.2574203E+01
 1.2506250E+01  2.2606030E+01
 1.2517751E+01  2.2585999E+01
 1.2529250E+01  2.2683285E+01
 1.2540751E+01  2.2716213E+01
 1.2552251E+01  2.2789301E+01
 1.2563750E+01  2.2792450E+01
 1.2575251E+01  2.2816702E+01
 1.2586751E+01  2.2821035E+01
 1.2598250E+01  2.2839176E+01
 1.2609751E+01  2.2883776E+01
 1.2621250E+01  2.2918375E+01
 1.2632751E+01  2.2887196E+01
 1.2644251E+01  2.2809774E+01
 1.2655750E+01  2.2700182E+01
 1.2667251E+01  2.2691435E+01
 1.2678751E+01  2.2688322E+01
 1.2690250E+01  2.2762743E+01
 1.2701751E+01  2.2799133E+01
 1.2713250E+01  2.2952822E+01
 1.2724751E+01  2.3038801E+01
 1.2736251E+01  2.3108759E+01
 1.2747750E+01  2.3110254E+01
 1.2759251E+01  2.3121117E+01
 1.2770751E+01  2.3129099E+01
 1.2782250E+01  2.3142921E+01
 1.2793751E+01  2.3113523E+01
 1.2805250E+01  2.3065874E+01
 1.2816751E+01  2.3074118E+01
 1.2828251E+01  2.3102245E+01
 1.2839750E+01  2.3207672E+01
 1.2851251E+01  2.3249353E+01
 1.2862751E+01  2.3322901E+01
 1.2874250E+01  2.3374418E+01
 1.2885751E+01  2.3424900E+01
 1.2897250E+01  2.3464258E+01
 1.2908751E+01  2.3521914E+01
 1.2920251E+01  2.3590452E+01
 1.2931750E+01  2.3711571E+01
 1.2943251E+01  2.3785604E+01
 1.2954751E+01  2.3831497E+01
 1.2966250E+01  2.3884533E+01
 1.2977751E+01  2.3969997E+01
 1.2989250E+01  2.4029715E+01
 1.3000751E+01  2.4118279E+01
 1.3012251E+01  2.4177584E+01
 1.3023750E+01  2.4217812E+01
 1.3035251E+01  2.4241636E+01
 1.3046751E+01  2.4233110E+01
 1.3058250E+01  2.4328472E+01
 1.3069751E+01  2.4383598E+01
 1.3081250E+01  2.4454805E+01
 1.3092751E+01  2.4551849E+01
 1.3104251E+01  2.4714306E+01
 1.3115750E+01  2.4915085E+01
 1.3127251E+01  2.5035801E+01
 1.3138751E+01  2.5097416E+01
 1.3150250E+01  2.5225185E+01
 1.3161751E+01  2.5292063E+01
 1.3173250E+01  2.5462963E+01
 1.3184751E+01  2.5540184E+01
 1.3196251E+01  2.5721561E+01
 1.3207750E+01  2.5857214E+01
 1.3219251E+01  2.6016047E+01
 1.3230751E+01  2.6241104E+01
 1.3242250E+01  2.6412920E+01
 1.3253751E+01  2.6563677E+01
 1.3265250E+01  2.6664833E+01
 1.3276751E+01  2.6823233E+01
 1.3288251E+01  2.7044151E+01
 1.3299750E+01  2.7221802E+01
 1.3311251E+01  2.7364510E+01
 1.3322751E+01  2.7431957E+01
 1.3334250E+01  2.7672842E+01
 1.3345751E+01  2.7786388E+01
 1.3357250E+01  2.8063448E+01
 1.3368751E+01  2.8030462E+01
 1.3380251E+01  2.8171213E+01
 1.3391750E+01  2.8165037E+01
 1.3403251E+01  2.8307886E+01
 1.3414751E+01  2.8360771E+01
 1.3426250E+01  2.8462599E+01
 1.3437751E+01  2.8546890E+01
 1.3449250E+01  2.8621836E+01
 1.3460751E+01  2.8667006E+01
 1.3472251E+01  2.8736294E+01
 1.3483750E+01  2.8919426E+01
 1.3495251E+01  2.9104443E+01
 1.3506751E+01  2.9309654E+01
 1.3518250E+01  2.9446739E+01
 1.3529751E+01  2.9571320E+01
 1.3541250E+01  2.9637705E+01
 1.3552751E+01  2.9727768E+01
 1.3564251E+01  2.9739153E+01
 1.3575750E+01  2.9788031E+01
 1.3587251E+01  2.9746241E+01
 1.3598751E+01  2.9779161E+01
 1.3610250E+01  2.9769827E+01
 1.3621751E+01  2.9816641E+01
 1.3633250E+01  2.9871565E+01
 1.3644751E+01  2.9813856E+01
 1.3656251E+01  2.9735390E+01
 1.3667750E+01  2.9657938E+01
 1.3679251E+01  2.9666483E+01
 1.3690751E+01  2.9589499E+01
 1.3702250E+01  2.9575779E+01
 1.3713751E+01  2.9526529E+01
 1.3725250E+01  2.9572433E+01
 1.3736751E+01  2.9580004E+01
 1.3748251E+01  2.9572769E+01
 1.3759750E+01  2.9578714E+01
 1.3771251E+01  2.9508261E+01
 1.3782751E+01  2.9558208E+01
 1.3794250E+01  2.9540686E+01
 1.3805751E+01  2.9546597E+01
 1.3817250E+01  2.9525099E+01
 1.3828751E+01  2.9581106E+01
 1.3840251E+01  2.9698315E+01
 1.3851750E+01  2.9811077E+01
 1.3863251E+01  3.0003994E+01
 1.3874751E+01  3.0543585E+01
 1.3886250E+01  3.1199320E+01
 1.3897751E+01  3.2476604E+01
 1.3909250E+01  3.3920982E+01
 1.3920751E+01  3.5732014E+01
 1.3932251E+01  3.7524166E+01
 1.3943750E+01  3.8614288E+01
 1.3955251E+01  3.9447166E+01
 1.3966751E+01  3.8635147E+01
 1.3978251E+01  3.8031265E+01
 1.3989751E+01  3.6055248E+01
 1.4001250E+01  3.4749203E+01
 1.4012751E+01  3.2636757E+01
 1.4024251E+01  3.1339289E+01
 1.4035750E+01  2.9984148E+01
 1.4047251E+01  2.9181316E+01
 1.4058751E+01  2.8571096E+01
 1.4070251E+01  2.8257000E+01
 1.4081751E+01  2.7958046E+01
 1.4093250E+01  2.7806976E+01
 1.4104751E+01  2.7664223E+01
 1.4116251E+01  2.7593731E+01
 1.4127750E+01  2.7493124E+01
 1.4139251E+01  2.7403156E+01
 1.4150751E+01  2.7292255E+01
 1.4162251E+01  2.7162321E+01
 1.4173751E+01  2.7056162E+01
 1.4185250E+01  2.6951193E+01
 1.4196751E+01  2.6871000E+01
 1.4208251E+01  2.6795267E+01
 1.4219750E+01  2.6710777E+01
 1.4231251E+01  2.6612051E+01
 1.4242751E+01  2.6568487E+01
 1.4254251E+01  2.6538422E+01
 1.4265751E+01  2.6522402E+01
 1.4277250E+01  2.6440542E+01
 1.4288751E+01  2.6361979E+01
 1.4300251E+01  2.6277390E+01
 1.4311750E+01  2.6231245E+01
 1.4323251E+01  2.6162132E+01
 1.4334751E+01  2.6145710E+01
 1.4346251E+01  2.6147322E+01
 1.4357751E+01  2.6159279E+01
 1.4369250E+01  2.6141449E+01
 1.4380751E+01  2.6081905E+01
 1.4392251E+01  2.6079967E+01
 1.4403750E+01  2.6006079E+01
 1.4415251E+01  2.5974297E+01
 1.4426751E+01  2.5883720E+01
 1.4438251E+01  2.5876099E+01
 1.4449751E+01  2.5826614E+01
 1.4461250E+01  2.5821188E+01
 1.4472751E+01  2.5787580E+01
 1.4484251E+01  2.5752979E+01
 1.4495750E+01  2.5716354E+01
 1.4507251E+01  2.5727070E+01
 1.4518751E+01  2.5777636E+01
 1.4530251E+01  2.5779274E+01
 1.4541751E+01  2.5825613E+01
 1.4553250E+01  2.5783247E+01
 1.4564751E+01  2.5795383E+01
 1.4576251E+01  2.5698729E+01
 1.4587750E+01  2.5701809E+01
 1.4599251E+01  2.5623922E+01
 1.4610751E+01  2.5622433E+01
 1.4622251E+01  2.5600777E+01
 1.4633751E+01  2.5576670E+01
 1.4645250E+01  2.5508268E+01
 1.4656751E+01  2.5433876E+01
 1.4668251E+01  2.5365681E+01
 1.4679750E+01  2.5332760E+01
 1.4691251E+01  2.5374136E+01
 1.4702751E+01  2.5373529E+01
 1.4714251E+01  2.5350666E+01
 1.4725751E+01  2.5276478E+01
 1.4737250E+01  2.5250648E+01
 1.4748751E+01  2.5223986E+01
 1.4760251E+01  2.5160980E+01
 1.4771750E+01  2.5149340E+01
 1.4783251E+01  2.5079990E+01
 1.4794751E+01  2.5100367E+01
 1.4806251E+01  2.5052408E+01
 1.4817751E+01  2.5031767E+01
 1.4829250E+01  2.4948908E+01
 1.4840751E+01  2.4967628E+01
 1.4852251E+01  2.5022640E+01
 1.4863750E+01  2.5016022E+01
 1.4875251E+01  2.5005085E+01
 1.4886751E+01  2.4969006E+01
 1.4898251E+01  2.5014008E+01
 1.4909751E+01  2.4978079E+01
 1.4921250E+01  2.4972445E+01
 1.4932751E+01  2.4927298E+01
 1.4944251E+01  2.4907011E+01
 1.4955750E+01  2.4866903E+01
 1.4967251E+01  2.4839817E+01
 1.4978751E+01  2.4846039E+01
 1.4990251E+01  2.4820112E+01
 1.5001751E+01  2.4790653E+01
 1.5013250E+01  2.4775709E+01
 1.5024751E+01  2.4832993E+01
 1.5036251E+01  2.4826588E+01
 1.5047750E+01  2.4853447E+01
 1.5059251E+01  2.4840050E+01
 1.5070751E+01  2.4901762E+01
 1.5082251E+01  2.4929867E+01
 1.5093751E+01  2.4981186E+01
 1.5105250E+01  2.5059864E+01
 1.5116751E+01  2.5162113E+01
 1.5128251E+01  2.5357151E+01
 1.5139750E+01  2.5604286E+01
 1.5151251E+01  2.6060801E+01
 1.5162751E+01  2.6543442E+01
 1.5174251E+01  2.7074373E+01
 1.5185751E+01  2.7460897E+01
 1.5197250E+01  2.7671652E+01
 1.5208751E+01  2.7543926E+01
 1.5220251E+01  2.7231068E+01
 1.5231750E+01  2.6680651E+01
 1.5243251E+01  2.6146122E+01
 1.5254751E+01  2.5594957E+01
 1.5266251E+01  2.5196712E+01
 1.5277751E+01  2.4955957E+01
 1.5289250E+01  2.4833593E+01
 1.5300751E+01  2.4797056E+01
 1.5312251E+01  2.4744286E+01
 1.5323750E+01  2.4670238E+01
 1.5335251E+01  2.4696384E+01
 1.5346751E+01  2.4694101E+01
 1.5358251E+01  2.4795460E+01
 1.5369751E+01  2.4795460E+01
 1.5381250E+01  2.4778843E+01
 1.5392751E+01  2.4728685E+01
 1.5404251E+01  2.4717875E+01
 1.5415751E+01  2.4683588E+01
 1.5427251E+01  2.4636869E+01
 1.5438751E+01  2.4609213E+01
 1.5450251E+01  2.4623652E+01
 1.5461751E+01  2.4632311E+01
 1.5473250E+01  2.4584253E+01
 1.5484751E+01  2.4581594E+01
 1.5496251E+01  2.4615290E+01
 1.5507751E+01  2.4655874E+01
 1.5519251E+01  2.4684053E+01
 1.5530751E+01  2.4677532E+01
 1.5542251E+01  2.4665613E+01
 1.5553751E+01  2.4630939E+01
 1.5565250E+01  2.4666037E+01
 1.5576751E+01  2.4675829E+01
 1.5588251E+01  2.4696421E+01
 1.5599751E+01  2.4675940E+01
 1.5611251E+01  2.4653793E+01
 1.5622751E+01  2.4595753E+01
 1.5634251E+01  2.4548765E+01
 1.5645751E+01  2.4533777E+01
 1.5657250E+01  2.4542873E+01
 1.5668751E+01  2.4559673E+01
 1.5680251E+01  2.4534544E+01
 1.5691751E+01  2.4523907E+01
 1.5703251E+01  2.4547800E+01
 1.5714751E+01  2.4635361E+01
 1.5726251E+01  2.4661633E+01
 1.5737751E+01  2.4644890E+01
 1.5749250E+01  2.4626223E+01
 1.5760751E+01  2.4643465E+01
 1.5772251E+01  2.4647837E+01
 1.5783751E+01  2.4647717E+01
 1.5795251E+01  2.4712654E+01
 1.5806751E+01  2.4749371E+01
 1.5818251E+01  2.4791374E+01
 1.5829751E+01  2.4723017E+01
 1.5841250E+01  2.4684235E+01
 1.5852751E+01  2.4665648E+01
 1.5864251E+01  2.4663120E+01
 1.5875751E+01  2.4698454E+01
 1.5887251E+01  2.4698864E+01
 1.5898750E+01  2.4768961E+01
 1.5910251E+01  2.4832659E+01
 1.5921751E+01  2.4840559E+01
 1.5933250E+01  2.4855362E+01
 1.5944751E+01  2.4821087E+01
 1.5956251E+01  2.4842731E+01
 1.5967751E+01  2.4799711E+01
 1.5979251E+01  2.4794434E+01
 1.5990750E+01  2.4800375E+01
 1.6002251E+01  2.4782986E+01
 1.6013750E+01  2.4788351E+01
 1.6025251E+01  2.4749392E+01
 1.6036751E+01  2.4759071E+01
 1.6048250E+01  2.4770372E+01
 1.6059752E+01  2.4787746E+01
 1.6071251E+01  2.4740904E+01
 1.6082750E+01  2.4757063E+01
 1.6094252E+01  2.4718191E+01
 1.6105751E+01  2.4760654E+01
 1.6117250E+01  2.4782150E+01
 1.6128750E+01  2.4830299E+01
 1.6140251E+01  2.4898491E+01
 1.6151751E+01  2.4924412E+01
 1.6163250E+01  2.5023155E+01
 1.6174751E+01  2.4996508E+01
 1.6186251E+01  2.5189754E+01
 1.6197750E+01  2.5149605E+01
 1.6209251E+01  2.5686319E+01
 1.6220751E+01  2.5749546E+01
 1.6232250E+01  2.6428631E+01
 1.6243752E+01  2.6611586E+01
 1.6255251E+01  2.6985203E+01
 1.6266750E+01  2.7113611E+01
 1.6278252E+01  2.6656715E+01
 1.6289751E+01  2.6571554E+01
 1.6301250E+01  2.5701855E+01
 1.6312750E+01  2.5709793E+01
 1.6324251E+01  2.5119152E+01
 1.6335751E+01  2.5132668E+01
 1.6347250E+01  2.4855606E+01
 1.6358751E+01  2.4852570E+01
 1.6370251E+01  2.4824604E+01
 1.6381750E+01  2.4929371E+01
 1.6393251E+01  2.4943111E+01
 1.6404751E+01  2.4930742E+01
 1.6416250E+01  2.4871847E+01
 1.6427752E+01  2.4816956E+01
 1.6439251E+01  2.4817810E+01
 1.6450750E+01  2.4812544E+01
 1.6462252E+01  2.4809464E+01
 1.6473751E+01  2.4773933E+01
 1.6485250E+01  2.4775539E+01
 1.6496750E+01  2.4789127E+01
 1.6508251E+01  2.4734385E+01
 1.6519751E+01  2.4694525E+01
 1.6531250E+01  2.4666229E+01
 1.6542751E+01  2.4672100E+01
 1.6554251E+01  2.4673306E+01
 1.6565750E+01  2.4623089E+01
 1.6577251E+01  2.4610893E+01
 1.6588751E+01  2.4613752E+01
 1.6600250E+01  2.4665453E+01
 1.6611752E+01  2.4694803E+01
 1.6623251E+01  2.4658751E+01
 1.6634750E+01  2.4685463E+01
 1.6646252E+01  2.4672827E+01
 1.6657751E+01  2.4681383E+01
 1.6669250E+01  2.4668394E+01
 1.6680750E+01  2.4655020E+01
 1.6692251E+01  2.4716158E+01
 1.6703751E+01  2.4708721E+01
 1.6715250E+01  2.4685280E+01
 1.6726751E+01  2.4591654E+01
 1.6738251E+01  2.4557966E+01
 1.6749750E+01  2.4583075E+01
 1.6761251E+01  2.4551365E+01
 1.6772751E+01  2.4595642E+01
 1.6784250E+01  2.4527399E+01
 1.6795752E+01  2.4516384E+01
 1.6807251E+01  2.4479479E+01
 1.6818750E+01  2.4473606E+01
 1.6830252E+01  2.4462776E+01
 1.6841751E+01  2.4409565E+01
 1.6853251E+01  2.4406221E+01
 1.6864750E+01  2.4403496E+01
 1.6876251E+01  2.4401880E+01
 1.6887751E+01  2.4402079E+01
 1.6899250E+01  2.4377712E+01
 1.6910751E+01  2.4360266E+01
 1.6922251E+01  2.4364094E+01
 1.6933750E+01  2.4375692E+01
 1.6945251E+01  2.4403889E+01
 1.6956751E+01  2.4453037E+01
 1.6968250E+01  2.4450407E+01
 1.6979752E+01  2.4471918E+01
 1.6991251E+01  2.4440924E+01
 1.7002750E+01  2.4453957E+01
 1.7014252E+01  2.4434412E+01
 1.7025751E+01  2.4398794E+01
 1.7037251E+01  2.4305914E+01
 1.7048750E+01  2.4217457E+01
 1.7060251E+01  2.4201748E+01
 1.7071751E+01  2.4223349E+01
 1.7083250E+01  2.4256037E+01
 1.7094751E+01  2.4261337E+01
 1.7106251E+01  2.4273190E+01
 1.7117750E+01  2.4263561E+01
 1.7129251E+01  2.4305891E+01
 1.7140751E+01  2.4338528E+01
 1.7152250E+01  2.4345776E+01
 1.7163752E+01  2.4343803E+01
 1.7175251E+01  2.4300688E+01
 1.7186750E+01  2.4291208E+01
 1.7198252E+01  2.4286116E+01
 1.7209751E+01  2.4315294E+01
 1.7221251E+01  2.4311890E+01
 1.7232750E+01  2.4295551E+01
 1.7244251E+01  2.4292301E+01
 1.7255751E+01  2.4239708E+01
 1.7267250E+01  2.4220522E+01
 1.7278751E+01  2.4223017E+01
 1.7290251E+01  2.4268808E+01
 1.7301750E+01  2.4297562E+01
 1.7313251E+01  2.4266857E+01
 1.7324751E+01  2.4245699E+01
 1.7336250E+01  2.4194267E+01
 1.7347752E+01  2.4140789E+01
 1.7359251E+01  2.4141033E+01
 1.7370750E+01  2.4117144E+01
 1.7382252E+01  2.4119535E+01
 1.7393751E+01  2.4052694E+01
 1.7405251E+01  2.4040585E+01
 1.7416750E+01  2.4011427E+01
 1.7428251E+01  2.4004747E+01
 1.7439751E+01  2.4019602E+01
 1.7451250E+01  2.4041265E+01
 1.7462751E+01  2.4063520E+01
 1.7474251E+01  2.4042988E+01
 1.7485750E+01  2.4060274E+01
 1.7497252E+01  2.4029613E+01
 1.7508751E+01  2.4036123E+01
 1.7520250E+01  2.3979517E+01
 1.7531752E+01  2.3956659E+01
 1.7543251E+01  2.3946184E+01
 1.7554750E+01  2.3930168E+01
 1.7566252E+01  2.3894403E+01
 1.7577751E+01  2.3836887E+01
 1.7589251E+01  2.3758980E+01
 1.7600750E+01  2.3784386E+01
 1.7612251E+01  2.3790407E+01
 1.7623751E+01  2.3891060E+01
 1.7635250E+01  2.3912659E+01
 1.7646751E+01  2.3978899E+01
 1.7658251E+01  2.3910233E+01
 1.7669750E+01  2.3909481E+01
 1.7681252E+01  2.3910999E+01
 1.7692751E+01  2.3997080E+01
 1.7704250E+01  2.4024723E+01
 1.7715752E+01  2.4035870E+01
 1.7727251E+01  2.4003635E+01
 1.7738750E+01  2.3948444E+01
 1.7750252E+01  2.3918488E+01
 1.7761751E+01  2.3908682E+01
 1.7773251E+01  2.3944187E+01
 1.7784750E+01  2.3990776E+01
 1.7796251E+01  2.3983006E+01
 1.7807751E+01  2.3979586E+01
 1.7819250E+01  2.3960106E+01
 1.7830751E+01  2.3995838E+01
 1.7842251E+01  2.4007137E+01
 1.7853750E+01  2.4003160E+01
 1.7865252E+01  2.4017954E+01
 1.7876751E+01  2.4014679E+01
 1.7888250E+01  2.4015766E+01
 1.7899752E+01  2.4033260E+01
 1.7911251E+01  2.4129902E+01
 1.7922750E+01  2.4231688E+01
 1.7934252E+01  2.4249781E+01
 1.7945751E+01  2.4249090E+01
 1.7957251E+01  2.4212173E+01
 1.7968750E+01  2.4229849E+01
 1.7980251E+01  2.4304245E+01
 1.7991751E+01  2.4459394E+01
 1.8003250E+01  2.4670887E+01
 1.8014751E+01  2.4980917E+01
 1.8026251E+01  2.5266447E+01
 1.8037750E+01  2.5848143E+01
 1.8049252E+01  2.6422239E+01
 1.8060751E+01  2.7507626E+01
 1.8072250E+01  2.9653809E+01
 1.8083752E+01  3.0903971E+01
 1.8095251E+01  3.3199417E+01
 1.8106750E+01  3.3701378E+01
 1.8118252E+01  3.4063686E+01
 1.8129751E+01  3.2145378E+01
 1.8141251E+01  3.0538208E+01
 1.8152750E+01  2.8801970E+01
 1.8164251E+01  2.6825716E+01
 1.8175751E+01  2.5848625E+01
 1.8187250E+01  2.4928326E+01
 1.8198751E+01  2.4513123E+01
 1.8210251E+01  2.4356146E+01
 1.8221750E+01  2.4188854E+01
 1.8233252E+01  2.4108076E+01
 1.8244751E+01  2.4039814E+01
 1.8256250E+01  2.3984940E+01
 1.8267752E+01  2.3957121E+01
 1.8279251E+01  2.3890263E+01
 1.8290751E+01  2.3865347E+01
 1.8302252E+01  2.3830713E+01
 1.8313751E+01  2.3808414E+01
 1.8325251E+01  2.3763851E+01
 1.8336750E+01  2.3730574E+01
 1.8348251E+01  2.3735785E+01
 1.8359751E+01  2.3774817E+01
 1.8371250E+01  2.3789497E+01
 1.8382751E+01  2.3776688E+01
 1.8394251E+01  2.3788240E+01
 1.8405750E+01  2.3765766E+01
 1.8417252E+01  2.3712664E+01
 1.8428751E+01  2.3707140E+01
 1.8440250E+01  2.3730301E+01
 1.8451752E+01  2.3782454E+01
 1.8463251E+01  2.3790493E+01
 1.8474751E+01  2.3798809E+01
 1.8486252E+01  2.3766356E+01
 1.8497751E+01  2.3744226E+01
 1.8509251E+01  2.3748960E+01
 1.8520750E+01  2.3740227E+01
 1.8532251E+01  2.3687138E+01
 1.8543751E+01  2.3623707E+01
 1.8555250E+01  2.3640579E+01
 1.8566751E+01  2.3721697E+01
 1.8578251E+01  2.3839857E+01
 1.8589750E+01  2.3907320E+01
 1.8601252E+01  2.3876150E+01
 1.8612751E+01  2.3781683E+01
 1.8624250E+01  2.3688978E+01
 1.8635752E+01  2.3631306E+01
 1.8647251E+01  2.3578491E+01
 1.8658751E+01  2.3552137E+01
 1.8670252E+01  2.3558462E+01
 1.8681751E+01  2.3607880E+01
 1.8693251E+01  2.3652798E+01
 1.8704750E+01  2.3671106E+01
 1.8716251E+01  2.3646717E+01
 1.8727751E+01  2.3658285E+01
 1.8739250E+01  2.3608648E+01
 1.8750751E+01  2.3600746E+01
 1.8762251E+01  2.3582705E+01
 1.8773750E+01  2.3572077E+01
 1.8785252E+01  2.3576178E+01
 1.8796751E+01  2.3586916E+01
 1.8808250E+01  2.3555420E+01
 1.8819752E+01  2.3520794E+01
 1.8831251E+01  2.3455011E+01
 1.8842751E+01  2.3478706E+01
 1.8854252E+01  2.3492527E+01
 1.8865751E+01  2.3510414E+01
 1.8877251E+01  2.3509718E+01
 1.8888750E+01  2.3462383E+01
 1.8900251E+01  2.3464867E+01
 1.8911751E+01  2.3466740E+01
 1.8923250E+01  2.3528034E+01
 1.8934752E+01  2.3543570E+01
 1.8946251E+01  2.3591688E+01
 1.8957750E+01  2.3571047E+01
 1.8969252E+01  2.3524780E+01
 1.8980751E+01  2.3480087E+01
 1.8992250E+01  2.3476767E+01
 1.9003752E+01  2.3502655E+01
 1.9015251E+01  2.3555227E+01
 1.9026751E+01  2.3604979E+01
 1.9038252E+01  2.3585896E+01
 1.9049751E+01  2.3534418E+01
 1.9061251E+01  2.3557827E+01
 1.9072750E+01  2.3611027E+01
 1.9084251E+01  2.3624523E+01
 1.9095751E+01  2.3593716E+01
 1.9107250E+01  2.3564180E+01
 1.9118752E+01  2.3571987E+01
 1.9130251E+01  2.3599693E+01
 1.9141750E+01  2.3677120E+01
 1.9153252E+01  2.3723078E+01
 1.9164751E+01  2.3713896E+01
 1.9176250E+01  2.3683458E+01
 1.9187752E+01  2.3665482E+01
 1.9199251E+01  2.3701876E+01
 1.9210751E+01  2.3716974E+01
 1.9222252E+01  2.3706636E+01
 1.9233751E+01  2.3672977E+01
 1.9245251E+01  2.3634384E+01
 1.9256750E+01  2.3637831E+01
 1.9268251E+01  2.3636574E+01
 1.9279751E+01  2.3617058E+01
 1.9291250E+01  2.3618717E+01
 1.9302752E+01  2.3685684E+01
 1.9314251E+01  2.3682676E+01
 1.9325750E+01  2.3681290E+01
 1.9337252E+01  2.3670866E+01
 1.9348751E+01  2.3717999E+01
 1.9360250E+01  2.3728344E+01
 1.9371752E+01  2.3701719E+01
 1.9383251E+01  2.3673361E+01
 1.9394751E+01  2.3667019E+01
 1.9406250E+01  2.3692553E+01
 1.9417751E+01  2.3727436E+01
 1.9429251E+01  2.3753229E+01
 1.9440750E+01  2.3765301E+01
 1.9452251E+01  2.3792648E+01
 1.9463751E+01  2.3810410E+01
 1.9475250E+01  2.3855791E+01
 1.9486752E+01  2.3862301E+01
 1.9498251E+01  2.3854162E+01
 1.9509750E+01  2.3842735E+01
 1.9521252E+01  2.3891066E+01
 1.9532751E+01  2.3924919E+01
 1.9544250E+01  2.3938709E+01
 1.9555752E+01  2.3873182E+01
 1.9567251E+01  2.3842670E+01
 1.9578751E+01  2.3857716E+01
 1.9590250E+01  2.3923326E+01
 1.9601751E+01  2.4124193E+01
 1.9613251E+01  2.4269728E+01
 1.9624750E+01  2.4486601E+01
 1.9636251E+01  2.4610460E+01
 1.9647751E+01  2.4838341E+01
 1.9659250E+01  2.5306631E+01
 1.9670752E+01  2.5927553E+01
 1.9682251E+01  2.6461504E+01
 1.9693750E+01  2.6979929E+01
 1.9705252E+01  2.7076630E+01
 1.9716751E+01  2.7252872E+01
 1.9728251E+01  2.7096079E+01
 1.9739752E+01  2.6982046E+01
 1.9751251E+01  2.6813007E+01
 1.9762751E+01  2.7024853E+01
 1.9774250E+01  2.7324940E+01
 1.9785751E+01  2.8272743E+01
 1.9797251E+01  3.0345356E+01
 1.9808750E+01  3.1998390E+01
 1.9820251E+01  3.3088257E+01
 1.9831751E+01  3.3693913E+01
 1.9843250E+01  3.3179333E+01
 1.9854752E+01  3.0981382E+01
 1.9866251E+01  2.9379110E+01
 1.9877750E+01  2.8529346E+01
 1.9889252E+01  2.7665487E+01
 1.9900751E+01  2.6918739E+01
 1.9912251E+01  2.6220850E+01
 1.9923752E+01  2.5683327E+01
 1.9935251E+01  2.5106150E+01
 1.9946751E+01  2.4792131E+01
 1.9958250E+01  2.4488672E+01
 1.9969751E+01  2.4340916E+01
 1.9981251E+01  2.4129824E+01
 1.9992750E+01  2.4063501E+01
 2.0004251E+01  2.3982466E+01
 2.0015751E+01  2.3981834E+01
 2.0027250E+01  2.3960960E+01
 2.0038752E+01  2.3981585E+01
 2.0050251E+01  2.4003256E+01
 2.0061750E+01  2.3943533E+01
 2.0073252E+01  2.3966316E+01
 2.0084751E+01  2.3927938E+01
 2.0096251E+01  2.3943501E+01
 2.0107752E+01  2.3882845E+01
 2.0119251E+01  2.3915318E+01
 2.0130751E+01  2.3891907E+01
 2.0142250E+01  2.3862206E+01
 2.0153751E+01  2.3850269E+01
 2.0165251E+01  2.3883469E+01
 2.0176750E+01  2.3913107E+01
 2.0188251E+01  2.3953613E+01
 2.0199751E+01  2.3983362E+01
 2.0211250E+01  2.4056067E+01
 2.0222752E+01  2.4052830E+01
 2.0234251E+01  2.4053392E+01
 2.0245750E+01  2.4076187E+01
 2.0257252E+01  2.4056967E+01
 2.0268751E+01  2.4015837E+01
 2.0280251E+01  2.3982197E+01
 2.0291752E+01  2.3953192E+01
 2.0303251E+01  2.3827408E+01
 2.0314751E+01  2.3747919E+01
 2.0326250E+01  2.3703056E+01
 2.0337751E+01  2.3681410E+01
 2.0349251E+01  2.3674936E+01
 2.0360750E+01  2.3705572E+01
 2.0372252E+01  2.3689552E+01
 2.0383751E+01  2.3686371E+01
 2.0395250E+01  2.3686506E+01
 2.0406752E+01  2.3730749E+01
 2.0418251E+01  2.3783342E+01
 2.0429750E+01  2.3849043E+01
 2.0441252E+01  2.3841078E+01
 2.0452751E+01  2.3857323E+01
 2.0464251E+01  2.3865067E+01
 2.0475752E+01  2.3864557E+01
 2.0487251E+01  2.3877388E+01
 2.0498751E+01  2.3860376E+01
 2.0510250E+01  2.3865969E+01
 2.0521751E+01  2.3809397E+01
 2.0533251E+01  2.3815552E+01
 2.0544750E+01  2.3831396E+01
 2.0556252E+01  2.3879076E+01
 2.0567751E+01  2.3880129E+01
 2.0579250E+01  2.3842348E+01
 2.0590752E+01  2.3871471E+01
 2.0602251E+01  2.3911963E+01
 2.0613750E+01  2.3977953E+01
 2.0625252E+01  2.4014431E+01
 2.0636751E+01  2.4103300E+01
 2.0648251E+01  2.4183014E+01
 2.0659752E+01  2.4291265E+01
 2.0671251E+01  2.4418703E+01
 2.0682751E+01  2.4663801E+01
 2.0694250E+01  2.4954990E+01
 2.0705751E+01  2.5401432E+01
 2.0717251E+01  2.5886684E+01
 2.0728750E+01  2.6526091E+01
 2.0740252E+01  2.7033131E+01
 2.0751751E+01  2.7463308E+01
 2.0763250E+01  2.7522549E+01
 2.0774752E+01  2.7353838E+01
 2.0786251E+01  2.6875387E+01
 2.0797750E+01  2.6319664E+01
 2.0809252E+01  2.5712351E+01
 2.0820751E+01  2.5224737E+01
 2.0832251E+01  2.4869007E+01
 2.0843752E+01  2.4540228E+01
 2.0855251E+01  2.4378225E+01
 2.0866751E+01  2.4176279E+01
 2.0878250E+01  2.4093674E+01
 2.0889751E+01  2.4055189E+01
 2.0901251E+01  2.4075560E+01
 2.0912750E+01  2.4120579E+01
 2.0924252E+01  2.4111801E+01
 2.0935751E+01  2.4093306E+01
 2.0947250E+01  2.4067354E+01
 2.0958752E+01  2.4054138E+01
 2.0970251E+01  2.4023649E+01
 2.0981750E+01  2.3990305E+01
 2.0993252E+01  2.3953079E+01
 2.1004751E+01  2.3925186E+01
 2.1016251E+01  2.3907837E+01
 2.1027752E+01  2.3926565E+01
 2.1039251E+01  2.3911570E+01
 2.1050751E+01  2.3893257E+01
 2.1062250E+01  2.3925875E+01
 2.1073751E+01  2.3976036E+01
 2.1085251E+01  2.3945866E+01
 2.1096750E+01  2.3905891E+01
 2.1108252E+01  2.3902731E+01
 2.1119751E+01  2.3928684E+01
 2.1131250E+01  2.3967239E+01
 2.1142752E+01  2.3958265E+01
 2.1154251E+01  2.3899134E+01
 2.1165751E+01  2.3878405E+01
 2.1177252E+01  2.3897661E+01
 2.1188751E+01  2.3956139E+01
 2.1200251E+01  2.3949663E+01
 2.1211752E+01  2.3958828E+01
 2.1223251E+01  2.3941799E+01
 2.1234751E+01  2.3955734E+01
 2.1246250E+01  2.3990124E+01
 2.1257751E+01  2.4013559E+01
 2.1269251E+01  2.4030142E+01
 2.1280750E+01  2.4015211E+01
 2.1292252E+01  2.4008549E+01
 2.1303751E+01  2.3986771E+01
 2.1315250E+01  2.3962130E+01
 2.1326752E+01  2.3986269E+01
 2.1338251E+01  2.4028143E+01
 2.1349751E+01  2.4100435E+01
 2.1361252E+01  2.4166964E+01
 2.1372751E+01  2.4202330E+01
 2.1384251E+01  2.4120045E+01
 2.1395752E+01  2.4003487E+01
 2.1407251E+01  2.3905415E+01
 2.1418751E+01  2.3930893E+01
 2.1430250E+01  2.3920822E+01
 2.1441751E+01  2.3896740E+01
 2.1453251E+01  2.3900705E+01
 2.1464750E+01  2.3933109E+01
 2.1476252E+01  2.3969151E+01
 2.1487751E+01  2.4062862E+01
 2.1499250E+01  2.4123156E+01
 2.1510752E+01  2.4112869E+01
 2.1522251E+01  2.4110277E+01
 2.1533751E+01  2.4118359E+01
 2.1545252E+01  2.4065420E+01
 2.1556751E+01  2.4020977E+01
 2.1568251E+01  2.4007322E+01
 2.1579752E+01  2.4080299E+01
 2.1591251E+01  2.4126270E+01
 2.1602751E+01  2.4139000E+01
 2.1614250E+01  2.4144281E+01
 2.1625751E+01  2.4100689E+01
 2.1637251E+01  2.4097115E+01
 2.1648750E+01  2.4048018E+01
 2.1660252E+01  2.4054958E+01
 2.1671751E+01  2.4083096E+01
 2.1683250E+01  2.4132767E+01
 2.1694752E+01  2.4153471E+01
 2.1706251E+01  2.4143932E+01
 2.1717751E+01  2.4151125E+01
 2.1729252E+01  2.4148592E+01
 2.1740751E+01  2.4139517E+01
 2.1752251E+01  2.4110390E+01
 2.1763752E+01  2.4108837E+01
 2.1775251E+01  2.4110849E+01
 2.1786751E+01  2.4112165E+01
 2.1798250E+01  2.4113125E+01
 2.1809752E+01  2.4105974E+01
 2.1821251E+01  2.4094685E+01
 2.1832750E+01  2.4078745E+01
 2.1844252E+01  2.4083715E+01
 2.1855751E+01  2.4154749E+01
 2.1867250E+01  2.4211473E+01
 2.1878752E+01  2.4263769E+01
 2.1890251E+01  2.4202881E+01
 2.1901751E+01  2.4234085E+01
 2.1913252E+01  2.4312008E+01
 2.1924751E+01  2.4372206E+01
 2.1936251E+01  2.4349894E+01
 2.1947752E+01  2.4306627E+01
 2.1959251E+01  2.4238909E+01
 2.1970751E+01  2.4203646E+01
 2.1982250E+01  2.4207144E+01
 2.1993752E+01  2.4214861E+01
 2.2005251E+01  2.4205601E+01
 2.2016750E+01  2.4256502E+01
 2.2028252E+01  2.4312513E+01
 2.2039751E+01  2.4340555E+01
 2.2051250E+01  2.4370779E+01
 2.2062752E+01  2.4348335E+01
 2.2074251E+01  2.4316256E+01
 2.2085751E+01  2.4269215E+01
 2.2097252E+01  2.4316942E+01
 2.2108751E+01  2.4292881E+01
 2.2120251E+01  2.4345339E+01
 2.2131752E+01  2.4353445E+01
 2.2143251E+01  2.4383944E+01
 2.2154751E+01  2.4339424E+01
 2.2166250E+01  2.4326387E+01
 2.2177752E+01  2.4298870E+01
 2.2189251E+01  2.4279541E+01
 2.2200750E+01  2.4320944E+01
 2.2212252E+01  2.4349241E+01
 2.2223751E+01  2.4375183E+01
 2.2235250E+01  2.4447126E+01
 2.2246752E+01  2.4471987E+01
 2.2258251E+01  2.4485870E+01
 2.2269751E+01  2.4490875E+01
 2.2281252E+01  2.4503752E+01
 2.2292751E+01  2.4531776E+01
 2.2304251E+01  2.4531416E+01
 2.2315752E+01  2.4540243E+01
 2.2327251E+01  2.4539772E+01
 2.2338751E+01  2.4592825E+01
 2.2350250E+01  2.4605766E+01
 2.2361752E+01  2.4567202E+01
 2.2373251E+01  2.4531542E+01
 2.2384750E+01  2.4480242E+01
 2.2396252E+01  2.4496588E+01
 2.2407751E+01  2.4479027E+01
 2.2419250E+01  2.4477144E+01
 2.2430752E+01  2.4545685E+01
 2.2442251E+01  2.4579842E+01
 2.2453751E+01  2.4636034E+01
 2.2465252E+01  2.4619499E+01
 2.2476751E+01  2.4638771E+01
 2.2488251E+01  2.4656136E+01
 2.2499752E+01  2.4723520E+01
 2.2511251E+01  2.4815094E+01
 2.2522751E+01  2.4876684E+01
 2.2534250E+01  2.4903540E+01
 2.2545752E+01  2.4884306E+01
 2.2557251E+01  2.4823690E+01
 2.2568750E+01  2.4838911E+01
 2.2580252E+01  2.4865429E+01
 2.2591751E+01  2.4870512E+01
 2.2603251E+01  2.4906025E+01
 2.2614752E+01  2.4975651E+01
 2.2626251E+01  2.5086433E+01
 2.2637751E+01  2.5097097E+01
 2.2649252E+01  2.5065601E+01
 2.2660751E+01  2.4991859E+01
 2.2672251E+01  2.5004709E+01
 2.2683752E+01  2.5095169E+01
 2.2695251E+01  2.5129042E+01
 2.2706751E+01  2.5110479E+01
 2.2718250E+01  2.5121765E+01
 2.2729752E+01  2.5192205E+01
 2.2741251E+01  2.5270588E+01
 2.2752750E+01  2.5280880E+01
 2.2764252E+01  2.5301891E+01
 2.2775751E+01  2.5356146E+01
 2.2787251E+01  2.5343491E+01
 2.2798752E+01  2.5380156E+01
 2.2810251E+01  2.5443136E+01
 2.2821751E+01  2.5536591E+01
 2.2833252E+01  2.5589977E+01
 2.2844751E+01  2.5619781E+01
 2.2856251E+01  2.5599674E+01
 2.2867750E+01  2.5622639E+01
 2.2879251E+01  2.5642807E+01
 2.2890751E+01  2.5725586E+01
 2.2902250E+01  2.5758215E+01
 2.2913752E+01  2.5850267E+01
 2.2925251E+01  2.5894585E+01
 2.2936750E+01  2.5983330E+01
 2.2948252E+01  2.6030664E+01
 2.2959751E+01  2.6080648E+01
 2.2971251E+01  2.6237812E+01
 2.2982752E+01  2.6377934E+01
 2.2994251E+01  2.6510511E+01
