F:\20151113_APS_34IDE\\Brian\Particle1\OCV\Data_0094.tif
2-Theta Angle (Degrees)
Intensity
       2000
 5.7500005E-03  0.0000000E+00
 1.7250001E-02  0.0000000E+00
 2.8750001E-02  0.0000000E+00
 4.0250003E-02  0.0000000E+00
 5.1750004E-02  0.0000000E+00
 6.3250005E-02  0.0000000E+00
 7.4750006E-02  0.0000000E+00
 8.6250007E-02  0.0000000E+00
 9.7750008E-02  0.0000000E+00
 1.0925001E-01  0.0000000E+00
 1.2075000E-01  0.0000000E+00
 1.3225001E-01  0.0000000E+00
 1.4375001E-01  0.0000000E+00
 1.5525001E-01  0.0000000E+00
 1.6675001E-01  0.0000000E+00
 1.7825001E-01  0.0000000E+00
 1.8975002E-01  0.0000000E+00
 2.0125002E-01  0.0000000E+00
 2.1275002E-01  0.0000000E+00
 2.2425000E-01  0.0000000E+00
 2.3575000E-01  0.0000000E+00
 2.4725001E-01  0.0000000E+00
 2.5875002E-01  0.0000000E+00
 2.7025002E-01  0.0000000E+00
 2.8175002E-01  0.0000000E+00
 2.9325002E-01  0.0000000E+00
 3.0475003E-01  0.0000000E+00
 3.1625003E-01  0.0000000E+00
 3.2775003E-01  0.0000000E+00
 3.3925003E-01  0.0000000E+00
 3.5075003E-01  0.0000000E+00
 3.6225003E-01  0.0000000E+00
 3.7375003E-01  0.0000000E+00
 3.8525003E-01  0.0000000E+00
 3.9675003E-01  0.0000000E+00
 4.0825003E-01  0.0000000E+00
 4.1975003E-01  0.0000000E+00
 4.3125004E-01  0.0000000E+00
 4.4275001E-01  0.0000000E+00
 4.5425001E-01  0.0000000E+00
 4.6575001E-01  0.0000000E+00
 4.7725001E-01  0.0000000E+00
 4.8875001E-01  0.0000000E+00
 5.0025004E-01  0.0000000E+00
 5.1175004E-01  0.0000000E+00
 5.2325004E-01  0.0000000E+00
 5.3475004E-01  0.0000000E+00
 5.4625005E-01  0.0000000E+00
 5.5775005E-01  0.0000000E+00
 5.6925005E-01  0.0000000E+00
 5.8075005E-01  0.0000000E+00
 5.9225005E-01  0.0000000E+00
 6.0375005E-01  0.0000000E+00
 6.1525005E-01  0.0000000E+00
 6.2675005E-01  0.0000000E+00
 6.3825005E-01  0.0000000E+00
 6.4975005E-01  0.0000000E+00
 6.6125005E-01  0.0000000E+00
 6.7275006E-01  0.0000000E+00
 6.8425006E-01  0.0000000E+00
 6.9575006E-01  0.0000000E+00
 7.0725006E-01  0.0000000E+00
 7.1875006E-01  0.0000000E+00
 7.3025006E-01  0.0000000E+00
 7.4175006E-01  0.0000000E+00
 7.5325006E-01  0.0000000E+00
 7.6475006E-01  0.0000000E+00
 7.7625006E-01  0.0000000E+00
 7.8775007E-01  0.0000000E+00
 7.9925007E-01  0.0000000E+00
 8.1075007E-01  0.0000000E+00
 8.2225007E-01  0.0000000E+00
 8.3375007E-01  0.0000000E+00
 8.4525007E-01  0.0000000E+00
 8.5675007E-01  0.0000000E+00
 8.6825007E-01  0.0000000E+00
 8.7975001E-01  0.0000000E+00
 8.9125001E-01  0.0000000E+00
 9.0275002E-01  0.0000000E+00
 9.1425002E-01  0.0000000E+00
 9.2575002E-01  0.0000000E+00
 9.3725002E-01  0.0000000E+00
 9.4875002E-01  0.0000000E+00
 9.6025002E-01  0.0000000E+00
 9.7175002E-01  0.0000000E+00
 9.8325002E-01  0.0000000E+00
 9.9475002E-01  0.0000000E+00
 1.0062500E+00  0.0000000E+00
 1.0177500E+00  0.0000000E+00
 1.0292500E+00  0.0000000E+00
 1.0407500E+00  0.0000000E+00
 1.0522500E+00  0.0000000E+00
 1.0637500E+00  0.0000000E+00
 1.0752500E+00  0.0000000E+00
 1.0867500E+00  0.0000000E+00
 1.0982500E+00  0.0000000E+00
 1.1097500E+00  0.0000000E+00
 1.1212500E+00  0.0000000E+00
 1.1327500E+00  0.0000000E+00
 1.1442500E+00  0.0000000E+00
 1.1557500E+00  0.0000000E+00
 1.1672500E+00  0.0000000E+00
 1.1787500E+00  0.0000000E+00
 1.1902500E+00  0.0000000E+00
 1.2017500E+00  0.0000000E+00
 1.2132500E+00  0.0000000E+00
 1.2247500E+00  0.0000000E+00
 1.2362500E+00  0.0000000E+00
 1.2477500E+00  0.0000000E+00
 1.2592500E+00  0.0000000E+00
 1.2707500E+00  0.0000000E+00
 1.2822500E+00  0.0000000E+00
 1.2937500E+00  0.0000000E+00
 1.3052500E+00  0.0000000E+00
 1.3167500E+00  0.0000000E+00
 1.3282501E+00  0.0000000E+00
 1.3397501E+00  0.0000000E+00
 1.3512501E+00  0.0000000E+00
 1.3627501E+00  0.0000000E+00
 1.3742501E+00  0.0000000E+00
 1.3857501E+00  0.0000000E+00
 1.3972501E+00  0.0000000E+00
 1.4087501E+00  0.0000000E+00
 1.4202501E+00  0.0000000E+00
 1.4317501E+00  0.0000000E+00
 1.4432501E+00  0.0000000E+00
 1.4547501E+00  0.0000000E+00
 1.4662501E+00  0.0000000E+00
 1.4777501E+00  0.0000000E+00
 1.4892501E+00  0.0000000E+00
 1.5007501E+00  0.0000000E+00
 1.5122501E+00  0.0000000E+00
 1.5237501E+00  0.0000000E+00
 1.5352501E+00  0.0000000E+00
 1.5467501E+00  0.0000000E+00
 1.5582501E+00  0.0000000E+00
 1.5697501E+00  0.0000000E+00
 1.5812501E+00  0.0000000E+00
 1.5927501E+00  0.0000000E+00
 1.6042501E+00  0.0000000E+00
 1.6157501E+00  0.0000000E+00
 1.6272501E+00  0.0000000E+00
 1.6387501E+00  0.0000000E+00
 1.6502501E+00  0.0000000E+00
 1.6617501E+00  0.0000000E+00
 1.6732501E+00  0.0000000E+00
 1.6847501E+00  0.0000000E+00
 1.6962501E+00  0.0000000E+00
 1.7077501E+00  0.0000000E+00
 1.7192501E+00  0.0000000E+00
 1.7307501E+00  0.0000000E+00
 1.7422501E+00  0.0000000E+00
 1.7537501E+00  0.0000000E+00
 1.7652501E+00  0.0000000E+00
 1.7767501E+00  0.0000000E+00
 1.7882501E+00  0.0000000E+00
 1.7997501E+00  0.0000000E+00
 1.8112501E+00  0.0000000E+00
 1.8227501E+00  0.0000000E+00
 1.8342501E+00  0.0000000E+00
 1.8457501E+00  0.0000000E+00
 1.8572501E+00  0.0000000E+00
 1.8687501E+00  0.0000000E+00
 1.8802501E+00  0.0000000E+00
 1.8917501E+00  0.0000000E+00
 1.9032501E+00  0.0000000E+00
 1.9147501E+00  0.0000000E+00
 1.9262501E+00  0.0000000E+00
 1.9377501E+00  0.0000000E+00
 1.9492501E+00  0.0000000E+00
 1.9607501E+00  0.0000000E+00
 1.9722501E+00  0.0000000E+00
 1.9837501E+00  0.0000000E+00
 1.9952501E+00  0.0000000E+00
 2.0067501E+00  0.0000000E+00
 2.0182500E+00  0.0000000E+00
 2.0297501E+00  0.0000000E+00
 2.0412500E+00  0.0000000E+00
 2.0527501E+00  0.0000000E+00
 2.0642500E+00  0.0000000E+00
 2.0757501E+00  0.0000000E+00
 2.0872500E+00  0.0000000E+00
 2.0987501E+00  0.0000000E+00
 2.1102500E+00  0.0000000E+00
 2.1217501E+00  0.0000000E+00
 2.1332500E+00  0.0000000E+00
 2.1447501E+00  0.0000000E+00
 2.1562500E+00  0.0000000E+00
 2.1677501E+00  0.0000000E+00
 2.1792500E+00  0.0000000E+00
 2.1907501E+00  0.0000000E+00
 2.2022500E+00  0.0000000E+00
 2.2137501E+00  0.0000000E+00
 2.2252500E+00  0.0000000E+00
 2.2367501E+00  0.0000000E+00
 2.2482500E+00  0.0000000E+00
 2.2597501E+00  0.0000000E+00
 2.2712500E+00  0.0000000E+00
 2.2827501E+00  0.0000000E+00
 2.2942500E+00  0.0000000E+00
 2.3057501E+00  0.0000000E+00
 2.3172500E+00  0.0000000E+00
 2.3287501E+00  0.0000000E+00
 2.3402500E+00  0.0000000E+00
 2.3517501E+00  0.0000000E+00
 2.3632500E+00  0.0000000E+00
 2.3747501E+00  0.0000000E+00
 2.3862500E+00  0.0000000E+00
 2.3977501E+00  0.0000000E+00
 2.4092500E+00  0.0000000E+00
 2.4207501E+00  0.0000000E+00
 2.4322500E+00  0.0000000E+00
 2.4437501E+00  0.0000000E+00
 2.4552500E+00  0.0000000E+00
 2.4667501E+00  0.0000000E+00
 2.4782500E+00  0.0000000E+00
 2.4897501E+00  0.0000000E+00
 2.5012500E+00  0.0000000E+00
 2.5127501E+00  0.0000000E+00
 2.5242500E+00  0.0000000E+00
 2.5357502E+00  0.0000000E+00
 2.5472500E+00  0.0000000E+00
 2.5587502E+00  0.0000000E+00
 2.5702500E+00  0.0000000E+00
 2.5817502E+00  0.0000000E+00
 2.5932500E+00  0.0000000E+00
 2.6047502E+00  0.0000000E+00
 2.6162500E+00  0.0000000E+00
 2.6277502E+00  0.0000000E+00
 2.6392500E+00  0.0000000E+00
 2.6507502E+00  0.0000000E+00
 2.6622500E+00  0.0000000E+00
 2.6737502E+00  0.0000000E+00
 2.6852500E+00  0.0000000E+00
 2.6967502E+00  0.0000000E+00
 2.7082500E+00  0.0000000E+00
 2.7197502E+00  0.0000000E+00
 2.7312500E+00  0.0000000E+00
 2.7427502E+00  0.0000000E+00
 2.7542500E+00  0.0000000E+00
 2.7657502E+00  0.0000000E+00
 2.7772501E+00  0.0000000E+00
 2.7887502E+00  0.0000000E+00
 2.8002501E+00  0.0000000E+00
 2.8117502E+00  0.0000000E+00
 2.8232501E+00  3.4192490E+01
 2.8347502E+00  3.4525501E+01
 2.8462501E+00  3.4458244E+01
 2.8577502E+00  3.4183750E+01
 2.8692501E+00  3.4109177E+01
 2.8807502E+00  3.4417686E+01
 2.8922501E+00  3.5021931E+01
 2.9037502E+00  3.5522137E+01
 2.9152501E+00  3.5961197E+01
 2.9267502E+00  3.6113232E+01
 2.9382501E+00  3.6256485E+01
 2.9497502E+00  3.6528805E+01
 2.9612501E+00  3.6880711E+01
 2.9727502E+00  3.6787106E+01
 2.9842501E+00  3.6376682E+01
 2.9957502E+00  3.5994400E+01
 3.0072501E+00  3.5651741E+01
 3.0187502E+00  3.5663055E+01
 3.0302501E+00  3.5178532E+01
 3.0417502E+00  3.5174381E+01
 3.0532501E+00  3.4695541E+01
 3.0647502E+00  3.4558147E+01
 3.0762501E+00  3.4353928E+01
 3.0877502E+00  3.4199486E+01
 3.0992501E+00  3.4493912E+01
 3.1107502E+00  3.4312145E+01
 3.1222501E+00  3.4896713E+01
 3.1337502E+00  3.4802616E+01
 3.1452501E+00  3.5135044E+01
 3.1567502E+00  3.5105682E+01
 3.1682501E+00  3.5151772E+01
 3.1797502E+00  3.5238312E+01
 3.1912501E+00  3.5225967E+01
 3.2027502E+00  3.5374649E+01
 3.2142501E+00  3.5514580E+01
 3.2257502E+00  3.5694019E+01
 3.2372501E+00  3.5784203E+01
 3.2487502E+00  3.5782955E+01
 3.2602501E+00  3.5795143E+01
 3.2717502E+00  3.5800568E+01
 3.2832501E+00  3.5905220E+01
 3.2947502E+00  3.5800323E+01
 3.3062501E+00  3.5533752E+01
 3.3177502E+00  3.4898087E+01
 3.3292501E+00  3.4624290E+01
 3.3407502E+00  3.4548782E+01
 3.3522501E+00  3.4571625E+01
 3.3637502E+00  3.4414326E+01
 3.3752501E+00  3.4347534E+01
 3.3867502E+00  3.4207253E+01
 3.3982501E+00  3.4162418E+01
 3.4097502E+00  3.3839832E+01
 3.4212501E+00  3.3759651E+01
 3.4327502E+00  3.3493446E+01
 3.4442501E+00  3.3808807E+01
 3.4557502E+00  3.3810947E+01
 3.4672501E+00  3.4232590E+01
 3.4787502E+00  3.4121578E+01
 3.4902501E+00  3.4105576E+01
 3.5017502E+00  3.3815041E+01
 3.5132501E+00  3.3668243E+01
 3.5247502E+00  3.3769215E+01
 3.5362501E+00  3.3822250E+01
 3.5477502E+00  3.3873997E+01
 3.5592501E+00  3.4004509E+01
 3.5707502E+00  3.3831261E+01
 3.5822501E+00  3.3906528E+01
 3.5937502E+00  3.3783836E+01
 3.6052501E+00  3.3453018E+01
 3.6167502E+00  3.3366440E+01
 3.6282501E+00  3.3092030E+01
 3.6397502E+00  3.3360550E+01
 3.6512501E+00  3.3396839E+01
 3.6627502E+00  3.3573330E+01
 3.6742501E+00  3.3555122E+01
 3.6857502E+00  3.3650120E+01
 3.6972501E+00  3.3644783E+01
 3.7087502E+00  3.3645077E+01
 3.7202501E+00  3.3451439E+01
 3.7317502E+00  3.3120937E+01
 3.7432501E+00  3.3166779E+01
 3.7547503E+00  3.3119770E+01
 3.7662501E+00  3.3267471E+01
 3.7777503E+00  3.3208378E+01
 3.7892501E+00  3.3102791E+01
 3.8007503E+00  3.2788967E+01
 3.8122501E+00  3.2457371E+01
 3.8237503E+00  3.2244225E+01
 3.8352501E+00  3.2432106E+01
 3.8467503E+00  3.2518055E+01
 3.8582501E+00  3.2449921E+01
 3.8697503E+00  3.2378368E+01
 3.8812501E+00  3.2523399E+01
 3.8927503E+00  3.2876274E+01
 3.9042501E+00  3.2972218E+01
 3.9157503E+00  3.3088814E+01
 3.9272501E+00  3.3298790E+01
 3.9387503E+00  3.3319389E+01
 3.9502501E+00  3.3387825E+01
 3.9617503E+00  3.3182526E+01
 3.9732502E+00  3.3259155E+01
 3.9847503E+00  3.3091236E+01
 3.9962502E+00  3.3018299E+01
 4.0077500E+00  3.2834011E+01
 4.0192504E+00  3.2766827E+01
 4.0307503E+00  3.2571266E+01
 4.0422502E+00  3.2680996E+01
 4.0537500E+00  3.2574471E+01
 4.0652504E+00  3.2650799E+01
 4.0767503E+00  3.2448807E+01
 4.0882502E+00  3.2410503E+01
 4.0997500E+00  3.2400467E+01
 4.1112504E+00  3.2565521E+01
 4.1227503E+00  3.2679462E+01
 4.1342502E+00  3.2843964E+01
 4.1457500E+00  3.2897335E+01
 4.1572504E+00  3.2810818E+01
 4.1687503E+00  3.2760231E+01
 4.1802502E+00  3.2514122E+01
 4.1917500E+00  3.2466743E+01
 4.2032504E+00  3.2334549E+01
 4.2147503E+00  3.2314659E+01
 4.2262502E+00  3.2371403E+01
 4.2377501E+00  3.2491695E+01
 4.2492504E+00  3.2569996E+01
 4.2607503E+00  3.2580658E+01
 4.2722502E+00  3.2553379E+01
 4.2837501E+00  3.2413387E+01
 4.2952504E+00  3.2507233E+01
 4.3067503E+00  3.2370136E+01
 4.3182502E+00  3.2461681E+01
 4.3297501E+00  3.2365406E+01
 4.3412504E+00  3.2295643E+01
 4.3527503E+00  3.2247818E+01
 4.3642502E+00  3.2238190E+01
 4.3757501E+00  3.2214420E+01
 4.3872504E+00  3.2157799E+01
 4.3987503E+00  3.2178059E+01
 4.4102502E+00  3.2220425E+01
 4.4217501E+00  3.2376865E+01
 4.4332504E+00  3.2418907E+01
 4.4447503E+00  3.2539570E+01
 4.4562502E+00  3.2658131E+01
 4.4677501E+00  3.2812286E+01
 4.4792504E+00  3.2809193E+01
 4.4907503E+00  3.2797916E+01
 4.5022502E+00  3.2631161E+01
 4.5137501E+00  3.2621677E+01
 4.5252504E+00  3.2538429E+01
 4.5367503E+00  3.2565590E+01
 4.5482502E+00  3.2680298E+01
 4.5597501E+00  3.2910259E+01
 4.5712504E+00  3.2937878E+01
 4.5827503E+00  3.2931084E+01
 4.5942502E+00  3.2839046E+01
 4.6057501E+00  3.2842529E+01
 4.6172504E+00  3.2930264E+01
 4.6287503E+00  3.2924438E+01
 4.6402502E+00  3.2954987E+01
 4.6517501E+00  3.2974354E+01
 4.6632504E+00  3.2983490E+01
 4.6747503E+00  3.2947388E+01
 4.6862502E+00  3.2807285E+01
 4.6977501E+00  3.2754803E+01
 4.7092505E+00  3.2724335E+01
 4.7207503E+00  3.2696587E+01
 4.7322502E+00  3.2543175E+01
 4.7437501E+00  3.2455029E+01
 4.7552505E+00  3.2372581E+01
 4.7667503E+00  3.2385735E+01
 4.7782502E+00  3.2286392E+01
 4.7897501E+00  3.2266575E+01
 4.8012505E+00  3.2332832E+01
 4.8127503E+00  3.2487209E+01
 4.8242502E+00  3.2551685E+01
 4.8357501E+00  3.2601883E+01
 4.8472505E+00  3.2650578E+01
 4.8587503E+00  3.2792191E+01
 4.8702502E+00  3.2844795E+01
 4.8817501E+00  3.2890297E+01
 4.8932505E+00  3.2899483E+01
 4.9047503E+00  3.2892204E+01
 4.9162502E+00  3.2991013E+01
 4.9277501E+00  3.2967167E+01
 4.9392505E+00  3.3084438E+01
 4.9507504E+00  3.3007233E+01
 4.9622502E+00  3.3018921E+01
 4.9737501E+00  3.3115795E+01
 4.9852505E+00  3.3218452E+01
 4.9967504E+00  3.3387272E+01
 5.0082502E+00  3.3441940E+01
 5.0197501E+00  3.3528271E+01
 5.0312505E+00  3.3593998E+01
 5.0427504E+00  3.3608185E+01
 5.0542502E+00  3.3611916E+01
 5.0657501E+00  3.3614559E+01
 5.0772505E+00  3.3703861E+01
 5.0887504E+00  3.3766838E+01
 5.1002502E+00  3.3849644E+01
 5.1117501E+00  3.3806324E+01
 5.1232505E+00  3.3841400E+01
 5.1347504E+00  3.3807049E+01
 5.1462502E+00  3.3949814E+01
 5.1577501E+00  3.3922188E+01
 5.1692505E+00  3.3900734E+01
 5.1807504E+00  3.3762516E+01
 5.1922503E+00  3.3714230E+01
 5.2037501E+00  3.3731541E+01
 5.2152505E+00  3.3710278E+01
 5.2267504E+00  3.3795700E+01
 5.2382503E+00  3.3900341E+01
 5.2497501E+00  3.4033001E+01
 5.2612505E+00  3.4140209E+01
 5.2727504E+00  3.4220512E+01
 5.2842503E+00  3.4323242E+01
 5.2957501E+00  3.4421856E+01
 5.3072500E+00  3.4416718E+01
 5.3187504E+00  3.4443489E+01
 5.3302503E+00  3.4315506E+01
 5.3417501E+00  3.4430916E+01
 5.3532500E+00  3.4362358E+01
 5.3647504E+00  3.4419720E+01
 5.3762503E+00  3.4362965E+01
 5.3877501E+00  3.4559700E+01
 5.3992500E+00  3.4604923E+01
 5.4107504E+00  3.4620430E+01
 5.4222503E+00  3.4575619E+01
 5.4337502E+00  3.4575424E+01
 5.4452500E+00  3.4597202E+01
 5.4567504E+00  3.4612110E+01
 5.4682503E+00  3.4663418E+01
 5.4797502E+00  3.4593529E+01
 5.4912500E+00  3.4578300E+01
 5.5027504E+00  3.4529148E+01
 5.5142503E+00  3.4685627E+01
 5.5257502E+00  3.4813831E+01
 5.5372500E+00  3.4915169E+01
 5.5487504E+00  3.4946354E+01
 5.5602503E+00  3.5016743E+01
 5.5717502E+00  3.5075497E+01
 5.5832500E+00  3.5147686E+01
 5.5947504E+00  3.5196812E+01
 5.6062503E+00  3.5226913E+01
 5.6177502E+00  3.5281387E+01
 5.6292500E+00  3.5287010E+01
 5.6407504E+00  3.5346527E+01
 5.6522503E+00  3.5480606E+01
 5.6637502E+00  3.5600040E+01
 5.6752501E+00  3.5756195E+01
 5.6867504E+00  3.5744572E+01
 5.6982503E+00  3.5709114E+01
 5.7097502E+00  3.5664131E+01
 5.7212501E+00  3.5607914E+01
 5.7327504E+00  3.5607540E+01
 5.7442503E+00  3.5592953E+01
 5.7557502E+00  3.5663029E+01
 5.7672501E+00  3.5743046E+01
 5.7787504E+00  3.5878616E+01
 5.7902503E+00  3.5964806E+01
 5.8017502E+00  3.5957207E+01
 5.8132501E+00  3.5799118E+01
 5.8247504E+00  3.5868446E+01
 5.8362503E+00  3.6024178E+01
 5.8477502E+00  3.6279396E+01
 5.8592501E+00  3.6330421E+01
 5.8707504E+00  3.6600426E+01
 5.8822503E+00  3.6925640E+01
 5.8937502E+00  3.7407219E+01
 5.9052501E+00  3.7816525E+01
 5.9167504E+00  3.8655308E+01
 5.9282503E+00  4.0663013E+01
 5.9397502E+00  4.7811996E+01
 5.9512501E+00  5.2090160E+01
 5.9627504E+00  5.6036453E+01
 5.9742503E+00  5.9247261E+01
 5.9857502E+00  5.8566494E+01
 5.9972501E+00  5.6648800E+01
 6.0087504E+00  4.9759907E+01
 6.0202503E+00  4.5871254E+01
 6.0317502E+00  4.3200825E+01
 6.0432501E+00  4.0418823E+01
 6.0547504E+00  3.9103523E+01
 6.0662503E+00  3.8368237E+01
 6.0777502E+00  3.7976330E+01
 6.0892501E+00  3.7797581E+01
 6.1007504E+00  3.7752796E+01
 6.1122503E+00  3.7695992E+01
 6.1237502E+00  3.7667110E+01
 6.1352501E+00  3.7538704E+01
 6.1467505E+00  3.7368389E+01
 6.1582503E+00  3.7344677E+01
 6.1697502E+00  3.7320431E+01
 6.1812501E+00  3.7389786E+01
 6.1927505E+00  3.7465614E+01
 6.2042503E+00  3.7537853E+01
 6.2157502E+00  3.7652805E+01
 6.2272501E+00  3.7692036E+01
 6.2387505E+00  3.7700241E+01
 6.2502503E+00  3.7798145E+01
 6.2617502E+00  3.7927315E+01
 6.2732501E+00  3.8204693E+01
 6.2847505E+00  3.8317226E+01
 6.2962503E+00  3.8314911E+01
 6.3077502E+00  3.8275063E+01
 6.3192501E+00  3.8289104E+01
 6.3307505E+00  3.8297039E+01
 6.3422503E+00  3.8274014E+01
 6.3537502E+00  3.8172733E+01
 6.3652501E+00  3.8223732E+01
 6.3767505E+00  3.8321274E+01
 6.3882504E+00  3.8506676E+01
 6.3997502E+00  3.8577995E+01
 6.4112501E+00  3.8719849E+01
 6.4227505E+00  3.8736912E+01
 6.4342504E+00  3.8906418E+01
 6.4457502E+00  3.9018173E+01
 6.4572501E+00  3.9109276E+01
 6.4687505E+00  3.9118294E+01
 6.4802504E+00  3.9163559E+01
 6.4917502E+00  3.9261806E+01
 6.5032501E+00  3.9459782E+01
 6.5147505E+00  3.9434464E+01
 6.5262504E+00  3.9435764E+01
 6.5377502E+00  3.9448624E+01
 6.5492501E+00  3.9549557E+01
 6.5607505E+00  3.9630531E+01
 6.5722504E+00  3.9694012E+01
 6.5837502E+00  3.9729366E+01
 6.5952501E+00  3.9721539E+01
 6.6067505E+00  3.9822254E+01
 6.6182504E+00  3.9809914E+01
 6.6297503E+00  3.9873642E+01
 6.6412501E+00  3.9866100E+01
 6.6527505E+00  3.9946796E+01
 6.6642504E+00  4.0106766E+01
 6.6757503E+00  4.0135460E+01
 6.6872501E+00  4.0211323E+01
 6.6987505E+00  4.0283161E+01
 6.7102504E+00  4.0468021E+01
 6.7217503E+00  4.0569401E+01
 6.7332501E+00  4.0751774E+01
 6.7447505E+00  4.0824356E+01
 6.7562504E+00  4.0995892E+01
 6.7677503E+00  4.1162807E+01
 6.7792501E+00  4.1272308E+01
 6.7907505E+00  4.1337605E+01
 6.8022504E+00  4.1349384E+01
 6.8137503E+00  4.1392448E+01
 6.8252501E+00  4.1498653E+01
 6.8367505E+00  4.1563507E+01
 6.8482504E+00  4.1675835E+01
 6.8597503E+00  4.1659557E+01
 6.8712502E+00  4.1654633E+01
 6.8827505E+00  4.1644466E+01
 6.8942504E+00  4.1746223E+01
 6.9057503E+00  4.1798351E+01
 6.9172502E+00  4.1906010E+01
 6.9287505E+00  4.1917698E+01
 6.9402504E+00  4.2015854E+01
 6.9517503E+00  4.2103645E+01
 6.9632502E+00  4.2226856E+01
 6.9747505E+00  4.2332657E+01
 6.9862504E+00  4.2405899E+01
 6.9977503E+00  4.2479088E+01
 7.0092502E+00  4.2531658E+01
 7.0207505E+00  4.2587856E+01
 7.0322504E+00  4.2608761E+01
 7.0437503E+00  4.2558834E+01
 7.0552502E+00  4.2632843E+01
 7.0667505E+00  4.2675468E+01
 7.0782504E+00  4.2716808E+01
 7.0897503E+00  4.2771084E+01
 7.1012502E+00  4.2885185E+01
 7.1127505E+00  4.3155220E+01
 7.1242504E+00  4.3270721E+01
 7.1357503E+00  4.3327957E+01
 7.1472502E+00  4.3347340E+01
 7.1587505E+00  4.3348194E+01
 7.1702504E+00  4.3392921E+01
 7.1817503E+00  4.3369637E+01
 7.1932502E+00  4.3407959E+01
 7.2047505E+00  4.3498707E+01
 7.2162504E+00  4.3593845E+01
 7.2277503E+00  4.3698811E+01
 7.2392502E+00  4.3728035E+01
 7.2507505E+00  4.3712002E+01
 7.2622504E+00  4.3674541E+01
 7.2737503E+00  4.3663414E+01
 7.2852502E+00  4.3628567E+01
 7.2967505E+00  4.3673790E+01
 7.3082504E+00  4.3736195E+01
 7.3197503E+00  4.3881588E+01
 7.3312502E+00  4.3986290E+01
 7.3427505E+00  4.4010448E+01
 7.3542504E+00  4.4019096E+01
 7.3657503E+00  4.3973820E+01
 7.3772502E+00  4.3954754E+01
 7.3887506E+00  4.4050056E+01
 7.4002504E+00  4.4196125E+01
 7.4117503E+00  4.4349102E+01
 7.4232502E+00  4.4396999E+01
 7.4347506E+00  4.4430103E+01
 7.4462504E+00  4.4458099E+01
 7.4577503E+00  4.4432793E+01
 7.4692502E+00  4.4476772E+01
 7.4807506E+00  4.4463661E+01
 7.4922504E+00  4.4474022E+01
 7.5037503E+00  4.4519947E+01
 7.5152502E+00  4.4569790E+01
 7.5267506E+00  4.4586559E+01
 7.5382504E+00  4.4453609E+01
 7.5497503E+00  4.4354744E+01
 7.5612502E+00  4.4323223E+01
 7.5727506E+00  4.4287693E+01
 7.5842505E+00  4.4312172E+01
 7.5957503E+00  4.4381111E+01
 7.6072502E+00  4.4561718E+01
 7.6187506E+00  4.4680290E+01
 7.6302505E+00  4.4687485E+01
 7.6417503E+00  4.4795055E+01
 7.6532502E+00  4.4726807E+01
 7.6647506E+00  4.4719852E+01
 7.6762505E+00  4.4606495E+01
 7.6877503E+00  4.4649746E+01
 7.6992502E+00  4.4607769E+01
 7.7107506E+00  4.4631462E+01
 7.7222505E+00  4.4650021E+01
 7.7337503E+00  4.4659222E+01
 7.7452502E+00  4.4673306E+01
 7.7567506E+00  4.4525581E+01
 7.7682505E+00  4.4517612E+01
 7.7797503E+00  4.4501968E+01
 7.7912502E+00  4.4578655E+01
 7.8027506E+00  4.4609688E+01
 7.8142505E+00  4.4613552E+01
 7.8257504E+00  4.4577087E+01
 7.8372502E+00  4.4622040E+01
 7.8487506E+00  4.4441914E+01
 7.8602505E+00  4.4360485E+01
 7.8717504E+00  4.4164291E+01
 7.8832502E+00  4.4074467E+01
 7.8947506E+00  4.3936329E+01
 7.9062505E+00  4.3877419E+01
 7.9177504E+00  4.3899944E+01
 7.9292502E+00  4.3905071E+01
 7.9407506E+00  4.3963825E+01
 7.9522505E+00  4.3927101E+01
 7.9637504E+00  4.3875824E+01
 7.9752502E+00  4.3697330E+01
 7.9867506E+00  4.3624512E+01
 7.9982505E+00  4.3598755E+01
 8.0097504E+00  4.3598961E+01
 8.0212507E+00  4.3565769E+01
 8.0327501E+00  4.3548965E+01
 8.0442505E+00  4.3467892E+01
 8.0557508E+00  4.3432487E+01
 8.0672503E+00  4.3335045E+01
 8.0787506E+00  4.3223694E+01
 8.0902500E+00  4.3108643E+01
 8.1017504E+00  4.3003155E+01
 8.1132507E+00  4.3049324E+01
 8.1247501E+00  4.3024536E+01
 8.1362505E+00  4.3011616E+01
 8.1477509E+00  4.2906830E+01
 8.1592503E+00  4.2842636E+01
 8.1707506E+00  4.2727314E+01
 8.1822500E+00  4.2584309E+01
 8.1937504E+00  4.2446655E+01
 8.2052507E+00  4.2257595E+01
 8.2167501E+00  4.2110680E+01
 8.2282505E+00  4.1896553E+01
 8.2397509E+00  4.1793491E+01
 8.2512503E+00  4.1641556E+01
 8.2627506E+00  4.1533176E+01
 8.2742500E+00  4.1409245E+01
 8.2857504E+00  4.1317554E+01
 8.2972507E+00  4.1172909E+01
 8.3087502E+00  4.0949741E+01
 8.3202505E+00  4.0769958E+01
 8.3317509E+00  4.0566437E+01
 8.3432503E+00  4.0421589E+01
 8.3547506E+00  4.0289650E+01
 8.3662500E+00  4.0076210E+01
 8.3777504E+00  3.9877254E+01
 8.3892508E+00  3.9707214E+01
 8.4007502E+00  3.9573227E+01
 8.4122505E+00  3.9486767E+01
 8.4237509E+00  3.9300297E+01
 8.4352503E+00  3.9148422E+01
 8.4467506E+00  3.9063156E+01
 8.4582500E+00  3.8964874E+01
 8.4697504E+00  3.8877728E+01
 8.4812508E+00  3.8704140E+01
 8.4927502E+00  3.8457233E+01
 8.5042505E+00  3.8208370E+01
 8.5157509E+00  3.7961575E+01
 8.5272503E+00  3.7767189E+01
 8.5387506E+00  3.7582745E+01
 8.5502501E+00  3.7385220E+01
 8.5617504E+00  3.7216347E+01
 8.5732508E+00  3.7114201E+01
 8.5847502E+00  3.6932102E+01
 8.5962505E+00  3.6739189E+01
 8.6077509E+00  3.6525433E+01
 8.6192503E+00  3.6365215E+01
 8.6307507E+00  3.6194084E+01
 8.6422501E+00  3.6023842E+01
 8.6537504E+00  3.5726341E+01
 8.6652508E+00  3.5501297E+01
 8.6767502E+00  3.5285957E+01
 8.6882505E+00  3.5147736E+01
 8.6997509E+00  3.5001423E+01
 8.7112503E+00  3.4728279E+01
 8.7227507E+00  3.4500225E+01
 8.7342501E+00  3.4234043E+01
 8.7457504E+00  3.4020859E+01
 8.7572508E+00  3.3876633E+01
 8.7687502E+00  3.3827129E+01
 8.7802505E+00  3.3832932E+01
 8.7917500E+00  3.3662228E+01
 8.8032503E+00  3.3509842E+01
 8.8147507E+00  3.3260899E+01
 8.8262501E+00  3.3149601E+01
 8.8377504E+00  3.2964603E+01
 8.8492508E+00  3.2827168E+01
 8.8607502E+00  3.2670658E+01
 8.8722506E+00  3.2532337E+01
 8.8837500E+00  3.2454430E+01
 8.8952503E+00  3.2317726E+01
 8.9067507E+00  3.2205551E+01
 8.9182501E+00  3.1987516E+01
 8.9297504E+00  3.1863037E+01
 8.9412508E+00  3.1651081E+01
 8.9527502E+00  3.1512562E+01
 8.9642506E+00  3.1340405E+01
 8.9757500E+00  3.1173798E+01
 8.9872503E+00  3.0999794E+01
 8.9987507E+00  3.0830086E+01
 9.0102501E+00  3.0666138E+01
 9.0217505E+00  3.0495850E+01
 9.0332508E+00  3.0340790E+01
 9.0447502E+00  3.0195288E+01
 9.0562506E+00  3.0032434E+01
 9.0677500E+00  2.9854382E+01
 9.0792503E+00  2.9683123E+01
 9.0907507E+00  2.9525702E+01
 9.1022501E+00  2.9367643E+01
 9.1137505E+00  2.9235817E+01
 9.1252508E+00  2.9095222E+01
 9.1367502E+00  2.9018000E+01
 9.1482506E+00  2.8993546E+01
 9.1597500E+00  2.8964146E+01
 9.1712503E+00  2.8876986E+01
 9.1827507E+00  2.8811211E+01
 9.1942501E+00  2.8750998E+01
 9.2057505E+00  2.8669626E+01
 9.2172508E+00  2.8590187E+01
 9.2287502E+00  2.8465347E+01
 9.2402506E+00  2.8409147E+01
 9.2517500E+00  2.8243160E+01
 9.2632504E+00  2.8134821E+01
 9.2747507E+00  2.7977715E+01
 9.2862501E+00  2.7887428E+01
 9.2977505E+00  2.7756472E+01
 9.3092508E+00  2.7650652E+01
 9.3207502E+00  2.7532537E+01
 9.3322506E+00  2.7429245E+01
 9.3437500E+00  2.7302338E+01
 9.3552504E+00  2.7214378E+01
 9.3667507E+00  2.7155436E+01
 9.3782501E+00  2.7127329E+01
 9.3897505E+00  2.7080996E+01
 9.4012508E+00  2.7029842E+01
 9.4127502E+00  2.6936485E+01
 9.4242506E+00  2.6820536E+01
 9.4357500E+00  2.6705051E+01
 9.4472504E+00  2.6646683E+01
 9.4587507E+00  2.6559820E+01
 9.4702501E+00  2.6498005E+01
 9.4817505E+00  2.6438061E+01
 9.4932508E+00  2.6368151E+01
 9.5047503E+00  2.6238537E+01
 9.5162506E+00  2.6107731E+01
 9.5277500E+00  2.6026695E+01
 9.5392504E+00  2.6049965E+01
 9.5507507E+00  2.6006958E+01
 9.5622501E+00  2.6028183E+01
 9.5737505E+00  2.6002398E+01
 9.5852509E+00  2.5968611E+01
 9.5967503E+00  2.5954027E+01
 9.6082506E+00  2.5906855E+01
 9.6197500E+00  2.5868023E+01
 9.6312504E+00  2.5800951E+01
 9.6427507E+00  2.5662649E+01
 9.6542501E+00  2.5654692E+01
 9.6657505E+00  2.5569002E+01
 9.6772509E+00  2.5502935E+01
 9.6887503E+00  2.5391718E+01
 9.7002506E+00  2.5332186E+01
 9.7117500E+00  2.5348829E+01
 9.7232504E+00  2.5353115E+01
 9.7347507E+00  2.5372406E+01
 9.7462502E+00  2.5360147E+01
 9.7577505E+00  2.5305290E+01
 9.7692509E+00  2.5227928E+01
 9.7807503E+00  2.5194294E+01
 9.7922506E+00  2.5219439E+01
 9.8037500E+00  2.5265223E+01
 9.8152504E+00  2.5217274E+01
 9.8267508E+00  2.5178617E+01
 9.8382502E+00  2.5134821E+01
 9.8497505E+00  2.5091429E+01
 9.8612509E+00  2.5013790E+01
 9.8727503E+00  2.4950195E+01
 9.8842506E+00  2.4879585E+01
 9.8957500E+00  2.4824457E+01
 9.9072504E+00  2.4701696E+01
 9.9187508E+00  2.4582088E+01
 9.9302502E+00  2.4442287E+01
 9.9417505E+00  2.4328459E+01
 9.9532509E+00  2.4267984E+01
 9.9647503E+00  2.4317959E+01
 9.9762506E+00  2.4348335E+01
 9.9877501E+00  2.4405136E+01
 9.9992504E+00  2.4425585E+01
 1.0010751E+01  2.4450941E+01
 1.0022250E+01  2.4455900E+01
 1.0033751E+01  2.4404770E+01
 1.0045251E+01  2.4341448E+01
 1.0056750E+01  2.4298447E+01
 1.0068251E+01  2.4274267E+01
 1.0079750E+01  2.4234379E+01
 1.0091250E+01  2.4172964E+01
 1.0102751E+01  2.4128798E+01
 1.0114250E+01  2.4062777E+01
 1.0125751E+01  2.4042454E+01
 1.0137251E+01  2.3958706E+01
 1.0148750E+01  2.3991095E+01
 1.0160251E+01  2.4021198E+01
 1.0171750E+01  2.4019499E+01
 1.0183250E+01  2.4006809E+01
 1.0194751E+01  2.3911612E+01
 1.0206250E+01  2.3888597E+01
 1.0217751E+01  2.3856985E+01
 1.0229251E+01  2.3838482E+01
 1.0240750E+01  2.3800011E+01
 1.0252251E+01  2.3712513E+01
 1.0263750E+01  2.3658466E+01
 1.0275250E+01  2.3656343E+01
 1.0286751E+01  2.3621769E+01
 1.0298250E+01  2.3695032E+01
 1.0309751E+01  2.3663467E+01
 1.0321251E+01  2.3693800E+01
 1.0332750E+01  2.3664967E+01
 1.0344251E+01  2.3663624E+01
 1.0355750E+01  2.3640991E+01
 1.0367250E+01  2.3560316E+01
 1.0378751E+01  2.3517735E+01
 1.0390250E+01  2.3576647E+01
 1.0401751E+01  2.3620905E+01
 1.0413251E+01  2.3606159E+01
 1.0424750E+01  2.3489763E+01
 1.0436251E+01  2.3415367E+01
 1.0447750E+01  2.3350733E+01
 1.0459250E+01  2.3357204E+01
 1.0470751E+01  2.3322676E+01
 1.0482250E+01  2.3341576E+01
 1.0493751E+01  2.3306429E+01
 1.0505251E+01  2.3257116E+01
 1.0516750E+01  2.3250750E+01
 1.0528251E+01  2.3198528E+01
 1.0539750E+01  2.3202616E+01
 1.0551250E+01  2.3145157E+01
 1.0562751E+01  2.3171238E+01
 1.0574250E+01  2.3162628E+01
 1.0585751E+01  2.3176659E+01
 1.0597251E+01  2.3197603E+01
 1.0608750E+01  2.3222122E+01
 1.0620251E+01  2.3245358E+01
 1.0631750E+01  2.3206383E+01
 1.0643250E+01  2.3180420E+01
 1.0654751E+01  2.3153667E+01
 1.0666250E+01  2.3097176E+01
 1.0677751E+01  2.3046806E+01
 1.0689251E+01  2.2984369E+01
 1.0700750E+01  2.2993238E+01
 1.0712251E+01  2.3031919E+01
 1.0723750E+01  2.3075480E+01
 1.0735250E+01  2.3037510E+01
 1.0746751E+01  2.2996023E+01
 1.0758250E+01  2.2960646E+01
 1.0769751E+01  2.2973866E+01
 1.0781251E+01  2.2994087E+01
 1.0792750E+01  2.3016027E+01
 1.0804251E+01  2.3054615E+01
 1.0815750E+01  2.3048710E+01
 1.0827250E+01  2.3047075E+01
 1.0838751E+01  2.2993032E+01
 1.0850250E+01  2.2984982E+01
 1.0861751E+01  2.2997372E+01
 1.0873251E+01  2.3003664E+01
 1.0884750E+01  2.2972654E+01
 1.0896251E+01  2.2924406E+01
 1.0907750E+01  2.2908640E+01
 1.0919250E+01  2.2903252E+01
 1.0930751E+01  2.2850897E+01
 1.0942250E+01  2.2816561E+01
 1.0953751E+01  2.2747484E+01
 1.0965251E+01  2.2723124E+01
 1.0976750E+01  2.2694908E+01
 1.0988251E+01  2.2686024E+01
 1.0999750E+01  2.2628914E+01
 1.1011250E+01  2.2622252E+01
 1.1022751E+01  2.2619040E+01
 1.1034250E+01  2.2643471E+01
 1.1045751E+01  2.2624004E+01
 1.1057251E+01  2.2584812E+01
 1.1068750E+01  2.2631958E+01
 1.1080251E+01  2.2695709E+01
 1.1091750E+01  2.2766081E+01
 1.1103251E+01  2.2771271E+01
 1.1114751E+01  2.2783264E+01
 1.1126250E+01  2.2825724E+01
 1.1137751E+01  2.2835890E+01
 1.1149251E+01  2.2828077E+01
 1.1160750E+01  2.2786289E+01
 1.1172251E+01  2.2759266E+01
 1.1183750E+01  2.2722406E+01
 1.1195251E+01  2.2709148E+01
 1.1206751E+01  2.2687271E+01
 1.1218250E+01  2.2649715E+01
 1.1229751E+01  2.2590620E+01
 1.1241251E+01  2.2506468E+01
 1.1252750E+01  2.2484777E+01
 1.1264251E+01  2.2405771E+01
 1.1275750E+01  2.2443232E+01
 1.1287251E+01  2.2468929E+01
 1.1298751E+01  2.2564606E+01
 1.1310250E+01  2.2650681E+01
 1.1321751E+01  2.2694017E+01
 1.1333251E+01  2.2715092E+01
 1.1344750E+01  2.2656721E+01
 1.1356251E+01  2.2586945E+01
 1.1367750E+01  2.2558554E+01
 1.1379251E+01  2.2539198E+01
 1.1390751E+01  2.2620207E+01
 1.1402250E+01  2.2815079E+01
 1.1413751E+01  2.2925108E+01
 1.1425251E+01  2.2966290E+01
 1.1436750E+01  2.2989634E+01
 1.1448251E+01  2.3080023E+01
 1.1459750E+01  2.3219950E+01
 1.1471251E+01  2.3272840E+01
 1.1482751E+01  2.3319838E+01
 1.1494250E+01  2.3435045E+01
 1.1505751E+01  2.3606157E+01
 1.1517251E+01  2.4072641E+01
 1.1528750E+01  2.4777348E+01
 1.1540251E+01  2.6139999E+01
 1.1551750E+01  2.7601337E+01
 1.1563251E+01  2.9745260E+01
 1.1574751E+01  3.0874914E+01
 1.1586250E+01  3.2070507E+01
 1.1597751E+01  3.1284893E+01
 1.1609251E+01  3.0679230E+01
 1.1620750E+01  2.8683130E+01
 1.1632251E+01  2.7468176E+01
 1.1643750E+01  2.5837408E+01
 1.1655251E+01  2.4924583E+01
 1.1666751E+01  2.4014940E+01
 1.1678250E+01  2.3533421E+01
 1.1689751E+01  2.3240507E+01
 1.1701251E+01  2.3036036E+01
 1.1712750E+01  2.2913584E+01
 1.1724251E+01  2.2797964E+01
 1.1735750E+01  2.2758486E+01
 1.1747251E+01  2.2678801E+01
 1.1758751E+01  2.2668898E+01
 1.1770250E+01  2.2642748E+01
 1.1781751E+01  2.2668274E+01
 1.1793251E+01  2.2703075E+01
 1.1804750E+01  2.2703852E+01
 1.1816251E+01  2.2704262E+01
 1.1827750E+01  2.2633860E+01
 1.1839251E+01  2.2588707E+01
 1.1850751E+01  2.2508385E+01
 1.1862250E+01  2.2540945E+01
 1.1873751E+01  2.2538616E+01
 1.1885251E+01  2.2625206E+01
 1.1896750E+01  2.2669315E+01
 1.1908251E+01  2.2790564E+01
 1.1919750E+01  2.2940825E+01
 1.1931251E+01  2.3287464E+01
 1.1942751E+01  2.3554216E+01
 1.1954250E+01  2.4206335E+01
 1.1965751E+01  2.4477953E+01
 1.1977251E+01  2.5214373E+01
 1.1988750E+01  2.5296362E+01
 1.2000251E+01  2.5625956E+01
 1.2011750E+01  2.5177740E+01
 1.2023251E+01  2.4904242E+01
 1.2034751E+01  2.4447666E+01
 1.2046250E+01  2.4475178E+01
 1.2057751E+01  2.4900211E+01
 1.2069251E+01  2.5464504E+01
 1.2080750E+01  2.6409254E+01
 1.2092251E+01  2.6462513E+01
 1.2103750E+01  2.6553165E+01
 1.2115251E+01  2.5719700E+01
 1.2126751E+01  2.5097456E+01
 1.2138250E+01  2.4304846E+01
 1.2149751E+01  2.3749401E+01
 1.2161251E+01  2.3419300E+01
 1.2172750E+01  2.3137884E+01
 1.2184251E+01  2.2957247E+01
 1.2195750E+01  2.2818552E+01
 1.2207251E+01  2.2732887E+01
 1.2218751E+01  2.2699602E+01
 1.2230250E+01  2.2705807E+01
 1.2241751E+01  2.2686260E+01
 1.2253251E+01  2.2685421E+01
 1.2264750E+01  2.2660601E+01
 1.2276251E+01  2.2665524E+01
 1.2287750E+01  2.2657084E+01
 1.2299251E+01  2.2674044E+01
 1.2310751E+01  2.2681805E+01
 1.2322250E+01  2.2649984E+01
 1.2333751E+01  2.2677591E+01
 1.2345250E+01  2.2608929E+01
 1.2356750E+01  2.2670073E+01
 1.2368251E+01  2.2611328E+01
 1.2379750E+01  2.2669783E+01
 1.2391251E+01  2.2673998E+01
 1.2402751E+01  2.2727110E+01
 1.2414250E+01  2.2805769E+01
 1.2425751E+01  2.2841555E+01
 1.2437250E+01  2.2860655E+01
 1.2448750E+01  2.2832310E+01
 1.2460251E+01  2.2854725E+01
 1.2471750E+01  2.2895136E+01
 1.2483251E+01  2.2933966E+01
 1.2494751E+01  2.2891714E+01
 1.2506250E+01  2.2823479E+01
 1.2517751E+01  2.2796387E+01
 1.2529250E+01  2.2889027E+01
 1.2540751E+01  2.2998512E+01
 1.2552251E+01  2.3050920E+01
 1.2563750E+01  2.3019062E+01
 1.2575251E+01  2.2967487E+01
 1.2586751E+01  2.2890577E+01
 1.2598250E+01  2.2890488E+01
 1.2609751E+01  2.2920250E+01
 1.2621250E+01  2.3041531E+01
 1.2632751E+01  2.3074486E+01
 1.2644251E+01  2.3081560E+01
 1.2655750E+01  2.3051746E+01
 1.2667251E+01  2.3101643E+01
 1.2678751E+01  2.3129871E+01
 1.2690250E+01  2.3149063E+01
 1.2701751E+01  2.3100485E+01
 1.2713250E+01  2.3116276E+01
 1.2724751E+01  2.3110443E+01
 1.2736251E+01  2.3151928E+01
 1.2747750E+01  2.3166510E+01
 1.2759251E+01  2.3190306E+01
 1.2770751E+01  2.3169319E+01
 1.2782250E+01  2.3175695E+01
 1.2793751E+01  2.3173559E+01
 1.2805250E+01  2.3280722E+01
 1.2816751E+01  2.3384392E+01
 1.2828251E+01  2.3498215E+01
 1.2839750E+01  2.3564720E+01
 1.2851251E+01  2.3601788E+01
 1.2862751E+01  2.3590584E+01
 1.2874250E+01  2.3550207E+01
 1.2885751E+01  2.3486849E+01
 1.2897250E+01  2.3513718E+01
 1.2908751E+01  2.3607367E+01
 1.2920251E+01  2.3702318E+01
 1.2931750E+01  2.3791327E+01
 1.2943251E+01  2.3824831E+01
 1.2954751E+01  2.3890856E+01
 1.2966250E+01  2.3941477E+01
 1.2977751E+01  2.4011583E+01
 1.2989250E+01  2.4046297E+01
 1.3000751E+01  2.4102728E+01
 1.3012251E+01  2.4144974E+01
 1.3023750E+01  2.4197090E+01
 1.3035251E+01  2.4235764E+01
 1.3046751E+01  2.4284292E+01
 1.3058250E+01  2.4399137E+01
 1.3069751E+01  2.4475580E+01
 1.3081250E+01  2.4560812E+01
 1.3092751E+01  2.4678778E+01
 1.3104251E+01  2.4839451E+01
 1.3115750E+01  2.5010365E+01
 1.3127251E+01  2.5146357E+01
 1.3138751E+01  2.5239962E+01
 1.3150250E+01  2.5390591E+01
 1.3161751E+01  2.5491737E+01
 1.3173250E+01  2.5618170E+01
 1.3184751E+01  2.5712860E+01
 1.3196251E+01  2.5800171E+01
 1.3207750E+01  2.5950554E+01
 1.3219251E+01  2.6066320E+01
 1.3230751E+01  2.6247330E+01
 1.3242250E+01  2.6390213E+01
 1.3253751E+01  2.6540346E+01
 1.3265250E+01  2.6683472E+01
 1.3276751E+01  2.6783352E+01
 1.3288251E+01  2.6947435E+01
 1.3299750E+01  2.7138832E+01
 1.3311251E+01  2.7262375E+01
 1.3322751E+01  2.7373417E+01
 1.3334250E+01  2.7465940E+01
 1.3345751E+01  2.7626444E+01
 1.3357250E+01  2.7772789E+01
 1.3368751E+01  2.7874502E+01
 1.3380251E+01  2.8052835E+01
 1.3391750E+01  2.8130875E+01
 1.3403251E+01  2.8295717E+01
 1.3414751E+01  2.8444248E+01
 1.3426250E+01  2.8621181E+01
 1.3437751E+01  2.8819420E+01
 1.3449250E+01  2.8942629E+01
 1.3460751E+01  2.9078011E+01
 1.3472251E+01  2.9120073E+01
 1.3483750E+01  2.9215626E+01
 1.3495251E+01  2.9296028E+01
 1.3506751E+01  2.9424551E+01
 1.3518250E+01  2.9547562E+01
 1.3529751E+01  2.9704189E+01
 1.3541250E+01  2.9748419E+01
 1.3552751E+01  2.9824238E+01
 1.3564251E+01  2.9854509E+01
 1.3575750E+01  2.9949133E+01
 1.3587251E+01  2.9982258E+01
 1.3598751E+01  3.0064377E+01
 1.3610250E+01  3.0093441E+01
 1.3621751E+01  3.0165689E+01
 1.3633250E+01  3.0190516E+01
 1.3644751E+01  3.0249903E+01
 1.3656251E+01  3.0254992E+01
 1.3667750E+01  3.0329987E+01
 1.3679251E+01  3.0325287E+01
 1.3690751E+01  3.0291523E+01
 1.3702250E+01  3.0213650E+01
 1.3713751E+01  3.0151598E+01
 1.3725250E+01  3.0143129E+01
 1.3736751E+01  3.0178698E+01
 1.3748251E+01  3.0268162E+01
 1.3759750E+01  3.0376724E+01
 1.3771251E+01  3.0445593E+01
 1.3782751E+01  3.0511116E+01
 1.3794250E+01  3.0628031E+01
 1.3805751E+01  3.0737310E+01
 1.3817250E+01  3.0936565E+01
 1.3828751E+01  3.1188719E+01
 1.3840251E+01  3.1518112E+01
 1.3851750E+01  3.2175503E+01
 1.3863251E+01  3.3141724E+01
 1.3874751E+01  3.4913895E+01
 1.3886250E+01  3.8273518E+01
 1.3897751E+01  4.3031498E+01
 1.3909250E+01  5.1612297E+01
 1.3920751E+01  5.9937180E+01
 1.3932251E+01  6.7349663E+01
 1.3943750E+01  7.4936241E+01
 1.3955251E+01  7.5121521E+01
 1.3966751E+01  7.3624092E+01
 1.3978251E+01  6.4112823E+01
 1.3989751E+01  5.7260021E+01
 1.4001250E+01  4.9060814E+01
 1.4012751E+01  4.1949093E+01
 1.4024251E+01  3.6696075E+01
 1.4035750E+01  3.3408573E+01
 1.4047251E+01  3.1522469E+01
 1.4058751E+01  3.0259155E+01
 1.4070251E+01  2.9546877E+01
 1.4081751E+01  2.9056812E+01
 1.4093250E+01  2.8754423E+01
 1.4104751E+01  2.8466864E+01
 1.4116251E+01  2.8305277E+01
 1.4127750E+01  2.8155008E+01
 1.4139251E+01  2.8098089E+01
 1.4150751E+01  2.8010416E+01
 1.4162251E+01  2.7928764E+01
 1.4173751E+01  2.7751793E+01
 1.4185250E+01  2.7587872E+01
 1.4196751E+01  2.7401489E+01
 1.4208251E+01  2.7300484E+01
 1.4219750E+01  2.7205875E+01
 1.4231251E+01  2.7167057E+01
 1.4242751E+01  2.7110600E+01
 1.4254251E+01  2.7057337E+01
 1.4265751E+01  2.6968563E+01
 1.4277250E+01  2.6862200E+01
 1.4288751E+01  2.6782763E+01
 1.4300251E+01  2.6713394E+01
 1.4311750E+01  2.6693388E+01
 1.4323251E+01  2.6582186E+01
 1.4334751E+01  2.6523052E+01
 1.4346251E+01  2.6453123E+01
 1.4357751E+01  2.6424259E+01
 1.4369250E+01  2.6391157E+01
 1.4380751E+01  2.6323637E+01
 1.4392251E+01  2.6286339E+01
 1.4403750E+01  2.6207489E+01
 1.4415251E+01  2.6188345E+01
 1.4426751E+01  2.6154482E+01
 1.4438251E+01  2.6144108E+01
 1.4449751E+01  2.6120022E+01
 1.4461250E+01  2.6098389E+01
 1.4472751E+01  2.6065018E+01
 1.4484251E+01  2.6012707E+01
 1.4495750E+01  2.5980665E+01
 1.4507251E+01  2.5973934E+01
 1.4518751E+01  2.5946737E+01
 1.4530251E+01  2.5945065E+01
 1.4541751E+01  2.5897196E+01
 1.4553250E+01  2.5915627E+01
 1.4564751E+01  2.5866898E+01
 1.4576251E+01  2.5777395E+01
 1.4587750E+01  2.5657944E+01
 1.4599251E+01  2.5566404E+01
 1.4610751E+01  2.5585165E+01
 1.4622251E+01  2.5565998E+01
 1.4633751E+01  2.5567101E+01
 1.4645250E+01  2.5561541E+01
 1.4656751E+01  2.5539385E+01
 1.4668251E+01  2.5484524E+01
 1.4679750E+01  2.5421116E+01
 1.4691251E+01  2.5389435E+01
 1.4702751E+01  2.5374313E+01
 1.4714251E+01  2.5361002E+01
 1.4725751E+01  2.5331829E+01
 1.4737250E+01  2.5343452E+01
 1.4748751E+01  2.5345676E+01
 1.4760251E+01  2.5317865E+01
 1.4771750E+01  2.5337799E+01
 1.4783251E+01  2.5314192E+01
 1.4794751E+01  2.5297304E+01
 1.4806251E+01  2.5237110E+01
 1.4817751E+01  2.5216814E+01
 1.4829250E+01  2.5237860E+01
 1.4840751E+01  2.5232121E+01
 1.4852251E+01  2.5205406E+01
 1.4863750E+01  2.5186768E+01
 1.4875251E+01  2.5160675E+01
 1.4886751E+01  2.5182730E+01
 1.4898251E+01  2.5145462E+01
 1.4909751E+01  2.5091108E+01
 1.4921250E+01  2.5059160E+01
 1.4932751E+01  2.5055740E+01
 1.4944251E+01  2.5069777E+01
 1.4955750E+01  2.5052834E+01
 1.4967251E+01  2.5059769E+01
 1.4978751E+01  2.5079779E+01
 1.4990251E+01  2.5055437E+01
 1.5001751E+01  2.5063080E+01
 1.5013250E+01  2.5105223E+01
 1.5024751E+01  2.5145626E+01
 1.5036251E+01  2.5184816E+01
 1.5047750E+01  2.5177113E+01
 1.5059251E+01  2.5233200E+01
 1.5070751E+01  2.5232786E+01
 1.5082251E+01  2.5229687E+01
 1.5093751E+01  2.5282099E+01
 1.5105250E+01  2.5417992E+01
 1.5116751E+01  2.5632643E+01
 1.5128251E+01  2.6043524E+01
 1.5139750E+01  2.6705278E+01
 1.5151251E+01  2.7547213E+01
 1.5162751E+01  2.8418436E+01
 1.5174251E+01  2.9116564E+01
 1.5185751E+01  2.9414974E+01
 1.5197250E+01  2.9117321E+01
 1.5208751E+01  2.8693932E+01
 1.5220251E+01  2.8030197E+01
 1.5231750E+01  2.7328556E+01
 1.5243251E+01  2.6534477E+01
 1.5254751E+01  2.5943214E+01
 1.5266251E+01  2.5559412E+01
 1.5277751E+01  2.5267239E+01
 1.5289250E+01  2.5196690E+01
 1.5300751E+01  2.5063124E+01
 1.5312251E+01  2.5020035E+01
 1.5323750E+01  2.4902964E+01
 1.5335251E+01  2.4875509E+01
 1.5346751E+01  2.4827324E+01
 1.5358251E+01  2.4772192E+01
 1.5369751E+01  2.4755535E+01
 1.5381250E+01  2.4770651E+01
 1.5392751E+01  2.4826559E+01
 1.5404251E+01  2.4839815E+01
 1.5415751E+01  2.4806034E+01
 1.5427251E+01  2.4741795E+01
 1.5438751E+01  2.4720955E+01
 1.5450251E+01  2.4681425E+01
 1.5461751E+01  2.4685297E+01
 1.5473250E+01  2.4628082E+01
 1.5484751E+01  2.4688753E+01
 1.5496251E+01  2.4725775E+01
 1.5507751E+01  2.4786705E+01
 1.5519251E+01  2.4785656E+01
 1.5530751E+01  2.4726400E+01
 1.5542251E+01  2.4629160E+01
 1.5553751E+01  2.4577126E+01
 1.5565250E+01  2.4565683E+01
 1.5576751E+01  2.4593597E+01
 1.5588251E+01  2.4657562E+01
 1.5599751E+01  2.4680386E+01
 1.5611251E+01  2.4739008E+01
 1.5622751E+01  2.4717155E+01
 1.5634251E+01  2.4743950E+01
 1.5645751E+01  2.4773710E+01
 1.5657250E+01  2.4772791E+01
 1.5668751E+01  2.4825022E+01
 1.5680251E+01  2.4722694E+01
 1.5691751E+01  2.4709028E+01
 1.5703251E+01  2.4629549E+01
 1.5714751E+01  2.4603891E+01
 1.5726251E+01  2.4594769E+01
 1.5737751E+01  2.4566952E+01
 1.5749250E+01  2.4606358E+01
 1.5760751E+01  2.4603878E+01
 1.5772251E+01  2.4669739E+01
 1.5783751E+01  2.4691301E+01
 1.5795251E+01  2.4751175E+01
 1.5806751E+01  2.4787918E+01
 1.5818251E+01  2.4779255E+01
 1.5829751E+01  2.4750265E+01
 1.5841250E+01  2.4721169E+01
 1.5852751E+01  2.4724419E+01
 1.5864251E+01  2.4693230E+01
 1.5875751E+01  2.4718336E+01
 1.5887251E+01  2.4737043E+01
 1.5898750E+01  2.4775928E+01
 1.5910251E+01  2.4777327E+01
 1.5921751E+01  2.4780113E+01
 1.5933250E+01  2.4778418E+01
 1.5944751E+01  2.4747194E+01
 1.5956251E+01  2.4745995E+01
 1.5967751E+01  2.4724499E+01
 1.5979251E+01  2.4752028E+01
 1.5990750E+01  2.4776438E+01
 1.6002251E+01  2.4780071E+01
 1.6013750E+01  2.4759159E+01
 1.6025251E+01  2.4718403E+01
 1.6036751E+01  2.4701998E+01
 1.6048250E+01  2.4676149E+01
 1.6059752E+01  2.4618559E+01
 1.6071251E+01  2.4621933E+01
 1.6082750E+01  2.4672188E+01
 1.6094252E+01  2.4772530E+01
 1.6105751E+01  2.4828157E+01
 1.6117250E+01  2.4833466E+01
 1.6128750E+01  2.4806450E+01
 1.6140251E+01  2.4824938E+01
 1.6151751E+01  2.4832901E+01
 1.6163250E+01  2.4847143E+01
 1.6174751E+01  2.4841049E+01
 1.6186251E+01  2.4965931E+01
 1.6197750E+01  2.4961430E+01
 1.6209251E+01  2.5226009E+01
 1.6220751E+01  2.5264759E+01
 1.6232250E+01  2.5617874E+01
 1.6243752E+01  2.5785643E+01
 1.6255251E+01  2.6018940E+01
 1.6266750E+01  2.6229176E+01
 1.6278252E+01  2.6032322E+01
 1.6289751E+01  2.6090500E+01
 1.6301250E+01  2.5471968E+01
 1.6312750E+01  2.5479101E+01
 1.6324251E+01  2.5017193E+01
 1.6335751E+01  2.5059967E+01
 1.6347250E+01  2.4840197E+01
 1.6358751E+01  2.4822895E+01
 1.6370251E+01  2.4726223E+01
 1.6381750E+01  2.4714575E+01
 1.6393251E+01  2.4755705E+01
 1.6404751E+01  2.4775002E+01
 1.6416250E+01  2.4818691E+01
 1.6427752E+01  2.4796833E+01
 1.6439251E+01  2.4799820E+01
 1.6450750E+01  2.4763748E+01
 1.6462252E+01  2.4739479E+01
 1.6473751E+01  2.4731176E+01
 1.6485250E+01  2.4752792E+01
 1.6496750E+01  2.4769722E+01
 1.6508251E+01  2.4751122E+01
 1.6519751E+01  2.4734262E+01
 1.6531250E+01  2.4717722E+01
 1.6542751E+01  2.4731306E+01
 1.6554251E+01  2.4718887E+01
 1.6565750E+01  2.4718147E+01
 1.6577251E+01  2.4732058E+01
 1.6588751E+01  2.4774805E+01
 1.6600250E+01  2.4784332E+01
 1.6611752E+01  2.4804827E+01
 1.6623251E+01  2.4721992E+01
 1.6634750E+01  2.4736061E+01
 1.6646252E+01  2.4653877E+01
 1.6657751E+01  2.4613077E+01
 1.6669250E+01  2.4620426E+01
 1.6680750E+01  2.4635687E+01
 1.6692251E+01  2.4743633E+01
 1.6703751E+01  2.4699076E+01
 1.6715250E+01  2.4710749E+01
 1.6726751E+01  2.4674490E+01
 1.6738251E+01  2.4743231E+01
 1.6749750E+01  2.4791801E+01
 1.6761251E+01  2.4803082E+01
 1.6772751E+01  2.4716545E+01
 1.6784250E+01  2.4627062E+01
 1.6795752E+01  2.4559465E+01
 1.6807251E+01  2.4559584E+01
 1.6818750E+01  2.4560381E+01
 1.6830252E+01  2.4571030E+01
 1.6841751E+01  2.4548363E+01
 1.6853251E+01  2.4491943E+01
 1.6864750E+01  2.4477644E+01
 1.6876251E+01  2.4569820E+01
 1.6887751E+01  2.4603992E+01
 1.6899250E+01  2.4643311E+01
 1.6910751E+01  2.4612099E+01
 1.6922251E+01  2.4646294E+01
 1.6933750E+01  2.4615475E+01
 1.6945251E+01  2.4554516E+01
 1.6956751E+01  2.4489786E+01
 1.6968250E+01  2.4401058E+01
 1.6979752E+01  2.4406433E+01
 1.6991251E+01  2.4418604E+01
 1.7002750E+01  2.4424536E+01
 1.7014252E+01  2.4430191E+01
 1.7025751E+01  2.4394453E+01
 1.7037251E+01  2.4377977E+01
 1.7048750E+01  2.4332754E+01
 1.7060251E+01  2.4303997E+01
 1.7071751E+01  2.4347317E+01
 1.7083250E+01  2.4397894E+01
 1.7094751E+01  2.4428642E+01
 1.7106251E+01  2.4401333E+01
 1.7117750E+01  2.4357140E+01
 1.7129251E+01  2.4377411E+01
 1.7140751E+01  2.4367403E+01
 1.7152250E+01  2.4357538E+01
 1.7163752E+01  2.4337782E+01
 1.7175251E+01  2.4369408E+01
 1.7186750E+01  2.4390104E+01
 1.7198252E+01  2.4416698E+01
 1.7209751E+01  2.4394976E+01
 1.7221251E+01  2.4318796E+01
 1.7232750E+01  2.4214802E+01
 1.7244251E+01  2.4158037E+01
 1.7255751E+01  2.4144621E+01
 1.7267250E+01  2.4125208E+01
 1.7278751E+01  2.4107021E+01
 1.7290251E+01  2.4068739E+01
 1.7301750E+01  2.4077732E+01
 1.7313251E+01  2.4081079E+01
 1.7324751E+01  2.4131680E+01
 1.7336250E+01  2.4122036E+01
 1.7347752E+01  2.4118670E+01
 1.7359251E+01  2.4138451E+01
 1.7370750E+01  2.4153616E+01
 1.7382252E+01  2.4173338E+01
 1.7393751E+01  2.4165558E+01
 1.7405251E+01  2.4169489E+01
 1.7416750E+01  2.4149818E+01
 1.7428251E+01  2.4132263E+01
 1.7439751E+01  2.4132210E+01
 1.7451250E+01  2.4120346E+01
 1.7462751E+01  2.4110672E+01
 1.7474251E+01  2.4113554E+01
 1.7485750E+01  2.4148273E+01
 1.7497252E+01  2.4161343E+01
 1.7508751E+01  2.4123901E+01
 1.7520250E+01  2.4088512E+01
 1.7531752E+01  2.4002275E+01
 1.7543251E+01  2.3993532E+01
 1.7554750E+01  2.3926397E+01
 1.7566252E+01  2.3919407E+01
 1.7577751E+01  2.3903458E+01
 1.7589251E+01  2.3880896E+01
 1.7600750E+01  2.3917976E+01
 1.7612251E+01  2.3913710E+01
 1.7623751E+01  2.3955000E+01
 1.7635250E+01  2.3936066E+01
 1.7646751E+01  2.3919369E+01
 1.7658251E+01  2.3867382E+01
 1.7669750E+01  2.3839790E+01
 1.7681252E+01  2.3827662E+01
 1.7692751E+01  2.3887653E+01
 1.7704250E+01  2.3906944E+01
 1.7715752E+01  2.3864965E+01
 1.7727251E+01  2.3848106E+01
 1.7738750E+01  2.3834499E+01
 1.7750252E+01  2.3924885E+01
 1.7761751E+01  2.3918449E+01
 1.7773251E+01  2.3980589E+01
 1.7784750E+01  2.3958126E+01
 1.7796251E+01  2.4049099E+01
 1.7807751E+01  2.4010704E+01
 1.7819250E+01  2.4025881E+01
 1.7830751E+01  2.3982292E+01
 1.7842251E+01  2.4002544E+01
 1.7853750E+01  2.3936911E+01
 1.7865252E+01  2.3906853E+01
 1.7876751E+01  2.3875435E+01
 1.7888250E+01  2.3883022E+01
 1.7899752E+01  2.3861216E+01
 1.7911251E+01  2.3915981E+01
 1.7922750E+01  2.3972610E+01
 1.7934252E+01  2.4018427E+01
 1.7945751E+01  2.4051933E+01
 1.7957251E+01  2.4045597E+01
 1.7968750E+01  2.4059746E+01
 1.7980251E+01  2.4102480E+01
 1.7991751E+01  2.4161814E+01
 1.8003250E+01  2.4337206E+01
 1.8014751E+01  2.4473082E+01
 1.8026251E+01  2.4625978E+01
 1.8037750E+01  2.4739761E+01
 1.8049252E+01  2.4875933E+01
 1.8060751E+01  2.5031784E+01
 1.8072250E+01  2.5165215E+01
 1.8083752E+01  2.5408945E+01
 1.8095251E+01  2.5641605E+01
 1.8106750E+01  2.5898458E+01
 1.8118252E+01  2.5872602E+01
 1.8129751E+01  2.5955917E+01
 1.8141251E+01  2.5575573E+01
 1.8152750E+01  2.5408104E+01
 1.8164251E+01  2.4919264E+01
 1.8175751E+01  2.4611273E+01
 1.8187250E+01  2.4220074E+01
 1.8198751E+01  2.4041157E+01
 1.8210251E+01  2.3919281E+01
 1.8221750E+01  2.3838673E+01
 1.8233252E+01  2.3782223E+01
 1.8244751E+01  2.3769567E+01
 1.8256250E+01  2.3780741E+01
 1.8267752E+01  2.3752722E+01
 1.8279251E+01  2.3738342E+01
 1.8290751E+01  2.3717159E+01
 1.8302252E+01  2.3721077E+01
 1.8313751E+01  2.3677170E+01
 1.8325251E+01  2.3713375E+01
 1.8336750E+01  2.3729958E+01
 1.8348251E+01  2.3814861E+01
 1.8359751E+01  2.3816465E+01
 1.8371250E+01  2.3810684E+01
 1.8382751E+01  2.3768042E+01
 1.8394251E+01  2.3774220E+01
 1.8405750E+01  2.3837446E+01
 1.8417252E+01  2.3875549E+01
 1.8428751E+01  2.3900023E+01
 1.8440250E+01  2.3837669E+01
 1.8451752E+01  2.3766624E+01
 1.8463251E+01  2.3724045E+01
 1.8474751E+01  2.3751472E+01
 1.8486252E+01  2.3756130E+01
 1.8497751E+01  2.3745285E+01
 1.8509251E+01  2.3732359E+01
 1.8520750E+01  2.3691355E+01
 1.8532251E+01  2.3677717E+01
 1.8543751E+01  2.3639137E+01
 1.8555250E+01  2.3674534E+01
 1.8566751E+01  2.3647167E+01
 1.8578251E+01  2.3638103E+01
 1.8589750E+01  2.3636482E+01
 1.8601252E+01  2.3666763E+01
 1.8612751E+01  2.3719595E+01
 1.8624250E+01  2.3721205E+01
 1.8635752E+01  2.3732191E+01
 1.8647251E+01  2.3677919E+01
 1.8658751E+01  2.3636271E+01
 1.8670252E+01  2.3619408E+01
 1.8681751E+01  2.3661993E+01
 1.8693251E+01  2.3659475E+01
 1.8704750E+01  2.3667603E+01
 1.8716251E+01  2.3638130E+01
 1.8727751E+01  2.3697897E+01
 1.8739250E+01  2.3691488E+01
 1.8750751E+01  2.3682535E+01
 1.8762251E+01  2.3646620E+01
 1.8773750E+01  2.3630560E+01
 1.8785252E+01  2.3665749E+01
 1.8796751E+01  2.3647310E+01
 1.8808250E+01  2.3651249E+01
 1.8819752E+01  2.3649195E+01
 1.8831251E+01  2.3654623E+01
 1.8842751E+01  2.3654509E+01
 1.8854252E+01  2.3594330E+01
 1.8865751E+01  2.3538208E+01
 1.8877251E+01  2.3496220E+01
 1.8888750E+01  2.3530336E+01
 1.8900251E+01  2.3565868E+01
 1.8911751E+01  2.3601154E+01
 1.8923250E+01  2.3616774E+01
 1.8934752E+01  2.3652859E+01
 1.8946251E+01  2.3705589E+01
 1.8957750E+01  2.3682297E+01
 1.8969252E+01  2.3627125E+01
 1.8980751E+01  2.3553808E+01
 1.8992250E+01  2.3549200E+01
 1.9003752E+01  2.3549347E+01
 1.9015251E+01  2.3611544E+01
 1.9026751E+01  2.3704338E+01
 1.9038252E+01  2.3776270E+01
 1.9049751E+01  2.3767548E+01
 1.9061251E+01  2.3775848E+01
 1.9072750E+01  2.3778566E+01
 1.9084251E+01  2.3791935E+01
 1.9095751E+01  2.3710564E+01
 1.9107250E+01  2.3635738E+01
 1.9118752E+01  2.3582163E+01
 1.9130251E+01  2.3609652E+01
 1.9141750E+01  2.3665571E+01
 1.9153252E+01  2.3732119E+01
 1.9164751E+01  2.3717335E+01
 1.9176250E+01  2.3685278E+01
 1.9187752E+01  2.3663818E+01
 1.9199251E+01  2.3674473E+01
 1.9210751E+01  2.3682692E+01
 1.9222252E+01  2.3696074E+01
 1.9233751E+01  2.3678038E+01
 1.9245251E+01  2.3687180E+01
 1.9256750E+01  2.3685478E+01
 1.9268251E+01  2.3689751E+01
 1.9279751E+01  2.3657913E+01
 1.9291250E+01  2.3717438E+01
 1.9302752E+01  2.3701803E+01
 1.9314251E+01  2.3699116E+01
 1.9325750E+01  2.3677725E+01
 1.9337252E+01  2.3741035E+01
 1.9348751E+01  2.3846714E+01
 1.9360250E+01  2.3892467E+01
 1.9371752E+01  2.3980736E+01
 1.9383251E+01  2.4013443E+01
 1.9394751E+01  2.4018276E+01
 1.9406250E+01  2.3893126E+01
 1.9417751E+01  2.3792782E+01
 1.9429251E+01  2.3728416E+01
 1.9440750E+01  2.3707460E+01
 1.9452251E+01  2.3689768E+01
 1.9463751E+01  2.3707527E+01
 1.9475250E+01  2.3752237E+01
 1.9486752E+01  2.3817352E+01
 1.9498251E+01  2.3836073E+01
 1.9509750E+01  2.3912668E+01
 1.9521252E+01  2.3965881E+01
 1.9532751E+01  2.4061377E+01
 1.9544250E+01  2.4052301E+01
 1.9555752E+01  2.3969194E+01
 1.9567251E+01  2.3930775E+01
 1.9578751E+01  2.3976646E+01
 1.9590250E+01  2.4072971E+01
 1.9601751E+01  2.4192465E+01
 1.9613251E+01  2.4337799E+01
 1.9624750E+01  2.4489996E+01
 1.9636251E+01  2.4704641E+01
 1.9647751E+01  2.4990446E+01
 1.9659250E+01  2.5688820E+01
 1.9670752E+01  2.6244820E+01
 1.9682251E+01  2.7418198E+01
 1.9693750E+01  2.8415457E+01
 1.9705252E+01  2.9211636E+01
 1.9716751E+01  3.0098261E+01
 1.9728251E+01  2.9517933E+01
 1.9739752E+01  2.9908428E+01
 1.9751251E+01  2.8334303E+01
 1.9762751E+01  2.7911945E+01
 1.9774250E+01  2.6819267E+01
 1.9785751E+01  2.6341005E+01
 1.9797251E+01  2.6218586E+01
 1.9808750E+01  2.6321056E+01
 1.9820251E+01  2.6826677E+01
 1.9831751E+01  2.7376228E+01
 1.9843250E+01  2.7881184E+01
 1.9854752E+01  2.8270435E+01
 1.9866251E+01  2.8254856E+01
 1.9877750E+01  2.8138401E+01
 1.9889252E+01  2.7590475E+01
 1.9900751E+01  2.7038708E+01
 1.9912251E+01  2.6189323E+01
 1.9923752E+01  2.5522539E+01
 1.9935251E+01  2.4933813E+01
 1.9946751E+01  2.4560862E+01
 1.9958250E+01  2.4339970E+01
 1.9969751E+01  2.4244650E+01
 1.9981251E+01  2.4186836E+01
 1.9992750E+01  2.4157482E+01
 2.0004251E+01  2.4075230E+01
 2.0015751E+01  2.4049189E+01
 2.0027250E+01  2.4034544E+01
 2.0038752E+01  2.4043612E+01
 2.0050251E+01  2.4043945E+01
 2.0061750E+01  2.3987913E+01
 2.0073252E+01  2.3945675E+01
 2.0084751E+01  2.3875938E+01
 2.0096251E+01  2.3845057E+01
 2.0107752E+01  2.3813478E+01
 2.0119251E+01  2.3827848E+01
 2.0130751E+01  2.3810198E+01
 2.0142250E+01  2.3805557E+01
 2.0153751E+01  2.3818493E+01
 2.0165251E+01  2.3853527E+01
 2.0176750E+01  2.3872194E+01
 2.0188251E+01  2.3888622E+01
 2.0199751E+01  2.3906189E+01
 2.0211250E+01  2.3925198E+01
 2.0222752E+01  2.3932850E+01
 2.0234251E+01  2.3980169E+01
 2.0245750E+01  2.3964556E+01
 2.0257252E+01  2.3956886E+01
 2.0268751E+01  2.3923241E+01
 2.0280251E+01  2.3943213E+01
 2.0291752E+01  2.3903820E+01
 2.0303251E+01  2.3938456E+01
 2.0314751E+01  2.3940590E+01
 2.0326250E+01  2.4020193E+01
 2.0337751E+01  2.4001007E+01
 2.0349251E+01  2.4075502E+01
 2.0360750E+01  2.4024786E+01
 2.0372252E+01  2.3961538E+01
 2.0383751E+01  2.3875204E+01
 2.0395250E+01  2.3887718E+01
 2.0406752E+01  2.3918848E+01
 2.0418251E+01  2.3930088E+01
 2.0429750E+01  2.3896290E+01
 2.0441252E+01  2.3856289E+01
 2.0452751E+01  2.3819000E+01
 2.0464251E+01  2.3857895E+01
 2.0475752E+01  2.3912785E+01
 2.0487251E+01  2.3956017E+01
 2.0498751E+01  2.3961205E+01
 2.0510250E+01  2.3958256E+01
 2.0521751E+01  2.3906124E+01
 2.0533251E+01  2.3916090E+01
 2.0544750E+01  2.3920752E+01
 2.0556252E+01  2.4003967E+01
 2.0567751E+01  2.3970778E+01
 2.0579250E+01  2.4021774E+01
 2.0590752E+01  2.4028540E+01
 2.0602251E+01  2.4094788E+01
 2.0613750E+01  2.4076435E+01
 2.0625252E+01  2.4104265E+01
 2.0636751E+01  2.4105530E+01
 2.0648251E+01  2.4132217E+01
 2.0659752E+01  2.4148304E+01
 2.0671251E+01  2.4262035E+01
 2.0682751E+01  2.4445173E+01
 2.0694250E+01  2.4675354E+01
 2.0705751E+01  2.5009951E+01
 2.0717251E+01  2.5445087E+01
 2.0728750E+01  2.6030951E+01
 2.0740252E+01  2.6621000E+01
 2.0751751E+01  2.7127745E+01
 2.0763250E+01  2.7535410E+01
 2.0774752E+01  2.7537647E+01
 2.0786251E+01  2.7330019E+01
 2.0797750E+01  2.6810263E+01
 2.0809252E+01  2.6209375E+01
 2.0820751E+01  2.5546453E+01
 2.0832251E+01  2.5030722E+01
 2.0843752E+01  2.4669636E+01
 2.0855251E+01  2.4439718E+01
 2.0866751E+01  2.4284210E+01
 2.0878250E+01  2.4196499E+01
 2.0889751E+01  2.4193392E+01
 2.0901251E+01  2.4200119E+01
 2.0912750E+01  2.4194296E+01
 2.0924252E+01  2.4165201E+01
 2.0935751E+01  2.4138872E+01
 2.0947250E+01  2.4132444E+01
 2.0958752E+01  2.4105625E+01
 2.0970251E+01  2.4055933E+01
 2.0981750E+01  2.4013369E+01
 2.0993252E+01  2.4015432E+01
 2.1004751E+01  2.4045334E+01
 2.1016251E+01  2.4059063E+01
 2.1027752E+01  2.4059994E+01
 2.1039251E+01  2.4069086E+01
 2.1050751E+01  2.4065037E+01
 2.1062250E+01  2.4025328E+01
 2.1073751E+01  2.4005743E+01
 2.1085251E+01  2.3985697E+01
 2.1096750E+01  2.3973049E+01
 2.1108252E+01  2.4015385E+01
 2.1119751E+01  2.4043795E+01
 2.1131250E+01  2.4046772E+01
 2.1142752E+01  2.3995998E+01
 2.1154251E+01  2.3957218E+01
 2.1165751E+01  2.3951698E+01
 2.1177252E+01  2.3944019E+01
 2.1188751E+01  2.3947987E+01
 2.1200251E+01  2.3961504E+01
 2.1211752E+01  2.3990578E+01
 2.1223251E+01  2.3982046E+01
 2.1234751E+01  2.3968861E+01
 2.1246250E+01  2.3996664E+01
 2.1257751E+01  2.3990873E+01
 2.1269251E+01  2.3984098E+01
 2.1280750E+01  2.3974644E+01
 2.1292252E+01  2.4031307E+01
 2.1303751E+01  2.4059629E+01
 2.1315250E+01  2.4034647E+01
 2.1326752E+01  2.4043428E+01
 2.1338251E+01  2.4099165E+01
 2.1349751E+01  2.4153708E+01
 2.1361252E+01  2.4169451E+01
 2.1372751E+01  2.4165642E+01
 2.1384251E+01  2.4121227E+01
 2.1395752E+01  2.4093985E+01
 2.1407251E+01  2.4077606E+01
 2.1418751E+01  2.4094139E+01
 2.1430250E+01  2.4110893E+01
 2.1441751E+01  2.4100777E+01
 2.1453251E+01  2.4076351E+01
 2.1464750E+01  2.4096395E+01
 2.1476252E+01  2.4123375E+01
 2.1487751E+01  2.4165140E+01
 2.1499250E+01  2.4161903E+01
 2.1510752E+01  2.4138826E+01
 2.1522251E+01  2.4134382E+01
 2.1533751E+01  2.4135208E+01
 2.1545252E+01  2.4111067E+01
 2.1556751E+01  2.4077578E+01
 2.1568251E+01  2.4050539E+01
 2.1579752E+01  2.4068752E+01
 2.1591251E+01  2.4129509E+01
 2.1602751E+01  2.4160370E+01
 2.1614250E+01  2.4188835E+01
 2.1625751E+01  2.4180347E+01
 2.1637251E+01  2.4170622E+01
 2.1648750E+01  2.4185448E+01
 2.1660252E+01  2.4261976E+01
 2.1671751E+01  2.4314844E+01
 2.1683250E+01  2.4280296E+01
 2.1694752E+01  2.4247931E+01
 2.1706251E+01  2.4229462E+01
 2.1717751E+01  2.4276825E+01
 2.1729252E+01  2.4298717E+01
 2.1740751E+01  2.4357254E+01
 2.1752251E+01  2.4347933E+01
 2.1763752E+01  2.4336227E+01
 2.1775251E+01  2.4297495E+01
 2.1786751E+01  2.4260315E+01
 2.1798250E+01  2.4243988E+01
 2.1809752E+01  2.4261459E+01
 2.1821251E+01  2.4343288E+01
 2.1832750E+01  2.4380760E+01
 2.1844252E+01  2.4395544E+01
 2.1855751E+01  2.4374731E+01
 2.1867250E+01  2.4388615E+01
 2.1878752E+01  2.4411957E+01
 2.1890251E+01  2.4426325E+01
 2.1901751E+01  2.4417862E+01
 2.1913252E+01  2.4424990E+01
 2.1924751E+01  2.4398619E+01
 2.1936251E+01  2.4454725E+01
 2.1947752E+01  2.4425478E+01
 2.1959251E+01  2.4383066E+01
 2.1970751E+01  2.4331934E+01
 2.1982250E+01  2.4289125E+01
 2.1993752E+01  2.4246824E+01
 2.2005251E+01  2.4280752E+01
 2.2016750E+01  2.4308077E+01
 2.2028252E+01  2.4317831E+01
 2.2039751E+01  2.4292561E+01
 2.2051250E+01  2.4311766E+01
 2.2062752E+01  2.4303213E+01
 2.2074251E+01  2.4329313E+01
 2.2085751E+01  2.4376328E+01
 2.2097252E+01  2.4425831E+01
 2.2108751E+01  2.4457636E+01
 2.2120251E+01  2.4512701E+01
 2.2131752E+01  2.4527929E+01
 2.2143251E+01  2.4529694E+01
 2.2154751E+01  2.4485430E+01
 2.2166250E+01  2.4509073E+01
 2.2177752E+01  2.4572353E+01
 2.2189251E+01  2.4610027E+01
 2.2200750E+01  2.4589590E+01
 2.2212252E+01  2.4572165E+01
 2.2223751E+01  2.4570421E+01
 2.2235250E+01  2.4564543E+01
 2.2246752E+01  2.4551731E+01
 2.2258251E+01  2.4561760E+01
 2.2269751E+01  2.4558825E+01
 2.2281252E+01  2.4619576E+01
 2.2292751E+01  2.4649950E+01
 2.2304251E+01  2.4660143E+01
 2.2315752E+01  2.4651155E+01
 2.2327251E+01  2.4653557E+01
 2.2338751E+01  2.4752695E+01
 2.2350250E+01  2.4818823E+01
 2.2361752E+01  2.4845596E+01
 2.2373251E+01  2.4805828E+01
 2.2384750E+01  2.4717751E+01
 2.2396252E+01  2.4663549E+01
 2.2407751E+01  2.4605074E+01
 2.2419250E+01  2.4620930E+01
 2.2430752E+01  2.4656801E+01
 2.2442251E+01  2.4672272E+01
 2.2453751E+01  2.4717518E+01
 2.2465252E+01  2.4711128E+01
 2.2476751E+01  2.4699793E+01
 2.2488251E+01  2.4676022E+01
 2.2499752E+01  2.4702497E+01
 2.2511251E+01  2.4738594E+01
 2.2522751E+01  2.4760546E+01
 2.2534250E+01  2.4749245E+01
 2.2545752E+01  2.4767467E+01
 2.2557251E+01  2.4779625E+01
 2.2568750E+01  2.4800236E+01
 2.2580252E+01  2.4816061E+01
 2.2591751E+01  2.4863190E+01
 2.2603251E+01  2.4904203E+01
 2.2614752E+01  2.4940363E+01
 2.2626251E+01  2.5013792E+01
 2.2637751E+01  2.5037477E+01
 2.2649252E+01  2.5074385E+01
 2.2660751E+01  2.5064930E+01
 2.2672251E+01  2.5090744E+01
 2.2683752E+01  2.5137209E+01
 2.2695251E+01  2.5189386E+01
 2.2706751E+01  2.5173698E+01
 2.2718250E+01  2.5157526E+01
 2.2729752E+01  2.5186817E+01
 2.2741251E+01  2.5193470E+01
 2.2752750E+01  2.5223816E+01
 2.2764252E+01  2.5234587E+01
 2.2775751E+01  2.5304937E+01
 2.2787251E+01  2.5331364E+01
 2.2798752E+01  2.5447176E+01
 2.2810251E+01  2.5506258E+01
 2.2821751E+01  2.5562019E+01
 2.2833252E+01  2.5592800E+01
 2.2844751E+01  2.5637407E+01
 2.2856251E+01  2.5675812E+01
 2.2867750E+01  2.5707754E+01
 2.2879251E+01  2.5751045E+01
 2.2890751E+01  2.5877228E+01
 2.2902250E+01  2.5983957E+01
 2.2913752E+01  2.6120207E+01
 2.2925251E+01  2.6204136E+01
 2.2936750E+01  2.6251137E+01
 2.2948252E+01  2.6276049E+01
 2.2959751E+01  2.6362278E+01
 2.2971251E+01  2.6597252E+01
 2.2982752E+01  2.6751114E+01
 2.2994251E+01  2.6911413E+01
