F:\20151113_APS_34IDE\\Brian\Particle1\OCV\Data_0086.tif
2-Theta Angle (Degrees)
Intensity
       2000
 5.7500005E-03  0.0000000E+00
 1.7250001E-02  0.0000000E+00
 2.8750001E-02  0.0000000E+00
 4.0250003E-02  0.0000000E+00
 5.1750004E-02  0.0000000E+00
 6.3250005E-02  0.0000000E+00
 7.4750006E-02  0.0000000E+00
 8.6250007E-02  0.0000000E+00
 9.7750008E-02  0.0000000E+00
 1.0925001E-01  0.0000000E+00
 1.2075000E-01  0.0000000E+00
 1.3225001E-01  0.0000000E+00
 1.4375001E-01  0.0000000E+00
 1.5525001E-01  0.0000000E+00
 1.6675001E-01  0.0000000E+00
 1.7825001E-01  0.0000000E+00
 1.8975002E-01  0.0000000E+00
 2.0125002E-01  0.0000000E+00
 2.1275002E-01  0.0000000E+00
 2.2425000E-01  0.0000000E+00
 2.3575000E-01  0.0000000E+00
 2.4725001E-01  0.0000000E+00
 2.5875002E-01  0.0000000E+00
 2.7025002E-01  0.0000000E+00
 2.8175002E-01  0.0000000E+00
 2.9325002E-01  0.0000000E+00
 3.0475003E-01  0.0000000E+00
 3.1625003E-01  0.0000000E+00
 3.2775003E-01  0.0000000E+00
 3.3925003E-01  0.0000000E+00
 3.5075003E-01  0.0000000E+00
 3.6225003E-01  0.0000000E+00
 3.7375003E-01  0.0000000E+00
 3.8525003E-01  0.0000000E+00
 3.9675003E-01  0.0000000E+00
 4.0825003E-01  0.0000000E+00
 4.1975003E-01  0.0000000E+00
 4.3125004E-01  0.0000000E+00
 4.4275001E-01  0.0000000E+00
 4.5425001E-01  0.0000000E+00
 4.6575001E-01  0.0000000E+00
 4.7725001E-01  0.0000000E+00
 4.8875001E-01  0.0000000E+00
 5.0025004E-01  0.0000000E+00
 5.1175004E-01  0.0000000E+00
 5.2325004E-01  0.0000000E+00
 5.3475004E-01  0.0000000E+00
 5.4625005E-01  0.0000000E+00
 5.5775005E-01  0.0000000E+00
 5.6925005E-01  0.0000000E+00
 5.8075005E-01  0.0000000E+00
 5.9225005E-01  0.0000000E+00
 6.0375005E-01  0.0000000E+00
 6.1525005E-01  0.0000000E+00
 6.2675005E-01  0.0000000E+00
 6.3825005E-01  0.0000000E+00
 6.4975005E-01  0.0000000E+00
 6.6125005E-01  0.0000000E+00
 6.7275006E-01  0.0000000E+00
 6.8425006E-01  0.0000000E+00
 6.9575006E-01  0.0000000E+00
 7.0725006E-01  0.0000000E+00
 7.1875006E-01  0.0000000E+00
 7.3025006E-01  0.0000000E+00
 7.4175006E-01  0.0000000E+00
 7.5325006E-01  0.0000000E+00
 7.6475006E-01  0.0000000E+00
 7.7625006E-01  0.0000000E+00
 7.8775007E-01  0.0000000E+00
 7.9925007E-01  0.0000000E+00
 8.1075007E-01  0.0000000E+00
 8.2225007E-01  0.0000000E+00
 8.3375007E-01  0.0000000E+00
 8.4525007E-01  0.0000000E+00
 8.5675007E-01  0.0000000E+00
 8.6825007E-01  0.0000000E+00
 8.7975001E-01  0.0000000E+00
 8.9125001E-01  0.0000000E+00
 9.0275002E-01  0.0000000E+00
 9.1425002E-01  0.0000000E+00
 9.2575002E-01  0.0000000E+00
 9.3725002E-01  0.0000000E+00
 9.4875002E-01  0.0000000E+00
 9.6025002E-01  0.0000000E+00
 9.7175002E-01  0.0000000E+00
 9.8325002E-01  0.0000000E+00
 9.9475002E-01  0.0000000E+00
 1.0062500E+00  0.0000000E+00
 1.0177500E+00  0.0000000E+00
 1.0292500E+00  0.0000000E+00
 1.0407500E+00  0.0000000E+00
 1.0522500E+00  0.0000000E+00
 1.0637500E+00  0.0000000E+00
 1.0752500E+00  0.0000000E+00
 1.0867500E+00  0.0000000E+00
 1.0982500E+00  0.0000000E+00
 1.1097500E+00  0.0000000E+00
 1.1212500E+00  0.0000000E+00
 1.1327500E+00  0.0000000E+00
 1.1442500E+00  0.0000000E+00
 1.1557500E+00  0.0000000E+00
 1.1672500E+00  0.0000000E+00
 1.1787500E+00  0.0000000E+00
 1.1902500E+00  0.0000000E+00
 1.2017500E+00  0.0000000E+00
 1.2132500E+00  0.0000000E+00
 1.2247500E+00  0.0000000E+00
 1.2362500E+00  0.0000000E+00
 1.2477500E+00  0.0000000E+00
 1.2592500E+00  0.0000000E+00
 1.2707500E+00  0.0000000E+00
 1.2822500E+00  0.0000000E+00
 1.2937500E+00  0.0000000E+00
 1.3052500E+00  0.0000000E+00
 1.3167500E+00  0.0000000E+00
 1.3282501E+00  0.0000000E+00
 1.3397501E+00  0.0000000E+00
 1.3512501E+00  0.0000000E+00
 1.3627501E+00  0.0000000E+00
 1.3742501E+00  0.0000000E+00
 1.3857501E+00  0.0000000E+00
 1.3972501E+00  0.0000000E+00
 1.4087501E+00  0.0000000E+00
 1.4202501E+00  0.0000000E+00
 1.4317501E+00  0.0000000E+00
 1.4432501E+00  0.0000000E+00
 1.4547501E+00  0.0000000E+00
 1.4662501E+00  0.0000000E+00
 1.4777501E+00  0.0000000E+00
 1.4892501E+00  0.0000000E+00
 1.5007501E+00  0.0000000E+00
 1.5122501E+00  0.0000000E+00
 1.5237501E+00  0.0000000E+00
 1.5352501E+00  0.0000000E+00
 1.5467501E+00  0.0000000E+00
 1.5582501E+00  0.0000000E+00
 1.5697501E+00  0.0000000E+00
 1.5812501E+00  0.0000000E+00
 1.5927501E+00  0.0000000E+00
 1.6042501E+00  0.0000000E+00
 1.6157501E+00  0.0000000E+00
 1.6272501E+00  0.0000000E+00
 1.6387501E+00  0.0000000E+00
 1.6502501E+00  0.0000000E+00
 1.6617501E+00  0.0000000E+00
 1.6732501E+00  0.0000000E+00
 1.6847501E+00  0.0000000E+00
 1.6962501E+00  0.0000000E+00
 1.7077501E+00  0.0000000E+00
 1.7192501E+00  0.0000000E+00
 1.7307501E+00  0.0000000E+00
 1.7422501E+00  0.0000000E+00
 1.7537501E+00  0.0000000E+00
 1.7652501E+00  0.0000000E+00
 1.7767501E+00  0.0000000E+00
 1.7882501E+00  0.0000000E+00
 1.7997501E+00  0.0000000E+00
 1.8112501E+00  0.0000000E+00
 1.8227501E+00  0.0000000E+00
 1.8342501E+00  0.0000000E+00
 1.8457501E+00  0.0000000E+00
 1.8572501E+00  0.0000000E+00
 1.8687501E+00  0.0000000E+00
 1.8802501E+00  0.0000000E+00
 1.8917501E+00  0.0000000E+00
 1.9032501E+00  0.0000000E+00
 1.9147501E+00  0.0000000E+00
 1.9262501E+00  0.0000000E+00
 1.9377501E+00  0.0000000E+00
 1.9492501E+00  0.0000000E+00
 1.9607501E+00  0.0000000E+00
 1.9722501E+00  0.0000000E+00
 1.9837501E+00  0.0000000E+00
 1.9952501E+00  0.0000000E+00
 2.0067501E+00  0.0000000E+00
 2.0182500E+00  0.0000000E+00
 2.0297501E+00  0.0000000E+00
 2.0412500E+00  0.0000000E+00
 2.0527501E+00  0.0000000E+00
 2.0642500E+00  0.0000000E+00
 2.0757501E+00  0.0000000E+00
 2.0872500E+00  0.0000000E+00
 2.0987501E+00  0.0000000E+00
 2.1102500E+00  0.0000000E+00
 2.1217501E+00  0.0000000E+00
 2.1332500E+00  0.0000000E+00
 2.1447501E+00  0.0000000E+00
 2.1562500E+00  0.0000000E+00
 2.1677501E+00  0.0000000E+00
 2.1792500E+00  0.0000000E+00
 2.1907501E+00  0.0000000E+00
 2.2022500E+00  0.0000000E+00
 2.2137501E+00  0.0000000E+00
 2.2252500E+00  0.0000000E+00
 2.2367501E+00  0.0000000E+00
 2.2482500E+00  0.0000000E+00
 2.2597501E+00  0.0000000E+00
 2.2712500E+00  0.0000000E+00
 2.2827501E+00  0.0000000E+00
 2.2942500E+00  0.0000000E+00
 2.3057501E+00  0.0000000E+00
 2.3172500E+00  0.0000000E+00
 2.3287501E+00  0.0000000E+00
 2.3402500E+00  0.0000000E+00
 2.3517501E+00  0.0000000E+00
 2.3632500E+00  0.0000000E+00
 2.3747501E+00  0.0000000E+00
 2.3862500E+00  0.0000000E+00
 2.3977501E+00  0.0000000E+00
 2.4092500E+00  0.0000000E+00
 2.4207501E+00  0.0000000E+00
 2.4322500E+00  0.0000000E+00
 2.4437501E+00  0.0000000E+00
 2.4552500E+00  0.0000000E+00
 2.4667501E+00  0.0000000E+00
 2.4782500E+00  0.0000000E+00
 2.4897501E+00  0.0000000E+00
 2.5012500E+00  0.0000000E+00
 2.5127501E+00  0.0000000E+00
 2.5242500E+00  0.0000000E+00
 2.5357502E+00  0.0000000E+00
 2.5472500E+00  0.0000000E+00
 2.5587502E+00  0.0000000E+00
 2.5702500E+00  0.0000000E+00
 2.5817502E+00  0.0000000E+00
 2.5932500E+00  0.0000000E+00
 2.6047502E+00  0.0000000E+00
 2.6162500E+00  0.0000000E+00
 2.6277502E+00  0.0000000E+00
 2.6392500E+00  0.0000000E+00
 2.6507502E+00  0.0000000E+00
 2.6622500E+00  0.0000000E+00
 2.6737502E+00  0.0000000E+00
 2.6852500E+00  0.0000000E+00
 2.6967502E+00  0.0000000E+00
 2.7082500E+00  0.0000000E+00
 2.7197502E+00  0.0000000E+00
 2.7312500E+00  0.0000000E+00
 2.7427502E+00  0.0000000E+00
 2.7542500E+00  0.0000000E+00
 2.7657502E+00  0.0000000E+00
 2.7772501E+00  0.0000000E+00
 2.7887502E+00  0.0000000E+00
 2.8002501E+00  0.0000000E+00
 2.8117502E+00  0.0000000E+00
 2.8232501E+00  3.5636322E+01
 2.8347502E+00  3.4197868E+01
 2.8462501E+00  3.3916996E+01
 2.8577502E+00  3.3950466E+01
 2.8692501E+00  3.3992199E+01
 2.8807502E+00  3.4224476E+01
 2.8922501E+00  3.4898972E+01
 2.9037502E+00  3.5566410E+01
 2.9152501E+00  3.6244755E+01
 2.9267502E+00  3.6151348E+01
 2.9382501E+00  3.6310650E+01
 2.9497502E+00  3.6621815E+01
 2.9612501E+00  3.7102856E+01
 2.9727502E+00  3.6883492E+01
 2.9842501E+00  3.6449020E+01
 2.9957502E+00  3.5876431E+01
 3.0072501E+00  3.5733791E+01
 3.0187502E+00  3.5300365E+01
 3.0302501E+00  3.5127838E+01
 3.0417502E+00  3.5107456E+01
 3.0532501E+00  3.5107632E+01
 3.0647502E+00  3.5122009E+01
 3.0762501E+00  3.5181499E+01
 3.0877502E+00  3.5103199E+01
 3.0992501E+00  3.5105923E+01
 3.1107502E+00  3.5020885E+01
 3.1222501E+00  3.5408016E+01
 3.1337502E+00  3.5597847E+01
 3.1452501E+00  3.5927105E+01
 3.1567502E+00  3.5870621E+01
 3.1682501E+00  3.5874950E+01
 3.1797502E+00  3.5552425E+01
 3.1912501E+00  3.5492672E+01
 3.2027502E+00  3.5453316E+01
 3.2142501E+00  3.5338123E+01
 3.2257502E+00  3.5599884E+01
 3.2372501E+00  3.5289589E+01
 3.2487502E+00  3.5280548E+01
 3.2602501E+00  3.4965958E+01
 3.2717502E+00  3.4696163E+01
 3.2832501E+00  3.4559937E+01
 3.2947502E+00  3.4728729E+01
 3.3062501E+00  3.4802780E+01
 3.3177502E+00  3.5040222E+01
 3.3292501E+00  3.4742203E+01
 3.3407502E+00  3.5322323E+01
 3.3522501E+00  3.5246429E+01
 3.3637502E+00  3.5314960E+01
 3.3752501E+00  3.4892601E+01
 3.3867502E+00  3.4716702E+01
 3.3982501E+00  3.4581890E+01
 3.4097502E+00  3.4409393E+01
 3.4212501E+00  3.4360970E+01
 3.4327502E+00  3.3951672E+01
 3.4442501E+00  3.3777763E+01
 3.4557502E+00  3.3662514E+01
 3.4672501E+00  3.4061432E+01
 3.4787502E+00  3.4142708E+01
 3.4902501E+00  3.4356712E+01
 3.5017502E+00  3.4130260E+01
 3.5132501E+00  3.4141804E+01
 3.5247502E+00  3.4046623E+01
 3.5362501E+00  3.3920937E+01
 3.5477502E+00  3.4014297E+01
 3.5592501E+00  3.3839371E+01
 3.5707502E+00  3.3801563E+01
 3.5822501E+00  3.3561924E+01
 3.5937502E+00  3.3620255E+01
 3.6052501E+00  3.3533588E+01
 3.6167502E+00  3.3660919E+01
 3.6282501E+00  3.3571106E+01
 3.6397502E+00  3.3568382E+01
 3.6512501E+00  3.3479141E+01
 3.6627502E+00  3.3318035E+01
 3.6742501E+00  3.3226151E+01
 3.6857502E+00  3.3134697E+01
 3.6972501E+00  3.2944126E+01
 3.7087502E+00  3.3025696E+01
 3.7202501E+00  3.2900654E+01
 3.7317502E+00  3.3265800E+01
 3.7432501E+00  3.3263535E+01
 3.7547503E+00  3.3576050E+01
 3.7662501E+00  3.3644169E+01
 3.7777503E+00  3.3774967E+01
 3.7892501E+00  3.3682861E+01
 3.8007503E+00  3.3541836E+01
 3.8122501E+00  3.3591801E+01
 3.8237503E+00  3.3582481E+01
 3.8352501E+00  3.3577698E+01
 3.8467503E+00  3.3484879E+01
 3.8582501E+00  3.3500141E+01
 3.8697503E+00  3.3461739E+01
 3.8812501E+00  3.3294632E+01
 3.8927503E+00  3.2939503E+01
 3.9042501E+00  3.2543575E+01
 3.9157503E+00  3.2221252E+01
 3.9272501E+00  3.2082863E+01
 3.9387503E+00  3.2190590E+01
 3.9502501E+00  3.2447216E+01
 3.9617503E+00  3.2590244E+01
 3.9732502E+00  3.2743069E+01
 3.9847503E+00  3.2703159E+01
 3.9962502E+00  3.2841534E+01
 4.0077500E+00  3.2763851E+01
 4.0192504E+00  3.2647923E+01
 4.0307503E+00  3.2348095E+01
 4.0422502E+00  3.2219833E+01
 4.0537500E+00  3.2105076E+01
 4.0652504E+00  3.2159279E+01
 4.0767503E+00  3.2160072E+01
 4.0882502E+00  3.2224121E+01
 4.0997500E+00  3.2286690E+01
 4.1112504E+00  3.2309086E+01
 4.1227503E+00  3.2250172E+01
 4.1342502E+00  3.2394173E+01
 4.1457500E+00  3.2344559E+01
 4.1572504E+00  3.2375854E+01
 4.1687503E+00  3.2337025E+01
 4.1802502E+00  3.2375095E+01
 4.1917500E+00  3.2516376E+01
 4.2032504E+00  3.2585617E+01
 4.2147503E+00  3.2618912E+01
 4.2262502E+00  3.2705429E+01
 4.2377501E+00  3.2593422E+01
 4.2492504E+00  3.2814213E+01
 4.2607503E+00  3.2790813E+01
 4.2722502E+00  3.2681072E+01
 4.2837501E+00  3.2490986E+01
 4.2952504E+00  3.2359737E+01
 4.3067503E+00  3.2458954E+01
 4.3182502E+00  3.2499382E+01
 4.3297501E+00  3.2536591E+01
 4.3412504E+00  3.2617939E+01
 4.3527503E+00  3.2553749E+01
 4.3642502E+00  3.2501808E+01
 4.3757501E+00  3.2437378E+01
 4.3872504E+00  3.2433056E+01
 4.3987503E+00  3.2449310E+01
 4.4102502E+00  3.2558544E+01
 4.4217501E+00  3.2678829E+01
 4.4332504E+00  3.2760941E+01
 4.4447503E+00  3.2640114E+01
 4.4562502E+00  3.2710873E+01
 4.4677501E+00  3.2861897E+01
 4.4792504E+00  3.3055817E+01
 4.4907503E+00  3.2993557E+01
 4.5022502E+00  3.2925823E+01
 4.5137501E+00  3.2881779E+01
 4.5252504E+00  3.2965076E+01
 4.5367503E+00  3.2993687E+01
 4.5482502E+00  3.2956814E+01
 4.5597501E+00  3.2937706E+01
 4.5712504E+00  3.2911366E+01
 4.5827503E+00  3.2828217E+01
 4.5942502E+00  3.2767441E+01
 4.6057501E+00  3.2634613E+01
 4.6172504E+00  3.2600220E+01
 4.6287503E+00  3.2548904E+01
 4.6402502E+00  3.2690006E+01
 4.6517501E+00  3.2848495E+01
 4.6632504E+00  3.3058922E+01
 4.6747503E+00  3.3091240E+01
 4.6862502E+00  3.3065674E+01
 4.6977501E+00  3.3039303E+01
 4.7092505E+00  3.2947201E+01
 4.7207503E+00  3.2941891E+01
 4.7322502E+00  3.2851276E+01
 4.7437501E+00  3.2970928E+01
 4.7552505E+00  3.2892887E+01
 4.7667503E+00  3.3036049E+01
 4.7782502E+00  3.2895988E+01
 4.7897501E+00  3.2860092E+01
 4.8012505E+00  3.2771072E+01
 4.8127503E+00  3.2644135E+01
 4.8242502E+00  3.2752777E+01
 4.8357501E+00  3.2700317E+01
 4.8472505E+00  3.2836098E+01
 4.8587503E+00  3.2966610E+01
 4.8702502E+00  3.2972111E+01
 4.8817501E+00  3.3030731E+01
 4.8932505E+00  3.3001530E+01
 4.9047503E+00  3.3138809E+01
 4.9162502E+00  3.3322868E+01
 4.9277501E+00  3.3309940E+01
 4.9392505E+00  3.3400742E+01
 4.9507504E+00  3.3401081E+01
 4.9622502E+00  3.3444942E+01
 4.9737501E+00  3.3449787E+01
 4.9852505E+00  3.3450409E+01
 4.9967504E+00  3.3596336E+01
 5.0082502E+00  3.3588867E+01
 5.0197501E+00  3.3543369E+01
 5.0312505E+00  3.3441795E+01
 5.0427504E+00  3.3384239E+01
 5.0542502E+00  3.3345322E+01
 5.0657501E+00  3.3331039E+01
 5.0772505E+00  3.3363266E+01
 5.0887504E+00  3.3464207E+01
 5.1002502E+00  3.3480526E+01
 5.1117501E+00  3.3571625E+01
 5.1232505E+00  3.3624268E+01
 5.1347504E+00  3.3707039E+01
 5.1462502E+00  3.3818382E+01
 5.1577501E+00  3.3809669E+01
 5.1692505E+00  3.3906807E+01
 5.1807504E+00  3.4048786E+01
 5.1922503E+00  3.4081741E+01
 5.2037501E+00  3.4137394E+01
 5.2152505E+00  3.4056690E+01
 5.2267504E+00  3.4023815E+01
 5.2382503E+00  3.4099514E+01
 5.2497501E+00  3.4135429E+01
 5.2612505E+00  3.4139858E+01
 5.2727504E+00  3.4077515E+01
 5.2842503E+00  3.4031933E+01
 5.2957501E+00  3.4043571E+01
 5.3072500E+00  3.3961967E+01
 5.3187504E+00  3.4035595E+01
 5.3302503E+00  3.4143257E+01
 5.3417501E+00  3.4297997E+01
 5.3532500E+00  3.4401012E+01
 5.3647504E+00  3.4534657E+01
 5.3762503E+00  3.4620907E+01
 5.3877501E+00  3.4701435E+01
 5.3992500E+00  3.4651253E+01
 5.4107504E+00  3.4674534E+01
 5.4222503E+00  3.4577038E+01
 5.4337502E+00  3.4549175E+01
 5.4452500E+00  3.4604008E+01
 5.4567504E+00  3.4708164E+01
 5.4682503E+00  3.4753277E+01
 5.4797502E+00  3.4733448E+01
 5.4912500E+00  3.4647106E+01
 5.5027504E+00  3.4821865E+01
 5.5142503E+00  3.4938938E+01
 5.5257502E+00  3.5101868E+01
 5.5372500E+00  3.5314640E+01
 5.5487504E+00  3.5458138E+01
 5.5602503E+00  3.5650200E+01
 5.5717502E+00  3.5632450E+01
 5.5832500E+00  3.5699921E+01
 5.5947504E+00  3.5673599E+01
 5.6062503E+00  3.5630417E+01
 5.6177502E+00  3.5544743E+01
 5.6292500E+00  3.5463898E+01
 5.6407504E+00  3.5405380E+01
 5.6522503E+00  3.5516243E+01
 5.6637502E+00  3.5609734E+01
 5.6752501E+00  3.5771984E+01
 5.6867504E+00  3.5686844E+01
 5.6982503E+00  3.5702103E+01
 5.7097502E+00  3.5599915E+01
 5.7212501E+00  3.5714680E+01
 5.7327504E+00  3.5683472E+01
 5.7442503E+00  3.5798504E+01
 5.7557502E+00  3.5740204E+01
 5.7672501E+00  3.5849155E+01
 5.7787504E+00  3.5895966E+01
 5.7902503E+00  3.5993046E+01
 5.8017502E+00  3.6055447E+01
 5.8132501E+00  3.6121979E+01
 5.8247504E+00  3.6213375E+01
 5.8362503E+00  3.6329170E+01
 5.8477502E+00  3.6384384E+01
 5.8592501E+00  3.6357948E+01
 5.8707504E+00  3.6383587E+01
 5.8822503E+00  3.6469662E+01
 5.8937502E+00  3.6773930E+01
 5.9052501E+00  3.7112877E+01
 5.9167504E+00  3.7606686E+01
 5.9282503E+00  3.8646942E+01
 5.9397502E+00  3.9667122E+01
 5.9512501E+00  4.2063141E+01
 5.9627504E+00  4.5042648E+01
 5.9742503E+00  4.6688450E+01
 5.9857502E+00  4.7916019E+01
 5.9972501E+00  4.7272095E+01
 6.0087504E+00  4.5934666E+01
 6.0202503E+00  4.3885593E+01
 6.0317502E+00  4.1064636E+01
 6.0432501E+00  3.9788486E+01
 6.0547504E+00  3.8345005E+01
 6.0662503E+00  3.7660305E+01
 6.0777502E+00  3.7391056E+01
 6.0892501E+00  3.7243656E+01
 6.1007504E+00  3.7155914E+01
 6.1122503E+00  3.7072071E+01
 6.1237502E+00  3.6936573E+01
 6.1352501E+00  3.6869648E+01
 6.1467505E+00  3.6727787E+01
 6.1582503E+00  3.6676071E+01
 6.1697502E+00  3.6620193E+01
 6.1812501E+00  3.6723190E+01
 6.1927505E+00  3.6842072E+01
 6.2042503E+00  3.6921772E+01
 6.2157502E+00  3.7117538E+01
 6.2272501E+00  3.7230812E+01
 6.2387505E+00  3.7233742E+01
 6.2502503E+00  3.7303894E+01
 6.2617502E+00  3.7411747E+01
 6.2732501E+00  3.7602253E+01
 6.2847505E+00  3.7732346E+01
 6.2962503E+00  3.7758556E+01
 6.3077502E+00  3.7871513E+01
 6.3192501E+00  3.7977932E+01
 6.3307505E+00  3.8071297E+01
 6.3422503E+00  3.8149071E+01
 6.3537502E+00  3.8051186E+01
 6.3652501E+00  3.7972538E+01
 6.3767505E+00  3.7894154E+01
 6.3882504E+00  3.7975056E+01
 6.3997502E+00  3.8125088E+01
 6.4112501E+00  3.8343563E+01
 6.4227505E+00  3.8467331E+01
 6.4342504E+00  3.8554955E+01
 6.4457502E+00  3.8590000E+01
 6.4572501E+00  3.8704247E+01
 6.4687505E+00  3.8832775E+01
 6.4802504E+00  3.8903355E+01
 6.4917502E+00  3.8938087E+01
 6.5032501E+00  3.9116520E+01
 6.5147505E+00  3.9250618E+01
 6.5262504E+00  3.9260513E+01
 6.5377502E+00  3.9311714E+01
 6.5492501E+00  3.9351021E+01
 6.5607505E+00  3.9481731E+01
 6.5722504E+00  3.9583321E+01
 6.5837502E+00  3.9723263E+01
 6.5952501E+00  3.9851089E+01
 6.6067505E+00  3.9974243E+01
 6.6182504E+00  4.0027534E+01
 6.6297503E+00  4.0181602E+01
 6.6412501E+00  4.0178516E+01
 6.6527505E+00  4.0236130E+01
 6.6642504E+00  4.0331860E+01
 6.6757503E+00  4.0427315E+01
 6.6872501E+00  4.0407276E+01
 6.6987505E+00  4.0391357E+01
 6.7102504E+00  4.0452454E+01
 6.7217503E+00  4.0564182E+01
 6.7332501E+00  4.0652565E+01
 6.7447505E+00  4.0750416E+01
 6.7562504E+00  4.0872757E+01
 6.7677503E+00  4.0898914E+01
 6.7792501E+00  4.0959755E+01
 6.7907505E+00  4.1049374E+01
 6.8022504E+00  4.1295429E+01
 6.8137503E+00  4.1525852E+01
 6.8252501E+00  4.1687298E+01
 6.8367505E+00  4.1776993E+01
 6.8482504E+00  4.1832542E+01
 6.8597503E+00  4.1885513E+01
 6.8712502E+00  4.1845757E+01
 6.8827505E+00  4.1860073E+01
 6.8942504E+00  4.1898388E+01
 6.9057503E+00  4.1979290E+01
 6.9172502E+00  4.2059433E+01
 6.9287505E+00  4.2200451E+01
 6.9402504E+00  4.2259583E+01
 6.9517503E+00  4.2350113E+01
 6.9632502E+00  4.2326477E+01
 6.9747505E+00  4.2416344E+01
 6.9862504E+00  4.2494064E+01
 6.9977503E+00  4.2631611E+01
 7.0092502E+00  4.2746632E+01
 7.0207505E+00  4.2820400E+01
 7.0322504E+00  4.2787693E+01
 7.0437503E+00  4.2797684E+01
 7.0552502E+00  4.2773819E+01
 7.0667505E+00  4.2838779E+01
 7.0782504E+00  4.2823578E+01
 7.0897503E+00  4.2853752E+01
 7.1012502E+00  4.2870472E+01
 7.1127505E+00  4.2937210E+01
 7.1242504E+00  4.3051155E+01
 7.1357503E+00  4.3056549E+01
 7.1472502E+00  4.3304916E+01
 7.1587505E+00  4.3359642E+01
 7.1702504E+00  4.3545586E+01
 7.1817503E+00  4.3482281E+01
 7.1932502E+00  4.3543922E+01
 7.2047505E+00  4.3532917E+01
 7.2162504E+00  4.3495468E+01
 7.2277503E+00  4.3422485E+01
 7.2392502E+00  4.3418121E+01
 7.2507505E+00  4.3433811E+01
 7.2622504E+00  4.3526962E+01
 7.2737503E+00  4.3515182E+01
 7.2852502E+00  4.3528065E+01
 7.2967505E+00  4.3525486E+01
 7.3082504E+00  4.3643932E+01
 7.3197503E+00  4.3825005E+01
 7.3312502E+00  4.3999718E+01
 7.3427505E+00  4.4071751E+01
 7.3542504E+00  4.4111698E+01
 7.3657503E+00  4.4076515E+01
 7.3772502E+00  4.4073677E+01
 7.3887506E+00  4.4070736E+01
 7.4002504E+00  4.4144653E+01
 7.4117503E+00  4.4305401E+01
 7.4232502E+00  4.4494804E+01
 7.4347506E+00  4.4625828E+01
 7.4462504E+00  4.4713711E+01
 7.4577503E+00  4.4691101E+01
 7.4692502E+00  4.4627838E+01
 7.4807506E+00  4.4560261E+01
 7.4922504E+00  4.4540665E+01
 7.5037503E+00  4.4541985E+01
 7.5152502E+00  4.4511139E+01
 7.5267506E+00  4.4495323E+01
 7.5382504E+00  4.4474339E+01
 7.5497503E+00  4.4462040E+01
 7.5612502E+00  4.4490845E+01
 7.5727506E+00  4.4511307E+01
 7.5842505E+00  4.4618572E+01
 7.5957503E+00  4.4621620E+01
 7.6072502E+00  4.4730431E+01
 7.6187506E+00  4.4669495E+01
 7.6302505E+00  4.4672695E+01
 7.6417503E+00  4.4582058E+01
 7.6532502E+00  4.4615189E+01
 7.6647506E+00  4.4545498E+01
 7.6762505E+00  4.4448456E+01
 7.6877503E+00  4.4396103E+01
 7.6992502E+00  4.4359077E+01
 7.7107506E+00  4.4522850E+01
 7.7222505E+00  4.4542385E+01
 7.7337503E+00  4.4644451E+01
 7.7452502E+00  4.4694965E+01
 7.7567506E+00  4.4712410E+01
 7.7682505E+00  4.4715614E+01
 7.7797503E+00  4.4608330E+01
 7.7912502E+00  4.4506145E+01
 7.8027506E+00  4.4415867E+01
 7.8142505E+00  4.4336456E+01
 7.8257504E+00  4.4372772E+01
 7.8372502E+00  4.4354507E+01
 7.8487506E+00  4.4260906E+01
 7.8602505E+00  4.4236195E+01
 7.8717504E+00  4.4187893E+01
 7.8832502E+00  4.4204395E+01
 7.8947506E+00  4.4143764E+01
 7.9062505E+00  4.4158691E+01
 7.9177504E+00  4.4182934E+01
 7.9292502E+00  4.4127209E+01
 7.9407506E+00  4.4018364E+01
 7.9522505E+00  4.3872051E+01
 7.9637504E+00  4.3787201E+01
 7.9752502E+00  4.3742348E+01
 7.9867506E+00  4.3773323E+01
 7.9982505E+00  4.3830292E+01
 8.0097504E+00  4.3768131E+01
 8.0212507E+00  4.3700974E+01
 8.0327501E+00  4.3644604E+01
 8.0442505E+00  4.3577606E+01
 8.0557508E+00  4.3441219E+01
 8.0672503E+00  4.3284203E+01
 8.0787506E+00  4.3208038E+01
 8.0902500E+00  4.3165920E+01
 8.1017504E+00  4.3032738E+01
 8.1132507E+00  4.2987484E+01
 8.1247501E+00  4.2930073E+01
 8.1362505E+00  4.2866989E+01
 8.1477509E+00  4.2685768E+01
 8.1592503E+00  4.2471329E+01
 8.1707506E+00  4.2400402E+01
 8.1822500E+00  4.2246387E+01
 8.1937504E+00  4.2216206E+01
 8.2052507E+00  4.2037449E+01
 8.2167501E+00  4.1930290E+01
 8.2282505E+00  4.1834068E+01
 8.2397509E+00  4.1654095E+01
 8.2512503E+00  4.1609600E+01
 8.2627506E+00  4.1451321E+01
 8.2742500E+00  4.1304333E+01
 8.2857504E+00  4.1130878E+01
 8.2972507E+00  4.0971710E+01
 8.3087502E+00  4.0869698E+01
 8.3202505E+00  4.0745354E+01
 8.3317509E+00  4.0498619E+01
 8.3432503E+00  4.0361897E+01
 8.3547506E+00  4.0199116E+01
 8.3662500E+00  4.0142879E+01
 8.3777504E+00  4.0025879E+01
 8.3892508E+00  3.9934315E+01
 8.4007502E+00  3.9787369E+01
 8.4122505E+00  3.9629932E+01
 8.4237509E+00  3.9355804E+01
 8.4352503E+00  3.9193184E+01
 8.4467506E+00  3.9028008E+01
 8.4582500E+00  3.8860794E+01
 8.4697504E+00  3.8621960E+01
 8.4812508E+00  3.8400093E+01
 8.4927502E+00  3.8230991E+01
 8.5042505E+00  3.8100525E+01
 8.5157509E+00  3.7971363E+01
 8.5272503E+00  3.7871338E+01
 8.5387506E+00  3.7717667E+01
 8.5502501E+00  3.7430359E+01
 8.5617504E+00  3.7175240E+01
 8.5732508E+00  3.6996239E+01
 8.5847502E+00  3.6880222E+01
 8.5962505E+00  3.6681675E+01
 8.6077509E+00  3.6487148E+01
 8.6192503E+00  3.6203709E+01
 8.6307507E+00  3.6103233E+01
 8.6422501E+00  3.5882389E+01
 8.6537504E+00  3.5730007E+01
 8.6652508E+00  3.5523384E+01
 8.6767502E+00  3.5339363E+01
 8.6882505E+00  3.5244892E+01
 8.6997509E+00  3.5162792E+01
 8.7112503E+00  3.5116257E+01
 8.7227507E+00  3.5062000E+01
 8.7342501E+00  3.4825890E+01
 8.7457504E+00  3.4540272E+01
 8.7572508E+00  3.4255074E+01
 8.7687502E+00  3.4085098E+01
 8.7802505E+00  3.3866066E+01
 8.7917500E+00  3.3630592E+01
 8.8032503E+00  3.3460148E+01
 8.8147507E+00  3.3287556E+01
 8.8262501E+00  3.3159496E+01
 8.8377504E+00  3.3002460E+01
 8.8492508E+00  3.2845177E+01
 8.8607502E+00  3.2752888E+01
 8.8722506E+00  3.2620438E+01
 8.8837500E+00  3.2471817E+01
 8.8952503E+00  3.2328590E+01
 8.9067507E+00  3.2161945E+01
 8.9182501E+00  3.2047188E+01
 8.9297504E+00  3.1866467E+01
 8.9412508E+00  3.1599911E+01
 8.9527502E+00  3.1457905E+01
 8.9642506E+00  3.1250677E+01
 8.9757500E+00  3.1116707E+01
 8.9872503E+00  3.0960049E+01
 8.9987507E+00  3.0787853E+01
 9.0102501E+00  3.0687387E+01
 9.0217505E+00  3.0473068E+01
 9.0332508E+00  3.0442339E+01
 9.0447502E+00  3.0364128E+01
 9.0562506E+00  3.0265997E+01
 9.0677500E+00  3.0114893E+01
 9.0792503E+00  2.9918823E+01
 9.0907507E+00  2.9728306E+01
 9.1022501E+00  2.9614748E+01
 9.1137505E+00  2.9462559E+01
 9.1252508E+00  2.9418625E+01
 9.1367502E+00  2.9240309E+01
 9.1482506E+00  2.9214741E+01
 9.1597500E+00  2.9129019E+01
 9.1712503E+00  2.9082794E+01
 9.1827507E+00  2.8935200E+01
 9.1942501E+00  2.8821079E+01
 9.2057505E+00  2.8606857E+01
 9.2172508E+00  2.8571978E+01
 9.2287502E+00  2.8475155E+01
 9.2402506E+00  2.8516769E+01
 9.2517500E+00  2.8445724E+01
 9.2632504E+00  2.8327703E+01
 9.2747507E+00  2.8183203E+01
 9.2862501E+00  2.7997570E+01
 9.2977505E+00  2.7897758E+01
 9.3092508E+00  2.7784107E+01
 9.3207502E+00  2.7703632E+01
 9.3322506E+00  2.7604698E+01
 9.3437500E+00  2.7503996E+01
 9.3552504E+00  2.7409220E+01
 9.3667507E+00  2.7362873E+01
 9.3782501E+00  2.7316120E+01
 9.3897505E+00  2.7252995E+01
 9.4012508E+00  2.7190189E+01
 9.4127502E+00  2.7094809E+01
 9.4242506E+00  2.6972691E+01
 9.4357500E+00  2.6879210E+01
 9.4472504E+00  2.6825384E+01
 9.4587507E+00  2.6748604E+01
 9.4702501E+00  2.6722168E+01
 9.4817505E+00  2.6684084E+01
 9.4932508E+00  2.6673546E+01
 9.5047503E+00  2.6588902E+01
 9.5162506E+00  2.6525461E+01
 9.5277500E+00  2.6454998E+01
 9.5392504E+00  2.6392532E+01
 9.5507507E+00  2.6266214E+01
 9.5622501E+00  2.6228720E+01
 9.5737505E+00  2.6115051E+01
 9.5852509E+00  2.6003366E+01
 9.5967503E+00  2.5899632E+01
 9.6082506E+00  2.5836662E+01
 9.6197500E+00  2.5779264E+01
 9.6312504E+00  2.5755659E+01
 9.6427507E+00  2.5664547E+01
 9.6542501E+00  2.5666229E+01
 9.6657505E+00  2.5559132E+01
 9.6772509E+00  2.5487705E+01
 9.6887503E+00  2.5337423E+01
 9.7002506E+00  2.5280428E+01
 9.7117500E+00  2.5265526E+01
 9.7232504E+00  2.5256123E+01
 9.7347507E+00  2.5183596E+01
 9.7462502E+00  2.5199886E+01
 9.7577505E+00  2.5129343E+01
 9.7692509E+00  2.5155342E+01
 9.7807503E+00  2.5047884E+01
 9.7922506E+00  2.5140726E+01
 9.8037500E+00  2.5061207E+01
 9.8152504E+00  2.5007599E+01
 9.8267508E+00  2.4863966E+01
 9.8382502E+00  2.4846134E+01
 9.8497505E+00  2.4832802E+01
 9.8612509E+00  2.4826862E+01
 9.8727503E+00  2.4748581E+01
 9.8842506E+00  2.4701702E+01
 9.8957500E+00  2.4664865E+01
 9.9072504E+00  2.4666483E+01
 9.9187508E+00  2.4686405E+01
 9.9302502E+00  2.4697248E+01
 9.9417505E+00  2.4670786E+01
 9.9532509E+00  2.4571659E+01
 9.9647503E+00  2.4507460E+01
 9.9762506E+00  2.4452570E+01
 9.9877501E+00  2.4451492E+01
 9.9992504E+00  2.4372042E+01
 1.0010751E+01  2.4352203E+01
 1.0022250E+01  2.4760386E+01
 1.0033751E+01  2.4836155E+01
 1.0045251E+01  2.4889078E+01
 1.0056750E+01  2.4450298E+01
 1.0068251E+01  2.4373497E+01
 1.0079750E+01  2.4213539E+01
 1.0091250E+01  2.4129755E+01
 1.0102751E+01  2.4055952E+01
 1.0114250E+01  2.4117804E+01
 1.0125751E+01  2.4108194E+01
 1.0137251E+01  2.4094677E+01
 1.0148750E+01  2.4064892E+01
 1.0160251E+01  2.4048634E+01
 1.0171750E+01  2.3986282E+01
 1.0183250E+01  2.3957117E+01
 1.0194751E+01  2.3916431E+01
 1.0206250E+01  2.3961800E+01
 1.0217751E+01  2.3909792E+01
 1.0229251E+01  2.3942797E+01
 1.0240750E+01  2.3882399E+01
 1.0252251E+01  2.3825855E+01
 1.0263750E+01  2.3764021E+01
 1.0275250E+01  2.3754768E+01
 1.0286751E+01  2.3759264E+01
 1.0298250E+01  2.3745659E+01
 1.0309751E+01  2.3743647E+01
 1.0321251E+01  2.3690779E+01
 1.0332750E+01  2.3686872E+01
 1.0344251E+01  2.3598583E+01
 1.0355750E+01  2.3597677E+01
 1.0367250E+01  2.3508934E+01
 1.0378751E+01  2.3466913E+01
 1.0390250E+01  2.3412714E+01
 1.0401751E+01  2.3442673E+01
 1.0413251E+01  2.3431751E+01
 1.0424750E+01  2.3444670E+01
 1.0436251E+01  2.3390209E+01
 1.0447750E+01  2.3318798E+01
 1.0459250E+01  2.3270662E+01
 1.0470751E+01  2.3211039E+01
 1.0482250E+01  2.3248732E+01
 1.0493751E+01  2.3237602E+01
 1.0505251E+01  2.3235754E+01
 1.0516750E+01  2.3213316E+01
 1.0528251E+01  2.3180552E+01
 1.0539750E+01  2.3223372E+01
 1.0551250E+01  2.3247026E+01
 1.0562751E+01  2.3268316E+01
 1.0574250E+01  2.3210926E+01
 1.0585751E+01  2.3187786E+01
 1.0597251E+01  2.3124027E+01
 1.0608750E+01  2.3137375E+01
 1.0620251E+01  2.3126541E+01
 1.0631750E+01  2.3167856E+01
 1.0643250E+01  2.3125605E+01
 1.0654751E+01  2.3123196E+01
 1.0666250E+01  2.3073492E+01
 1.0677751E+01  2.3058617E+01
 1.0689251E+01  2.2983297E+01
 1.0700750E+01  2.2947268E+01
 1.0712251E+01  2.2959335E+01
 1.0723750E+01  2.3033764E+01
 1.0735250E+01  2.3060793E+01
 1.0746751E+01  2.3080137E+01
 1.0758250E+01  2.3072832E+01
 1.0769751E+01  2.3106171E+01
 1.0781251E+01  2.3142469E+01
 1.0792750E+01  2.3096001E+01
 1.0804251E+01  2.3100729E+01
 1.0815750E+01  2.3033298E+01
 1.0827250E+01  2.2966436E+01
 1.0838751E+01  2.2844723E+01
 1.0850250E+01  2.2802402E+01
 1.0861751E+01  2.2801111E+01
 1.0873251E+01  2.2844553E+01
 1.0884750E+01  2.2805479E+01
 1.0896251E+01  2.2771208E+01
 1.0907750E+01  2.2771164E+01
 1.0919250E+01  2.2825571E+01
 1.0930751E+01  2.2854805E+01
 1.0942250E+01  2.2783211E+01
 1.0953751E+01  2.2758596E+01
 1.0965251E+01  2.2730038E+01
 1.0976750E+01  2.2798971E+01
 1.0988251E+01  2.2734196E+01
 1.0999750E+01  2.2749437E+01
 1.1011250E+01  2.2687048E+01
 1.1022751E+01  2.2662701E+01
 1.1034250E+01  2.2575682E+01
 1.1045751E+01  2.2539099E+01
 1.1057251E+01  2.2513769E+01
 1.1068750E+01  2.2542747E+01
 1.1080251E+01  2.2566214E+01
 1.1091750E+01  2.2585787E+01
 1.1103251E+01  2.2624342E+01
 1.1114751E+01  2.2631186E+01
 1.1126250E+01  2.2591141E+01
 1.1137751E+01  2.2530655E+01
 1.1149251E+01  2.2516136E+01
 1.1160750E+01  2.2556210E+01
 1.1172251E+01  2.2554350E+01
 1.1183750E+01  2.2532827E+01
 1.1195251E+01  2.2515060E+01
 1.1206751E+01  2.2548368E+01
 1.1218250E+01  2.2527212E+01
 1.1229751E+01  2.2512369E+01
 1.1241251E+01  2.2522011E+01
 1.1252750E+01  2.2552662E+01
 1.1264251E+01  2.2564640E+01
 1.1275750E+01  2.2549604E+01
 1.1287251E+01  2.2454380E+01
 1.1298751E+01  2.2360228E+01
 1.1310250E+01  2.2292412E+01
 1.1321751E+01  2.2298435E+01
 1.1333251E+01  2.2346270E+01
 1.1344750E+01  2.2363712E+01
 1.1356251E+01  2.2467775E+01
 1.1367750E+01  2.2608480E+01
 1.1379251E+01  2.2677380E+01
 1.1390751E+01  2.2765022E+01
 1.1402250E+01  2.2878839E+01
 1.1413751E+01  2.2931425E+01
 1.1425251E+01  2.2932951E+01
 1.1436750E+01  2.2927431E+01
 1.1448251E+01  2.2971039E+01
 1.1459750E+01  2.3031876E+01
 1.1471251E+01  2.2992008E+01
 1.1482751E+01  2.2997723E+01
 1.1494250E+01  2.2987064E+01
 1.1505751E+01  2.3000031E+01
 1.1517251E+01  2.3123991E+01
 1.1528750E+01  2.3471558E+01
 1.1540251E+01  2.3969015E+01
 1.1551750E+01  2.4619595E+01
 1.1563251E+01  2.5457584E+01
 1.1574751E+01  2.6212156E+01
 1.1586250E+01  2.7075697E+01
 1.1597751E+01  2.7708445E+01
 1.1609251E+01  2.7553968E+01
 1.1620750E+01  2.7479715E+01
 1.1632251E+01  2.6630400E+01
 1.1643750E+01  2.5861397E+01
 1.1655251E+01  2.4627647E+01
 1.1666751E+01  2.3713919E+01
 1.1678250E+01  2.3314753E+01
 1.1689751E+01  2.2878616E+01
 1.1701251E+01  2.2689692E+01
 1.1712750E+01  2.2561144E+01
 1.1724251E+01  2.2558134E+01
 1.1735750E+01  2.2530958E+01
 1.1747251E+01  2.2545073E+01
 1.1758751E+01  2.2516260E+01
 1.1770250E+01  2.2555378E+01
 1.1781751E+01  2.2567472E+01
 1.1793251E+01  2.2614862E+01
 1.1804750E+01  2.2583530E+01
 1.1816251E+01  2.2584171E+01
 1.1827750E+01  2.2541672E+01
 1.1839251E+01  2.2518017E+01
 1.1850751E+01  2.2503355E+01
 1.1862250E+01  2.2521708E+01
 1.1873751E+01  2.2547329E+01
 1.1885251E+01  2.2510883E+01
 1.1896750E+01  2.2529947E+01
 1.1908251E+01  2.2587179E+01
 1.1919750E+01  2.2688402E+01
 1.1931251E+01  2.2741308E+01
 1.1942751E+01  2.2721783E+01
 1.1954250E+01  2.2740421E+01
 1.1965751E+01  2.2718304E+01
 1.1977251E+01  2.2770521E+01
 1.1988750E+01  2.2813404E+01
 1.2000251E+01  2.2855440E+01
 1.2011750E+01  2.2880852E+01
 1.2023251E+01  2.2890944E+01
 1.2034751E+01  2.2904997E+01
 1.2046250E+01  2.2935570E+01
 1.2057751E+01  2.3013477E+01
 1.2069251E+01  2.3106873E+01
 1.2080750E+01  2.3250917E+01
 1.2092251E+01  2.3373077E+01
 1.2103750E+01  2.3609470E+01
 1.2115251E+01  2.3720276E+01
 1.2126751E+01  2.3753113E+01
 1.2138250E+01  2.3569817E+01
 1.2149751E+01  2.3326803E+01
 1.2161251E+01  2.3047350E+01
 1.2172750E+01  2.2879070E+01
 1.2184251E+01  2.2775734E+01
 1.2195750E+01  2.2735582E+01
 1.2207251E+01  2.2639790E+01
 1.2218751E+01  2.2599819E+01
 1.2230250E+01  2.2541918E+01
 1.2241751E+01  2.2518250E+01
 1.2253251E+01  2.2515705E+01
 1.2264750E+01  2.2568428E+01
 1.2276251E+01  2.2610304E+01
 1.2287750E+01  2.2654125E+01
 1.2299251E+01  2.2661699E+01
 1.2310751E+01  2.2676472E+01
 1.2322250E+01  2.2622347E+01
 1.2333751E+01  2.2619087E+01
 1.2345250E+01  2.2585037E+01
 1.2356750E+01  2.2602589E+01
 1.2368251E+01  2.2607750E+01
 1.2379750E+01  2.2631685E+01
 1.2391251E+01  2.2656977E+01
 1.2402751E+01  2.2631350E+01
 1.2414250E+01  2.2603113E+01
 1.2425751E+01  2.2594736E+01
 1.2437250E+01  2.2565948E+01
 1.2448750E+01  2.2577120E+01
 1.2460251E+01  2.2549812E+01
 1.2471750E+01  2.2612883E+01
 1.2483251E+01  2.2691217E+01
 1.2494751E+01  2.2748976E+01
 1.2506250E+01  2.2719532E+01
 1.2517751E+01  2.2713673E+01
 1.2529250E+01  2.2715685E+01
 1.2540751E+01  2.2745754E+01
 1.2552251E+01  2.2730951E+01
 1.2563750E+01  2.2715742E+01
 1.2575251E+01  2.2700481E+01
 1.2586751E+01  2.2696642E+01
 1.2598250E+01  2.2726879E+01
 1.2609751E+01  2.2823378E+01
 1.2621250E+01  2.2918032E+01
 1.2632751E+01  2.2940439E+01
 1.2644251E+01  2.2889042E+01
 1.2655750E+01  2.2854103E+01
 1.2667251E+01  2.2830530E+01
 1.2678751E+01  2.2858547E+01
 1.2690250E+01  2.2851881E+01
 1.2701751E+01  2.2898542E+01
 1.2713250E+01  2.2964615E+01
 1.2724751E+01  2.3037283E+01
 1.2736251E+01  2.3080299E+01
 1.2747750E+01  2.3090565E+01
 1.2759251E+01  2.3087357E+01
 1.2770751E+01  2.3156494E+01
 1.2782250E+01  2.3245367E+01
 1.2793751E+01  2.3279516E+01
 1.2805250E+01  2.3316057E+01
 1.2816751E+01  2.3347750E+01
 1.2828251E+01  2.3367842E+01
 1.2839750E+01  2.3321808E+01
 1.2851251E+01  2.3293169E+01
 1.2862751E+01  2.3270897E+01
 1.2874250E+01  2.3275463E+01
 1.2885751E+01  2.3280851E+01
 1.2897250E+01  2.3344414E+01
 1.2908751E+01  2.3450895E+01
 1.2920251E+01  2.3540903E+01
 1.2931750E+01  2.3638876E+01
 1.2943251E+01  2.3653299E+01
 1.2954751E+01  2.3669514E+01
 1.2966250E+01  2.3753483E+01
 1.2977751E+01  2.3832775E+01
 1.2989250E+01  2.3881807E+01
 1.3000751E+01  2.3910648E+01
 1.3012251E+01  2.3963955E+01
 1.3023750E+01  2.4058250E+01
 1.3035251E+01  2.4145638E+01
 1.3046751E+01  2.4258474E+01
 1.3058250E+01  2.4348494E+01
 1.3069751E+01  2.4434904E+01
 1.3081250E+01  2.4518158E+01
 1.3092751E+01  2.4647470E+01
 1.3104251E+01  2.4785891E+01
 1.3115750E+01  2.4928164E+01
 1.3127251E+01  2.5067953E+01
 1.3138751E+01  2.5165443E+01
 1.3150250E+01  2.5286108E+01
 1.3161751E+01  2.5329134E+01
 1.3173250E+01  2.5415871E+01
 1.3184751E+01  2.5487112E+01
 1.3196251E+01  2.5638229E+01
 1.3207750E+01  2.5791967E+01
 1.3219251E+01  2.6018887E+01
 1.3230751E+01  2.6208788E+01
 1.3242250E+01  2.6390772E+01
 1.3253751E+01  2.6482292E+01
 1.3265250E+01  2.6540070E+01
 1.3276751E+01  2.6620848E+01
 1.3288251E+01  2.6693991E+01
 1.3299750E+01  2.6808039E+01
 1.3311251E+01  2.6909698E+01
 1.3322751E+01  2.7067619E+01
 1.3334250E+01  2.7289867E+01
 1.3345751E+01  2.7464148E+01
 1.3357250E+01  2.7715330E+01
 1.3368751E+01  2.7889883E+01
 1.3380251E+01  2.8096617E+01
 1.3391750E+01  2.8186163E+01
 1.3403251E+01  2.8270498E+01
 1.3414751E+01  2.8380873E+01
 1.3426250E+01  2.8454161E+01
 1.3437751E+01  2.8596087E+01
 1.3449250E+01  2.8739941E+01
 1.3460751E+01  2.8904484E+01
 1.3472251E+01  2.8985958E+01
 1.3483750E+01  2.9110590E+01
 1.3495251E+01  2.9199953E+01
 1.3506751E+01  2.9279957E+01
 1.3518250E+01  2.9319975E+01
 1.3529751E+01  2.9363804E+01
 1.3541250E+01  2.9429718E+01
 1.3552751E+01  2.9533848E+01
 1.3564251E+01  2.9629433E+01
 1.3575750E+01  2.9695877E+01
 1.3587251E+01  2.9662830E+01
 1.3598751E+01  2.9622299E+01
 1.3610250E+01  2.9646360E+01
 1.3621751E+01  2.9645960E+01
 1.3633250E+01  2.9722538E+01
 1.3644751E+01  2.9720663E+01
 1.3656251E+01  2.9745014E+01
 1.3667750E+01  2.9722359E+01
 1.3679251E+01  2.9706987E+01
 1.3690751E+01  2.9720646E+01
 1.3702250E+01  2.9699104E+01
 1.3713751E+01  2.9652859E+01
 1.3725250E+01  2.9555265E+01
 1.3736751E+01  2.9543253E+01
 1.3748251E+01  2.9518066E+01
 1.3759750E+01  2.9507166E+01
 1.3771251E+01  2.9467358E+01
 1.3782751E+01  2.9475857E+01
 1.3794250E+01  2.9436935E+01
 1.3805751E+01  2.9377436E+01
 1.3817250E+01  2.9321417E+01
 1.3828751E+01  2.9368357E+01
 1.3840251E+01  2.9487431E+01
 1.3851750E+01  2.9624247E+01
 1.3863251E+01  2.9892393E+01
 1.3874751E+01  3.0217045E+01
 1.3886250E+01  3.0814936E+01
 1.3897751E+01  3.1596474E+01
 1.3909250E+01  3.2656303E+01
 1.3920751E+01  3.3796204E+01
 1.3932251E+01  3.5171131E+01
 1.3943750E+01  3.5959457E+01
 1.3955251E+01  3.6861797E+01
 1.3966751E+01  3.6662472E+01
 1.3978251E+01  3.6364502E+01
 1.3989751E+01  3.4850990E+01
 1.4001250E+01  3.3412903E+01
 1.4012751E+01  3.1713264E+01
 1.4024251E+01  3.0478130E+01
 1.4035750E+01  2.9581081E+01
 1.4047251E+01  2.8937241E+01
 1.4058751E+01  2.8561201E+01
 1.4070251E+01  2.8256001E+01
 1.4081751E+01  2.7998142E+01
 1.4093250E+01  2.7782171E+01
 1.4104751E+01  2.7570377E+01
 1.4116251E+01  2.7489634E+01
 1.4127750E+01  2.7381731E+01
 1.4139251E+01  2.7316505E+01
 1.4150751E+01  2.7216932E+01
 1.4162251E+01  2.7166840E+01
 1.4173751E+01  2.7062881E+01
 1.4185250E+01  2.6984497E+01
 1.4196751E+01  2.6895098E+01
 1.4208251E+01  2.6851570E+01
 1.4219750E+01  2.6779621E+01
 1.4231251E+01  2.6707598E+01
 1.4242751E+01  2.6628229E+01
 1.4254251E+01  2.6587675E+01
 1.4265751E+01  2.6539625E+01
 1.4277250E+01  2.6437241E+01
 1.4288751E+01  2.6321442E+01
 1.4300251E+01  2.6240297E+01
 1.4311750E+01  2.6218958E+01
 1.4323251E+01  2.6196463E+01
 1.4334751E+01  2.6271210E+01
 1.4346251E+01  2.6311253E+01
 1.4357751E+01  2.6278519E+01
 1.4369250E+01  2.6226440E+01
 1.4380751E+01  2.6174156E+01
 1.4392251E+01  2.6135178E+01
 1.4403750E+01  2.6085585E+01
 1.4415251E+01  2.6062449E+01
 1.4426751E+01  2.6014143E+01
 1.4438251E+01  2.5932989E+01
 1.4449751E+01  2.5852858E+01
 1.4461250E+01  2.5781521E+01
 1.4472751E+01  2.5707731E+01
 1.4484251E+01  2.5674061E+01
 1.4495750E+01  2.5639221E+01
 1.4507251E+01  2.5595537E+01
 1.4518751E+01  2.5509920E+01
 1.4530251E+01  2.5467360E+01
 1.4541751E+01  2.5416794E+01
 1.4553250E+01  2.5434639E+01
 1.4564751E+01  2.5399137E+01
 1.4576251E+01  2.5382008E+01
 1.4587750E+01  2.5358541E+01
 1.4599251E+01  2.5367405E+01
 1.4610751E+01  2.5385004E+01
 1.4622251E+01  2.5380060E+01
 1.4633751E+01  2.5313116E+01
 1.4645250E+01  2.5266201E+01
 1.4656751E+01  2.5152897E+01
 1.4668251E+01  2.5118050E+01
 1.4679750E+01  2.5071939E+01
 1.4691251E+01  2.5126177E+01
 1.4702751E+01  2.5139383E+01
 1.4714251E+01  2.5141619E+01
 1.4725751E+01  2.5101099E+01
 1.4737250E+01  2.5063580E+01
 1.4748751E+01  2.5052755E+01
 1.4760251E+01  2.5074175E+01
 1.4771750E+01  2.5127600E+01
 1.4783251E+01  2.5119402E+01
 1.4794751E+01  2.5100397E+01
 1.4806251E+01  2.5059258E+01
 1.4817751E+01  2.5015520E+01
 1.4829250E+01  2.4971170E+01
 1.4840751E+01  2.4979023E+01
 1.4852251E+01  2.4950937E+01
 1.4863750E+01  2.4944456E+01
 1.4875251E+01  2.4870310E+01
 1.4886751E+01  2.4884790E+01
 1.4898251E+01  2.4892256E+01
 1.4909751E+01  2.4950134E+01
 1.4921250E+01  2.4972080E+01
 1.4932751E+01  2.4968508E+01
 1.4944251E+01  2.4988279E+01
 1.4955750E+01  2.4977272E+01
 1.4967251E+01  2.4989376E+01
 1.4978751E+01  2.4980297E+01
 1.4990251E+01  2.4953953E+01
 1.5001751E+01  2.4950628E+01
 1.5013250E+01  2.4941826E+01
 1.5024751E+01  2.4948986E+01
 1.5036251E+01  2.4844028E+01
 1.5047750E+01  2.4782167E+01
 1.5059251E+01  2.4751324E+01
 1.5070751E+01  2.4805479E+01
 1.5082251E+01  2.4840197E+01
 1.5093751E+01  2.4926464E+01
 1.5105250E+01  2.4987589E+01
 1.5116751E+01  2.5100082E+01
 1.5128251E+01  2.5172911E+01
 1.5139750E+01  2.5362099E+01
 1.5151251E+01  2.5509293E+01
 1.5162751E+01  2.6142925E+01
 1.5174251E+01  2.6572479E+01
 1.5185751E+01  2.6891211E+01
 1.5197250E+01  2.7341404E+01
 1.5208751E+01  2.7321983E+01
 1.5220251E+01  2.7243214E+01
 1.5231750E+01  2.6557493E+01
 1.5243251E+01  2.6122179E+01
 1.5254751E+01  2.5683262E+01
 1.5266251E+01  2.5139542E+01
 1.5277751E+01  2.5032286E+01
 1.5289250E+01  2.4879032E+01
 1.5300751E+01  2.4827948E+01
 1.5312251E+01  2.4755480E+01
 1.5323750E+01  2.4650476E+01
 1.5335251E+01  2.4631710E+01
 1.5346751E+01  2.4586927E+01
 1.5358251E+01  2.4616995E+01
 1.5369751E+01  2.4609606E+01
 1.5381250E+01  2.4616949E+01
 1.5392751E+01  2.4604290E+01
 1.5404251E+01  2.4615686E+01
 1.5415751E+01  2.4583420E+01
 1.5427251E+01  2.4568094E+01
 1.5438751E+01  2.4596786E+01
 1.5450251E+01  2.4611387E+01
 1.5461751E+01  2.4531576E+01
 1.5473250E+01  2.4462082E+01
 1.5484751E+01  2.4468378E+01
 1.5496251E+01  2.4488651E+01
 1.5507751E+01  2.4505623E+01
 1.5519251E+01  2.4526884E+01
 1.5530751E+01  2.4543684E+01
 1.5542251E+01  2.4515045E+01
 1.5553751E+01  2.4490414E+01
 1.5565250E+01  2.4532448E+01
 1.5576751E+01  2.4521412E+01
 1.5588251E+01  2.4505192E+01
 1.5599751E+01  2.4521778E+01
 1.5611251E+01  2.4514946E+01
 1.5622751E+01  2.4531492E+01
 1.5634251E+01  2.4477694E+01
 1.5645751E+01  2.4467188E+01
 1.5657250E+01  2.4455200E+01
 1.5668751E+01  2.4493290E+01
 1.5680251E+01  2.4543161E+01
 1.5691751E+01  2.4582291E+01
 1.5703251E+01  2.4612165E+01
 1.5714751E+01  2.4638872E+01
 1.5726251E+01  2.4630934E+01
 1.5737751E+01  2.4589077E+01
 1.5749250E+01  2.4569426E+01
 1.5760751E+01  2.4606928E+01
 1.5772251E+01  2.4635834E+01
 1.5783751E+01  2.4622112E+01
 1.5795251E+01  2.4602880E+01
 1.5806751E+01  2.4619671E+01
 1.5818251E+01  2.4642380E+01
 1.5829751E+01  2.4604889E+01
 1.5841250E+01  2.4575020E+01
 1.5852751E+01  2.4596701E+01
 1.5864251E+01  2.4579866E+01
 1.5875751E+01  2.4598095E+01
 1.5887251E+01  2.4561155E+01
 1.5898750E+01  2.4572634E+01
 1.5910251E+01  2.4533400E+01
 1.5921751E+01  2.4505747E+01
 1.5933250E+01  2.4495516E+01
 1.5944751E+01  2.4598635E+01
 1.5956251E+01  2.4703415E+01
 1.5967751E+01  2.5224499E+01
 1.5979251E+01  2.5323769E+01
 1.5990750E+01  2.5545107E+01
 1.6002251E+01  2.5117676E+01
 1.6013750E+01  2.4967773E+01
 1.6025251E+01  2.4717802E+01
 1.6036751E+01  2.4743689E+01
 1.6048250E+01  2.4739620E+01
 1.6059752E+01  2.4742580E+01
 1.6071251E+01  2.4621107E+01
 1.6082750E+01  2.4605690E+01
 1.6094252E+01  2.4626513E+01
 1.6105751E+01  2.4756166E+01
 1.6117250E+01  2.4802372E+01
 1.6128750E+01  2.4838322E+01
 1.6140251E+01  2.4840031E+01
 1.6151751E+01  2.4796478E+01
 1.6163250E+01  2.4826889E+01
 1.6174751E+01  2.4750069E+01
 1.6186251E+01  2.4843740E+01
 1.6197750E+01  2.4781147E+01
 1.6209251E+01  2.4970314E+01
 1.6220751E+01  2.4950022E+01
 1.6232250E+01  2.5101618E+01
 1.6243752E+01  2.5141115E+01
 1.6255251E+01  2.5287832E+01
 1.6266750E+01  2.5466774E+01
 1.6278252E+01  2.5372932E+01
 1.6289751E+01  2.5470791E+01
 1.6301250E+01  2.5133810E+01
 1.6312750E+01  2.5241261E+01
 1.6324251E+01  2.4972418E+01
 1.6335751E+01  2.5008280E+01
 1.6347250E+01  2.4792776E+01
 1.6358751E+01  2.4745104E+01
 1.6370251E+01  2.4625427E+01
 1.6381750E+01  2.4595255E+01
 1.6393251E+01  2.4570225E+01
 1.6404751E+01  2.4622763E+01
 1.6416250E+01  2.4692778E+01
 1.6427752E+01  2.4714741E+01
 1.6439251E+01  2.4791901E+01
 1.6450750E+01  2.4780678E+01
 1.6462252E+01  2.4765316E+01
 1.6473751E+01  2.4669729E+01
 1.6485250E+01  2.4714420E+01
 1.6496750E+01  2.4701746E+01
 1.6508251E+01  2.4741104E+01
 1.6519751E+01  2.4682314E+01
 1.6531250E+01  2.4729244E+01
 1.6542751E+01  2.4694738E+01
 1.6554251E+01  2.4667879E+01
 1.6565750E+01  2.4639860E+01
 1.6577251E+01  2.4634371E+01
 1.6588751E+01  2.4655945E+01
 1.6600250E+01  2.4658358E+01
 1.6611752E+01  2.4702829E+01
 1.6623251E+01  2.4655619E+01
 1.6634750E+01  2.4625031E+01
 1.6646252E+01  2.4576401E+01
 1.6657751E+01  2.4629585E+01
 1.6669250E+01  2.4705097E+01
 1.6680750E+01  2.4719744E+01
 1.6692251E+01  2.4733934E+01
 1.6703751E+01  2.4681978E+01
 1.6715250E+01  2.4728554E+01
 1.6726751E+01  2.4704218E+01
 1.6738251E+01  2.4725079E+01
 1.6749750E+01  2.4669849E+01
 1.6761251E+01  2.4595490E+01
 1.6772751E+01  2.4503759E+01
 1.6784250E+01  2.4431799E+01
 1.6795752E+01  2.4436338E+01
 1.6807251E+01  2.4436382E+01
 1.6818750E+01  2.4459970E+01
 1.6830252E+01  2.4443205E+01
 1.6841751E+01  2.4460991E+01
 1.6853251E+01  2.4436691E+01
 1.6864750E+01  2.4424786E+01
 1.6876251E+01  2.4423990E+01
 1.6887751E+01  2.4400627E+01
 1.6899250E+01  2.4412659E+01
 1.6910751E+01  2.4414007E+01
 1.6922251E+01  2.4394985E+01
 1.6933750E+01  2.4294664E+01
 1.6945251E+01  2.4222075E+01
 1.6956751E+01  2.4181181E+01
 1.6968250E+01  2.4173765E+01
 1.6979752E+01  2.4168024E+01
 1.6991251E+01  2.4186701E+01
 1.7002750E+01  2.4190983E+01
 1.7014252E+01  2.4178766E+01
 1.7025751E+01  2.4192097E+01
 1.7037251E+01  2.4150949E+01
 1.7048750E+01  2.4113148E+01
 1.7060251E+01  2.4114954E+01
 1.7071751E+01  2.4189066E+01
 1.7083250E+01  2.4276163E+01
 1.7094751E+01  2.4298107E+01
 1.7106251E+01  2.4318607E+01
 1.7117750E+01  2.4285583E+01
 1.7129251E+01  2.4266193E+01
 1.7140751E+01  2.4226263E+01
 1.7152250E+01  2.4188080E+01
 1.7163752E+01  2.4186960E+01
 1.7175251E+01  2.4176083E+01
 1.7186750E+01  2.4204994E+01
 1.7198252E+01  2.4184513E+01
 1.7209751E+01  2.4188671E+01
 1.7221251E+01  2.4154625E+01
 1.7232750E+01  2.4179893E+01
 1.7244251E+01  2.4228359E+01
 1.7255751E+01  2.4219887E+01
 1.7267250E+01  2.4218901E+01
 1.7278751E+01  2.4168154E+01
 1.7290251E+01  2.4159658E+01
 1.7301750E+01  2.4113138E+01
 1.7313251E+01  2.4130251E+01
 1.7324751E+01  2.4132292E+01
 1.7336250E+01  2.4115231E+01
 1.7347752E+01  2.4101105E+01
 1.7359251E+01  2.4125698E+01
 1.7370750E+01  2.4129335E+01
 1.7382252E+01  2.4106285E+01
 1.7393751E+01  2.4084206E+01
 1.7405251E+01  2.4076750E+01
 1.7416750E+01  2.4034958E+01
 1.7428251E+01  2.3981375E+01
 1.7439751E+01  2.3963768E+01
 1.7451250E+01  2.3996082E+01
 1.7462751E+01  2.4016743E+01
 1.7474251E+01  2.3985775E+01
 1.7485750E+01  2.3942188E+01
 1.7497252E+01  2.3885580E+01
 1.7508751E+01  2.3860550E+01
 1.7520250E+01  2.3848457E+01
 1.7531752E+01  2.3901337E+01
 1.7543251E+01  2.3937252E+01
 1.7554750E+01  2.3916603E+01
 1.7566252E+01  2.3897127E+01
 1.7577751E+01  2.3872969E+01
 1.7589251E+01  2.3889637E+01
 1.7600750E+01  2.3893074E+01
 1.7612251E+01  2.3978807E+01
 1.7623751E+01  2.4005787E+01
 1.7635250E+01  2.3984697E+01
 1.7646751E+01  2.3927580E+01
 1.7658251E+01  2.3868208E+01
 1.7669750E+01  2.3860651E+01
 1.7681252E+01  2.3870377E+01
 1.7692751E+01  2.3901632E+01
 1.7704250E+01  2.3900293E+01
 1.7715752E+01  2.3860826E+01
 1.7727251E+01  2.3813856E+01
 1.7738750E+01  2.3735918E+01
 1.7750252E+01  2.3669136E+01
 1.7761751E+01  2.3651634E+01
 1.7773251E+01  2.3703907E+01
 1.7784750E+01  2.3763460E+01
 1.7796251E+01  2.3809525E+01
 1.7807751E+01  2.3770943E+01
 1.7819250E+01  2.3750086E+01
 1.7830751E+01  2.3689211E+01
 1.7842251E+01  2.3685066E+01
 1.7853750E+01  2.3658873E+01
 1.7865252E+01  2.3664948E+01
 1.7876751E+01  2.3660225E+01
 1.7888250E+01  2.3643358E+01
 1.7899752E+01  2.3667526E+01
 1.7911251E+01  2.3761606E+01
 1.7922750E+01  2.3865429E+01
 1.7934252E+01  2.3853382E+01
 1.7945751E+01  2.3852404E+01
 1.7957251E+01  2.3846003E+01
 1.7968750E+01  2.3937916E+01
 1.7980251E+01  2.3932751E+01
 1.7991751E+01  2.4026890E+01
 1.8003250E+01  2.4168699E+01
 1.8014751E+01  2.4307924E+01
 1.8026251E+01  2.4330738E+01
 1.8037750E+01  2.4274845E+01
 1.8049252E+01  2.4293253E+01
 1.8060751E+01  2.4338982E+01
 1.8072250E+01  2.4413965E+01
 1.8083752E+01  2.4516058E+01
 1.8095251E+01  2.4603596E+01
 1.8106750E+01  2.4642115E+01
 1.8118252E+01  2.4631449E+01
 1.8129751E+01  2.4584061E+01
 1.8141251E+01  2.4465570E+01
 1.8152750E+01  2.4331757E+01
 1.8164251E+01  2.4171276E+01
 1.8175751E+01  2.4065693E+01
 1.8187250E+01  2.3953497E+01
 1.8198751E+01  2.3881325E+01
 1.8210251E+01  2.3818249E+01
 1.8221750E+01  2.3734161E+01
 1.8233252E+01  2.3657320E+01
 1.8244751E+01  2.3636770E+01
 1.8256250E+01  2.3621630E+01
 1.8267752E+01  2.3620453E+01
 1.8279251E+01  2.3568336E+01
 1.8290751E+01  2.3560957E+01
 1.8302252E+01  2.3557497E+01
 1.8313751E+01  2.3556440E+01
 1.8325251E+01  2.3537245E+01
 1.8336750E+01  2.3561504E+01
 1.8348251E+01  2.3587015E+01
 1.8359751E+01  2.3629642E+01
 1.8371250E+01  2.3613611E+01
 1.8382751E+01  2.3635136E+01
 1.8394251E+01  2.3653275E+01
 1.8405750E+01  2.3659864E+01
 1.8417252E+01  2.3637564E+01
 1.8428751E+01  2.3574419E+01
 1.8440250E+01  2.3577068E+01
 1.8451752E+01  2.3608595E+01
 1.8463251E+01  2.3665655E+01
 1.8474751E+01  2.3622686E+01
 1.8486252E+01  2.3560471E+01
 1.8497751E+01  2.3486681E+01
 1.8509251E+01  2.3453009E+01
 1.8520750E+01  2.3402973E+01
 1.8532251E+01  2.3378166E+01
 1.8543751E+01  2.3352749E+01
 1.8555250E+01  2.3420521E+01
 1.8566751E+01  2.3473883E+01
 1.8578251E+01  2.3544752E+01
 1.8589750E+01  2.3586599E+01
 1.8601252E+01  2.3559668E+01
 1.8612751E+01  2.3549114E+01
 1.8624250E+01  2.3564135E+01
 1.8635752E+01  2.3598940E+01
 1.8647251E+01  2.3561958E+01
 1.8658751E+01  2.3506042E+01
 1.8670252E+01  2.3493732E+01
 1.8681751E+01  2.3535557E+01
 1.8693251E+01  2.3561161E+01
 1.8704750E+01  2.3608221E+01
 1.8716251E+01  2.3550356E+01
 1.8727751E+01  2.3494606E+01
 1.8739250E+01  2.3384691E+01
 1.8750751E+01  2.3343363E+01
 1.8762251E+01  2.3283594E+01
 1.8773750E+01  2.3316755E+01
 1.8785252E+01  2.3356899E+01
 1.8796751E+01  2.3412598E+01
 1.8808250E+01  2.3398750E+01
 1.8819752E+01  2.3395985E+01
 1.8831251E+01  2.3376938E+01
 1.8842751E+01  2.3432150E+01
 1.8854252E+01  2.3460939E+01
 1.8865751E+01  2.3544981E+01
 1.8877251E+01  2.3609085E+01
 1.8888750E+01  2.3645947E+01
 1.8900251E+01  2.3618900E+01
 1.8911751E+01  2.3575811E+01
 1.8923250E+01  2.3591686E+01
 1.8934752E+01  2.3617334E+01
 1.8946251E+01  2.3674810E+01
 1.8957750E+01  2.3637245E+01
 1.8969252E+01  2.3608212E+01
 1.8980751E+01  2.3529119E+01
 1.8992250E+01  2.3516668E+01
 1.9003752E+01  2.3564478E+01
 1.9015251E+01  2.3618273E+01
 1.9026751E+01  2.3646769E+01
 1.9038252E+01  2.3613806E+01
 1.9049751E+01  2.3592216E+01
 1.9061251E+01  2.3575111E+01
 1.9072750E+01  2.3564672E+01
 1.9084251E+01  2.3532555E+01
 1.9095751E+01  2.3468580E+01
 1.9107250E+01  2.3399595E+01
 1.9118752E+01  2.3370073E+01
 1.9130251E+01  2.3413189E+01
 1.9141750E+01  2.3464495E+01
 1.9153252E+01  2.3548992E+01
 1.9164751E+01  2.3607759E+01
 1.9176250E+01  2.3648409E+01
 1.9187752E+01  2.3612045E+01
 1.9199251E+01  2.3581686E+01
 1.9210751E+01  2.3569111E+01
 1.9222252E+01  2.3517855E+01
 1.9233751E+01  2.3424578E+01
 1.9245251E+01  2.3414284E+01
 1.9256750E+01  2.3447754E+01
 1.9268251E+01  2.3459187E+01
 1.9279751E+01  2.3461632E+01
 1.9291250E+01  2.3451597E+01
 1.9302752E+01  2.3525064E+01
 1.9314251E+01  2.3618046E+01
 1.9325750E+01  2.3691633E+01
 1.9337252E+01  2.3719816E+01
 1.9348751E+01  2.3664141E+01
 1.9360250E+01  2.3621973E+01
 1.9371752E+01  2.3593122E+01
 1.9383251E+01  2.3642849E+01
 1.9394751E+01  2.3700163E+01
 1.9406250E+01  2.3711868E+01
 1.9417751E+01  2.3750797E+01
 1.9429251E+01  2.3725664E+01
 1.9440750E+01  2.3689501E+01
 1.9452251E+01  2.3632595E+01
 1.9463751E+01  2.3639654E+01
 1.9475250E+01  2.3682055E+01
 1.9486752E+01  2.3708637E+01
 1.9498251E+01  2.3726648E+01
 1.9509750E+01  2.3704363E+01
 1.9521252E+01  2.3737724E+01
 1.9532751E+01  2.3793283E+01
 1.9544250E+01  2.3877359E+01
 1.9555752E+01  2.3911459E+01
 1.9567251E+01  2.3949257E+01
 1.9578751E+01  2.3977762E+01
 1.9590250E+01  2.4003473E+01
 1.9601751E+01  2.4018909E+01
 1.9613251E+01  2.4064203E+01
 1.9624750E+01  2.4198769E+01
 1.9636251E+01  2.4355928E+01
 1.9647751E+01  2.4607409E+01
 1.9659250E+01  2.4986658E+01
 1.9670752E+01  2.5382919E+01
 1.9682251E+01  2.5840090E+01
 1.9693750E+01  2.6207512E+01
 1.9705252E+01  2.6496077E+01
 1.9716751E+01  2.6616346E+01
 1.9728251E+01  2.6702557E+01
 1.9739752E+01  2.6811111E+01
 1.9751251E+01  2.6842394E+01
 1.9762751E+01  2.6751451E+01
 1.9774250E+01  2.6453840E+01
 1.9785751E+01  2.6177706E+01
 1.9797251E+01  2.5920177E+01
 1.9808750E+01  2.5982450E+01
 1.9820251E+01  2.6230722E+01
 1.9831751E+01  2.6791870E+01
 1.9843250E+01  2.7169975E+01
 1.9854752E+01  2.7655523E+01
 1.9866251E+01  2.7638971E+01
 1.9877750E+01  2.7404284E+01
 1.9889252E+01  2.6776579E+01
 1.9900751E+01  2.6027237E+01
 1.9912251E+01  2.5364210E+01
 1.9923752E+01  2.4816368E+01
 1.9935251E+01  2.4415325E+01
 1.9946751E+01  2.4220947E+01
 1.9958250E+01  2.4114744E+01
 1.9969751E+01  2.4049292E+01
 1.9981251E+01  2.3981155E+01
 1.9992750E+01  2.3989988E+01
 2.0004251E+01  2.3967838E+01
 2.0015751E+01  2.3932526E+01
 2.0027250E+01  2.3904190E+01
 2.0038752E+01  2.3874075E+01
 2.0050251E+01  2.3894560E+01
 2.0061750E+01  2.3849974E+01
 2.0073252E+01  2.3843943E+01
 2.0084751E+01  2.3834482E+01
 2.0096251E+01  2.3876223E+01
 2.0107752E+01  2.3892719E+01
 2.0119251E+01  2.3910576E+01
 2.0130751E+01  2.3922611E+01
 2.0142250E+01  2.3901106E+01
 2.0153751E+01  2.3877960E+01
 2.0165251E+01  2.3815233E+01
 2.0176750E+01  2.3779543E+01
 2.0188251E+01  2.3754049E+01
 2.0199751E+01  2.3719524E+01
 2.0211250E+01  2.3614380E+01
 2.0222752E+01  2.3581257E+01
 2.0234251E+01  2.3640800E+01
 2.0245750E+01  2.3703814E+01
 2.0257252E+01  2.3713869E+01
 2.0268751E+01  2.3677578E+01
 2.0280251E+01  2.3730679E+01
 2.0291752E+01  2.3736576E+01
 2.0303251E+01  2.3715082E+01
 2.0314751E+01  2.3644827E+01
 2.0326250E+01  2.3600159E+01
 2.0337751E+01  2.3631437E+01
 2.0349251E+01  2.3669199E+01
 2.0360750E+01  2.3674273E+01
 2.0372252E+01  2.3601854E+01
 2.0383751E+01  2.3580959E+01
 2.0395250E+01  2.3617596E+01
 2.0406752E+01  2.3636976E+01
 2.0418251E+01  2.3668589E+01
 2.0429750E+01  2.3707977E+01
 2.0441252E+01  2.3728119E+01
 2.0452751E+01  2.3732048E+01
 2.0464251E+01  2.3717159E+01
 2.0475752E+01  2.3693398E+01
 2.0487251E+01  2.3670429E+01
 2.0498751E+01  2.3666885E+01
 2.0510250E+01  2.3655838E+01
 2.0521751E+01  2.3612345E+01
 2.0533251E+01  2.3566536E+01
 2.0544750E+01  2.3605276E+01
 2.0556252E+01  2.3720137E+01
 2.0567751E+01  2.3817951E+01
 2.0579250E+01  2.3836809E+01
 2.0590752E+01  2.3877516E+01
 2.0602251E+01  2.3897358E+01
 2.0613750E+01  2.3901789E+01
 2.0625252E+01  2.3879507E+01
 2.0636751E+01  2.3917883E+01
 2.0648251E+01  2.3902994E+01
 2.0659752E+01  2.3912189E+01
 2.0671251E+01  2.3945839E+01
 2.0682751E+01  2.4087612E+01
 2.0694250E+01  2.4255878E+01
 2.0705751E+01  2.4484510E+01
 2.0717251E+01  2.4722738E+01
 2.0728750E+01  2.4988682E+01
 2.0740252E+01  2.5241110E+01
 2.0751751E+01  2.5401413E+01
 2.0763250E+01  2.5544821E+01
 2.0774752E+01  2.5501638E+01
 2.0786251E+01  2.5415340E+01
 2.0797750E+01  2.5161070E+01
 2.0809252E+01  2.4930391E+01
 2.0820751E+01  2.4658340E+01
 2.0832251E+01  2.4393623E+01
 2.0843752E+01  2.4242443E+01
 2.0855251E+01  2.4108887E+01
 2.0866751E+01  2.4092045E+01
 2.0878250E+01  2.4067789E+01
 2.0889751E+01  2.4050720E+01
 2.0901251E+01  2.4055567E+01
 2.0912750E+01  2.4067774E+01
 2.0924252E+01  2.4087370E+01
 2.0935751E+01  2.4060951E+01
 2.0947250E+01  2.4022167E+01
 2.0958752E+01  2.3984348E+01
 2.0970251E+01  2.3976488E+01
 2.0981750E+01  2.3959465E+01
 2.0993252E+01  2.3960527E+01
 2.1004751E+01  2.3904800E+01
 2.1016251E+01  2.3885445E+01
 2.1027752E+01  2.3832140E+01
 2.1039251E+01  2.3791552E+01
 2.1050751E+01  2.3741055E+01
 2.1062250E+01  2.3712021E+01
 2.1073751E+01  2.3750053E+01
 2.1085251E+01  2.3762657E+01
 2.1096750E+01  2.3753395E+01
 2.1108252E+01  2.3747284E+01
 2.1119751E+01  2.3788704E+01
 2.1131250E+01  2.3826118E+01
 2.1142752E+01  2.3837751E+01
 2.1154251E+01  2.3820793E+01
 2.1165751E+01  2.3872017E+01
 2.1177252E+01  2.3948517E+01
 2.1188751E+01  2.3989044E+01
 2.1200251E+01  2.3990263E+01
 2.1211752E+01  2.3931377E+01
 2.1223251E+01  2.3850697E+01
 2.1234751E+01  2.3796749E+01
 2.1246250E+01  2.3860743E+01
 2.1257751E+01  2.3942402E+01
 2.1269251E+01  2.3968010E+01
 2.1280750E+01  2.3929995E+01
 2.1292252E+01  2.3902370E+01
 2.1303751E+01  2.3911022E+01
 2.1315250E+01  2.3923662E+01
 2.1326752E+01  2.3971893E+01
 2.1338251E+01  2.3999578E+01
 2.1349751E+01  2.4043419E+01
 2.1361252E+01  2.4044724E+01
 2.1372751E+01  2.4054667E+01
 2.1384251E+01  2.4005650E+01
 2.1395752E+01  2.4004131E+01
 2.1407251E+01  2.3969254E+01
 2.1418751E+01  2.3958532E+01
 2.1430250E+01  2.3898844E+01
 2.1441751E+01  2.3888023E+01
 2.1453251E+01  2.3927927E+01
 2.1464750E+01  2.3961784E+01
 2.1476252E+01  2.3941721E+01
 2.1487751E+01  2.3989220E+01
 2.1499250E+01  2.3999382E+01
 2.1510752E+01  2.4022385E+01
 2.1522251E+01  2.4015789E+01
 2.1533751E+01  2.4069611E+01
 2.1545252E+01  2.4064474E+01
 2.1556751E+01  2.4033411E+01
 2.1568251E+01  2.4039248E+01
 2.1579752E+01  2.4042765E+01
 2.1591251E+01  2.4066719E+01
 2.1602751E+01  2.4076271E+01
 2.1614250E+01  2.4111450E+01
 2.1625751E+01  2.4078678E+01
 2.1637251E+01  2.4059669E+01
 2.1648750E+01  2.4008036E+01
 2.1660252E+01  2.3986258E+01
 2.1671751E+01  2.3965014E+01
 2.1683250E+01  2.3964878E+01
 2.1694752E+01  2.3959686E+01
 2.1706251E+01  2.3932169E+01
 2.1717751E+01  2.3964344E+01
 2.1729252E+01  2.4004141E+01
 2.1740751E+01  2.4003235E+01
 2.1752251E+01  2.3999063E+01
 2.1763752E+01  2.3992058E+01
 2.1775251E+01  2.4039902E+01
 2.1786751E+01  2.4031443E+01
 2.1798250E+01  2.4014254E+01
 2.1809752E+01  2.4006695E+01
 2.1821251E+01  2.4020283E+01
 2.1832750E+01  2.4022400E+01
 2.1844252E+01  2.4036364E+01
 2.1855751E+01  2.4075062E+01
 2.1867250E+01  2.4139109E+01
 2.1878752E+01  2.4184101E+01
 2.1890251E+01  2.4158453E+01
 2.1901751E+01  2.4167175E+01
 2.1913252E+01  2.4180866E+01
 2.1924751E+01  2.4188866E+01
 2.1936251E+01  2.4164547E+01
 2.1947752E+01  2.4164463E+01
 2.1959251E+01  2.4171247E+01
 2.1970751E+01  2.4196962E+01
 2.1982250E+01  2.4206270E+01
 2.1993752E+01  2.4195463E+01
 2.2005251E+01  2.4200726E+01
 2.2016750E+01  2.4251381E+01
 2.2028252E+01  2.4304737E+01
 2.2039751E+01  2.4298952E+01
 2.2051250E+01  2.4331469E+01
 2.2062752E+01  2.4294674E+01
 2.2074251E+01  2.4331343E+01
 2.2085751E+01  2.4298655E+01
 2.2097252E+01  2.4302412E+01
 2.2108751E+01  2.4274998E+01
 2.2120251E+01  2.4313318E+01
 2.2131752E+01  2.4313744E+01
 2.2143251E+01  2.4320477E+01
 2.2154751E+01  2.4280035E+01
 2.2166250E+01  2.4272575E+01
 2.2177752E+01  2.4280733E+01
 2.2189251E+01  2.4249537E+01
 2.2200750E+01  2.4274321E+01
 2.2212252E+01  2.4234137E+01
 2.2223751E+01  2.4287441E+01
 2.2235250E+01  2.4249191E+01
 2.2246752E+01  2.4282724E+01
 2.2258251E+01  2.4306955E+01
 2.2269751E+01  2.4350534E+01
 2.2281252E+01  2.4405342E+01
 2.2292751E+01  2.4445620E+01
 2.2304251E+01  2.4482368E+01
 2.2315752E+01  2.4508667E+01
 2.2327251E+01  2.4547220E+01
 2.2338751E+01  2.4545502E+01
 2.2350250E+01  2.4530027E+01
 2.2361752E+01  2.4487167E+01
 2.2373251E+01  2.4487280E+01
 2.2384750E+01  2.4467125E+01
 2.2396252E+01  2.4496124E+01
 2.2407751E+01  2.4497887E+01
 2.2419250E+01  2.4578787E+01
 2.2430752E+01  2.4642233E+01
 2.2442251E+01  2.4722385E+01
 2.2453751E+01  2.4744539E+01
 2.2465252E+01  2.4719120E+01
 2.2476751E+01  2.4668882E+01
 2.2488251E+01  2.4642675E+01
 2.2499752E+01  2.4644976E+01
 2.2511251E+01  2.4692604E+01
 2.2522751E+01  2.4747370E+01
 2.2534250E+01  2.4784336E+01
 2.2545752E+01  2.4830509E+01
 2.2557251E+01  2.4843857E+01
 2.2568750E+01  2.4856119E+01
 2.2580252E+01  2.4863876E+01
 2.2591751E+01  2.4830015E+01
 2.2603251E+01  2.4790426E+01
 2.2614752E+01  2.4815731E+01
 2.2626251E+01  2.4863323E+01
 2.2637751E+01  2.4917547E+01
 2.2649252E+01  2.4911196E+01
 2.2660751E+01  2.4930054E+01
 2.2672251E+01  2.4960552E+01
 2.2683752E+01  2.5042253E+01
 2.2695251E+01  2.5120352E+01
 2.2706751E+01  2.5138884E+01
 2.2718250E+01  2.5188370E+01
 2.2729752E+01  2.5183083E+01
 2.2741251E+01  2.5214716E+01
 2.2752750E+01  2.5243881E+01
 2.2764252E+01  2.5229853E+01
 2.2775751E+01  2.5262844E+01
 2.2787251E+01  2.5218775E+01
 2.2798752E+01  2.5212854E+01
 2.2810251E+01  2.5256304E+01
 2.2821751E+01  2.5364517E+01
 2.2833252E+01  2.5493237E+01
 2.2844751E+01  2.5548994E+01
 2.2856251E+01  2.5581165E+01
 2.2867750E+01  2.5583492E+01
 2.2879251E+01  2.5560841E+01
 2.2890751E+01  2.5640844E+01
 2.2902250E+01  2.5676981E+01
 2.2913752E+01  2.5810865E+01
 2.2925251E+01  2.5921499E+01
 2.2936750E+01  2.6017067E+01
 2.2948252E+01  2.6112230E+01
 2.2959751E+01  2.6168924E+01
 2.2971251E+01  2.6313044E+01
 2.2982752E+01  2.6468483E+01
 2.2994251E+01  2.6639809E+01
