F:\20151113_APS_34IDE\\Brian\Particle1\OCV\Data_0059.tif
2-Theta Angle (Degrees)
Intensity
       2000
 5.7500005E-03  0.0000000E+00
 1.7250001E-02  0.0000000E+00
 2.8750001E-02  0.0000000E+00
 4.0250003E-02  0.0000000E+00
 5.1750004E-02  0.0000000E+00
 6.3250005E-02  0.0000000E+00
 7.4750006E-02  0.0000000E+00
 8.6250007E-02  0.0000000E+00
 9.7750008E-02  0.0000000E+00
 1.0925001E-01  0.0000000E+00
 1.2075000E-01  0.0000000E+00
 1.3225001E-01  0.0000000E+00
 1.4375001E-01  0.0000000E+00
 1.5525001E-01  0.0000000E+00
 1.6675001E-01  0.0000000E+00
 1.7825001E-01  0.0000000E+00
 1.8975002E-01  0.0000000E+00
 2.0125002E-01  0.0000000E+00
 2.1275002E-01  0.0000000E+00
 2.2425000E-01  0.0000000E+00
 2.3575000E-01  0.0000000E+00
 2.4725001E-01  0.0000000E+00
 2.5875002E-01  0.0000000E+00
 2.7025002E-01  0.0000000E+00
 2.8175002E-01  0.0000000E+00
 2.9325002E-01  0.0000000E+00
 3.0475003E-01  0.0000000E+00
 3.1625003E-01  0.0000000E+00
 3.2775003E-01  0.0000000E+00
 3.3925003E-01  0.0000000E+00
 3.5075003E-01  0.0000000E+00
 3.6225003E-01  0.0000000E+00
 3.7375003E-01  0.0000000E+00
 3.8525003E-01  0.0000000E+00
 3.9675003E-01  0.0000000E+00
 4.0825003E-01  0.0000000E+00
 4.1975003E-01  0.0000000E+00
 4.3125004E-01  0.0000000E+00
 4.4275001E-01  0.0000000E+00
 4.5425001E-01  0.0000000E+00
 4.6575001E-01  0.0000000E+00
 4.7725001E-01  0.0000000E+00
 4.8875001E-01  0.0000000E+00
 5.0025004E-01  0.0000000E+00
 5.1175004E-01  0.0000000E+00
 5.2325004E-01  0.0000000E+00
 5.3475004E-01  0.0000000E+00
 5.4625005E-01  0.0000000E+00
 5.5775005E-01  0.0000000E+00
 5.6925005E-01  0.0000000E+00
 5.8075005E-01  0.0000000E+00
 5.9225005E-01  0.0000000E+00
 6.0375005E-01  0.0000000E+00
 6.1525005E-01  0.0000000E+00
 6.2675005E-01  0.0000000E+00
 6.3825005E-01  0.0000000E+00
 6.4975005E-01  0.0000000E+00
 6.6125005E-01  0.0000000E+00
 6.7275006E-01  0.0000000E+00
 6.8425006E-01  0.0000000E+00
 6.9575006E-01  0.0000000E+00
 7.0725006E-01  0.0000000E+00
 7.1875006E-01  0.0000000E+00
 7.3025006E-01  0.0000000E+00
 7.4175006E-01  0.0000000E+00
 7.5325006E-01  0.0000000E+00
 7.6475006E-01  0.0000000E+00
 7.7625006E-01  0.0000000E+00
 7.8775007E-01  0.0000000E+00
 7.9925007E-01  0.0000000E+00
 8.1075007E-01  0.0000000E+00
 8.2225007E-01  0.0000000E+00
 8.3375007E-01  0.0000000E+00
 8.4525007E-01  0.0000000E+00
 8.5675007E-01  0.0000000E+00
 8.6825007E-01  0.0000000E+00
 8.7975001E-01  0.0000000E+00
 8.9125001E-01  0.0000000E+00
 9.0275002E-01  0.0000000E+00
 9.1425002E-01  0.0000000E+00
 9.2575002E-01  0.0000000E+00
 9.3725002E-01  0.0000000E+00
 9.4875002E-01  0.0000000E+00
 9.6025002E-01  0.0000000E+00
 9.7175002E-01  0.0000000E+00
 9.8325002E-01  0.0000000E+00
 9.9475002E-01  0.0000000E+00
 1.0062500E+00  0.0000000E+00
 1.0177500E+00  0.0000000E+00
 1.0292500E+00  0.0000000E+00
 1.0407500E+00  0.0000000E+00
 1.0522500E+00  0.0000000E+00
 1.0637500E+00  0.0000000E+00
 1.0752500E+00  0.0000000E+00
 1.0867500E+00  0.0000000E+00
 1.0982500E+00  0.0000000E+00
 1.1097500E+00  0.0000000E+00
 1.1212500E+00  0.0000000E+00
 1.1327500E+00  0.0000000E+00
 1.1442500E+00  0.0000000E+00
 1.1557500E+00  0.0000000E+00
 1.1672500E+00  0.0000000E+00
 1.1787500E+00  0.0000000E+00
 1.1902500E+00  0.0000000E+00
 1.2017500E+00  0.0000000E+00
 1.2132500E+00  0.0000000E+00
 1.2247500E+00  0.0000000E+00
 1.2362500E+00  0.0000000E+00
 1.2477500E+00  0.0000000E+00
 1.2592500E+00  0.0000000E+00
 1.2707500E+00  0.0000000E+00
 1.2822500E+00  0.0000000E+00
 1.2937500E+00  0.0000000E+00
 1.3052500E+00  0.0000000E+00
 1.3167500E+00  0.0000000E+00
 1.3282501E+00  0.0000000E+00
 1.3397501E+00  0.0000000E+00
 1.3512501E+00  0.0000000E+00
 1.3627501E+00  0.0000000E+00
 1.3742501E+00  0.0000000E+00
 1.3857501E+00  0.0000000E+00
 1.3972501E+00  0.0000000E+00
 1.4087501E+00  0.0000000E+00
 1.4202501E+00  0.0000000E+00
 1.4317501E+00  0.0000000E+00
 1.4432501E+00  0.0000000E+00
 1.4547501E+00  0.0000000E+00
 1.4662501E+00  0.0000000E+00
 1.4777501E+00  0.0000000E+00
 1.4892501E+00  0.0000000E+00
 1.5007501E+00  0.0000000E+00
 1.5122501E+00  0.0000000E+00
 1.5237501E+00  0.0000000E+00
 1.5352501E+00  0.0000000E+00
 1.5467501E+00  0.0000000E+00
 1.5582501E+00  0.0000000E+00
 1.5697501E+00  0.0000000E+00
 1.5812501E+00  0.0000000E+00
 1.5927501E+00  0.0000000E+00
 1.6042501E+00  0.0000000E+00
 1.6157501E+00  0.0000000E+00
 1.6272501E+00  0.0000000E+00
 1.6387501E+00  0.0000000E+00
 1.6502501E+00  0.0000000E+00
 1.6617501E+00  0.0000000E+00
 1.6732501E+00  0.0000000E+00
 1.6847501E+00  0.0000000E+00
 1.6962501E+00  0.0000000E+00
 1.7077501E+00  0.0000000E+00
 1.7192501E+00  0.0000000E+00
 1.7307501E+00  0.0000000E+00
 1.7422501E+00  0.0000000E+00
 1.7537501E+00  0.0000000E+00
 1.7652501E+00  0.0000000E+00
 1.7767501E+00  0.0000000E+00
 1.7882501E+00  0.0000000E+00
 1.7997501E+00  0.0000000E+00
 1.8112501E+00  0.0000000E+00
 1.8227501E+00  0.0000000E+00
 1.8342501E+00  0.0000000E+00
 1.8457501E+00  0.0000000E+00
 1.8572501E+00  0.0000000E+00
 1.8687501E+00  0.0000000E+00
 1.8802501E+00  0.0000000E+00
 1.8917501E+00  0.0000000E+00
 1.9032501E+00  0.0000000E+00
 1.9147501E+00  0.0000000E+00
 1.9262501E+00  0.0000000E+00
 1.9377501E+00  0.0000000E+00
 1.9492501E+00  0.0000000E+00
 1.9607501E+00  0.0000000E+00
 1.9722501E+00  0.0000000E+00
 1.9837501E+00  0.0000000E+00
 1.9952501E+00  0.0000000E+00
 2.0067501E+00  0.0000000E+00
 2.0182500E+00  0.0000000E+00
 2.0297501E+00  0.0000000E+00
 2.0412500E+00  0.0000000E+00
 2.0527501E+00  0.0000000E+00
 2.0642500E+00  0.0000000E+00
 2.0757501E+00  0.0000000E+00
 2.0872500E+00  0.0000000E+00
 2.0987501E+00  0.0000000E+00
 2.1102500E+00  0.0000000E+00
 2.1217501E+00  0.0000000E+00
 2.1332500E+00  0.0000000E+00
 2.1447501E+00  0.0000000E+00
 2.1562500E+00  0.0000000E+00
 2.1677501E+00  0.0000000E+00
 2.1792500E+00  0.0000000E+00
 2.1907501E+00  0.0000000E+00
 2.2022500E+00  0.0000000E+00
 2.2137501E+00  0.0000000E+00
 2.2252500E+00  0.0000000E+00
 2.2367501E+00  0.0000000E+00
 2.2482500E+00  0.0000000E+00
 2.2597501E+00  0.0000000E+00
 2.2712500E+00  0.0000000E+00
 2.2827501E+00  0.0000000E+00
 2.2942500E+00  0.0000000E+00
 2.3057501E+00  0.0000000E+00
 2.3172500E+00  0.0000000E+00
 2.3287501E+00  0.0000000E+00
 2.3402500E+00  0.0000000E+00
 2.3517501E+00  0.0000000E+00
 2.3632500E+00  0.0000000E+00
 2.3747501E+00  0.0000000E+00
 2.3862500E+00  0.0000000E+00
 2.3977501E+00  0.0000000E+00
 2.4092500E+00  0.0000000E+00
 2.4207501E+00  0.0000000E+00
 2.4322500E+00  0.0000000E+00
 2.4437501E+00  0.0000000E+00
 2.4552500E+00  0.0000000E+00
 2.4667501E+00  0.0000000E+00
 2.4782500E+00  0.0000000E+00
 2.4897501E+00  0.0000000E+00
 2.5012500E+00  0.0000000E+00
 2.5127501E+00  0.0000000E+00
 2.5242500E+00  0.0000000E+00
 2.5357502E+00  0.0000000E+00
 2.5472500E+00  0.0000000E+00
 2.5587502E+00  0.0000000E+00
 2.5702500E+00  0.0000000E+00
 2.5817502E+00  0.0000000E+00
 2.5932500E+00  0.0000000E+00
 2.6047502E+00  0.0000000E+00
 2.6162500E+00  0.0000000E+00
 2.6277502E+00  0.0000000E+00
 2.6392500E+00  0.0000000E+00
 2.6507502E+00  0.0000000E+00
 2.6622500E+00  0.0000000E+00
 2.6737502E+00  0.0000000E+00
 2.6852500E+00  0.0000000E+00
 2.6967502E+00  0.0000000E+00
 2.7082500E+00  0.0000000E+00
 2.7197502E+00  0.0000000E+00
 2.7312500E+00  0.0000000E+00
 2.7427502E+00  0.0000000E+00
 2.7542500E+00  0.0000000E+00
 2.7657502E+00  0.0000000E+00
 2.7772501E+00  0.0000000E+00
 2.7887502E+00  0.0000000E+00
 2.8002501E+00  0.0000000E+00
 2.8117502E+00  0.0000000E+00
 2.8232501E+00  3.4591198E+01
 2.8347502E+00  3.3127869E+01
 2.8462501E+00  3.3485279E+01
 2.8577502E+00  3.4160385E+01
 2.8692501E+00  3.4849361E+01
 2.8807502E+00  3.5526337E+01
 2.8922501E+00  3.5809479E+01
 2.9037502E+00  3.6096897E+01
 2.9152501E+00  3.6418159E+01
 2.9267502E+00  3.6224541E+01
 2.9382501E+00  3.6501968E+01
 2.9497502E+00  3.6930302E+01
 2.9612501E+00  3.7478767E+01
 2.9727502E+00  3.7323421E+01
 2.9842501E+00  3.7118206E+01
 2.9957502E+00  3.6791691E+01
 3.0072501E+00  3.6677517E+01
 3.0187502E+00  3.6325153E+01
 3.0302501E+00  3.5935600E+01
 3.0417502E+00  3.5512157E+01
 3.0532501E+00  3.5081150E+01
 3.0647502E+00  3.5266445E+01
 3.0762501E+00  3.5223766E+01
 3.0877502E+00  3.5326408E+01
 3.0992501E+00  3.5084393E+01
 3.1107502E+00  3.4897549E+01
 3.1222501E+00  3.5243168E+01
 3.1337502E+00  3.5219070E+01
 3.1452501E+00  3.5538105E+01
 3.1567502E+00  3.5735054E+01
 3.1682501E+00  3.5636562E+01
 3.1797502E+00  3.5800507E+01
 3.1912501E+00  3.5654770E+01
 3.2027502E+00  3.5644329E+01
 3.2142501E+00  3.5583225E+01
 3.2257502E+00  3.5483223E+01
 3.2372501E+00  3.5486629E+01
 3.2487502E+00  3.5428612E+01
 3.2602501E+00  3.5291756E+01
 3.2717502E+00  3.5215176E+01
 3.2832501E+00  3.5052517E+01
 3.2947502E+00  3.4600979E+01
 3.3062501E+00  3.3952522E+01
 3.3177502E+00  3.3495567E+01
 3.3292501E+00  3.3424648E+01
 3.3407502E+00  3.3747589E+01
 3.3522501E+00  3.4083439E+01
 3.3637502E+00  3.4132538E+01
 3.3752501E+00  3.4350285E+01
 3.3867502E+00  3.4311977E+01
 3.3982501E+00  3.4448566E+01
 3.4097502E+00  3.4227859E+01
 3.4212501E+00  3.4292618E+01
 3.4327502E+00  3.4272945E+01
 3.4442501E+00  3.4529770E+01
 3.4557502E+00  3.4545204E+01
 3.4672501E+00  3.4696400E+01
 3.4787502E+00  3.4443657E+01
 3.4902501E+00  3.4183735E+01
 3.5017502E+00  3.3613400E+01
 3.5132501E+00  3.3221172E+01
 3.5247502E+00  3.2929939E+01
 3.5362501E+00  3.3005363E+01
 3.5477502E+00  3.2921295E+01
 3.5592501E+00  3.3059124E+01
 3.5707502E+00  3.3055805E+01
 3.5822501E+00  3.3168739E+01
 3.5937502E+00  3.3241684E+01
 3.6052501E+00  3.3321144E+01
 3.6167502E+00  3.3479301E+01
 3.6282501E+00  3.3727215E+01
 3.6397502E+00  3.3717430E+01
 3.6512501E+00  3.3806808E+01
 3.6627502E+00  3.3570313E+01
 3.6742501E+00  3.3423031E+01
 3.6857502E+00  3.3263687E+01
 3.6972501E+00  3.3132763E+01
 3.7087502E+00  3.3168736E+01
 3.7202501E+00  3.3166374E+01
 3.7317502E+00  3.3347507E+01
 3.7432501E+00  3.3619358E+01
 3.7547503E+00  3.3615025E+01
 3.7662501E+00  3.3549271E+01
 3.7777503E+00  3.3276344E+01
 3.7892501E+00  3.3026226E+01
 3.8007503E+00  3.2818512E+01
 3.8122501E+00  3.2810108E+01
 3.8237503E+00  3.2961063E+01
 3.8352501E+00  3.2946777E+01
 3.8467503E+00  3.2729156E+01
 3.8582501E+00  3.2582226E+01
 3.8697503E+00  3.2426731E+01
 3.8812501E+00  3.2330399E+01
 3.8927503E+00  3.2120209E+01
 3.9042501E+00  3.2086300E+01
 3.9157503E+00  3.2166626E+01
 3.9272501E+00  3.2426846E+01
 3.9387503E+00  3.2851276E+01
 3.9502501E+00  3.2993752E+01
 3.9617503E+00  3.3035206E+01
 3.9732502E+00  3.2964638E+01
 3.9847503E+00  3.2877342E+01
 3.9962502E+00  3.2828953E+01
 4.0077500E+00  3.2558746E+01
 4.0192504E+00  3.2446877E+01
 4.0307503E+00  3.2311989E+01
 4.0422502E+00  3.2191914E+01
 4.0537500E+00  3.2137341E+01
 4.0652504E+00  3.2100632E+01
 4.0767503E+00  3.2149399E+01
 4.0882502E+00  3.2170879E+01
 4.0997500E+00  3.2211624E+01
 4.1112504E+00  3.2156178E+01
 4.1227503E+00  3.2117920E+01
 4.1342502E+00  3.2122837E+01
 4.1457500E+00  3.2118881E+01
 4.1572504E+00  3.2176640E+01
 4.1687503E+00  3.2144817E+01
 4.1802502E+00  3.2231792E+01
 4.1917500E+00  3.2169800E+01
 4.2032504E+00  3.2105049E+01
 4.2147503E+00  3.2128708E+01
 4.2262502E+00  3.2080276E+01
 4.2377501E+00  3.1969624E+01
 4.2492504E+00  3.1647194E+01
 4.2607503E+00  3.1519440E+01
 4.2722502E+00  3.1225580E+01
 4.2837501E+00  3.1237465E+01
 4.2952504E+00  3.1257555E+01
 4.3067503E+00  3.1647480E+01
 4.3182502E+00  3.1883093E+01
 4.3297501E+00  3.2064926E+01
 4.3412504E+00  3.2080524E+01
 4.3527503E+00  3.2121696E+01
 4.3642502E+00  3.2287220E+01
 4.3757501E+00  3.2436218E+01
 4.3872504E+00  3.2504246E+01
 4.3987503E+00  3.2452255E+01
 4.4102502E+00  3.2510674E+01
 4.4217501E+00  3.2532730E+01
 4.4332504E+00  3.2582066E+01
 4.4447503E+00  3.2466305E+01
 4.4562502E+00  3.2416969E+01
 4.4677501E+00  3.2393013E+01
 4.4792504E+00  3.2446571E+01
 4.4907503E+00  3.2412167E+01
 4.5022502E+00  3.2413452E+01
 4.5137501E+00  3.2359917E+01
 4.5252504E+00  3.2502029E+01
 4.5367503E+00  3.2524338E+01
 4.5482502E+00  3.2515556E+01
 4.5597501E+00  3.2445862E+01
 4.5712504E+00  3.2497066E+01
 4.5827503E+00  3.2467747E+01
 4.5942502E+00  3.2521526E+01
 4.6057501E+00  3.2473816E+01
 4.6172504E+00  3.2548927E+01
 4.6287503E+00  3.2553062E+01
 4.6402502E+00  3.2530418E+01
 4.6517501E+00  3.2616016E+01
 4.6632504E+00  3.2789413E+01
 4.6747503E+00  3.3009159E+01
 4.6862502E+00  3.3091042E+01
 4.6977501E+00  3.3143501E+01
 4.7092505E+00  3.3084610E+01
 4.7207503E+00  3.3063267E+01
 4.7322502E+00  3.2943058E+01
 4.7437501E+00  3.2871403E+01
 4.7552505E+00  3.2684624E+01
 4.7667503E+00  3.2630192E+01
 4.7782502E+00  3.2495220E+01
 4.7897501E+00  3.2563641E+01
 4.8012505E+00  3.2497360E+01
 4.8127503E+00  3.2478691E+01
 4.8242502E+00  3.2407951E+01
 4.8357501E+00  3.2375725E+01
 4.8472505E+00  3.2368324E+01
 4.8587503E+00  3.2588013E+01
 4.8702502E+00  3.2805943E+01
 4.8817501E+00  3.3019058E+01
 4.8932505E+00  3.3241333E+01
 4.9047503E+00  3.3152287E+01
 4.9162502E+00  3.3127014E+01
 4.9277501E+00  3.2887058E+01
 4.9392505E+00  3.2807484E+01
 4.9507504E+00  3.2715317E+01
 4.9622502E+00  3.2640427E+01
 4.9737501E+00  3.2622944E+01
 4.9852505E+00  3.2794872E+01
 4.9967504E+00  3.2898415E+01
 5.0082502E+00  3.3095531E+01
 5.0197501E+00  3.3121666E+01
 5.0312505E+00  3.3300079E+01
 5.0427504E+00  3.3374813E+01
 5.0542502E+00  3.3400845E+01
 5.0657501E+00  3.3395370E+01
 5.0772505E+00  3.3292980E+01
 5.0887504E+00  3.3290108E+01
 5.1002502E+00  3.3261620E+01
 5.1117501E+00  3.3204689E+01
 5.1232505E+00  3.3311897E+01
 5.1347504E+00  3.3378586E+01
 5.1462502E+00  3.3584236E+01
 5.1577501E+00  3.3737831E+01
 5.1692505E+00  3.3825542E+01
 5.1807504E+00  3.3995686E+01
 5.1922503E+00  3.4119438E+01
 5.2037501E+00  3.4218204E+01
 5.2152505E+00  3.4241539E+01
 5.2267504E+00  3.4254345E+01
 5.2382503E+00  3.4282753E+01
 5.2497501E+00  3.4246635E+01
 5.2612505E+00  3.4137474E+01
 5.2727504E+00  3.4080528E+01
 5.2842503E+00  3.4080471E+01
 5.2957501E+00  3.4124165E+01
 5.3072500E+00  3.3997272E+01
 5.3187504E+00  3.4071423E+01
 5.3302503E+00  3.4021320E+01
 5.3417501E+00  3.4079086E+01
 5.3532500E+00  3.3972809E+01
 5.3647504E+00  3.3974026E+01
 5.3762503E+00  3.4011696E+01
 5.3877501E+00  3.4139301E+01
 5.3992500E+00  3.4217201E+01
 5.4107504E+00  3.4281670E+01
 5.4222503E+00  3.4272095E+01
 5.4337502E+00  3.4352119E+01
 5.4452500E+00  3.4572979E+01
 5.4567504E+00  3.4770405E+01
 5.4682503E+00  3.4951405E+01
 5.4797502E+00  3.5029102E+01
 5.4912500E+00  3.4969395E+01
 5.5027504E+00  3.4834042E+01
 5.5142503E+00  3.4772800E+01
 5.5257502E+00  3.4818455E+01
 5.5372500E+00  3.4795521E+01
 5.5487504E+00  3.4861576E+01
 5.5602503E+00  3.4916317E+01
 5.5717502E+00  3.5050751E+01
 5.5832500E+00  3.5071445E+01
 5.5947504E+00  3.5211281E+01
 5.6062503E+00  3.5327431E+01
 5.6177502E+00  3.5409378E+01
 5.6292500E+00  3.5318455E+01
 5.6407504E+00  3.5196953E+01
 5.6522503E+00  3.5090240E+01
 5.6637502E+00  3.5193134E+01
 5.6752501E+00  3.5318653E+01
 5.6867504E+00  3.5470718E+01
 5.6982503E+00  3.5452381E+01
 5.7097502E+00  3.5543297E+01
 5.7212501E+00  3.5663864E+01
 5.7327504E+00  3.5770859E+01
 5.7442503E+00  3.5787289E+01
 5.7557502E+00  3.5789860E+01
 5.7672501E+00  3.5813896E+01
 5.7787504E+00  3.5870945E+01
 5.7902503E+00  3.5959328E+01
 5.8017502E+00  3.6164520E+01
 5.8132501E+00  3.6365414E+01
 5.8247504E+00  3.6533012E+01
 5.8362503E+00  3.6660744E+01
 5.8477502E+00  3.6888401E+01
 5.8592501E+00  3.7142891E+01
 5.8707504E+00  3.7582729E+01
 5.8822503E+00  3.8022903E+01
 5.8937502E+00  3.8934021E+01
 5.9052501E+00  4.0043419E+01
 5.9167504E+00  4.2730782E+01
 5.9282503E+00  4.5609913E+01
 5.9397502E+00  5.1679249E+01
 5.9512501E+00  5.8804104E+01
 5.9627504E+00  6.6863556E+01
 5.9742503E+00  7.4833237E+01
 5.9857502E+00  8.1320892E+01
 5.9972501E+00  8.2123520E+01
 6.0087504E+00  8.0578758E+01
 6.0202503E+00  7.0591064E+01
 6.0317502E+00  6.1984745E+01
 6.0432501E+00  5.1332005E+01
 6.0547504E+00  4.5270615E+01
 6.0662503E+00  4.1943443E+01
 6.0777502E+00  3.9951515E+01
 6.0892501E+00  3.9011078E+01
 6.1007504E+00  3.8471943E+01
 6.1122503E+00  3.8155575E+01
 6.1237502E+00  3.7962585E+01
 6.1352501E+00  3.7786648E+01
 6.1467505E+00  3.7531952E+01
 6.1582503E+00  3.7575081E+01
 6.1697502E+00  3.7527870E+01
 6.1812501E+00  3.7500137E+01
 6.1927505E+00  3.7429333E+01
 6.2042503E+00  3.7348763E+01
 6.2157502E+00  3.7473160E+01
 6.2272501E+00  3.7509975E+01
 6.2387505E+00  3.7572414E+01
 6.2502503E+00  3.7706062E+01
 6.2617502E+00  3.7660011E+01
 6.2732501E+00  3.7745049E+01
 6.2847505E+00  3.7684727E+01
 6.2962503E+00  3.7624928E+01
 6.3077502E+00  3.7587887E+01
 6.3192501E+00  3.7507507E+01
 6.3307505E+00  3.7580254E+01
 6.3422503E+00  3.7678368E+01
 6.3537502E+00  3.7788410E+01
 6.3652501E+00  3.7859085E+01
 6.3767505E+00  3.7965416E+01
 6.3882504E+00  3.8076351E+01
 6.3997502E+00  3.8117680E+01
 6.4112501E+00  3.8187771E+01
 6.4227505E+00  3.8210636E+01
 6.4342504E+00  3.8366421E+01
 6.4457502E+00  3.8457661E+01
 6.4572501E+00  3.8487133E+01
 6.4687505E+00  3.8581486E+01
 6.4802504E+00  3.8525303E+01
 6.4917502E+00  3.8628841E+01
 6.5032501E+00  3.8714928E+01
 6.5147505E+00  3.8933548E+01
 6.5262504E+00  3.8996326E+01
 6.5377502E+00  3.9163021E+01
 6.5492501E+00  3.9171566E+01
 6.5607505E+00  3.9277946E+01
 6.5722504E+00  3.9251350E+01
 6.5837502E+00  3.9146370E+01
 6.5952501E+00  3.9189865E+01
 6.6067505E+00  3.9137947E+01
 6.6182504E+00  3.9343109E+01
 6.6297503E+00  3.9518097E+01
 6.6412501E+00  3.9706825E+01
 6.6527505E+00  3.9868202E+01
 6.6642504E+00  3.9948364E+01
 6.6757503E+00  4.0042774E+01
 6.6872501E+00  3.9982903E+01
 6.6987505E+00  4.0006699E+01
 6.7102504E+00  4.0080311E+01
 6.7217503E+00  4.0295364E+01
 6.7332501E+00  4.0356892E+01
 6.7447505E+00  4.0404125E+01
 6.7562504E+00  4.0552441E+01
 6.7677503E+00  4.0646782E+01
 6.7792501E+00  4.0828197E+01
 6.7907505E+00  4.0884911E+01
 6.8022504E+00  4.1086452E+01
 6.8137503E+00  4.1268497E+01
 6.8252501E+00  4.1310539E+01
 6.8367505E+00  4.1341980E+01
 6.8482504E+00  4.1201294E+01
 6.8597503E+00  4.1085136E+01
 6.8712502E+00  4.1079552E+01
 6.8827505E+00  4.1024395E+01
 6.8942504E+00  4.1108784E+01
 6.9057503E+00  4.1189816E+01
 6.9172502E+00  4.1376659E+01
 6.9287505E+00  4.1572697E+01
 6.9402504E+00  4.1747791E+01
 6.9517503E+00  4.1872837E+01
 6.9632502E+00  4.2014633E+01
 6.9747505E+00  4.2075485E+01
 6.9862504E+00  4.2134598E+01
 6.9977503E+00  4.2059826E+01
 7.0092502E+00  4.2004986E+01
 7.0207505E+00  4.2025211E+01
 7.0322504E+00  4.2186855E+01
 7.0437503E+00  4.2267887E+01
 7.0552502E+00  4.2406921E+01
 7.0667505E+00  4.2452454E+01
 7.0782504E+00  4.2555901E+01
 7.0897503E+00  4.2477173E+01
 7.1012502E+00  4.2522224E+01
 7.1127505E+00  4.2587616E+01
 7.1242504E+00  4.2836418E+01
 7.1357503E+00  4.2901775E+01
 7.1472502E+00  4.2948750E+01
 7.1587505E+00  4.2988960E+01
 7.1702504E+00  4.3138657E+01
 7.1817503E+00  4.3167969E+01
 7.1932502E+00  4.3233948E+01
 7.2047505E+00  4.3193802E+01
 7.2162504E+00  4.3239788E+01
 7.2277503E+00  4.3186672E+01
 7.2392502E+00  4.3162285E+01
 7.2507505E+00  4.3230087E+01
 7.2622504E+00  4.3359436E+01
 7.2737503E+00  4.3490448E+01
 7.2852502E+00  4.3499676E+01
 7.2967505E+00  4.3464378E+01
 7.3082504E+00  4.3395775E+01
 7.3197503E+00  4.3429474E+01
 7.3312502E+00  4.3470619E+01
 7.3427505E+00  4.3550182E+01
 7.3542504E+00  4.3588127E+01
 7.3657503E+00  4.3678822E+01
 7.3772502E+00  4.3633514E+01
 7.3887506E+00  4.3683559E+01
 7.4002504E+00  4.3657280E+01
 7.4117503E+00  4.3813587E+01
 7.4232502E+00  4.3859428E+01
 7.4347506E+00  4.3875168E+01
 7.4462504E+00  4.3891655E+01
 7.4577503E+00  4.3861294E+01
 7.4692502E+00  4.3868774E+01
 7.4807506E+00  4.3776031E+01
 7.4922504E+00  4.3748882E+01
 7.5037503E+00  4.3767765E+01
 7.5152502E+00  4.3912731E+01
 7.5267506E+00  4.3987717E+01
 7.5382504E+00  4.4148277E+01
 7.5497503E+00  4.4175602E+01
 7.5612502E+00  4.4326416E+01
 7.5727506E+00  4.4320679E+01
 7.5842505E+00  4.4253727E+01
 7.5957503E+00  4.4214428E+01
 7.6072502E+00  4.4198090E+01
 7.6187506E+00  4.4262245E+01
 7.6302505E+00  4.4316452E+01
 7.6417503E+00  4.4363144E+01
 7.6532502E+00  4.4398941E+01
 7.6647506E+00  4.4261421E+01
 7.6762505E+00  4.4171909E+01
 7.6877503E+00  4.4035244E+01
 7.6992502E+00  4.3988216E+01
 7.7107506E+00  4.3939655E+01
 7.7222505E+00  4.3910744E+01
 7.7337503E+00  4.3949753E+01
 7.7452502E+00  4.3922531E+01
 7.7567506E+00  4.4001472E+01
 7.7682505E+00  4.4057602E+01
 7.7797503E+00  4.4061707E+01
 7.7912502E+00  4.4032101E+01
 7.8027506E+00  4.3878578E+01
 7.8142505E+00  4.3833565E+01
 7.8257504E+00  4.3719379E+01
 7.8372502E+00  4.3701885E+01
 7.8487506E+00  4.3765224E+01
 7.8602505E+00  4.3826416E+01
 7.8717504E+00  4.3849854E+01
 7.8832502E+00  4.3768909E+01
 7.8947506E+00  4.3593693E+01
 7.9062505E+00  4.3590130E+01
 7.9177504E+00  4.3497231E+01
 7.9292502E+00  4.3446739E+01
 7.9407506E+00  4.3334232E+01
 7.9522505E+00  4.3184586E+01
 7.9637504E+00  4.3063831E+01
 7.9752502E+00  4.2856209E+01
 7.9867506E+00  4.2755962E+01
 7.9982505E+00  4.2671505E+01
 8.0097504E+00  4.2640182E+01
 8.0212507E+00  4.2775703E+01
 8.0327501E+00  4.2884327E+01
 8.0442505E+00  4.3040993E+01
 8.0557508E+00  4.2991863E+01
 8.0672503E+00  4.2921158E+01
 8.0787506E+00  4.2838219E+01
 8.0902500E+00  4.2672283E+01
 8.1017504E+00  4.2531593E+01
 8.1132507E+00  4.2457336E+01
 8.1247501E+00  4.2319099E+01
 8.1362505E+00  4.2414005E+01
 8.1477509E+00  4.2380627E+01
 8.1592503E+00  4.2378517E+01
 8.1707506E+00  4.2238342E+01
 8.1822500E+00  4.2001564E+01
 8.1937504E+00  4.1929047E+01
 8.2052507E+00  4.1692173E+01
 8.2167501E+00  4.1568104E+01
 8.2282505E+00  4.1381535E+01
 8.2397509E+00  4.1326599E+01
 8.2512503E+00  4.1182140E+01
 8.2627506E+00  4.0957272E+01
 8.2742500E+00  4.0758007E+01
 8.2857504E+00  4.0518456E+01
 8.2972507E+00  4.0431572E+01
 8.3087502E+00  4.0365391E+01
 8.3202505E+00  4.0307022E+01
 8.3317509E+00  4.0191185E+01
 8.3432503E+00  3.9988319E+01
 8.3547506E+00  3.9872738E+01
 8.3662500E+00  3.9781254E+01
 8.3777504E+00  3.9665115E+01
 8.3892508E+00  3.9534756E+01
 8.4007502E+00  3.9406803E+01
 8.4122505E+00  3.9312840E+01
 8.4237509E+00  3.9129826E+01
 8.4352503E+00  3.8938675E+01
 8.4467506E+00  3.8717934E+01
 8.4582500E+00  3.8517216E+01
 8.4697504E+00  3.8316051E+01
 8.4812508E+00  3.8102909E+01
 8.4927502E+00  3.7941681E+01
 8.5042505E+00  3.7756657E+01
 8.5157509E+00  3.7613319E+01
 8.5272503E+00  3.7385509E+01
 8.5387506E+00  3.7193455E+01
 8.5502501E+00  3.6929604E+01
 8.5617504E+00  3.6696342E+01
 8.5732508E+00  3.6459930E+01
 8.5847502E+00  3.6232334E+01
 8.5962505E+00  3.6093616E+01
 8.6077509E+00  3.5931545E+01
 8.6192503E+00  3.5910969E+01
 8.6307507E+00  3.5733894E+01
 8.6422501E+00  3.5594940E+01
 8.6537504E+00  3.5340996E+01
 8.6652508E+00  3.5108337E+01
 8.6767502E+00  3.5013157E+01
 8.6882505E+00  3.4953030E+01
 8.6997509E+00  3.4976719E+01
 8.7112503E+00  3.4830566E+01
 8.7227507E+00  3.4658695E+01
 8.7342501E+00  3.4432941E+01
 8.7457504E+00  3.4174614E+01
 8.7572508E+00  3.3881355E+01
 8.7687502E+00  3.3781116E+01
 8.7802505E+00  3.3612446E+01
 8.7917500E+00  3.3493332E+01
 8.8032503E+00  3.3255348E+01
 8.8147507E+00  3.3154720E+01
 8.8262501E+00  3.2902237E+01
 8.8377504E+00  3.2689079E+01
 8.8492508E+00  3.2399101E+01
 8.8607502E+00  3.2279606E+01
 8.8722506E+00  3.2122990E+01
 8.8837500E+00  3.2012165E+01
 8.8952503E+00  3.1896309E+01
 8.9067507E+00  3.1754616E+01
 8.9182501E+00  3.1602087E+01
 8.9297504E+00  3.1499165E+01
 8.9412508E+00  3.1349472E+01
 8.9527502E+00  3.1290339E+01
 8.9642506E+00  3.1143356E+01
 8.9757500E+00  3.1083296E+01
 8.9872503E+00  3.0903049E+01
 8.9987507E+00  3.0717213E+01
 9.0102501E+00  3.0474281E+01
 9.0217505E+00  3.0282305E+01
 9.0332508E+00  3.0183950E+01
 9.0447502E+00  3.0064516E+01
 9.0562506E+00  2.9938023E+01
 9.0677500E+00  2.9773083E+01
 9.0792503E+00  2.9592533E+01
 9.0907507E+00  2.9472816E+01
 9.1022501E+00  2.9339460E+01
 9.1137505E+00  2.9273584E+01
 9.1252508E+00  2.9174356E+01
 9.1367502E+00  2.9058994E+01
 9.1482506E+00  2.8923845E+01
 9.1597500E+00  2.8798782E+01
 9.1712503E+00  2.8673389E+01
 9.1827507E+00  2.8533558E+01
 9.1942501E+00  2.8477148E+01
 9.2057505E+00  2.8332672E+01
 9.2172508E+00  2.8270369E+01
 9.2287502E+00  2.8122601E+01
 9.2402506E+00  2.8090923E+01
 9.2517500E+00  2.8010042E+01
 9.2632504E+00  2.7944523E+01
 9.2747507E+00  2.7839207E+01
 9.2862501E+00  2.7734591E+01
 9.2977505E+00  2.7665928E+01
 9.3092508E+00  2.7571278E+01
 9.3207502E+00  2.7441143E+01
 9.3322506E+00  2.7319906E+01
 9.3437500E+00  2.7170002E+01
 9.3552504E+00  2.7111135E+01
 9.3667507E+00  2.7026201E+01
 9.3782501E+00  2.7012377E+01
 9.3897505E+00  2.6956640E+01
 9.4012508E+00  2.6915068E+01
 9.4127502E+00  2.6855492E+01
 9.4242506E+00  2.6788841E+01
 9.4357500E+00  2.6712397E+01
 9.4472504E+00  2.6667219E+01
 9.4587507E+00  2.6603214E+01
 9.4702501E+00  2.6535643E+01
 9.4817505E+00  2.6467850E+01
 9.4932508E+00  2.6373680E+01
 9.5047503E+00  2.6301138E+01
 9.5162506E+00  2.6178905E+01
 9.5277500E+00  2.6160742E+01
 9.5392504E+00  2.6107727E+01
 9.5507507E+00  2.6100128E+01
 9.5622501E+00  2.6148817E+01
 9.5737505E+00  2.6123053E+01
 9.5852509E+00  2.6109018E+01
 9.5967503E+00  2.6030827E+01
 9.6082506E+00  2.5996662E+01
 9.6197500E+00  2.5881109E+01
 9.6312504E+00  2.5702682E+01
 9.6427507E+00  2.5524332E+01
 9.6542501E+00  2.5435741E+01
 9.6657505E+00  2.5350853E+01
 9.6772509E+00  2.5294847E+01
 9.6887503E+00  2.5241268E+01
 9.7002506E+00  2.5275461E+01
 9.7117500E+00  2.5236343E+01
 9.7232504E+00  2.5264505E+01
 9.7347507E+00  2.5231619E+01
 9.7462502E+00  2.5252007E+01
 9.7577505E+00  2.5170502E+01
 9.7692509E+00  2.5087648E+01
 9.7807503E+00  2.5002110E+01
 9.7922506E+00  2.4952099E+01
 9.8037500E+00  2.4898869E+01
 9.8152504E+00  2.4827955E+01
 9.8267508E+00  2.4759192E+01
 9.8382502E+00  2.4690723E+01
 9.8497505E+00  2.4668175E+01
 9.8612509E+00  2.4619703E+01
 9.8727503E+00  2.4605747E+01
 9.8842506E+00  2.4561930E+01
 9.8957500E+00  2.4522192E+01
 9.9072504E+00  2.4479540E+01
 9.9187508E+00  2.4461843E+01
 9.9302502E+00  2.4377340E+01
 9.9417505E+00  2.4296322E+01
 9.9532509E+00  2.4255629E+01
 9.9647503E+00  2.4294336E+01
 9.9762506E+00  2.4296286E+01
 9.9877501E+00  2.4276468E+01
 9.9992504E+00  2.4267132E+01
 1.0010751E+01  2.4263205E+01
 1.0022250E+01  2.4248322E+01
 1.0033751E+01  2.4227551E+01
 1.0045251E+01  2.4207876E+01
 1.0056750E+01  2.4177135E+01
 1.0068251E+01  2.4091068E+01
 1.0079750E+01  2.3998013E+01
 1.0091250E+01  2.3932613E+01
 1.0102751E+01  2.3880939E+01
 1.0114250E+01  2.3857115E+01
 1.0125751E+01  2.3875135E+01
 1.0137251E+01  2.3923460E+01
 1.0148750E+01  2.3995115E+01
 1.0160251E+01  2.3980520E+01
 1.0171750E+01  2.3956064E+01
 1.0183250E+01  2.3925722E+01
 1.0194751E+01  2.3892048E+01
 1.0206250E+01  2.3832314E+01
 1.0217751E+01  2.3774736E+01
 1.0229251E+01  2.3707092E+01
 1.0240750E+01  2.3678005E+01
 1.0252251E+01  2.3623011E+01
 1.0263750E+01  2.3635889E+01
 1.0275250E+01  2.3627293E+01
 1.0286751E+01  2.3667809E+01
 1.0298250E+01  2.3676031E+01
 1.0309751E+01  2.3680630E+01
 1.0321251E+01  2.3618402E+01
 1.0332750E+01  2.3587181E+01
 1.0344251E+01  2.3544931E+01
 1.0355750E+01  2.3482382E+01
 1.0367250E+01  2.3441240E+01
 1.0378751E+01  2.3415396E+01
 1.0390250E+01  2.3472906E+01
 1.0401751E+01  2.3442848E+01
 1.0413251E+01  2.3426147E+01
 1.0424750E+01  2.3417002E+01
 1.0436251E+01  2.3417471E+01
 1.0447750E+01  2.3434357E+01
 1.0459250E+01  2.3413147E+01
 1.0470751E+01  2.3405920E+01
 1.0482250E+01  2.3410721E+01
 1.0493751E+01  2.3378925E+01
 1.0505251E+01  2.3416975E+01
 1.0516750E+01  2.3335752E+01
 1.0528251E+01  2.3277180E+01
 1.0539750E+01  2.3099390E+01
 1.0551250E+01  2.3053322E+01
 1.0562751E+01  2.3019722E+01
 1.0574250E+01  2.2940500E+01
 1.0585751E+01  2.2876795E+01
 1.0597251E+01  2.2836889E+01
 1.0608750E+01  2.2927244E+01
 1.0620251E+01  2.2995495E+01
 1.0631750E+01  2.3049089E+01
 1.0643250E+01  2.3058935E+01
 1.0654751E+01  2.3061186E+01
 1.0666250E+01  2.3030287E+01
 1.0677751E+01  2.3015989E+01
 1.0689251E+01  2.2970436E+01
 1.0700750E+01  2.2960661E+01
 1.0712251E+01  2.2954817E+01
 1.0723750E+01  2.2970348E+01
 1.0735250E+01  2.2944000E+01
 1.0746751E+01  2.2911451E+01
 1.0758250E+01  2.2894932E+01
 1.0769751E+01  2.2879423E+01
 1.0781251E+01  2.2873190E+01
 1.0792750E+01  2.2833433E+01
 1.0804251E+01  2.2839888E+01
 1.0815750E+01  2.2862724E+01
 1.0827250E+01  2.2942225E+01
 1.0838751E+01  2.2914721E+01
 1.0850250E+01  2.2907845E+01
 1.0861751E+01  2.2888329E+01
 1.0873251E+01  2.2860075E+01
 1.0884750E+01  2.2796041E+01
 1.0896251E+01  2.2739586E+01
 1.0907750E+01  2.2737585E+01
 1.0919250E+01  2.2716496E+01
 1.0930751E+01  2.2668011E+01
 1.0942250E+01  2.2637775E+01
 1.0953751E+01  2.2621664E+01
 1.0965251E+01  2.2616022E+01
 1.0976750E+01  2.2647282E+01
 1.0988251E+01  2.2649832E+01
 1.0999750E+01  2.2640354E+01
 1.1011250E+01  2.2569529E+01
 1.1022751E+01  2.2619036E+01
 1.1034250E+01  2.2547237E+01
 1.1045751E+01  2.2580545E+01
 1.1057251E+01  2.2489738E+01
 1.1068750E+01  2.2503685E+01
 1.1080251E+01  2.2516687E+01
 1.1091750E+01  2.2531548E+01
 1.1103251E+01  2.2550730E+01
 1.1114751E+01  2.2531464E+01
 1.1126250E+01  2.2571379E+01
 1.1137751E+01  2.2573032E+01
 1.1149251E+01  2.2571871E+01
 1.1160750E+01  2.2526716E+01
 1.1172251E+01  2.2530174E+01
 1.1183750E+01  2.2483347E+01
 1.1195251E+01  2.2444666E+01
 1.1206751E+01  2.2413429E+01
 1.1218250E+01  2.2395388E+01
 1.1229751E+01  2.2394104E+01
 1.1241251E+01  2.2397007E+01
 1.1252750E+01  2.2372084E+01
 1.1264251E+01  2.2395245E+01
 1.1275750E+01  2.2411390E+01
 1.1287251E+01  2.2430407E+01
 1.1298751E+01  2.2453949E+01
 1.1310250E+01  2.2462524E+01
 1.1321751E+01  2.2525824E+01
 1.1333251E+01  2.2516468E+01
 1.1344750E+01  2.2516436E+01
 1.1356251E+01  2.2532692E+01
 1.1367750E+01  2.2551075E+01
 1.1379251E+01  2.2559505E+01
 1.1390751E+01  2.2581888E+01
 1.1402250E+01  2.2759907E+01
 1.1413751E+01  2.2803619E+01
 1.1425251E+01  2.2774231E+01
 1.1436750E+01  2.2745548E+01
 1.1448251E+01  2.2760622E+01
 1.1459750E+01  2.2839527E+01
 1.1471251E+01  2.2809431E+01
 1.1482751E+01  2.2850000E+01
 1.1494250E+01  2.2925373E+01
 1.1505751E+01  2.2926270E+01
 1.1517251E+01  2.3101732E+01
 1.1528750E+01  2.3353796E+01
 1.1540251E+01  2.3925928E+01
 1.1551750E+01  2.4739737E+01
 1.1563251E+01  2.5625923E+01
 1.1574751E+01  2.6721100E+01
 1.1586250E+01  2.7534807E+01
 1.1597751E+01  2.7890509E+01
 1.1609251E+01  2.7552433E+01
 1.1620750E+01  2.6737295E+01
 1.1632251E+01  2.5775528E+01
 1.1643750E+01  2.4797943E+01
 1.1655251E+01  2.4036636E+01
 1.1666751E+01  2.3521379E+01
 1.1678250E+01  2.3188896E+01
 1.1689751E+01  2.3019796E+01
 1.1701251E+01  2.2947201E+01
 1.1712750E+01  2.2939034E+01
 1.1724251E+01  2.2836025E+01
 1.1735750E+01  2.2754541E+01
 1.1747251E+01  2.2671059E+01
 1.1758751E+01  2.2657236E+01
 1.1770250E+01  2.2649677E+01
 1.1781751E+01  2.2691120E+01
 1.1793251E+01  2.2774717E+01
 1.1804750E+01  2.2869221E+01
 1.1816251E+01  2.2878820E+01
 1.1827750E+01  2.2907389E+01
 1.1839251E+01  2.2888401E+01
 1.1850751E+01  2.2896740E+01
 1.1862250E+01  2.2895826E+01
 1.1873751E+01  2.2906551E+01
 1.1885251E+01  2.2922457E+01
 1.1896750E+01  2.2950840E+01
 1.1908251E+01  2.3014582E+01
 1.1919750E+01  2.3161983E+01
 1.1931251E+01  2.3328926E+01
 1.1942751E+01  2.3629156E+01
 1.1954250E+01  2.4249630E+01
 1.1965751E+01  2.4735237E+01
 1.1977251E+01  2.6156342E+01
 1.1988750E+01  2.7503426E+01
 1.2000251E+01  2.8094366E+01
 1.2011750E+01  2.8384861E+01
 1.2023251E+01  2.7449186E+01
 1.2034751E+01  2.7116835E+01
 1.2046250E+01  2.6067152E+01
 1.2057751E+01  2.6122936E+01
 1.2069251E+01  2.6768614E+01
 1.2080750E+01  2.8900434E+01
 1.2092251E+01  3.3853588E+01
 1.2103750E+01  3.7633347E+01
 1.2115251E+01  4.0247860E+01
 1.2126751E+01  3.9813545E+01
 1.2138250E+01  3.8396240E+01
 1.2149751E+01  3.5071182E+01
 1.2161251E+01  3.1526318E+01
 1.2172750E+01  2.8479570E+01
 1.2184251E+01  2.6366209E+01
 1.2195750E+01  2.4598278E+01
 1.2207251E+01  2.3950239E+01
 1.2218751E+01  2.3595396E+01
 1.2230250E+01  2.3320045E+01
 1.2241751E+01  2.3160303E+01
 1.2253251E+01  2.3039545E+01
 1.2264750E+01  2.2915461E+01
 1.2276251E+01  2.2871159E+01
 1.2287750E+01  2.2792320E+01
 1.2299251E+01  2.2795101E+01
 1.2310751E+01  2.2805655E+01
 1.2322250E+01  2.2782000E+01
 1.2333751E+01  2.2793564E+01
 1.2345250E+01  2.2740726E+01
 1.2356750E+01  2.2830990E+01
 1.2368251E+01  2.2826113E+01
 1.2379750E+01  2.2856634E+01
 1.2391251E+01  2.2767912E+01
 1.2402751E+01  2.2683727E+01
 1.2414250E+01  2.2607765E+01
 1.2425751E+01  2.2590710E+01
 1.2437250E+01  2.2616983E+01
 1.2448750E+01  2.2622875E+01
 1.2460251E+01  2.2698311E+01
 1.2471750E+01  2.2760908E+01
 1.2483251E+01  2.2849133E+01
 1.2494751E+01  2.2771666E+01
 1.2506250E+01  2.2693504E+01
 1.2517751E+01  2.2651028E+01
 1.2529250E+01  2.2691893E+01
 1.2540751E+01  2.2795424E+01
 1.2552251E+01  2.2863415E+01
 1.2563750E+01  2.2947407E+01
 1.2575251E+01  2.2975134E+01
 1.2586751E+01  2.2949228E+01
 1.2598250E+01  2.2905771E+01
 1.2609751E+01  2.2859217E+01
 1.2621250E+01  2.2871367E+01
 1.2632751E+01  2.2864161E+01
 1.2644251E+01  2.2816271E+01
 1.2655750E+01  2.2821060E+01
 1.2667251E+01  2.2835934E+01
 1.2678751E+01  2.2874065E+01
 1.2690250E+01  2.2894222E+01
 1.2701751E+01  2.2930893E+01
 1.2713250E+01  2.3012743E+01
 1.2724751E+01  2.3050797E+01
 1.2736251E+01  2.3107656E+01
 1.2747750E+01  2.3122692E+01
 1.2759251E+01  2.3137766E+01
 1.2770751E+01  2.3091509E+01
 1.2782250E+01  2.3126274E+01
 1.2793751E+01  2.3103502E+01
 1.2805250E+01  2.3149481E+01
 1.2816751E+01  2.3169113E+01
 1.2828251E+01  2.3240400E+01
 1.2839750E+01  2.3277088E+01
 1.2851251E+01  2.3321394E+01
 1.2862751E+01  2.3375050E+01
 1.2874250E+01  2.3438345E+01
 1.2885751E+01  2.3461666E+01
 1.2897250E+01  2.3475504E+01
 1.2908751E+01  2.3535875E+01
 1.2920251E+01  2.3604141E+01
 1.2931750E+01  2.3662891E+01
 1.2943251E+01  2.3666008E+01
 1.2954751E+01  2.3631954E+01
 1.2966250E+01  2.3665451E+01
 1.2977751E+01  2.3720638E+01
 1.2989250E+01  2.3801109E+01
 1.3000751E+01  2.3887310E+01
 1.3012251E+01  2.3953390E+01
 1.3023750E+01  2.4063362E+01
 1.3035251E+01  2.4147158E+01
 1.3046751E+01  2.4209873E+01
 1.3058250E+01  2.4336819E+01
 1.3069751E+01  2.4472250E+01
 1.3081250E+01  2.4595430E+01
 1.3092751E+01  2.4654882E+01
 1.3104251E+01  2.4753092E+01
 1.3115750E+01  2.4881905E+01
 1.3127251E+01  2.5015688E+01
 1.3138751E+01  2.5128185E+01
 1.3150250E+01  2.5277206E+01
 1.3161751E+01  2.5348528E+01
 1.3173250E+01  2.5455809E+01
 1.3184751E+01  2.5536461E+01
 1.3196251E+01  2.5680742E+01
 1.3207750E+01  2.5821768E+01
 1.3219251E+01  2.6043222E+01
 1.3230751E+01  2.6226442E+01
 1.3242250E+01  2.6339430E+01
 1.3253751E+01  2.6458147E+01
 1.3265250E+01  2.6556175E+01
 1.3276751E+01  2.6680632E+01
 1.3288251E+01  2.6801300E+01
 1.3299750E+01  2.6923510E+01
 1.3311251E+01  2.7072567E+01
 1.3322751E+01  2.7183159E+01
 1.3334250E+01  2.7361507E+01
 1.3345751E+01  2.7573538E+01
 1.3357250E+01  2.7752485E+01
 1.3368751E+01  2.7890903E+01
 1.3380251E+01  2.7951813E+01
 1.3391750E+01  2.8052256E+01
 1.3403251E+01  2.8150681E+01
 1.3414751E+01  2.8264637E+01
 1.3426250E+01  2.8348951E+01
 1.3437751E+01  2.8461287E+01
 1.3449250E+01  2.8609819E+01
 1.3460751E+01  2.8763329E+01
 1.3472251E+01  2.8880634E+01
 1.3483750E+01  2.9064844E+01
 1.3495251E+01  2.9214012E+01
 1.3506751E+01  2.9389122E+01
 1.3518250E+01  2.9445404E+01
 1.3529751E+01  2.9522451E+01
 1.3541250E+01  2.9608112E+01
 1.3552751E+01  2.9745354E+01
 1.3564251E+01  2.9814806E+01
 1.3575750E+01  2.9903502E+01
 1.3587251E+01  2.9917776E+01
 1.3598751E+01  2.9899288E+01
 1.3610250E+01  2.9820379E+01
 1.3621751E+01  2.9660769E+01
 1.3633250E+01  2.9564339E+01
 1.3644751E+01  2.9510937E+01
 1.3656251E+01  2.9484394E+01
 1.3667750E+01  2.9554935E+01
 1.3679251E+01  2.9597219E+01
 1.3690751E+01  2.9710085E+01
 1.3702250E+01  2.9733027E+01
 1.3713751E+01  2.9752928E+01
 1.3725250E+01  2.9730566E+01
 1.3736751E+01  2.9728163E+01
 1.3748251E+01  2.9694225E+01
 1.3759750E+01  2.9681862E+01
 1.3771251E+01  2.9709345E+01
 1.3782751E+01  2.9747850E+01
 1.3794250E+01  2.9798712E+01
 1.3805751E+01  2.9795130E+01
 1.3817250E+01  2.9817972E+01
 1.3828751E+01  2.9851480E+01
 1.3840251E+01  2.9960409E+01
 1.3851750E+01  3.0115530E+01
 1.3863251E+01  3.0434662E+01
 1.3874751E+01  3.1106474E+01
 1.3886250E+01  3.2102486E+01
 1.3897751E+01  3.4232330E+01
 1.3909250E+01  3.6708561E+01
 1.3920751E+01  4.1843971E+01
 1.3932251E+01  4.5925865E+01
 1.3943750E+01  5.1890606E+01
 1.3955251E+01  5.2609814E+01
 1.3966751E+01  5.3227955E+01
 1.3978251E+01  4.7938782E+01
 1.3989751E+01  4.3252621E+01
 1.4001250E+01  3.7677448E+01
 1.4012751E+01  3.4136440E+01
 1.4024251E+01  3.1807632E+01
 1.4035750E+01  3.0213526E+01
 1.4047251E+01  2.9452715E+01
 1.4058751E+01  2.8889811E+01
 1.4070251E+01  2.8626213E+01
 1.4081751E+01  2.8348261E+01
 1.4093250E+01  2.8189796E+01
 1.4104751E+01  2.8059336E+01
 1.4116251E+01  2.8052122E+01
 1.4127750E+01  2.7945227E+01
 1.4139251E+01  2.7844648E+01
 1.4150751E+01  2.7675285E+01
 1.4162251E+01  2.7533937E+01
 1.4173751E+01  2.7392042E+01
 1.4185250E+01  2.7222178E+01
 1.4196751E+01  2.7103710E+01
 1.4208251E+01  2.6939022E+01
 1.4219750E+01  2.6887291E+01
 1.4231251E+01  2.6737759E+01
 1.4242751E+01  2.6672482E+01
 1.4254251E+01  2.6547184E+01
 1.4265751E+01  2.6508553E+01
 1.4277250E+01  2.6469297E+01
 1.4288751E+01  2.6423262E+01
 1.4300251E+01  2.6350616E+01
 1.4311750E+01  2.6262899E+01
 1.4323251E+01  2.6185755E+01
 1.4334751E+01  2.6142441E+01
 1.4346251E+01  2.6122166E+01
 1.4357751E+01  2.6151123E+01
 1.4369250E+01  2.6161081E+01
 1.4380751E+01  2.6181580E+01
 1.4392251E+01  2.6156475E+01
 1.4403750E+01  2.6134462E+01
 1.4415251E+01  2.6102636E+01
 1.4426751E+01  2.6013676E+01
 1.4438251E+01  2.5928785E+01
 1.4449751E+01  2.5806967E+01
 1.4461250E+01  2.5791105E+01
 1.4472751E+01  2.5766533E+01
 1.4484251E+01  2.5768751E+01
 1.4495750E+01  2.5721411E+01
 1.4507251E+01  2.5714390E+01
 1.4518751E+01  2.5660484E+01
 1.4530251E+01  2.5647476E+01
 1.4541751E+01  2.5614607E+01
 1.4553250E+01  2.5645638E+01
 1.4564751E+01  2.5655434E+01
 1.4576251E+01  2.5617588E+01
 1.4587750E+01  2.5577105E+01
 1.4599251E+01  2.5498655E+01
 1.4610751E+01  2.5505476E+01
 1.4622251E+01  2.5460546E+01
 1.4633751E+01  2.5438025E+01
 1.4645250E+01  2.5384687E+01
 1.4656751E+01  2.5356043E+01
 1.4668251E+01  2.5311054E+01
 1.4679750E+01  2.5304316E+01
 1.4691251E+01  2.5311253E+01
 1.4702751E+01  2.5260590E+01
 1.4714251E+01  2.5232952E+01
 1.4725751E+01  2.5209713E+01
 1.4737250E+01  2.5283148E+01
 1.4748751E+01  2.5276222E+01
 1.4760251E+01  2.5305136E+01
 1.4771750E+01  2.5292246E+01
 1.4783251E+01  2.5239225E+01
 1.4794751E+01  2.5181393E+01
 1.4806251E+01  2.5096241E+01
 1.4817751E+01  2.5032379E+01
 1.4829250E+01  2.4976992E+01
 1.4840751E+01  2.4992037E+01
 1.4852251E+01  2.4984001E+01
 1.4863750E+01  2.4963905E+01
 1.4875251E+01  2.4912409E+01
 1.4886751E+01  2.4913527E+01
 1.4898251E+01  2.4958872E+01
 1.4909751E+01  2.4991686E+01
 1.4921250E+01  2.5003094E+01
 1.4932751E+01  2.4959015E+01
 1.4944251E+01  2.4997772E+01
 1.4955750E+01  2.4986662E+01
 1.4967251E+01  2.5022861E+01
 1.4978751E+01  2.5000710E+01
 1.4990251E+01  2.4994019E+01
 1.5001751E+01  2.4944952E+01
 1.5013250E+01  2.4947989E+01
 1.5024751E+01  2.4987650E+01
 1.5036251E+01  2.5031778E+01
 1.5047750E+01  2.5035011E+01
 1.5059251E+01  2.5031286E+01
 1.5070751E+01  2.5044701E+01
 1.5082251E+01  2.5033949E+01
 1.5093751E+01  2.5042433E+01
 1.5105250E+01  2.5076765E+01
 1.5116751E+01  2.5113991E+01
 1.5128251E+01  2.5216251E+01
 1.5139750E+01  2.5401186E+01
 1.5151251E+01  2.5822420E+01
 1.5162751E+01  2.6361647E+01
 1.5174251E+01  2.6859201E+01
 1.5185751E+01  2.7370667E+01
 1.5197250E+01  2.7580349E+01
 1.5208751E+01  2.7600475E+01
 1.5220251E+01  2.7234806E+01
 1.5231750E+01  2.6753466E+01
 1.5243251E+01  2.6170963E+01
 1.5254751E+01  2.5689909E+01
 1.5266251E+01  2.5254570E+01
 1.5277751E+01  2.5009499E+01
 1.5289250E+01  2.4834585E+01
 1.5300751E+01  2.4756664E+01
 1.5312251E+01  2.4665672E+01
 1.5323750E+01  2.4619019E+01
 1.5335251E+01  2.4667082E+01
 1.5346751E+01  2.4718323E+01
 1.5358251E+01  2.4758642E+01
 1.5369751E+01  2.4689249E+01
 1.5381250E+01  2.4645121E+01
 1.5392751E+01  2.4576370E+01
 1.5404251E+01  2.4532354E+01
 1.5415751E+01  2.4494226E+01
 1.5427251E+01  2.4455433E+01
 1.5438751E+01  2.4458509E+01
 1.5450251E+01  2.4438114E+01
 1.5461751E+01  2.4410791E+01
 1.5473250E+01  2.4347725E+01
 1.5484751E+01  2.4318354E+01
 1.5496251E+01  2.4373102E+01
 1.5507751E+01  2.4463680E+01
 1.5519251E+01  2.4530092E+01
 1.5530751E+01  2.4556385E+01
 1.5542251E+01  2.4595909E+01
 1.5553751E+01  2.4588236E+01
 1.5565250E+01  2.4615488E+01
 1.5576751E+01  2.4584740E+01
 1.5588251E+01  2.4591619E+01
 1.5599751E+01  2.4534101E+01
 1.5611251E+01  2.4505089E+01
 1.5622751E+01  2.4511497E+01
 1.5634251E+01  2.4531485E+01
 1.5645751E+01  2.4610636E+01
 1.5657250E+01  2.4701607E+01
 1.5668751E+01  2.4750732E+01
 1.5680251E+01  2.4706507E+01
 1.5691751E+01  2.4650442E+01
 1.5703251E+01  2.4664907E+01
 1.5714751E+01  2.4705780E+01
 1.5726251E+01  2.4744778E+01
 1.5737751E+01  2.4713989E+01
 1.5749250E+01  2.4695168E+01
 1.5760751E+01  2.4694044E+01
 1.5772251E+01  2.4747946E+01
 1.5783751E+01  2.4795078E+01
 1.5795251E+01  2.4842093E+01
 1.5806751E+01  2.4847744E+01
 1.5818251E+01  2.4856890E+01
 1.5829751E+01  2.4819193E+01
 1.5841250E+01  2.4815500E+01
 1.5852751E+01  2.4768545E+01
 1.5864251E+01  2.4738665E+01
 1.5875751E+01  2.4735086E+01
 1.5887251E+01  2.4758066E+01
 1.5898750E+01  2.4816906E+01
 1.5910251E+01  2.4854034E+01
 1.5921751E+01  2.4835180E+01
 1.5933250E+01  2.4759758E+01
 1.5944751E+01  2.4693125E+01
 1.5956251E+01  2.4690027E+01
 1.5967751E+01  2.4685730E+01
 1.5979251E+01  2.4672188E+01
 1.5990750E+01  2.4734753E+01
 1.6002251E+01  2.4776136E+01
 1.6013750E+01  2.4826948E+01
 1.6025251E+01  2.4789860E+01
 1.6036751E+01  2.4830450E+01
 1.6048250E+01  2.4842585E+01
 1.6059752E+01  2.4871349E+01
 1.6071251E+01  2.4804790E+01
 1.6082750E+01  2.4829090E+01
 1.6094252E+01  2.4821339E+01
 1.6105751E+01  2.4913143E+01
 1.6117250E+01  2.4896004E+01
 1.6128750E+01  2.4896751E+01
 1.6140251E+01  2.4888323E+01
 1.6151751E+01  2.4856075E+01
 1.6163250E+01  2.4928495E+01
 1.6174751E+01  2.4861681E+01
 1.6186251E+01  2.5100004E+01
 1.6197750E+01  2.5044144E+01
 1.6209251E+01  2.5553265E+01
 1.6220751E+01  2.5586298E+01
 1.6232250E+01  2.6115360E+01
 1.6243752E+01  2.6288954E+01
 1.6255251E+01  2.6568583E+01
 1.6266750E+01  2.6810225E+01
 1.6278252E+01  2.6431021E+01
 1.6289751E+01  2.6417070E+01
 1.6301250E+01  2.5552799E+01
 1.6312750E+01  2.5553837E+01
 1.6324251E+01  2.5011423E+01
 1.6335751E+01  2.5029791E+01
 1.6347250E+01  2.4831224E+01
 1.6358751E+01  2.4833572E+01
 1.6370251E+01  2.4822332E+01
 1.6381750E+01  2.4766670E+01
 1.6393251E+01  2.4767672E+01
 1.6404751E+01  2.4756870E+01
 1.6416250E+01  2.4817137E+01
 1.6427752E+01  2.4812290E+01
 1.6439251E+01  2.4824554E+01
 1.6450750E+01  2.4778551E+01
 1.6462252E+01  2.4759495E+01
 1.6473751E+01  2.4699677E+01
 1.6485250E+01  2.4712105E+01
 1.6496750E+01  2.4701084E+01
 1.6508251E+01  2.4744976E+01
 1.6519751E+01  2.4717419E+01
 1.6531250E+01  2.4681753E+01
 1.6542751E+01  2.4636602E+01
 1.6554251E+01  2.4633484E+01
 1.6565750E+01  2.4671841E+01
 1.6577251E+01  2.4708033E+01
 1.6588751E+01  2.4709389E+01
 1.6600250E+01  2.4719233E+01
 1.6611752E+01  2.4713467E+01
 1.6623251E+01  2.4713730E+01
 1.6634750E+01  2.4728952E+01
 1.6646252E+01  2.4755098E+01
 1.6657751E+01  2.4766682E+01
 1.6669250E+01  2.4751400E+01
 1.6680750E+01  2.4743309E+01
 1.6692251E+01  2.4742393E+01
 1.6703751E+01  2.4760469E+01
 1.6715250E+01  2.4753595E+01
 1.6726751E+01  2.4720667E+01
 1.6738251E+01  2.4661963E+01
 1.6749750E+01  2.4632965E+01
 1.6761251E+01  2.4606438E+01
 1.6772751E+01  2.4632475E+01
 1.6784250E+01  2.4625883E+01
 1.6795752E+01  2.4649281E+01
 1.6807251E+01  2.4612740E+01
 1.6818750E+01  2.4533388E+01
 1.6830252E+01  2.4460976E+01
 1.6841751E+01  2.4372282E+01
 1.6853251E+01  2.4352436E+01
 1.6864750E+01  2.4374762E+01
 1.6876251E+01  2.4393457E+01
 1.6887751E+01  2.4405842E+01
 1.6899250E+01  2.4407032E+01
 1.6910751E+01  2.4458000E+01
 1.6922251E+01  2.4462881E+01
 1.6933750E+01  2.4445827E+01
 1.6945251E+01  2.4398119E+01
 1.6956751E+01  2.4394325E+01
 1.6968250E+01  2.4326614E+01
 1.6979752E+01  2.4266081E+01
 1.6991251E+01  2.4222469E+01
 1.7002750E+01  2.4193373E+01
 1.7014252E+01  2.4174873E+01
 1.7025751E+01  2.4199593E+01
 1.7037251E+01  2.4184206E+01
 1.7048750E+01  2.4187267E+01
 1.7060251E+01  2.4152210E+01
 1.7071751E+01  2.4228304E+01
 1.7083250E+01  2.4282040E+01
 1.7094751E+01  2.4289007E+01
 1.7106251E+01  2.4315390E+01
 1.7117750E+01  2.4264090E+01
 1.7129251E+01  2.4301182E+01
 1.7140751E+01  2.4265385E+01
 1.7152250E+01  2.4278849E+01
 1.7163752E+01  2.4226227E+01
 1.7175251E+01  2.4218918E+01
 1.7186750E+01  2.4190756E+01
 1.7198252E+01  2.4176203E+01
 1.7209751E+01  2.4194193E+01
 1.7221251E+01  2.4195230E+01
 1.7232750E+01  2.4196592E+01
 1.7244251E+01  2.4183092E+01
 1.7255751E+01  2.4130802E+01
 1.7267250E+01  2.4094212E+01
 1.7278751E+01  2.4108047E+01
 1.7290251E+01  2.4141344E+01
 1.7301750E+01  2.4205685E+01
 1.7313251E+01  2.4221907E+01
 1.7324751E+01  2.4297062E+01
 1.7336250E+01  2.4260912E+01
 1.7347752E+01  2.4189878E+01
 1.7359251E+01  2.4148422E+01
 1.7370750E+01  2.4123825E+01
 1.7382252E+01  2.4140694E+01
 1.7393751E+01  2.4107601E+01
 1.7405251E+01  2.4134359E+01
 1.7416750E+01  2.4125917E+01
 1.7428251E+01  2.4108849E+01
 1.7439751E+01  2.4096516E+01
 1.7451250E+01  2.4075598E+01
 1.7462751E+01  2.4069105E+01
 1.7474251E+01  2.3981390E+01
 1.7485750E+01  2.3982901E+01
 1.7497252E+01  2.3986279E+01
 1.7508751E+01  2.4016655E+01
 1.7520250E+01  2.3983736E+01
 1.7531752E+01  2.3962660E+01
 1.7543251E+01  2.4000826E+01
 1.7554750E+01  2.4000137E+01
 1.7566252E+01  2.4004026E+01
 1.7577751E+01  2.3995041E+01
 1.7589251E+01  2.3969900E+01
 1.7600750E+01  2.3953281E+01
 1.7612251E+01  2.3954058E+01
 1.7623751E+01  2.4005842E+01
 1.7635250E+01  2.3996496E+01
 1.7646751E+01  2.3927507E+01
 1.7658251E+01  2.3857035E+01
 1.7669750E+01  2.3874210E+01
 1.7681252E+01  2.3903107E+01
 1.7692751E+01  2.3955971E+01
 1.7704250E+01  2.3969131E+01
 1.7715752E+01  2.3978092E+01
 1.7727251E+01  2.3955578E+01
 1.7738750E+01  2.3937700E+01
 1.7750252E+01  2.3934175E+01
 1.7761751E+01  2.3957548E+01
 1.7773251E+01  2.3961245E+01
 1.7784750E+01  2.3973568E+01
 1.7796251E+01  2.4006241E+01
 1.7807751E+01  2.3986902E+01
 1.7819250E+01  2.3981556E+01
 1.7830751E+01  2.3896223E+01
 1.7842251E+01  2.3934240E+01
 1.7853750E+01  2.3931562E+01
 1.7865252E+01  2.3991001E+01
 1.7876751E+01  2.3930479E+01
 1.7888250E+01  2.3898308E+01
 1.7899752E+01  2.3857943E+01
 1.7911251E+01  2.3910015E+01
 1.7922750E+01  2.3984047E+01
 1.7934252E+01  2.4069157E+01
 1.7945751E+01  2.4112576E+01
 1.7957251E+01  2.4132111E+01
 1.7968750E+01  2.4176231E+01
 1.7980251E+01  2.4268969E+01
 1.7991751E+01  2.4513903E+01
 1.8003250E+01  2.4799829E+01
 1.8014751E+01  2.5098415E+01
 1.8026251E+01  2.5414772E+01
 1.8037750E+01  2.5840462E+01
 1.8049252E+01  2.6351788E+01
 1.8060751E+01  2.7028324E+01
 1.8072250E+01  2.7789415E+01
 1.8083752E+01  2.8513676E+01
 1.8095251E+01  2.9004986E+01
 1.8106750E+01  2.9356031E+01
 1.8118252E+01  2.9336979E+01
 1.8129751E+01  2.9058743E+01
 1.8141251E+01  2.8253094E+01
 1.8152750E+01  2.7573133E+01
 1.8164251E+01  2.6599764E+01
 1.8175751E+01  2.5823923E+01
 1.8187250E+01  2.5102623E+01
 1.8198751E+01  2.4693985E+01
 1.8210251E+01  2.4453669E+01
 1.8221750E+01  2.4232899E+01
 1.8233252E+01  2.4077053E+01
 1.8244751E+01  2.3997505E+01
 1.8256250E+01  2.3986849E+01
 1.8267752E+01  2.3955225E+01
 1.8279251E+01  2.3915102E+01
 1.8290751E+01  2.3850866E+01
 1.8302252E+01  2.3806927E+01
 1.8313751E+01  2.3781725E+01
 1.8325251E+01  2.3754791E+01
 1.8336750E+01  2.3770411E+01
 1.8348251E+01  2.3738243E+01
 1.8359751E+01  2.3709162E+01
 1.8371250E+01  2.3709362E+01
 1.8382751E+01  2.3764519E+01
 1.8394251E+01  2.3799231E+01
 1.8405750E+01  2.3812155E+01
 1.8417252E+01  2.3787237E+01
 1.8428751E+01  2.3781940E+01
 1.8440250E+01  2.3758760E+01
 1.8451752E+01  2.3733715E+01
 1.8463251E+01  2.3720058E+01
 1.8474751E+01  2.3751205E+01
 1.8486252E+01  2.3745289E+01
 1.8497751E+01  2.3754459E+01
 1.8509251E+01  2.3726242E+01
 1.8520750E+01  2.3717304E+01
 1.8532251E+01  2.3702156E+01
 1.8543751E+01  2.3683565E+01
 1.8555250E+01  2.3701836E+01
 1.8566751E+01  2.3700306E+01
 1.8578251E+01  2.3741749E+01
 1.8589750E+01  2.3751011E+01
 1.8601252E+01  2.3759462E+01
 1.8612751E+01  2.3793690E+01
 1.8624250E+01  2.3760832E+01
 1.8635752E+01  2.3722857E+01
 1.8647251E+01  2.3633390E+01
 1.8658751E+01  2.3560471E+01
 1.8670252E+01  2.3549547E+01
 1.8681751E+01  2.3570889E+01
 1.8693251E+01  2.3639482E+01
 1.8704750E+01  2.3639828E+01
 1.8716251E+01  2.3628929E+01
 1.8727751E+01  2.3580139E+01
 1.8739250E+01  2.3523903E+01
 1.8750751E+01  2.3504164E+01
 1.8762251E+01  2.3529081E+01
 1.8773750E+01  2.3562998E+01
 1.8785252E+01  2.3541353E+01
 1.8796751E+01  2.3546326E+01
 1.8808250E+01  2.3545214E+01
 1.8819752E+01  2.3554562E+01
 1.8831251E+01  2.3592743E+01
 1.8842751E+01  2.3572823E+01
 1.8854252E+01  2.3580051E+01
 1.8865751E+01  2.3576120E+01
 1.8877251E+01  2.3610172E+01
 1.8888750E+01  2.3598822E+01
 1.8900251E+01  2.3582401E+01
 1.8911751E+01  2.3583487E+01
 1.8923250E+01  2.3603617E+01
 1.8934752E+01  2.3644800E+01
 1.8946251E+01  2.3710945E+01
 1.8957750E+01  2.3718084E+01
 1.8969252E+01  2.3682434E+01
 1.8980751E+01  2.3648609E+01
 1.8992250E+01  2.3627874E+01
 1.9003752E+01  2.3632116E+01
 1.9015251E+01  2.3663275E+01
 1.9026751E+01  2.3728415E+01
 1.9038252E+01  2.3728888E+01
 1.9049751E+01  2.3696810E+01
 1.9061251E+01  2.3668512E+01
 1.9072750E+01  2.3684217E+01
 1.9084251E+01  2.3700033E+01
 1.9095751E+01  2.3685995E+01
 1.9107250E+01  2.3677126E+01
 1.9118752E+01  2.3653395E+01
 1.9130251E+01  2.3673157E+01
 1.9141750E+01  2.3678053E+01
 1.9153252E+01  2.3721724E+01
 1.9164751E+01  2.3677691E+01
 1.9176250E+01  2.3643810E+01
 1.9187752E+01  2.3587111E+01
 1.9199251E+01  2.3601845E+01
 1.9210751E+01  2.3654024E+01
 1.9222252E+01  2.3638163E+01
 1.9233751E+01  2.3601824E+01
 1.9245251E+01  2.3592976E+01
 1.9256750E+01  2.3635590E+01
 1.9268251E+01  2.3655991E+01
 1.9279751E+01  2.3652102E+01
 1.9291250E+01  2.3670223E+01
 1.9302752E+01  2.3729692E+01
 1.9314251E+01  2.3808891E+01
 1.9325750E+01  2.3875944E+01
 1.9337252E+01  2.3926348E+01
 1.9348751E+01  2.3950460E+01
 1.9360250E+01  2.3895161E+01
 1.9371752E+01  2.3902496E+01
 1.9383251E+01  2.3877434E+01
 1.9394751E+01  2.3951797E+01
 1.9406250E+01  2.3952496E+01
 1.9417751E+01  2.4025852E+01
 1.9429251E+01  2.4117313E+01
 1.9440750E+01  2.4141562E+01
 1.9452251E+01  2.4150791E+01
 1.9463751E+01  2.4101847E+01
 1.9475250E+01  2.4145084E+01
 1.9486752E+01  2.4164042E+01
 1.9498251E+01  2.4145065E+01
 1.9509750E+01  2.4159979E+01
 1.9521252E+01  2.4229782E+01
 1.9532751E+01  2.4328749E+01
 1.9544250E+01  2.4336269E+01
 1.9555752E+01  2.4319742E+01
 1.9567251E+01  2.4330021E+01
 1.9578751E+01  2.4427250E+01
 1.9590250E+01  2.4542393E+01
 1.9601751E+01  2.4690189E+01
 1.9613251E+01  2.4918222E+01
 1.9624750E+01  2.5117971E+01
 1.9636251E+01  2.5790573E+01
 1.9647751E+01  2.6652983E+01
 1.9659250E+01  2.7909342E+01
 1.9670752E+01  3.1858360E+01
 1.9682251E+01  3.2841862E+01
 1.9693750E+01  3.7480053E+01
 1.9705252E+01  3.8301388E+01
 1.9716751E+01  3.9234509E+01
 1.9728251E+01  3.6351627E+01
 1.9739752E+01  3.4289452E+01
 1.9751251E+01  3.2621399E+01
 1.9762751E+01  2.9477434E+01
 1.9774250E+01  2.8827574E+01
 1.9785751E+01  2.7634396E+01
 1.9797251E+01  2.7438334E+01
 1.9808750E+01  2.7735857E+01
 1.9820251E+01  2.8294384E+01
 1.9831751E+01  2.9988680E+01
 1.9843250E+01  3.0579643E+01
 1.9854752E+01  3.3421642E+01
 1.9866251E+01  3.4020241E+01
 1.9877750E+01  3.3843376E+01
 1.9889252E+01  3.0651794E+01
 1.9900751E+01  2.9544716E+01
 1.9912251E+01  2.8254778E+01
 1.9923752E+01  2.6665192E+01
 1.9935251E+01  2.6040575E+01
 1.9946751E+01  2.5407957E+01
 1.9958250E+01  2.5015377E+01
 1.9969751E+01  2.4827976E+01
 1.9981251E+01  2.4556442E+01
 1.9992750E+01  2.4508696E+01
 2.0004251E+01  2.4347910E+01
 2.0015751E+01  2.4301796E+01
 2.0027250E+01  2.4230787E+01
 2.0038752E+01  2.4203678E+01
 2.0050251E+01  2.4182491E+01
 2.0061750E+01  2.4068247E+01
 2.0073252E+01  2.4011635E+01
 2.0084751E+01  2.4037214E+01
 2.0096251E+01  2.4076803E+01
 2.0107752E+01  2.4119122E+01
 2.0119251E+01  2.4077139E+01
 2.0130751E+01  2.4047642E+01
 2.0142250E+01  2.3997366E+01
 2.0153751E+01  2.3970282E+01
 2.0165251E+01  2.3926918E+01
 2.0176750E+01  2.3872623E+01
 2.0188251E+01  2.3853580E+01
 2.0199751E+01  2.3842710E+01
 2.0211250E+01  2.3822229E+01
 2.0222752E+01  2.3819664E+01
 2.0234251E+01  2.3813065E+01
 2.0245750E+01  2.3817045E+01
 2.0257252E+01  2.3796812E+01
 2.0268751E+01  2.3801298E+01
 2.0280251E+01  2.3885410E+01
 2.0291752E+01  2.3950003E+01
 2.0303251E+01  2.3936466E+01
 2.0314751E+01  2.3902418E+01
 2.0326250E+01  2.3869326E+01
 2.0337751E+01  2.3873711E+01
 2.0349251E+01  2.3863653E+01
 2.0360750E+01  2.3853849E+01
 2.0372252E+01  2.3837154E+01
 2.0383751E+01  2.3842670E+01
 2.0395250E+01  2.3856741E+01
 2.0406752E+01  2.3861521E+01
 2.0418251E+01  2.3852732E+01
 2.0429750E+01  2.3851984E+01
 2.0441252E+01  2.3848314E+01
 2.0452751E+01  2.3845942E+01
 2.0464251E+01  2.3854788E+01
 2.0475752E+01  2.3802973E+01
 2.0487251E+01  2.3778379E+01
 2.0498751E+01  2.3762291E+01
 2.0510250E+01  2.3730688E+01
 2.0521751E+01  2.3712122E+01
 2.0533251E+01  2.3730307E+01
 2.0544750E+01  2.3825100E+01
 2.0556252E+01  2.3868536E+01
 2.0567751E+01  2.3862928E+01
 2.0579250E+01  2.3873739E+01
 2.0590752E+01  2.3942009E+01
 2.0602251E+01  2.3995745E+01
 2.0613750E+01  2.3972536E+01
 2.0625252E+01  2.4027132E+01
 2.0636751E+01  2.4051237E+01
 2.0648251E+01  2.4089264E+01
 2.0659752E+01  2.4119173E+01
 2.0671251E+01  2.4174204E+01
 2.0682751E+01  2.4254158E+01
 2.0694250E+01  2.4380423E+01
 2.0705751E+01  2.4672443E+01
 2.0717251E+01  2.5022064E+01
 2.0728750E+01  2.5384930E+01
 2.0740252E+01  2.5668108E+01
 2.0751751E+01  2.5926004E+01
 2.0763250E+01  2.6135307E+01
 2.0774752E+01  2.6172550E+01
 2.0786251E+01  2.6074379E+01
 2.0797750E+01  2.5752113E+01
 2.0809252E+01  2.5347954E+01
 2.0820751E+01  2.4926647E+01
 2.0832251E+01  2.4629274E+01
 2.0843752E+01  2.4437569E+01
 2.0855251E+01  2.4288929E+01
 2.0866751E+01  2.4217539E+01
 2.0878250E+01  2.4193735E+01
 2.0889751E+01  2.4199755E+01
 2.0901251E+01  2.4215265E+01
 2.0912750E+01  2.4238781E+01
 2.0924252E+01  2.4217661E+01
 2.0935751E+01  2.4194407E+01
 2.0947250E+01  2.4198759E+01
 2.0958752E+01  2.4091778E+01
 2.0970251E+01  2.4000174E+01
 2.0981750E+01  2.3932518E+01
 2.0993252E+01  2.3943363E+01
 2.1004751E+01  2.3916794E+01
 2.1016251E+01  2.3863171E+01
 2.1027752E+01  2.3805319E+01
 2.1039251E+01  2.3803139E+01
 2.1050751E+01  2.3800541E+01
 2.1062250E+01  2.3849440E+01
 2.1073751E+01  2.3931896E+01
 2.1085251E+01  2.3982986E+01
 2.1096750E+01  2.3977915E+01
 2.1108252E+01  2.4007481E+01
 2.1119751E+01  2.4051222E+01
 2.1131250E+01  2.4108036E+01
 2.1142752E+01  2.4104618E+01
 2.1154251E+01  2.4100622E+01
 2.1165751E+01  2.4077219E+01
 2.1177252E+01  2.4086668E+01
 2.1188751E+01  2.4081642E+01
 2.1200251E+01  2.4151718E+01
 2.1211752E+01  2.4171019E+01
 2.1223251E+01  2.4149120E+01
 2.1234751E+01  2.4071901E+01
 2.1246250E+01  2.4060608E+01
 2.1257751E+01  2.4062923E+01
 2.1269251E+01  2.4125217E+01
 2.1280750E+01  2.4138620E+01
 2.1292252E+01  2.4103178E+01
 2.1303751E+01  2.4056227E+01
 2.1315250E+01  2.3972754E+01
 2.1326752E+01  2.4009602E+01
 2.1338251E+01  2.4045734E+01
 2.1349751E+01  2.4097261E+01
 2.1361252E+01  2.4116962E+01
 2.1372751E+01  2.4140646E+01
 2.1384251E+01  2.4125383E+01
 2.1395752E+01  2.4178196E+01
 2.1407251E+01  2.4198874E+01
 2.1418751E+01  2.4196743E+01
 2.1430250E+01  2.4187309E+01
 2.1441751E+01  2.4148285E+01
 2.1453251E+01  2.4107634E+01
 2.1464750E+01  2.4069212E+01
 2.1476252E+01  2.4102655E+01
 2.1487751E+01  2.4143711E+01
 2.1499250E+01  2.4160383E+01
 2.1510752E+01  2.4113674E+01
 2.1522251E+01  2.4105429E+01
 2.1533751E+01  2.4135880E+01
 2.1545252E+01  2.4253065E+01
 2.1556751E+01  2.4500597E+01
 2.1568251E+01  2.4599735E+01
 2.1579752E+01  2.4692261E+01
 2.1591251E+01  2.4444279E+01
 2.1602751E+01  2.4403706E+01
 2.1614250E+01  2.4193851E+01
 2.1625751E+01  2.4207487E+01
 2.1637251E+01  2.4194387E+01
 2.1648750E+01  2.4233778E+01
 2.1660252E+01  2.4231094E+01
 2.1671751E+01  2.4237795E+01
 2.1683250E+01  2.4191837E+01
 2.1694752E+01  2.4146301E+01
 2.1706251E+01  2.4118290E+01
 2.1717751E+01  2.4157560E+01
 2.1729252E+01  2.4198139E+01
 2.1740751E+01  2.4197906E+01
 2.1752251E+01  2.4188696E+01
 2.1763752E+01  2.4207027E+01
 2.1775251E+01  2.4221262E+01
 2.1786751E+01  2.4249153E+01
 2.1798250E+01  2.4260412E+01
 2.1809752E+01  2.4278549E+01
 2.1821251E+01  2.4302124E+01
 2.1832750E+01  2.4265820E+01
 2.1844252E+01  2.4264925E+01
 2.1855751E+01  2.4267759E+01
 2.1867250E+01  2.4274120E+01
 2.1878752E+01  2.4270952E+01
 2.1890251E+01  2.4280371E+01
 2.1901751E+01  2.4302162E+01
 2.1913252E+01  2.4322744E+01
 2.1924751E+01  2.4332146E+01
 2.1936251E+01  2.4330505E+01
 2.1947752E+01  2.4327888E+01
 2.1959251E+01  2.4359312E+01
 2.1970751E+01  2.4390955E+01
 2.1982250E+01  2.4392532E+01
 2.1993752E+01  2.4346640E+01
 2.2005251E+01  2.4344902E+01
 2.2016750E+01  2.4379665E+01
 2.2028252E+01  2.4407450E+01
 2.2039751E+01  2.4407507E+01
 2.2051250E+01  2.4421370E+01
 2.2062752E+01  2.4398378E+01
 2.2074251E+01  2.4404440E+01
 2.2085751E+01  2.4412737E+01
 2.2097252E+01  2.4429741E+01
 2.2108751E+01  2.4416265E+01
 2.2120251E+01  2.4492496E+01
 2.2131752E+01  2.4532747E+01
 2.2143251E+01  2.4583426E+01
 2.2154751E+01  2.4555508E+01
 2.2166250E+01  2.4538868E+01
 2.2177752E+01  2.4457743E+01
 2.2189251E+01  2.4425760E+01
 2.2200750E+01  2.4419394E+01
 2.2212252E+01  2.4440290E+01
 2.2223751E+01  2.4446285E+01
 2.2235250E+01  2.4465816E+01
 2.2246752E+01  2.4495630E+01
 2.2258251E+01  2.4535410E+01
 2.2269751E+01  2.4554190E+01
 2.2281252E+01  2.4578814E+01
 2.2292751E+01  2.4585989E+01
 2.2304251E+01  2.4662958E+01
 2.2315752E+01  2.4710438E+01
 2.2327251E+01  2.4704941E+01
 2.2338751E+01  2.4706097E+01
 2.2350250E+01  2.4720984E+01
 2.2361752E+01  2.4732290E+01
 2.2373251E+01  2.4713863E+01
 2.2384750E+01  2.4711546E+01
 2.2396252E+01  2.4707787E+01
 2.2407751E+01  2.4682026E+01
 2.2419250E+01  2.4644669E+01
 2.2430752E+01  2.4651581E+01
 2.2442251E+01  2.4676170E+01
 2.2453751E+01  2.4698475E+01
 2.2465252E+01  2.4698294E+01
 2.2476751E+01  2.4703444E+01
 2.2488251E+01  2.4725836E+01
 2.2499752E+01  2.4779234E+01
 2.2511251E+01  2.4857517E+01
 2.2522751E+01  2.4926493E+01
 2.2534250E+01  2.4959661E+01
 2.2545752E+01  2.4995764E+01
 2.2557251E+01  2.5014811E+01
 2.2568750E+01  2.5063501E+01
 2.2580252E+01  2.5088726E+01
 2.2591751E+01  2.5103916E+01
 2.2603251E+01  2.5072281E+01
 2.2614752E+01  2.5052496E+01
 2.2626251E+01  2.5012764E+01
 2.2637751E+01  2.5021084E+01
 2.2649252E+01  2.4989470E+01
 2.2660751E+01  2.5011703E+01
 2.2672251E+01  2.5068998E+01
 2.2683752E+01  2.5177654E+01
 2.2695251E+01  2.5306135E+01
 2.2706751E+01  2.5348078E+01
 2.2718250E+01  2.5353544E+01
 2.2729752E+01  2.5311842E+01
 2.2741251E+01  2.5336714E+01
 2.2752750E+01  2.5348890E+01
 2.2764252E+01  2.5345861E+01
 2.2775751E+01  2.5359938E+01
 2.2787251E+01  2.5332579E+01
 2.2798752E+01  2.5405128E+01
 2.2810251E+01  2.5545055E+01
 2.2821751E+01  2.5635252E+01
 2.2833252E+01  2.5697466E+01
 2.2844751E+01  2.5732283E+01
 2.2856251E+01  2.5724079E+01
 2.2867750E+01  2.5746590E+01
 2.2879251E+01  2.5794508E+01
 2.2890751E+01  2.5927736E+01
 2.2902250E+01  2.5930925E+01
 2.2913752E+01  2.6028841E+01
 2.2925251E+01  2.6115843E+01
 2.2936750E+01  2.6175802E+01
 2.2948252E+01  2.6180868E+01
 2.2959751E+01  2.6169634E+01
 2.2971251E+01  2.6263746E+01
 2.2982752E+01  2.6420216E+01
 2.2994251E+01  2.6569862E+01
