F:\20151113_APS_34IDE\\Brian\Particle1\OCV\Data_0120.tif
2-Theta Angle (Degrees)
Intensity
       2000
 5.7500005E-03  0.0000000E+00
 1.7250001E-02  0.0000000E+00
 2.8750001E-02  0.0000000E+00
 4.0250003E-02  0.0000000E+00
 5.1750004E-02  0.0000000E+00
 6.3250005E-02  0.0000000E+00
 7.4750006E-02  0.0000000E+00
 8.6250007E-02  0.0000000E+00
 9.7750008E-02  0.0000000E+00
 1.0925001E-01  0.0000000E+00
 1.2075000E-01  0.0000000E+00
 1.3225001E-01  0.0000000E+00
 1.4375001E-01  0.0000000E+00
 1.5525001E-01  0.0000000E+00
 1.6675001E-01  0.0000000E+00
 1.7825001E-01  0.0000000E+00
 1.8975002E-01  0.0000000E+00
 2.0125002E-01  0.0000000E+00
 2.1275002E-01  0.0000000E+00
 2.2425000E-01  0.0000000E+00
 2.3575000E-01  0.0000000E+00
 2.4725001E-01  0.0000000E+00
 2.5875002E-01  0.0000000E+00
 2.7025002E-01  0.0000000E+00
 2.8175002E-01  0.0000000E+00
 2.9325002E-01  0.0000000E+00
 3.0475003E-01  0.0000000E+00
 3.1625003E-01  0.0000000E+00
 3.2775003E-01  0.0000000E+00
 3.3925003E-01  0.0000000E+00
 3.5075003E-01  0.0000000E+00
 3.6225003E-01  0.0000000E+00
 3.7375003E-01  0.0000000E+00
 3.8525003E-01  0.0000000E+00
 3.9675003E-01  0.0000000E+00
 4.0825003E-01  0.0000000E+00
 4.1975003E-01  0.0000000E+00
 4.3125004E-01  0.0000000E+00
 4.4275001E-01  0.0000000E+00
 4.5425001E-01  0.0000000E+00
 4.6575001E-01  0.0000000E+00
 4.7725001E-01  0.0000000E+00
 4.8875001E-01  0.0000000E+00
 5.0025004E-01  0.0000000E+00
 5.1175004E-01  0.0000000E+00
 5.2325004E-01  0.0000000E+00
 5.3475004E-01  0.0000000E+00
 5.4625005E-01  0.0000000E+00
 5.5775005E-01  0.0000000E+00
 5.6925005E-01  0.0000000E+00
 5.8075005E-01  0.0000000E+00
 5.9225005E-01  0.0000000E+00
 6.0375005E-01  0.0000000E+00
 6.1525005E-01  0.0000000E+00
 6.2675005E-01  0.0000000E+00
 6.3825005E-01  0.0000000E+00
 6.4975005E-01  0.0000000E+00
 6.6125005E-01  0.0000000E+00
 6.7275006E-01  0.0000000E+00
 6.8425006E-01  0.0000000E+00
 6.9575006E-01  0.0000000E+00
 7.0725006E-01  0.0000000E+00
 7.1875006E-01  0.0000000E+00
 7.3025006E-01  0.0000000E+00
 7.4175006E-01  0.0000000E+00
 7.5325006E-01  0.0000000E+00
 7.6475006E-01  0.0000000E+00
 7.7625006E-01  0.0000000E+00
 7.8775007E-01  0.0000000E+00
 7.9925007E-01  0.0000000E+00
 8.1075007E-01  0.0000000E+00
 8.2225007E-01  0.0000000E+00
 8.3375007E-01  0.0000000E+00
 8.4525007E-01  0.0000000E+00
 8.5675007E-01  0.0000000E+00
 8.6825007E-01  0.0000000E+00
 8.7975001E-01  0.0000000E+00
 8.9125001E-01  0.0000000E+00
 9.0275002E-01  0.0000000E+00
 9.1425002E-01  0.0000000E+00
 9.2575002E-01  0.0000000E+00
 9.3725002E-01  0.0000000E+00
 9.4875002E-01  0.0000000E+00
 9.6025002E-01  0.0000000E+00
 9.7175002E-01  0.0000000E+00
 9.8325002E-01  0.0000000E+00
 9.9475002E-01  0.0000000E+00
 1.0062500E+00  0.0000000E+00
 1.0177500E+00  0.0000000E+00
 1.0292500E+00  0.0000000E+00
 1.0407500E+00  0.0000000E+00
 1.0522500E+00  0.0000000E+00
 1.0637500E+00  0.0000000E+00
 1.0752500E+00  0.0000000E+00
 1.0867500E+00  0.0000000E+00
 1.0982500E+00  0.0000000E+00
 1.1097500E+00  0.0000000E+00
 1.1212500E+00  0.0000000E+00
 1.1327500E+00  0.0000000E+00
 1.1442500E+00  0.0000000E+00
 1.1557500E+00  0.0000000E+00
 1.1672500E+00  0.0000000E+00
 1.1787500E+00  0.0000000E+00
 1.1902500E+00  0.0000000E+00
 1.2017500E+00  0.0000000E+00
 1.2132500E+00  0.0000000E+00
 1.2247500E+00  0.0000000E+00
 1.2362500E+00  0.0000000E+00
 1.2477500E+00  0.0000000E+00
 1.2592500E+00  0.0000000E+00
 1.2707500E+00  0.0000000E+00
 1.2822500E+00  0.0000000E+00
 1.2937500E+00  0.0000000E+00
 1.3052500E+00  0.0000000E+00
 1.3167500E+00  0.0000000E+00
 1.3282501E+00  0.0000000E+00
 1.3397501E+00  0.0000000E+00
 1.3512501E+00  0.0000000E+00
 1.3627501E+00  0.0000000E+00
 1.3742501E+00  0.0000000E+00
 1.3857501E+00  0.0000000E+00
 1.3972501E+00  0.0000000E+00
 1.4087501E+00  0.0000000E+00
 1.4202501E+00  0.0000000E+00
 1.4317501E+00  0.0000000E+00
 1.4432501E+00  0.0000000E+00
 1.4547501E+00  0.0000000E+00
 1.4662501E+00  0.0000000E+00
 1.4777501E+00  0.0000000E+00
 1.4892501E+00  0.0000000E+00
 1.5007501E+00  0.0000000E+00
 1.5122501E+00  0.0000000E+00
 1.5237501E+00  0.0000000E+00
 1.5352501E+00  0.0000000E+00
 1.5467501E+00  0.0000000E+00
 1.5582501E+00  0.0000000E+00
 1.5697501E+00  0.0000000E+00
 1.5812501E+00  0.0000000E+00
 1.5927501E+00  0.0000000E+00
 1.6042501E+00  0.0000000E+00
 1.6157501E+00  0.0000000E+00
 1.6272501E+00  0.0000000E+00
 1.6387501E+00  0.0000000E+00
 1.6502501E+00  0.0000000E+00
 1.6617501E+00  0.0000000E+00
 1.6732501E+00  0.0000000E+00
 1.6847501E+00  0.0000000E+00
 1.6962501E+00  0.0000000E+00
 1.7077501E+00  0.0000000E+00
 1.7192501E+00  0.0000000E+00
 1.7307501E+00  0.0000000E+00
 1.7422501E+00  0.0000000E+00
 1.7537501E+00  0.0000000E+00
 1.7652501E+00  0.0000000E+00
 1.7767501E+00  0.0000000E+00
 1.7882501E+00  0.0000000E+00
 1.7997501E+00  0.0000000E+00
 1.8112501E+00  0.0000000E+00
 1.8227501E+00  0.0000000E+00
 1.8342501E+00  0.0000000E+00
 1.8457501E+00  0.0000000E+00
 1.8572501E+00  0.0000000E+00
 1.8687501E+00  0.0000000E+00
 1.8802501E+00  0.0000000E+00
 1.8917501E+00  0.0000000E+00
 1.9032501E+00  0.0000000E+00
 1.9147501E+00  0.0000000E+00
 1.9262501E+00  0.0000000E+00
 1.9377501E+00  0.0000000E+00
 1.9492501E+00  0.0000000E+00
 1.9607501E+00  0.0000000E+00
 1.9722501E+00  0.0000000E+00
 1.9837501E+00  0.0000000E+00
 1.9952501E+00  0.0000000E+00
 2.0067501E+00  0.0000000E+00
 2.0182500E+00  0.0000000E+00
 2.0297501E+00  0.0000000E+00
 2.0412500E+00  0.0000000E+00
 2.0527501E+00  0.0000000E+00
 2.0642500E+00  0.0000000E+00
 2.0757501E+00  0.0000000E+00
 2.0872500E+00  0.0000000E+00
 2.0987501E+00  0.0000000E+00
 2.1102500E+00  0.0000000E+00
 2.1217501E+00  0.0000000E+00
 2.1332500E+00  0.0000000E+00
 2.1447501E+00  0.0000000E+00
 2.1562500E+00  0.0000000E+00
 2.1677501E+00  0.0000000E+00
 2.1792500E+00  0.0000000E+00
 2.1907501E+00  0.0000000E+00
 2.2022500E+00  0.0000000E+00
 2.2137501E+00  0.0000000E+00
 2.2252500E+00  0.0000000E+00
 2.2367501E+00  0.0000000E+00
 2.2482500E+00  0.0000000E+00
 2.2597501E+00  0.0000000E+00
 2.2712500E+00  0.0000000E+00
 2.2827501E+00  0.0000000E+00
 2.2942500E+00  0.0000000E+00
 2.3057501E+00  0.0000000E+00
 2.3172500E+00  0.0000000E+00
 2.3287501E+00  0.0000000E+00
 2.3402500E+00  0.0000000E+00
 2.3517501E+00  0.0000000E+00
 2.3632500E+00  0.0000000E+00
 2.3747501E+00  0.0000000E+00
 2.3862500E+00  0.0000000E+00
 2.3977501E+00  0.0000000E+00
 2.4092500E+00  0.0000000E+00
 2.4207501E+00  0.0000000E+00
 2.4322500E+00  0.0000000E+00
 2.4437501E+00  0.0000000E+00
 2.4552500E+00  0.0000000E+00
 2.4667501E+00  0.0000000E+00
 2.4782500E+00  0.0000000E+00
 2.4897501E+00  0.0000000E+00
 2.5012500E+00  0.0000000E+00
 2.5127501E+00  0.0000000E+00
 2.5242500E+00  0.0000000E+00
 2.5357502E+00  0.0000000E+00
 2.5472500E+00  0.0000000E+00
 2.5587502E+00  0.0000000E+00
 2.5702500E+00  0.0000000E+00
 2.5817502E+00  0.0000000E+00
 2.5932500E+00  0.0000000E+00
 2.6047502E+00  0.0000000E+00
 2.6162500E+00  0.0000000E+00
 2.6277502E+00  0.0000000E+00
 2.6392500E+00  0.0000000E+00
 2.6507502E+00  0.0000000E+00
 2.6622500E+00  0.0000000E+00
 2.6737502E+00  0.0000000E+00
 2.6852500E+00  0.0000000E+00
 2.6967502E+00  0.0000000E+00
 2.7082500E+00  0.0000000E+00
 2.7197502E+00  0.0000000E+00
 2.7312500E+00  0.0000000E+00
 2.7427502E+00  0.0000000E+00
 2.7542500E+00  0.0000000E+00
 2.7657502E+00  0.0000000E+00
 2.7772501E+00  0.0000000E+00
 2.7887502E+00  0.0000000E+00
 2.8002501E+00  0.0000000E+00
 2.8117502E+00  0.0000000E+00
 2.8232501E+00  3.6879040E+01
 2.8347502E+00  3.3643604E+01
 2.8462501E+00  3.3533752E+01
 2.8577502E+00  3.3802380E+01
 2.8692501E+00  3.4733650E+01
 2.8807502E+00  3.5462284E+01
 2.8922501E+00  3.5841526E+01
 2.9037502E+00  3.6188572E+01
 2.9152501E+00  3.6203037E+01
 2.9267502E+00  3.6659248E+01
 2.9382501E+00  3.6324783E+01
 2.9497502E+00  3.6396263E+01
 2.9612501E+00  3.5636745E+01
 2.9727502E+00  3.5909576E+01
 2.9842501E+00  3.5674252E+01
 2.9957502E+00  3.6215649E+01
 3.0072501E+00  3.6272957E+01
 3.0187502E+00  3.6343086E+01
 3.0302501E+00  3.5748543E+01
 3.0417502E+00  3.5174225E+01
 3.0532501E+00  3.4646111E+01
 3.0647502E+00  3.4661152E+01
 3.0762501E+00  3.5021797E+01
 3.0877502E+00  3.5303211E+01
 3.0992501E+00  3.5201595E+01
 3.1107502E+00  3.4819706E+01
 3.1222501E+00  3.4846088E+01
 3.1337502E+00  3.4668247E+01
 3.1452501E+00  3.4909916E+01
 3.1567502E+00  3.4541161E+01
 3.1682501E+00  3.4467911E+01
 3.1797502E+00  3.4102615E+01
 3.1912501E+00  3.3679829E+01
 3.2027502E+00  3.3536457E+01
 3.2142501E+00  3.3409145E+01
 3.2257502E+00  3.3617226E+01
 3.2372501E+00  3.3631706E+01
 3.2487502E+00  3.3478512E+01
 3.2602501E+00  3.3418163E+01
 3.2717502E+00  3.3570324E+01
 3.2832501E+00  3.3418152E+01
 3.2947502E+00  3.3528496E+01
 3.3062501E+00  3.3516556E+01
 3.3177502E+00  3.3923164E+01
 3.3292501E+00  3.4106750E+01
 3.3407502E+00  3.4284664E+01
 3.3522501E+00  3.4242992E+01
 3.3637502E+00  3.4122726E+01
 3.3752501E+00  3.3921162E+01
 3.3867502E+00  3.3761719E+01
 3.3982501E+00  3.3634132E+01
 3.4097502E+00  3.3395531E+01
 3.4212501E+00  3.3377983E+01
 3.4327502E+00  3.3557407E+01
 3.4442501E+00  3.3871399E+01
 3.4557502E+00  3.4146412E+01
 3.4672501E+00  3.4422466E+01
 3.4787502E+00  3.4441574E+01
 3.4902501E+00  3.4495323E+01
 3.5017502E+00  3.4178986E+01
 3.5132501E+00  3.3983086E+01
 3.5247502E+00  3.3636997E+01
 3.5362501E+00  3.3580826E+01
 3.5477502E+00  3.3385063E+01
 3.5592501E+00  3.3342964E+01
 3.5707502E+00  3.3160965E+01
 3.5822501E+00  3.3269051E+01
 3.5937502E+00  3.3225285E+01
 3.6052501E+00  3.3159267E+01
 3.6167502E+00  3.3139797E+01
 3.6282501E+00  3.3176392E+01
 3.6397502E+00  3.3088898E+01
 3.6512501E+00  3.3217056E+01
 3.6627502E+00  3.3203674E+01
 3.6742501E+00  3.3188957E+01
 3.6857502E+00  3.3173580E+01
 3.6972501E+00  3.3040962E+01
 3.7087502E+00  3.3176247E+01
 3.7202501E+00  3.3015991E+01
 3.7317502E+00  3.3292671E+01
 3.7432501E+00  3.3410313E+01
 3.7547503E+00  3.3474522E+01
 3.7662501E+00  3.3321991E+01
 3.7777503E+00  3.3321739E+01
 3.7892501E+00  3.3293716E+01
 3.8007503E+00  3.3095798E+01
 3.8122501E+00  3.3050522E+01
 3.8237503E+00  3.2787922E+01
 3.8352501E+00  3.2857208E+01
 3.8467503E+00  3.2649410E+01
 3.8582501E+00  3.2632050E+01
 3.8697503E+00  3.2534702E+01
 3.8812501E+00  3.2578865E+01
 3.8927503E+00  3.2481686E+01
 3.9042501E+00  3.2397884E+01
 3.9157503E+00  3.2262905E+01
 3.9272501E+00  3.2464046E+01
 3.9387503E+00  3.2571537E+01
 3.9502501E+00  3.2760849E+01
 3.9617503E+00  3.2626694E+01
 3.9732502E+00  3.2649155E+01
 3.9847503E+00  3.2602093E+01
 3.9962502E+00  3.2558895E+01
 4.0077500E+00  3.2636368E+01
 4.0192504E+00  3.2434299E+01
 4.0307503E+00  3.2427364E+01
 4.0422502E+00  3.2390934E+01
 4.0537500E+00  3.2451241E+01
 4.0652504E+00  3.2464676E+01
 4.0767503E+00  3.2379974E+01
 4.0882502E+00  3.2302570E+01
 4.0997500E+00  3.2404793E+01
 4.1112504E+00  3.2434113E+01
 4.1227503E+00  3.2551929E+01
 4.1342502E+00  3.2513420E+01
 4.1457500E+00  3.2522583E+01
 4.1572504E+00  3.2265842E+01
 4.1687503E+00  3.2088566E+01
 4.1802502E+00  3.1856888E+01
 4.1917500E+00  3.1933296E+01
 4.2032504E+00  3.2049252E+01
 4.2147503E+00  3.2282207E+01
 4.2262502E+00  3.2215672E+01
 4.2377501E+00  3.2154434E+01
 4.2492504E+00  3.1854673E+01
 4.2607503E+00  3.1766594E+01
 4.2722502E+00  3.1737637E+01
 4.2837501E+00  3.1838032E+01
 4.2952504E+00  3.2056702E+01
 4.3067503E+00  3.2130367E+01
 4.3182502E+00  3.2257187E+01
 4.3297501E+00  3.2262142E+01
 4.3412504E+00  3.2313488E+01
 4.3527503E+00  3.2420341E+01
 4.3642502E+00  3.2502304E+01
 4.3757501E+00  3.2596119E+01
 4.3872504E+00  3.2577679E+01
 4.3987503E+00  3.2467194E+01
 4.4102502E+00  3.2457661E+01
 4.4217501E+00  3.2418476E+01
 4.4332504E+00  3.2582066E+01
 4.4447503E+00  3.2386715E+01
 4.4562502E+00  3.2365131E+01
 4.4677501E+00  3.2171700E+01
 4.4792504E+00  3.2215427E+01
 4.4907503E+00  3.2141228E+01
 4.5022502E+00  3.2172565E+01
 4.5137501E+00  3.2181595E+01
 4.5252504E+00  3.2265793E+01
 4.5367503E+00  3.2179302E+01
 4.5482502E+00  3.2191921E+01
 4.5597501E+00  3.2048992E+01
 4.5712504E+00  3.2179386E+01
 4.5827503E+00  3.2178169E+01
 4.5942502E+00  3.2408859E+01
 4.6057501E+00  3.2370323E+01
 4.6172504E+00  3.2462639E+01
 4.6287503E+00  3.2469719E+01
 4.6402502E+00  3.2538734E+01
 4.6517501E+00  3.2733593E+01
 4.6632504E+00  3.2886421E+01
 4.6747503E+00  3.2964386E+01
 4.6862502E+00  3.2910358E+01
 4.6977501E+00  3.2826077E+01
 4.7092505E+00  3.2854244E+01
 4.7207503E+00  3.2789207E+01
 4.7322502E+00  3.2672375E+01
 4.7437501E+00  3.2477955E+01
 4.7552505E+00  3.2408066E+01
 4.7667503E+00  3.2435631E+01
 4.7782502E+00  3.2499847E+01
 4.7897501E+00  3.2547176E+01
 4.8012505E+00  3.2468441E+01
 4.8127503E+00  3.2469887E+01
 4.8242502E+00  3.2561687E+01
 4.8357501E+00  3.2570599E+01
 4.8472505E+00  3.2620605E+01
 4.8587503E+00  3.2688847E+01
 4.8702502E+00  3.2646656E+01
 4.8817501E+00  3.2600727E+01
 4.8932505E+00  3.2402088E+01
 4.9047503E+00  3.2355247E+01
 4.9162502E+00  3.2473347E+01
 4.9277501E+00  3.2496666E+01
 4.9392505E+00  3.2579914E+01
 4.9507504E+00  3.2487732E+01
 4.9622502E+00  3.2526268E+01
 4.9737501E+00  3.2584454E+01
 4.9852505E+00  3.2662754E+01
 4.9967504E+00  3.2724976E+01
 5.0082502E+00  3.2915981E+01
 5.0197501E+00  3.3142441E+01
 5.0312505E+00  3.3326492E+01
 5.0427504E+00  3.3392437E+01
 5.0542502E+00  3.3429173E+01
 5.0657501E+00  3.3442719E+01
 5.0772505E+00  3.3456993E+01
 5.0887504E+00  3.3436699E+01
 5.1002502E+00  3.3512741E+01
 5.1117501E+00  3.3429653E+01
 5.1232505E+00  3.3432571E+01
 5.1347504E+00  3.3483059E+01
 5.1462502E+00  3.3659912E+01
 5.1577501E+00  3.3795799E+01
 5.1692505E+00  3.3958229E+01
 5.1807504E+00  3.4026566E+01
 5.1922503E+00  3.4056580E+01
 5.2037501E+00  3.3914936E+01
 5.2152505E+00  3.3895393E+01
 5.2267504E+00  3.3877804E+01
 5.2382503E+00  3.3829964E+01
 5.2497501E+00  3.3808117E+01
 5.2612505E+00  3.3857304E+01
 5.2727504E+00  3.3870689E+01
 5.2842503E+00  3.3912685E+01
 5.2957501E+00  3.3966976E+01
 5.3072500E+00  3.3994617E+01
 5.3187504E+00  3.4035385E+01
 5.3302503E+00  3.3951988E+01
 5.3417501E+00  3.3939796E+01
 5.3532500E+00  3.3902744E+01
 5.3647504E+00  3.3888248E+01
 5.3762503E+00  3.4017586E+01
 5.3877501E+00  3.4165417E+01
 5.3992500E+00  3.4223267E+01
 5.4107504E+00  3.4301609E+01
 5.4222503E+00  3.4278721E+01
 5.4337502E+00  3.4289257E+01
 5.4452500E+00  3.4329124E+01
 5.4567504E+00  3.4536007E+01
 5.4682503E+00  3.4693462E+01
 5.4797502E+00  3.4732700E+01
 5.4912500E+00  3.4636028E+01
 5.5027504E+00  3.4600311E+01
 5.5142503E+00  3.4618504E+01
 5.5257502E+00  3.4660419E+01
 5.5372500E+00  3.4676880E+01
 5.5487504E+00  3.4719334E+01
 5.5602503E+00  3.4752800E+01
 5.5717502E+00  3.4812988E+01
 5.5832500E+00  3.4777851E+01
 5.5947504E+00  3.4793251E+01
 5.6062503E+00  3.4787758E+01
 5.6177502E+00  3.4876541E+01
 5.6292500E+00  3.4800892E+01
 5.6407504E+00  3.4785835E+01
 5.6522503E+00  3.4748020E+01
 5.6637502E+00  3.4891014E+01
 5.6752501E+00  3.5026081E+01
 5.6867504E+00  3.5025333E+01
 5.6982503E+00  3.5017174E+01
 5.7097502E+00  3.4932133E+01
 5.7212501E+00  3.4956116E+01
 5.7327504E+00  3.4905903E+01
 5.7442503E+00  3.4961868E+01
 5.7557502E+00  3.4951595E+01
 5.7672501E+00  3.5081673E+01
 5.7787504E+00  3.5199116E+01
 5.7902503E+00  3.5366879E+01
 5.8017502E+00  3.5433563E+01
 5.8132501E+00  3.5527992E+01
 5.8247504E+00  3.5570290E+01
 5.8362503E+00  3.5670910E+01
 5.8477502E+00  3.5686405E+01
 5.8592501E+00  3.5573837E+01
 5.8707504E+00  3.5544994E+01
 5.8822503E+00  3.5390038E+01
 5.8937502E+00  3.5455708E+01
 5.9052501E+00  3.5518867E+01
 5.9167504E+00  3.5693840E+01
 5.9282503E+00  3.5942371E+01
 5.9397502E+00  3.6248226E+01
 5.9512501E+00  3.6688057E+01
 5.9627504E+00  3.7003807E+01
 5.9742503E+00  3.7270683E+01
 5.9857502E+00  3.7438709E+01
 5.9972501E+00  3.7397186E+01
 6.0087504E+00  3.7106548E+01
 6.0202503E+00  3.6766548E+01
 6.0317502E+00  3.6594093E+01
 6.0432501E+00  3.6484249E+01
 6.0547504E+00  3.6315880E+01
 6.0662503E+00  3.6206879E+01
 6.0777502E+00  3.6214710E+01
 6.0892501E+00  3.6146904E+01
 6.1007504E+00  3.6106098E+01
 6.1122503E+00  3.6079800E+01
 6.1237502E+00  3.6107998E+01
 6.1352501E+00  3.6154041E+01
 6.1467505E+00  3.6204105E+01
 6.1582503E+00  3.6314980E+01
 6.1697502E+00  3.6431602E+01
 6.1812501E+00  3.6553043E+01
 6.1927505E+00  3.6689735E+01
 6.2042503E+00  3.6755745E+01
 6.2157502E+00  3.6804455E+01
 6.2272501E+00  3.6923717E+01
 6.2387505E+00  3.6953468E+01
 6.2502503E+00  3.7109322E+01
 6.2617502E+00  3.7098732E+01
 6.2732501E+00  3.7254730E+01
 6.2847505E+00  3.7327400E+01
 6.2962503E+00  3.7273827E+01
 6.3077502E+00  3.7286461E+01
 6.3192501E+00  3.7156967E+01
 6.3307505E+00  3.7232918E+01
 6.3422503E+00  3.7273205E+01
 6.3537502E+00  3.7372261E+01
 6.3652501E+00  3.7557297E+01
 6.3767505E+00  3.7664814E+01
 6.3882504E+00  3.7810589E+01
 6.3997502E+00  3.7939732E+01
 6.4112501E+00  3.8128319E+01
 6.4227505E+00  3.8185287E+01
 6.4342504E+00  3.8317226E+01
 6.4457502E+00  3.8272789E+01
 6.4572501E+00  3.8389347E+01
 6.4687505E+00  3.8349075E+01
 6.4802504E+00  3.8391064E+01
 6.4917502E+00  3.8605984E+01
 6.5032501E+00  3.8814877E+01
 6.5147505E+00  3.8980518E+01
 6.5262504E+00  3.9001446E+01
 6.5377502E+00  3.9029903E+01
 6.5492501E+00  3.9108318E+01
 6.5607505E+00  3.9174160E+01
 6.5722504E+00  3.9234184E+01
 6.5837502E+00  3.9331841E+01
 6.5952501E+00  3.9269238E+01
 6.6067505E+00  3.9381863E+01
 6.6182504E+00  3.9364021E+01
 6.6297503E+00  3.9541187E+01
 6.6412501E+00  3.9631302E+01
 6.6527505E+00  3.9754997E+01
 6.6642504E+00  3.9879784E+01
 6.6757503E+00  3.9932018E+01
 6.6872501E+00  3.9864380E+01
 6.6987505E+00  3.9973370E+01
 6.7102504E+00  4.0016613E+01
 6.7217503E+00  4.0205372E+01
 6.7332501E+00  4.0260769E+01
 6.7447505E+00  4.0315891E+01
 6.7562504E+00  4.0483219E+01
 6.7677503E+00  4.0561390E+01
 6.7792501E+00  4.0763119E+01
 6.7907505E+00  4.0762512E+01
 6.8022504E+00  4.0944866E+01
 6.8137503E+00  4.1046097E+01
 6.8252501E+00  4.1256493E+01
 6.8367505E+00  4.1461178E+01
 6.8482504E+00  4.1588856E+01
 6.8597503E+00  4.1665741E+01
 6.8712502E+00  4.1690926E+01
 6.8827505E+00  4.1716583E+01
 6.8942504E+00  4.1754166E+01
 6.9057503E+00  4.1657955E+01
 6.9172502E+00  4.1578060E+01
 6.9287505E+00  4.1490444E+01
 6.9402504E+00  4.1496868E+01
 6.9517503E+00  4.1435432E+01
 6.9632502E+00  4.1413136E+01
 6.9747505E+00  4.1475487E+01
 6.9862504E+00  4.1596355E+01
 6.9977503E+00  4.1670994E+01
 7.0092502E+00  4.1681660E+01
 7.0207505E+00  4.1807030E+01
 7.0322504E+00  4.1946579E+01
 7.0437503E+00  4.2127369E+01
 7.0552502E+00  4.2208237E+01
 7.0667505E+00  4.2341549E+01
 7.0782504E+00  4.2334583E+01
 7.0897503E+00  4.2328983E+01
 7.1012502E+00  4.2471436E+01
 7.1127505E+00  4.2599804E+01
 7.1242504E+00  4.2763931E+01
 7.1357503E+00  4.2793259E+01
 7.1472502E+00  4.2821289E+01
 7.1587505E+00  4.2897831E+01
 7.1702504E+00  4.2874687E+01
 7.1817503E+00  4.2984219E+01
 7.1932502E+00  4.3045380E+01
 7.2047505E+00  4.3144436E+01
 7.2162504E+00  4.3225395E+01
 7.2277503E+00  4.3241833E+01
 7.2392502E+00  4.3286785E+01
 7.2507505E+00  4.3281719E+01
 7.2622504E+00  4.3372589E+01
 7.2737503E+00  4.3404388E+01
 7.2852502E+00  4.3462475E+01
 7.2967505E+00  4.3389702E+01
 7.3082504E+00  4.3516750E+01
 7.3197503E+00  4.3506542E+01
 7.3312502E+00  4.3628601E+01
 7.3427505E+00  4.3662113E+01
 7.3542504E+00  4.3678417E+01
 7.3657503E+00  4.3720299E+01
 7.3772502E+00  4.3631992E+01
 7.3887506E+00  4.3645042E+01
 7.4002504E+00  4.3646770E+01
 7.4117503E+00  4.3697983E+01
 7.4232502E+00  4.3760094E+01
 7.4347506E+00  4.3734879E+01
 7.4462504E+00  4.3646976E+01
 7.4577503E+00  4.3617172E+01
 7.4692502E+00  4.3475788E+01
 7.4807506E+00  4.3458370E+01
 7.4922504E+00  4.3442123E+01
 7.5037503E+00  4.3604603E+01
 7.5152502E+00  4.3688080E+01
 7.5267506E+00  4.3689644E+01
 7.5382504E+00  4.3708584E+01
 7.5497503E+00  4.3655117E+01
 7.5612502E+00  4.3776585E+01
 7.5727506E+00  4.3873413E+01
 7.5842505E+00  4.4026588E+01
 7.5957503E+00  4.4142174E+01
 7.6072502E+00  4.4120686E+01
 7.6187506E+00  4.4143108E+01
 7.6302505E+00  4.4039177E+01
 7.6417503E+00  4.4025658E+01
 7.6532502E+00  4.3932587E+01
 7.6647506E+00  4.3844013E+01
 7.6762505E+00  4.3685150E+01
 7.6877503E+00  4.3620789E+01
 7.6992502E+00  4.3579819E+01
 7.7107506E+00  4.3718334E+01
 7.7222505E+00  4.3759109E+01
 7.7337503E+00  4.3850700E+01
 7.7452502E+00  4.3835472E+01
 7.7567506E+00  4.3989250E+01
 7.7682505E+00  4.4062378E+01
 7.7797503E+00  4.4118557E+01
 7.7912502E+00  4.4124332E+01
 7.8027506E+00  4.4163193E+01
 7.8142505E+00  4.4080006E+01
 7.8257504E+00  4.4022160E+01
 7.8372502E+00  4.3958908E+01
 7.8487506E+00  4.3947620E+01
 7.8602505E+00  4.3931061E+01
 7.8717504E+00  4.3850071E+01
 7.8832502E+00  4.3811565E+01
 7.8947506E+00  4.3698147E+01
 7.9062505E+00  4.3710381E+01
 7.9177504E+00  4.3701809E+01
 7.9292502E+00  4.3626366E+01
 7.9407506E+00  4.3469990E+01
 7.9522505E+00  4.3306248E+01
 7.9637504E+00  4.3175220E+01
 7.9752502E+00  4.3019398E+01
 7.9867506E+00  4.2871841E+01
 7.9982505E+00  4.2887234E+01
 8.0097504E+00  4.2786457E+01
 8.0212507E+00  4.2811588E+01
 8.0327501E+00  4.2771358E+01
 8.0442505E+00  4.2807922E+01
 8.0557508E+00  4.2756550E+01
 8.0672503E+00  4.2601910E+01
 8.0787506E+00  4.2510246E+01
 8.0902500E+00  4.2400322E+01
 8.1017504E+00  4.2265411E+01
 8.1132507E+00  4.2231472E+01
 8.1247501E+00  4.2116886E+01
 8.1362505E+00  4.2052242E+01
 8.1477509E+00  4.1900826E+01
 8.1592503E+00  4.1771461E+01
 8.1707506E+00  4.1720577E+01
 8.1822500E+00  4.1567055E+01
 8.1937504E+00  4.1547859E+01
 8.2052507E+00  4.1539589E+01
 8.2167501E+00  4.1471191E+01
 8.2282505E+00  4.1387066E+01
 8.2397509E+00  4.1137199E+01
 8.2512503E+00  4.1001133E+01
 8.2627506E+00  4.0754517E+01
 8.2742500E+00  4.0566376E+01
 8.2857504E+00  4.0379963E+01
 8.2972507E+00  4.0264797E+01
 8.3087502E+00  4.0202888E+01
 8.3202505E+00  4.0162289E+01
 8.3317509E+00  4.0052326E+01
 8.3432503E+00  3.9947887E+01
 8.3547506E+00  3.9744064E+01
 8.3662500E+00  3.9556023E+01
 8.3777504E+00  3.9322399E+01
 8.3892508E+00  3.9114628E+01
 8.4007502E+00  3.8981400E+01
 8.4122505E+00  3.8843651E+01
 8.4237509E+00  3.8699017E+01
 8.4352503E+00  3.8523758E+01
 8.4467506E+00  3.8313026E+01
 8.4582500E+00  3.8210045E+01
 8.4697504E+00  3.8135071E+01
 8.4812508E+00  3.8046597E+01
 8.4927502E+00  3.7893108E+01
 8.5042505E+00  3.7711647E+01
 8.5157509E+00  3.7573914E+01
 8.5272503E+00  3.7393505E+01
 8.5387506E+00  3.7247044E+01
 8.5502501E+00  3.7032337E+01
 8.5617504E+00  3.6817711E+01
 8.5732508E+00  3.6657364E+01
 8.5847502E+00  3.6438961E+01
 8.5962505E+00  3.6301758E+01
 8.6077509E+00  3.6064331E+01
 8.6192503E+00  3.5940754E+01
 8.6307507E+00  3.5724895E+01
 8.6422501E+00  3.5517719E+01
 8.6537504E+00  3.5389965E+01
 8.6652508E+00  3.5188309E+01
 8.6767502E+00  3.5036682E+01
 8.6882505E+00  3.4752098E+01
 8.6997509E+00  3.4642002E+01
 8.7112503E+00  3.4410568E+01
 8.7227507E+00  3.4275890E+01
 8.7342501E+00  3.4127895E+01
 8.7457504E+00  3.3967468E+01
 8.7572508E+00  3.3813885E+01
 8.7687502E+00  3.3627510E+01
 8.7802505E+00  3.3511082E+01
 8.7917500E+00  3.3287479E+01
 8.8032503E+00  3.3065536E+01
 8.8147507E+00  3.2890179E+01
 8.8262501E+00  3.2801136E+01
 8.8377504E+00  3.2733612E+01
 8.8492508E+00  3.2671051E+01
 8.8607502E+00  3.2508804E+01
 8.8722506E+00  3.2302841E+01
 8.8837500E+00  3.2061684E+01
 8.8952503E+00  3.1835695E+01
 8.9067507E+00  3.1626787E+01
 8.9182501E+00  3.1419559E+01
 8.9297504E+00  3.1272627E+01
 8.9412508E+00  3.1077639E+01
 8.9527502E+00  3.0895889E+01
 8.9642506E+00  3.0733540E+01
 8.9757500E+00  3.0594706E+01
 8.9872503E+00  3.0486765E+01
 8.9987507E+00  3.0351244E+01
 9.0102501E+00  3.0265472E+01
 9.0217505E+00  3.0156916E+01
 9.0332508E+00  3.0074768E+01
 9.0447502E+00  2.9958614E+01
 9.0562506E+00  2.9891321E+01
 9.0677500E+00  2.9813677E+01
 9.0792503E+00  2.9663721E+01
 9.0907507E+00  2.9500956E+01
 9.1022501E+00  2.9361460E+01
 9.1137505E+00  2.9279526E+01
 9.1252508E+00  2.9174107E+01
 9.1367502E+00  2.9034147E+01
 9.1482506E+00  2.8987337E+01
 9.1597500E+00  2.8948572E+01
 9.1712503E+00  2.8861652E+01
 9.1827507E+00  2.8694710E+01
 9.1942501E+00  2.8538639E+01
 9.2057505E+00  2.8362160E+01
 9.2172508E+00  2.8194937E+01
 9.2287502E+00  2.7969196E+01
 9.2402506E+00  2.7851599E+01
 9.2517500E+00  2.7761496E+01
 9.2632504E+00  2.7710381E+01
 9.2747507E+00  2.7644936E+01
 9.2862501E+00  2.7557089E+01
 9.2977505E+00  2.7460789E+01
 9.3092508E+00  2.7314024E+01
 9.3207502E+00  2.7183607E+01
 9.3322506E+00  2.6993256E+01
 9.3437500E+00  2.6853664E+01
 9.3552504E+00  2.6715687E+01
 9.3667507E+00  2.6676594E+01
 9.3782501E+00  2.6631123E+01
 9.3897505E+00  2.6633591E+01
 9.4012508E+00  2.6607624E+01
 9.4127502E+00  2.6523766E+01
 9.4242506E+00  2.6427113E+01
 9.4357500E+00  2.6375134E+01
 9.4472504E+00  2.6351349E+01
 9.4587507E+00  2.6347000E+01
 9.4702501E+00  2.6319635E+01
 9.4817505E+00  2.6336945E+01
 9.4932508E+00  2.6213078E+01
 9.5047503E+00  2.6087788E+01
 9.5162506E+00  2.5970306E+01
 9.5277500E+00  2.5938948E+01
 9.5392504E+00  2.5918953E+01
 9.5507507E+00  2.5847260E+01
 9.5622501E+00  2.5756393E+01
 9.5737505E+00  2.5644718E+01
 9.5852509E+00  2.5474949E+01
 9.5967503E+00  2.5438437E+01
 9.6082506E+00  2.5355719E+01
 9.6197500E+00  2.5360155E+01
 9.6312504E+00  2.5226793E+01
 9.6427507E+00  2.5121332E+01
 9.6542501E+00  2.4978260E+01
 9.6657505E+00  2.4953318E+01
 9.6772509E+00  2.4884567E+01
 9.6887503E+00  2.4909529E+01
 9.7002506E+00  2.4843418E+01
 9.7117500E+00  2.4897766E+01
 9.7232504E+00  2.4861727E+01
 9.7347507E+00  2.4810282E+01
 9.7462502E+00  2.4764572E+01
 9.7577505E+00  2.4703020E+01
 9.7692509E+00  2.4701559E+01
 9.7807503E+00  2.4673141E+01
 9.7922506E+00  2.4623255E+01
 9.8037500E+00  2.4627375E+01
 9.8152504E+00  2.4552046E+01
 9.8267508E+00  2.4513517E+01
 9.8382502E+00  2.4484720E+01
 9.8497505E+00  2.4451265E+01
 9.8612509E+00  2.4410009E+01
 9.8727503E+00  2.4284456E+01
 9.8842506E+00  2.4202736E+01
 9.8957500E+00  2.4143133E+01
 9.9072504E+00  2.4110966E+01
 9.9187508E+00  2.4048086E+01
 9.9302502E+00  2.4101131E+01
 9.9417505E+00  2.4151770E+01
 9.9532509E+00  2.4184975E+01
 9.9647503E+00  2.4166212E+01
 9.9762506E+00  2.4142513E+01
 9.9877501E+00  2.4105198E+01
 9.9992504E+00  2.4098980E+01
 1.0010751E+01  2.4087793E+01
 1.0022250E+01  2.4137716E+01
 1.0033751E+01  2.4127604E+01
 1.0045251E+01  2.4099684E+01
 1.0056750E+01  2.4000389E+01
 1.0068251E+01  2.3910292E+01
 1.0079750E+01  2.3799599E+01
 1.0091250E+01  2.3721083E+01
 1.0102751E+01  2.3663733E+01
 1.0114250E+01  2.3576427E+01
 1.0125751E+01  2.3573719E+01
 1.0137251E+01  2.3573088E+01
 1.0148750E+01  2.3647942E+01
 1.0160251E+01  2.3659967E+01
 1.0171750E+01  2.3659395E+01
 1.0183250E+01  2.3615591E+01
 1.0194751E+01  2.3485151E+01
 1.0206250E+01  2.3417875E+01
 1.0217751E+01  2.3365986E+01
 1.0229251E+01  2.3404705E+01
 1.0240750E+01  2.3388735E+01
 1.0252251E+01  2.3332943E+01
 1.0263750E+01  2.3291040E+01
 1.0275250E+01  2.3200766E+01
 1.0286751E+01  2.3185503E+01
 1.0298250E+01  2.3173176E+01
 1.0309751E+01  2.3217733E+01
 1.0321251E+01  2.3225800E+01
 1.0332750E+01  2.3246668E+01
 1.0344251E+01  2.3252613E+01
 1.0355750E+01  2.3252357E+01
 1.0367250E+01  2.3179293E+01
 1.0378751E+01  2.3133886E+01
 1.0390250E+01  2.3101120E+01
 1.0401751E+01  2.3118517E+01
 1.0413251E+01  2.3078409E+01
 1.0424750E+01  2.2997452E+01
 1.0436251E+01  2.2933830E+01
 1.0447750E+01  2.2862106E+01
 1.0459250E+01  2.2881830E+01
 1.0470751E+01  2.2891651E+01
 1.0482250E+01  2.2979279E+01
 1.0493751E+01  2.3036066E+01
 1.0505251E+01  2.3008135E+01
 1.0516750E+01  2.2983395E+01
 1.0528251E+01  2.2880276E+01
 1.0539750E+01  2.2889429E+01
 1.0551250E+01  2.2867189E+01
 1.0562751E+01  2.2931202E+01
 1.0574250E+01  2.2926537E+01
 1.0585751E+01  2.2931200E+01
 1.0597251E+01  2.2867077E+01
 1.0608750E+01  2.2820681E+01
 1.0620251E+01  2.2793949E+01
 1.0631750E+01  2.2803761E+01
 1.0643250E+01  2.2837280E+01
 1.0654751E+01  2.2829466E+01
 1.0666250E+01  2.2787819E+01
 1.0677751E+01  2.2697117E+01
 1.0689251E+01  2.2640518E+01
 1.0700750E+01  2.2612503E+01
 1.0712251E+01  2.2615492E+01
 1.0723750E+01  2.2591209E+01
 1.0735250E+01  2.2580055E+01
 1.0746751E+01  2.2592411E+01
 1.0758250E+01  2.2637728E+01
 1.0769751E+01  2.2676538E+01
 1.0781251E+01  2.2694160E+01
 1.0792750E+01  2.2634600E+01
 1.0804251E+01  2.2548811E+01
 1.0815750E+01  2.2453730E+01
 1.0827250E+01  2.2436571E+01
 1.0838751E+01  2.2421112E+01
 1.0850250E+01  2.2436731E+01
 1.0861751E+01  2.2432642E+01
 1.0873251E+01  2.2413816E+01
 1.0884750E+01  2.2381784E+01
 1.0896251E+01  2.2329819E+01
 1.0907750E+01  2.2362936E+01
 1.0919250E+01  2.2388447E+01
 1.0930751E+01  2.2434301E+01
 1.0942250E+01  2.2438417E+01
 1.0953751E+01  2.2453512E+01
 1.0965251E+01  2.2429228E+01
 1.0976750E+01  2.2452322E+01
 1.0988251E+01  2.2410595E+01
 1.0999750E+01  2.2392939E+01
 1.1011250E+01  2.2317238E+01
 1.1022751E+01  2.2289787E+01
 1.1034250E+01  2.2264267E+01
 1.1045751E+01  2.2272684E+01
 1.1057251E+01  2.2261244E+01
 1.1068750E+01  2.2305487E+01
 1.1080251E+01  2.2282326E+01
 1.1091750E+01  2.2267145E+01
 1.1103251E+01  2.2217953E+01
 1.1114751E+01  2.2226286E+01
 1.1126250E+01  2.2237209E+01
 1.1137751E+01  2.2190165E+01
 1.1149251E+01  2.2161882E+01
 1.1160750E+01  2.2124842E+01
 1.1172251E+01  2.2130877E+01
 1.1183750E+01  2.2098892E+01
 1.1195251E+01  2.2116247E+01
 1.1206751E+01  2.2139824E+01
 1.1218250E+01  2.2159525E+01
 1.1229751E+01  2.2175041E+01
 1.1241251E+01  2.2167627E+01
 1.1252750E+01  2.2185537E+01
 1.1264251E+01  2.2188047E+01
 1.1275750E+01  2.2168547E+01
 1.1287251E+01  2.2067459E+01
 1.1298751E+01  2.2011238E+01
 1.1310250E+01  2.1999487E+01
 1.1321751E+01  2.2061834E+01
 1.1333251E+01  2.2050741E+01
 1.1344750E+01  2.2010012E+01
 1.1356251E+01  2.1993389E+01
 1.1367750E+01  2.1964172E+01
 1.1379251E+01  2.1965704E+01
 1.1390751E+01  2.1961718E+01
 1.1402250E+01  2.2078211E+01
 1.1413751E+01  2.2079990E+01
 1.1425251E+01  2.2063574E+01
 1.1436750E+01  2.2014139E+01
 1.1448251E+01  2.2044458E+01
 1.1459750E+01  2.2097328E+01
 1.1471251E+01  2.2065861E+01
 1.1482751E+01  2.2082830E+01
 1.1494250E+01  2.2034142E+01
 1.1505751E+01  2.2028379E+01
 1.1517251E+01  2.2023619E+01
 1.1528750E+01  2.2086901E+01
 1.1540251E+01  2.2171240E+01
 1.1551750E+01  2.2255960E+01
 1.1563251E+01  2.2366402E+01
 1.1574751E+01  2.2503651E+01
 1.1586250E+01  2.2567968E+01
 1.1597751E+01  2.2580990E+01
 1.1609251E+01  2.2543322E+01
 1.1620750E+01  2.2469431E+01
 1.1632251E+01  2.2398247E+01
 1.1643750E+01  2.2301882E+01
 1.1655251E+01  2.2276939E+01
 1.1666751E+01  2.2213301E+01
 1.1678250E+01  2.2142185E+01
 1.1689751E+01  2.2051750E+01
 1.1701251E+01  2.1974947E+01
 1.1712750E+01  2.1865496E+01
 1.1724251E+01  2.1811520E+01
 1.1735750E+01  2.1792953E+01
 1.1747251E+01  2.1821499E+01
 1.1758751E+01  2.1853048E+01
 1.1770250E+01  2.1768877E+01
 1.1781751E+01  2.1763456E+01
 1.1793251E+01  2.1754580E+01
 1.1804750E+01  2.1882977E+01
 1.1816251E+01  2.1945389E+01
 1.1827750E+01  2.2044056E+01
 1.1839251E+01  2.2097260E+01
 1.1850751E+01  2.2180363E+01
 1.1862250E+01  2.2214630E+01
 1.1873751E+01  2.2197500E+01
 1.1885251E+01  2.2159849E+01
 1.1896750E+01  2.2101160E+01
 1.1908251E+01  2.2121931E+01
 1.1919750E+01  2.2140316E+01
 1.1931251E+01  2.2174152E+01
 1.1942751E+01  2.2213385E+01
 1.1954250E+01  2.2199591E+01
 1.1965751E+01  2.2195423E+01
 1.1977251E+01  2.2189056E+01
 1.1988750E+01  2.2236553E+01
 1.2000251E+01  2.2250050E+01
 1.2011750E+01  2.2230648E+01
 1.2023251E+01  2.2196194E+01
 1.2034751E+01  2.2192204E+01
 1.2046250E+01  2.2254543E+01
 1.2057751E+01  2.2298418E+01
 1.2069251E+01  2.2539104E+01
 1.2080750E+01  2.2570148E+01
 1.2092251E+01  2.2593094E+01
 1.2103750E+01  2.2416685E+01
 1.2115251E+01  2.2359592E+01
 1.2126751E+01  2.2343643E+01
 1.2138250E+01  2.2326202E+01
 1.2149751E+01  2.2342981E+01
 1.2161251E+01  2.2368530E+01
 1.2172750E+01  2.2360275E+01
 1.2184251E+01  2.2295740E+01
 1.2195750E+01  2.2184589E+01
 1.2207251E+01  2.2074306E+01
 1.2218751E+01  2.2016870E+01
 1.2230250E+01  2.1974686E+01
 1.2241751E+01  2.1904398E+01
 1.2253251E+01  2.1846123E+01
 1.2264750E+01  2.1847965E+01
 1.2276251E+01  2.1890762E+01
 1.2287750E+01  2.2001272E+01
 1.2299251E+01  2.2089741E+01
 1.2310751E+01  2.2200916E+01
 1.2322250E+01  2.2223705E+01
 1.2333751E+01  2.2230515E+01
 1.2345250E+01  2.2177441E+01
 1.2356750E+01  2.2193895E+01
 1.2368251E+01  2.2152693E+01
 1.2379750E+01  2.2200155E+01
 1.2391251E+01  2.2188519E+01
 1.2402751E+01  2.2215679E+01
 1.2414250E+01  2.2203903E+01
 1.2425751E+01  2.2209303E+01
 1.2437250E+01  2.2247814E+01
 1.2448750E+01  2.2260717E+01
 1.2460251E+01  2.2262320E+01
 1.2471750E+01  2.2248369E+01
 1.2483251E+01  2.2236061E+01
 1.2494751E+01  2.2240398E+01
 1.2506250E+01  2.2213549E+01
 1.2517751E+01  2.2243479E+01
 1.2529250E+01  2.2290005E+01
 1.2540751E+01  2.2325916E+01
 1.2552251E+01  2.2374706E+01
 1.2563750E+01  2.2358572E+01
 1.2575251E+01  2.2381264E+01
 1.2586751E+01  2.2391275E+01
 1.2598250E+01  2.2419106E+01
 1.2609751E+01  2.2489468E+01
 1.2621250E+01  2.2555588E+01
 1.2632751E+01  2.2577461E+01
 1.2644251E+01  2.2512167E+01
 1.2655750E+01  2.2441319E+01
 1.2667251E+01  2.2483149E+01
 1.2678751E+01  2.2512531E+01
 1.2690250E+01  2.2529705E+01
 1.2701751E+01  2.2553549E+01
 1.2713250E+01  2.2661974E+01
 1.2724751E+01  2.2698372E+01
 1.2736251E+01  2.2685064E+01
 1.2747750E+01  2.2667149E+01
 1.2759251E+01  2.2698744E+01
 1.2770751E+01  2.2733082E+01
 1.2782250E+01  2.2811865E+01
 1.2793751E+01  2.2825148E+01
 1.2805250E+01  2.2896275E+01
 1.2816751E+01  2.2867941E+01
 1.2828251E+01  2.2923580E+01
 1.2839750E+01  2.2879919E+01
 1.2851251E+01  2.2883423E+01
 1.2862751E+01  2.2858658E+01
 1.2874250E+01  2.2932692E+01
 1.2885751E+01  2.3016151E+01
 1.2897250E+01  2.3092573E+01
 1.2908751E+01  2.3123739E+01
 1.2920251E+01  2.3137436E+01
 1.2931750E+01  2.3203444E+01
 1.2943251E+01  2.3256273E+01
 1.2954751E+01  2.3330395E+01
 1.2966250E+01  2.3410749E+01
 1.2977751E+01  2.3485596E+01
 1.2989250E+01  2.3501848E+01
 1.3000751E+01  2.3493019E+01
 1.3012251E+01  2.3507725E+01
 1.3023750E+01  2.3583988E+01
 1.3035251E+01  2.3675371E+01
 1.3046751E+01  2.3739914E+01
 1.3058250E+01  2.3792223E+01
 1.3069751E+01  2.3832205E+01
 1.3081250E+01  2.3912682E+01
 1.3092751E+01  2.4014311E+01
 1.3104251E+01  2.4190527E+01
 1.3115750E+01  2.4324766E+01
 1.3127251E+01  2.4481644E+01
 1.3138751E+01  2.4573515E+01
 1.3150250E+01  2.4741999E+01
 1.3161751E+01  2.4879215E+01
 1.3173250E+01  2.5034630E+01
 1.3184751E+01  2.5155140E+01
 1.3196251E+01  2.5309296E+01
 1.3207750E+01  2.5473013E+01
 1.3219251E+01  2.5635132E+01
 1.3230751E+01  2.5796070E+01
 1.3242250E+01  2.5948837E+01
 1.3253751E+01  2.6067949E+01
 1.3265250E+01  2.6202888E+01
 1.3276751E+01  2.6318485E+01
 1.3288251E+01  2.6510971E+01
 1.3299750E+01  2.6665430E+01
 1.3311251E+01  2.6827635E+01
 1.3322751E+01  2.6945343E+01
 1.3334250E+01  2.7117268E+01
 1.3345751E+01  2.7262302E+01
 1.3357250E+01  2.7418486E+01
 1.3368751E+01  2.7527660E+01
 1.3380251E+01  2.7662756E+01
 1.3391750E+01  2.7857718E+01
 1.3403251E+01  2.8042229E+01
 1.3414751E+01  2.8201351E+01
 1.3426250E+01  2.8191999E+01
 1.3437751E+01  2.8190670E+01
 1.3449250E+01  2.8197264E+01
 1.3460751E+01  2.8292313E+01
 1.3472251E+01  2.8320566E+01
 1.3483750E+01  2.8469774E+01
 1.3495251E+01  2.8578156E+01
 1.3506751E+01  2.8784201E+01
 1.3518250E+01  2.8878960E+01
 1.3529751E+01  2.8960443E+01
 1.3541250E+01  2.8997906E+01
 1.3552751E+01  2.9039721E+01
 1.3564251E+01  2.9099850E+01
 1.3575750E+01  2.9141523E+01
 1.3587251E+01  2.9189667E+01
 1.3598751E+01  2.9278484E+01
 1.3610250E+01  2.9305552E+01
 1.3621751E+01  2.9320549E+01
 1.3633250E+01  2.9300007E+01
 1.3644751E+01  2.9311991E+01
 1.3656251E+01  2.9290792E+01
 1.3667750E+01  2.9336954E+01
 1.3679251E+01  2.9290310E+01
 1.3690751E+01  2.9274956E+01
 1.3702250E+01  2.9131556E+01
 1.3713751E+01  2.9095774E+01
 1.3725250E+01  2.8989077E+01
 1.3736751E+01  2.8964954E+01
 1.3748251E+01  2.8882145E+01
 1.3759750E+01  2.8847706E+01
 1.3771251E+01  2.8802181E+01
 1.3782751E+01  2.8785746E+01
 1.3794250E+01  2.8719864E+01
 1.3805751E+01  2.8629814E+01
 1.3817250E+01  2.8553303E+01
 1.3828751E+01  2.8503616E+01
 1.3840251E+01  2.8457815E+01
 1.3851750E+01  2.8463861E+01
 1.3863251E+01  2.8481998E+01
 1.3874751E+01  2.8480940E+01
 1.3886250E+01  2.8467325E+01
 1.3897751E+01  2.8537317E+01
 1.3909250E+01  2.8583862E+01
 1.3920751E+01  2.8650597E+01
 1.3932251E+01  2.8673096E+01
 1.3943750E+01  2.8730234E+01
 1.3955251E+01  2.8700914E+01
 1.3966751E+01  2.8608799E+01
 1.3978251E+01  2.8430134E+01
 1.3989751E+01  2.8208553E+01
 1.4001250E+01  2.7971628E+01
 1.4012751E+01  2.7746567E+01
 1.4024251E+01  2.7482918E+01
 1.4035750E+01  2.7282518E+01
 1.4047251E+01  2.7139627E+01
 1.4058751E+01  2.7105127E+01
 1.4070251E+01  2.7052366E+01
 1.4081751E+01  2.6984430E+01
 1.4093250E+01  2.6947872E+01
 1.4104751E+01  2.6891796E+01
 1.4116251E+01  2.6893112E+01
 1.4127750E+01  2.6882784E+01
 1.4139251E+01  2.6867435E+01
 1.4150751E+01  2.6776701E+01
 1.4162251E+01  2.6649824E+01
 1.4173751E+01  2.6488823E+01
 1.4185250E+01  2.6372028E+01
 1.4196751E+01  2.6306646E+01
 1.4208251E+01  2.6280268E+01
 1.4219750E+01  2.6208273E+01
 1.4231251E+01  2.6117741E+01
 1.4242751E+01  2.6057386E+01
 1.4254251E+01  2.5989819E+01
 1.4265751E+01  2.5964897E+01
 1.4277250E+01  2.5913877E+01
 1.4288751E+01  2.5894735E+01
 1.4300251E+01  2.5870049E+01
 1.4311750E+01  2.5893770E+01
 1.4323251E+01  2.5854118E+01
 1.4334751E+01  2.5817280E+01
 1.4346251E+01  2.5777636E+01
 1.4357751E+01  2.5786198E+01
 1.4369250E+01  2.5805359E+01
 1.4380751E+01  2.5775509E+01
 1.4392251E+01  2.5708132E+01
 1.4403750E+01  2.5601685E+01
 1.4415251E+01  2.5526438E+01
 1.4426751E+01  2.5449209E+01
 1.4438251E+01  2.5351315E+01
 1.4449751E+01  2.5305855E+01
 1.4461250E+01  2.5272005E+01
 1.4472751E+01  2.5244228E+01
 1.4484251E+01  2.5201002E+01
 1.4495750E+01  2.5243383E+01
 1.4507251E+01  2.5288563E+01
 1.4518751E+01  2.5310358E+01
 1.4530251E+01  2.5267765E+01
 1.4541751E+01  2.5208937E+01
 1.4553250E+01  2.5197952E+01
 1.4564751E+01  2.5216154E+01
 1.4576251E+01  2.5234507E+01
 1.4587750E+01  2.5189518E+01
 1.4599251E+01  2.5115505E+01
 1.4610751E+01  2.5098022E+01
 1.4622251E+01  2.5078342E+01
 1.4633751E+01  2.5034182E+01
 1.4645250E+01  2.4974810E+01
 1.4656751E+01  2.4875286E+01
 1.4668251E+01  2.4820431E+01
 1.4679750E+01  2.4755585E+01
 1.4691251E+01  2.4737116E+01
 1.4702751E+01  2.4737995E+01
 1.4714251E+01  2.4760984E+01
 1.4725751E+01  2.4781202E+01
 1.4737250E+01  2.4744501E+01
 1.4748751E+01  2.4677015E+01
 1.4760251E+01  2.4683718E+01
 1.4771750E+01  2.4723675E+01
 1.4783251E+01  2.4740021E+01
 1.4794751E+01  2.4722162E+01
 1.4806251E+01  2.4682222E+01
 1.4817751E+01  2.4656342E+01
 1.4829250E+01  2.4597746E+01
 1.4840751E+01  2.4567406E+01
 1.4852251E+01  2.4557344E+01
 1.4863750E+01  2.4511766E+01
 1.4875251E+01  2.4473574E+01
 1.4886751E+01  2.4447586E+01
 1.4898251E+01  2.4455637E+01
 1.4909751E+01  2.4445183E+01
 1.4921250E+01  2.4388411E+01
 1.4932751E+01  2.4387705E+01
 1.4944251E+01  2.4395905E+01
 1.4955750E+01  2.4410494E+01
 1.4967251E+01  2.4418982E+01
 1.4978751E+01  2.4456936E+01
 1.4990251E+01  2.4494654E+01
 1.5001751E+01  2.4500683E+01
 1.5013250E+01  2.4525368E+01
 1.5024751E+01  2.4604008E+01
 1.5036251E+01  2.4603006E+01
 1.5047750E+01  2.4601154E+01
 1.5059251E+01  2.4579849E+01
 1.5070751E+01  2.4525661E+01
 1.5082251E+01  2.4443249E+01
 1.5093751E+01  2.4391836E+01
 1.5105250E+01  2.4416971E+01
 1.5116751E+01  2.4397097E+01
 1.5128251E+01  2.4370646E+01
 1.5139750E+01  2.4346695E+01
 1.5151251E+01  2.4400221E+01
 1.5162751E+01  2.4438469E+01
 1.5174251E+01  2.4494423E+01
 1.5185751E+01  2.4458054E+01
 1.5197250E+01  2.4467104E+01
 1.5208751E+01  2.4447309E+01
 1.5220251E+01  2.4476507E+01
 1.5231750E+01  2.4468111E+01
 1.5243251E+01  2.4426596E+01
 1.5254751E+01  2.4390890E+01
 1.5266251E+01  2.4254118E+01
 1.5277751E+01  2.4231339E+01
 1.5289250E+01  2.4243052E+01
 1.5300751E+01  2.4265400E+01
 1.5312251E+01  2.4268858E+01
 1.5323750E+01  2.4212988E+01
 1.5335251E+01  2.4187641E+01
 1.5346751E+01  2.4130083E+01
 1.5358251E+01  2.4139133E+01
 1.5369751E+01  2.4199553E+01
 1.5381250E+01  2.4179289E+01
 1.5392751E+01  2.4161222E+01
 1.5404251E+01  2.4144323E+01
 1.5415751E+01  2.4178980E+01
 1.5427251E+01  2.4178110E+01
 1.5438751E+01  2.4147377E+01
 1.5450251E+01  2.4083078E+01
 1.5461751E+01  2.4076992E+01
 1.5473250E+01  2.4020597E+01
 1.5484751E+01  2.4048244E+01
 1.5496251E+01  2.4034878E+01
 1.5507751E+01  2.4066572E+01
 1.5519251E+01  2.4045609E+01
 1.5530751E+01  2.4020815E+01
 1.5542251E+01  2.4021969E+01
 1.5553751E+01  2.4006540E+01
 1.5565250E+01  2.4041616E+01
 1.5576751E+01  2.4032892E+01
 1.5588251E+01  2.4052462E+01
 1.5599751E+01  2.4070787E+01
 1.5611251E+01  2.4103971E+01
 1.5622751E+01  2.4090868E+01
 1.5634251E+01  2.4056629E+01
 1.5645751E+01  2.4053469E+01
 1.5657250E+01  2.4103767E+01
 1.5668751E+01  2.4174820E+01
 1.5680251E+01  2.4189156E+01
 1.5691751E+01  2.4229893E+01
 1.5703251E+01  2.4208199E+01
 1.5714751E+01  2.4227005E+01
 1.5726251E+01  2.4192923E+01
 1.5737751E+01  2.4161974E+01
 1.5749250E+01  2.4182047E+01
 1.5760751E+01  2.4185129E+01
 1.5772251E+01  2.4217688E+01
 1.5783751E+01  2.4202990E+01
 1.5795251E+01  2.4197134E+01
 1.5806751E+01  2.4254351E+01
 1.5818251E+01  2.4245119E+01
 1.5829751E+01  2.4260792E+01
 1.5841250E+01  2.4198608E+01
 1.5852751E+01  2.4213575E+01
 1.5864251E+01  2.4201817E+01
 1.5875751E+01  2.4249146E+01
 1.5887251E+01  2.4297377E+01
 1.5898750E+01  2.4368614E+01
 1.5910251E+01  2.4369946E+01
 1.5921751E+01  2.4403505E+01
 1.5933250E+01  2.4417639E+01
 1.5944751E+01  2.4376722E+01
 1.5956251E+01  2.4295753E+01
 1.5967751E+01  2.4230803E+01
 1.5979251E+01  2.4188543E+01
 1.5990750E+01  2.4213732E+01
 1.6002251E+01  2.4211107E+01
 1.6013750E+01  2.4300041E+01
 1.6025251E+01  2.4352432E+01
 1.6036751E+01  2.4393469E+01
 1.6048250E+01  2.4440968E+01
 1.6059752E+01  2.4443449E+01
 1.6071251E+01  2.4425205E+01
 1.6082750E+01  2.4385983E+01
 1.6094252E+01  2.4331823E+01
 1.6105751E+01  2.4396912E+01
 1.6117250E+01  2.4426359E+01
 1.6128750E+01  2.4490984E+01
 1.6140251E+01  2.4503450E+01
 1.6151751E+01  2.4503473E+01
 1.6163250E+01  2.4521313E+01
 1.6174751E+01  2.4504269E+01
 1.6186251E+01  2.4582878E+01
 1.6197750E+01  2.4558229E+01
 1.6209251E+01  2.4682169E+01
 1.6220751E+01  2.4612064E+01
 1.6232250E+01  2.4700674E+01
 1.6243752E+01  2.4691475E+01
 1.6255251E+01  2.4791618E+01
 1.6266750E+01  2.4941645E+01
 1.6278252E+01  2.4860254E+01
 1.6289751E+01  2.4985317E+01
 1.6301250E+01  2.4678905E+01
 1.6312750E+01  2.4783972E+01
 1.6324251E+01  2.4515474E+01
 1.6335751E+01  2.4566374E+01
 1.6347250E+01  2.4362413E+01
 1.6358751E+01  2.4325811E+01
 1.6370251E+01  2.4251486E+01
 1.6381750E+01  2.4248791E+01
 1.6393251E+01  2.4278006E+01
 1.6404751E+01  2.4330502E+01
 1.6416250E+01  2.4406116E+01
 1.6427752E+01  2.4374775E+01
 1.6439251E+01  2.4368025E+01
 1.6450750E+01  2.4318871E+01
 1.6462252E+01  2.4329153E+01
 1.6473751E+01  2.4213514E+01
 1.6485250E+01  2.4208931E+01
 1.6496750E+01  2.4182167E+01
 1.6508251E+01  2.4293882E+01
 1.6519751E+01  2.4391228E+01
 1.6531250E+01  2.4422499E+01
 1.6542751E+01  2.4451010E+01
 1.6554251E+01  2.4394125E+01
 1.6565750E+01  2.4458925E+01
 1.6577251E+01  2.4425100E+01
 1.6588751E+01  2.4426746E+01
 1.6600250E+01  2.4369766E+01
 1.6611752E+01  2.4309967E+01
 1.6623251E+01  2.4258821E+01
 1.6634750E+01  2.4263796E+01
 1.6646252E+01  2.4277279E+01
 1.6657751E+01  2.4303230E+01
 1.6669250E+01  2.4345570E+01
 1.6680750E+01  2.4350756E+01
 1.6692251E+01  2.4304413E+01
 1.6703751E+01  2.4225924E+01
 1.6715250E+01  2.4192282E+01
 1.6726751E+01  2.4188822E+01
 1.6738251E+01  2.4171616E+01
 1.6749750E+01  2.4173763E+01
 1.6761251E+01  2.4145494E+01
 1.6772751E+01  2.4164837E+01
 1.6784250E+01  2.4184837E+01
 1.6795752E+01  2.4188215E+01
 1.6807251E+01  2.4158464E+01
 1.6818750E+01  2.4110006E+01
 1.6830252E+01  2.4121742E+01
 1.6841751E+01  2.4139194E+01
 1.6853251E+01  2.4188345E+01
 1.6864750E+01  2.4185762E+01
 1.6876251E+01  2.4204580E+01
 1.6887751E+01  2.4179665E+01
 1.6899250E+01  2.4162481E+01
 1.6910751E+01  2.4097755E+01
 1.6922251E+01  2.4141083E+01
 1.6933750E+01  2.4103636E+01
 1.6945251E+01  2.4117805E+01
 1.6956751E+01  2.3971773E+01
 1.6968250E+01  2.3921110E+01
 1.6979752E+01  2.3881779E+01
 1.6991251E+01  2.3906570E+01
 1.7002750E+01  2.3870262E+01
 1.7014252E+01  2.3833105E+01
 1.7025751E+01  2.3816929E+01
 1.7037251E+01  2.3864857E+01
 1.7048750E+01  2.3849228E+01
 1.7060251E+01  2.3834299E+01
 1.7071751E+01  2.3849541E+01
 1.7083250E+01  2.3858315E+01
 1.7094751E+01  2.3862175E+01
 1.7106251E+01  2.3863121E+01
 1.7117750E+01  2.3869392E+01
 1.7129251E+01  2.3873306E+01
 1.7140751E+01  2.3848558E+01
 1.7152250E+01  2.3823877E+01
 1.7163752E+01  2.3802813E+01
 1.7175251E+01  2.3777826E+01
 1.7186750E+01  2.3842281E+01
 1.7198252E+01  2.3897051E+01
 1.7209751E+01  2.3920137E+01
 1.7221251E+01  2.3835791E+01
 1.7232750E+01  2.3753508E+01
 1.7244251E+01  2.3702019E+01
 1.7255751E+01  2.3628746E+01
 1.7267250E+01  2.3586519E+01
 1.7278751E+01  2.3568581E+01
 1.7290251E+01  2.3572853E+01
 1.7301750E+01  2.3602581E+01
 1.7313251E+01  2.3639851E+01
 1.7324751E+01  2.3717051E+01
 1.7336250E+01  2.3765461E+01
 1.7347752E+01  2.3755907E+01
 1.7359251E+01  2.3752398E+01
 1.7370750E+01  2.3676918E+01
 1.7382252E+01  2.3663145E+01
 1.7393751E+01  2.3601994E+01
 1.7405251E+01  2.3582642E+01
 1.7416750E+01  2.3573681E+01
 1.7428251E+01  2.3550014E+01
 1.7439751E+01  2.3522242E+01
 1.7451250E+01  2.3500093E+01
 1.7462751E+01  2.3552017E+01
 1.7474251E+01  2.3599737E+01
 1.7485750E+01  2.3657658E+01
 1.7497252E+01  2.3626036E+01
 1.7508751E+01  2.3640478E+01
 1.7520250E+01  2.3595650E+01
 1.7531752E+01  2.3641006E+01
 1.7543251E+01  2.3629852E+01
 1.7554750E+01  2.3605021E+01
 1.7566252E+01  2.3564981E+01
 1.7577751E+01  2.3511013E+01
 1.7589251E+01  2.3477877E+01
 1.7600750E+01  2.3487221E+01
 1.7612251E+01  2.3535576E+01
 1.7623751E+01  2.3609814E+01
 1.7635250E+01  2.3581976E+01
 1.7646751E+01  2.3534353E+01
 1.7658251E+01  2.3471247E+01
 1.7669750E+01  2.3476921E+01
 1.7681252E+01  2.3484198E+01
 1.7692751E+01  2.3510645E+01
 1.7704250E+01  2.3493290E+01
 1.7715752E+01  2.3508310E+01
 1.7727251E+01  2.3511818E+01
 1.7738750E+01  2.3507683E+01
 1.7750252E+01  2.3484148E+01
 1.7761751E+01  2.3444809E+01
 1.7773251E+01  2.3428062E+01
 1.7784750E+01  2.3407896E+01
 1.7796251E+01  2.3458172E+01
 1.7807751E+01  2.3409056E+01
 1.7819250E+01  2.3405449E+01
 1.7830751E+01  2.3366957E+01
 1.7842251E+01  2.3410343E+01
 1.7853750E+01  2.3366812E+01
 1.7865252E+01  2.3333870E+01
 1.7876751E+01  2.3296650E+01
 1.7888250E+01  2.3293594E+01
 1.7899752E+01  2.3310371E+01
 1.7911251E+01  2.3316664E+01
 1.7922750E+01  2.3343473E+01
 1.7934252E+01  2.3308512E+01
 1.7945751E+01  2.3312490E+01
 1.7957251E+01  2.3270943E+01
 1.7968750E+01  2.3266191E+01
 1.7980251E+01  2.3275560E+01
 1.7991751E+01  2.3247978E+01
 1.8003250E+01  2.3288189E+01
 1.8014751E+01  2.3300041E+01
 1.8026251E+01  2.3387423E+01
 1.8037750E+01  2.3368647E+01
 1.8049252E+01  2.3379410E+01
 1.8060751E+01  2.3364374E+01
 1.8072250E+01  2.3390001E+01
 1.8083752E+01  2.3453497E+01
 1.8095251E+01  2.3465424E+01
 1.8106750E+01  2.3537670E+01
 1.8118252E+01  2.3513092E+01
 1.8129751E+01  2.3573351E+01
 1.8141251E+01  2.3482443E+01
 1.8152750E+01  2.3415253E+01
 1.8164251E+01  2.3329433E+01
 1.8175751E+01  2.3267794E+01
 1.8187250E+01  2.3232008E+01
 1.8198751E+01  2.3210720E+01
 1.8210251E+01  2.3187710E+01
 1.8221750E+01  2.3163212E+01
 1.8233252E+01  2.3128860E+01
 1.8244751E+01  2.3136585E+01
 1.8256250E+01  2.3133318E+01
 1.8267752E+01  2.3145414E+01
 1.8279251E+01  2.3156668E+01
 1.8290751E+01  2.3150728E+01
 1.8302252E+01  2.3143667E+01
 1.8313751E+01  2.3131411E+01
 1.8325251E+01  2.3146555E+01
 1.8336750E+01  2.3198914E+01
 1.8348251E+01  2.3278107E+01
 1.8359751E+01  2.3305309E+01
 1.8371250E+01  2.3258085E+01
 1.8382751E+01  2.3203102E+01
 1.8394251E+01  2.3199610E+01
 1.8405750E+01  2.3234035E+01
 1.8417252E+01  2.3223276E+01
 1.8428751E+01  2.3228767E+01
 1.8440250E+01  2.3235788E+01
 1.8451752E+01  2.3245701E+01
 1.8463251E+01  2.3280682E+01
 1.8474751E+01  2.3280806E+01
 1.8486252E+01  2.3291431E+01
 1.8497751E+01  2.3218845E+01
 1.8509251E+01  2.3207983E+01
 1.8520750E+01  2.3150347E+01
 1.8532251E+01  2.3141727E+01
 1.8543751E+01  2.3073416E+01
 1.8555250E+01  2.3062393E+01
 1.8566751E+01  2.3070261E+01
 1.8578251E+01  2.3087868E+01
 1.8589750E+01  2.3144461E+01
 1.8601252E+01  2.3194006E+01
 1.8612751E+01  2.3207018E+01
 1.8624250E+01  2.3148537E+01
 1.8635752E+01  2.3106623E+01
 1.8647251E+01  2.3097523E+01
 1.8658751E+01  2.3083420E+01
 1.8670252E+01  2.3096699E+01
 1.8681751E+01  2.3129019E+01
 1.8693251E+01  2.3173031E+01
 1.8704750E+01  2.3160429E+01
 1.8716251E+01  2.3090143E+01
 1.8727751E+01  2.3044125E+01
 1.8739250E+01  2.3039188E+01
 1.8750751E+01  2.3067968E+01
 1.8762251E+01  2.3084915E+01
 1.8773750E+01  2.3060442E+01
 1.8785252E+01  2.3059376E+01
 1.8796751E+01  2.3055466E+01
 1.8808250E+01  2.3042105E+01
 1.8819752E+01  2.3041897E+01
 1.8831251E+01  2.3066483E+01
 1.8842751E+01  2.3033909E+01
 1.8854252E+01  2.3001764E+01
 1.8865751E+01  2.3008795E+01
 1.8877251E+01  2.3011545E+01
 1.8888750E+01  2.3017395E+01
 1.8900251E+01  2.2999775E+01
 1.8911751E+01  2.2981125E+01
 1.8923250E+01  2.2992277E+01
 1.8934752E+01  2.3042511E+01
 1.8946251E+01  2.3073393E+01
 1.8957750E+01  2.3014469E+01
 1.8969252E+01  2.2958881E+01
 1.8980751E+01  2.2922579E+01
 1.8992250E+01  2.2903349E+01
 1.9003752E+01  2.2910305E+01
 1.9015251E+01  2.2963350E+01
 1.9026751E+01  2.3011824E+01
 1.9038252E+01  2.3063833E+01
 1.9049751E+01  2.3124435E+01
 1.9061251E+01  2.3180798E+01
 1.9072750E+01  2.3179333E+01
 1.9084251E+01  2.3138155E+01
 1.9095751E+01  2.3066269E+01
 1.9107250E+01  2.3015455E+01
 1.9118752E+01  2.2950245E+01
 1.9130251E+01  2.2955133E+01
 1.9141750E+01  2.2985491E+01
 1.9153252E+01  2.3060314E+01
 1.9164751E+01  2.3063868E+01
 1.9176250E+01  2.3099678E+01
 1.9187752E+01  2.3136971E+01
 1.9199251E+01  2.3208509E+01
 1.9210751E+01  2.3224836E+01
 1.9222252E+01  2.3200655E+01
 1.9233751E+01  2.3196270E+01
 1.9245251E+01  2.3197540E+01
 1.9256750E+01  2.3213177E+01
 1.9268251E+01  2.3198923E+01
 1.9279751E+01  2.3165386E+01
 1.9291250E+01  2.3147495E+01
 1.9302752E+01  2.3211796E+01
 1.9314251E+01  2.3251186E+01
 1.9325750E+01  2.3237591E+01
 1.9337252E+01  2.3205643E+01
 1.9348751E+01  2.3211590E+01
 1.9360250E+01  2.3202837E+01
 1.9371752E+01  2.3165485E+01
 1.9383251E+01  2.3128054E+01
 1.9394751E+01  2.3141266E+01
 1.9406250E+01  2.3120432E+01
 1.9417751E+01  2.3156116E+01
 1.9429251E+01  2.3131248E+01
 1.9440750E+01  2.3125719E+01
 1.9452251E+01  2.3078630E+01
 1.9463751E+01  2.3036200E+01
 1.9475250E+01  2.3046864E+01
 1.9486752E+01  2.3040096E+01
 1.9498251E+01  2.3053526E+01
 1.9509750E+01  2.3035301E+01
 1.9521252E+01  2.3091869E+01
 1.9532751E+01  2.3147720E+01
 1.9544250E+01  2.3215820E+01
 1.9555752E+01  2.3205147E+01
 1.9567251E+01  2.3218309E+01
 1.9578751E+01  2.3243221E+01
 1.9590250E+01  2.3262344E+01
 1.9601751E+01  2.3254580E+01
 1.9613251E+01  2.3245893E+01
 1.9624750E+01  2.3245394E+01
 1.9636251E+01  2.3306610E+01
 1.9647751E+01  2.3312780E+01
 1.9659250E+01  2.3391014E+01
 1.9670752E+01  2.3433792E+01
 1.9682251E+01  2.3490770E+01
 1.9693750E+01  2.3538586E+01
 1.9705252E+01  2.3620731E+01
 1.9716751E+01  2.3700115E+01
 1.9728251E+01  2.3641062E+01
 1.9739752E+01  2.3592567E+01
 1.9751251E+01  2.3521320E+01
 1.9762751E+01  2.3472782E+01
 1.9774250E+01  2.3416864E+01
 1.9785751E+01  2.3416349E+01
 1.9797251E+01  2.3422298E+01
 1.9808750E+01  2.3371477E+01
 1.9820251E+01  2.3373672E+01
 1.9831751E+01  2.3434168E+01
 1.9843250E+01  2.3499477E+01
 1.9854752E+01  2.3546545E+01
 1.9866251E+01  2.3554798E+01
 1.9877750E+01  2.3548332E+01
 1.9889252E+01  2.3496761E+01
 1.9900751E+01  2.3504442E+01
 1.9912251E+01  2.3476450E+01
 1.9923752E+01  2.3465656E+01
 1.9935251E+01  2.3386562E+01
 1.9946751E+01  2.3321846E+01
 1.9958250E+01  2.3275143E+01
 1.9969751E+01  2.3254892E+01
 1.9981251E+01  2.3231705E+01
 1.9992750E+01  2.3262510E+01
 2.0004251E+01  2.3294596E+01
 2.0015751E+01  2.3303738E+01
 2.0027250E+01  2.3241777E+01
 2.0038752E+01  2.3213768E+01
 2.0050251E+01  2.3202145E+01
 2.0061750E+01  2.3186892E+01
 2.0073252E+01  2.3194115E+01
 2.0084751E+01  2.3233597E+01
 2.0096251E+01  2.3326075E+01
 2.0107752E+01  2.3359612E+01
 2.0119251E+01  2.3358627E+01
 2.0130751E+01  2.3294975E+01
 2.0142250E+01  2.3280104E+01
 2.0153751E+01  2.3304127E+01
 2.0165251E+01  2.3328945E+01
 2.0176750E+01  2.3381912E+01
 2.0188251E+01  2.3409994E+01
 2.0199751E+01  2.3390602E+01
 2.0211250E+01  2.3358179E+01
 2.0222752E+01  2.3347252E+01
 2.0234251E+01  2.3337023E+01
 2.0245750E+01  2.3295216E+01
 2.0257252E+01  2.3262114E+01
 2.0268751E+01  2.3232603E+01
 2.0280251E+01  2.3255993E+01
 2.0291752E+01  2.3235605E+01
 2.0303251E+01  2.3177406E+01
 2.0314751E+01  2.3124092E+01
 2.0326250E+01  2.3112713E+01
 2.0337751E+01  2.3141844E+01
 2.0349251E+01  2.3184849E+01
 2.0360750E+01  2.3225456E+01
 2.0372252E+01  2.3218489E+01
 2.0383751E+01  2.3168930E+01
 2.0395250E+01  2.3177855E+01
 2.0406752E+01  2.3201672E+01
 2.0418251E+01  2.3306303E+01
 2.0429750E+01  2.3351177E+01
 2.0441252E+01  2.3369881E+01
 2.0452751E+01  2.3333105E+01
 2.0464251E+01  2.3312971E+01
 2.0475752E+01  2.3362261E+01
 2.0487251E+01  2.3347437E+01
 2.0498751E+01  2.3370623E+01
 2.0510250E+01  2.3318670E+01
 2.0521751E+01  2.3311350E+01
 2.0533251E+01  2.3299885E+01
 2.0544750E+01  2.3350090E+01
 2.0556252E+01  2.3388975E+01
 2.0567751E+01  2.3397579E+01
 2.0579250E+01  2.3368256E+01
 2.0590752E+01  2.3396292E+01
 2.0602251E+01  2.3400532E+01
 2.0613750E+01  2.3450068E+01
 2.0625252E+01  2.3443146E+01
 2.0636751E+01  2.3449566E+01
 2.0648251E+01  2.3389967E+01
 2.0659752E+01  2.3375286E+01
 2.0671251E+01  2.3378355E+01
 2.0682751E+01  2.3398905E+01
 2.0694250E+01  2.3409653E+01
 2.0705751E+01  2.3423588E+01
 2.0717251E+01  2.3486475E+01
 2.0728750E+01  2.3550066E+01
 2.0740252E+01  2.3585043E+01
 2.0751751E+01  2.3697622E+01
 2.0763250E+01  2.3753891E+01
 2.0774752E+01  2.3817219E+01
 2.0786251E+01  2.3767982E+01
 2.0797750E+01  2.3702497E+01
 2.0809252E+01  2.3587660E+01
 2.0820751E+01  2.3505812E+01
 2.0832251E+01  2.3489489E+01
 2.0843752E+01  2.3454218E+01
 2.0855251E+01  2.3450563E+01
 2.0866751E+01  2.3447205E+01
 2.0878250E+01  2.3422119E+01
 2.0889751E+01  2.3406338E+01
 2.0901251E+01  2.3455978E+01
 2.0912750E+01  2.3534691E+01
 2.0924252E+01  2.3579386E+01
 2.0935751E+01  2.3587202E+01
 2.0947250E+01  2.3582674E+01
 2.0958752E+01  2.3566196E+01
 2.0970251E+01  2.3579615E+01
 2.0981750E+01  2.3579599E+01
 2.0993252E+01  2.3554602E+01
 2.1004751E+01  2.3481049E+01
 2.1016251E+01  2.3409431E+01
 2.1027752E+01  2.3378572E+01
 2.1039251E+01  2.3377396E+01
 2.1050751E+01  2.3380270E+01
 2.1062250E+01  2.3454468E+01
 2.1073751E+01  2.3554691E+01
 2.1085251E+01  2.3593361E+01
 2.1096750E+01  2.3590506E+01
 2.1108252E+01  2.3644918E+01
 2.1119751E+01  2.3653143E+01
 2.1131250E+01  2.3683821E+01
 2.1142752E+01  2.3619324E+01
 2.1154251E+01  2.3605396E+01
 2.1165751E+01  2.3585421E+01
 2.1177252E+01  2.3636765E+01
 2.1188751E+01  2.3614897E+01
 2.1200251E+01  2.3575747E+01
 2.1211752E+01  2.3555162E+01
 2.1223251E+01  2.3536654E+01
 2.1234751E+01  2.3516680E+01
 2.1246250E+01  2.3576624E+01
 2.1257751E+01  2.3595062E+01
 2.1269251E+01  2.3598091E+01
 2.1280750E+01  2.3557880E+01
 2.1292252E+01  2.3520552E+01
 2.1303751E+01  2.3476810E+01
 2.1315250E+01  2.3442400E+01
 2.1326752E+01  2.3459875E+01
 2.1338251E+01  2.3518484E+01
 2.1349751E+01  2.3645515E+01
 2.1361252E+01  2.3716862E+01
 2.1372751E+01  2.3738369E+01
 2.1384251E+01  2.3802414E+01
 2.1395752E+01  2.3807171E+01
 2.1407251E+01  2.3873619E+01
 2.1418751E+01  2.3807180E+01
 2.1430250E+01  2.3845528E+01
 2.1441751E+01  2.3743483E+01
 2.1453251E+01  2.3729342E+01
 2.1464750E+01  2.3758404E+01
 2.1476252E+01  2.3728191E+01
 2.1487751E+01  2.3778507E+01
 2.1499250E+01  2.3690287E+01
 2.1510752E+01  2.3685072E+01
 2.1522251E+01  2.3651215E+01
 2.1533751E+01  2.3669281E+01
 2.1545252E+01  2.3639011E+01
 2.1556751E+01  2.3620104E+01
 2.1568251E+01  2.3643829E+01
 2.1579752E+01  2.3759541E+01
 2.1591251E+01  2.3812933E+01
 2.1602751E+01  2.3808786E+01
 2.1614250E+01  2.3772390E+01
 2.1625751E+01  2.3754396E+01
 2.1637251E+01  2.3736824E+01
 2.1648750E+01  2.3777042E+01
 2.1660252E+01  2.3798018E+01
 2.1671751E+01  2.3848072E+01
 2.1683250E+01  2.3879002E+01
 2.1694752E+01  2.3843271E+01
 2.1706251E+01  2.3795649E+01
 2.1717751E+01  2.3792976E+01
 2.1729252E+01  2.3807987E+01
 2.1740751E+01  2.3826504E+01
 2.1752251E+01  2.3778654E+01
 2.1763752E+01  2.3743864E+01
 2.1775251E+01  2.3744349E+01
 2.1786751E+01  2.3763744E+01
 2.1798250E+01  2.3781940E+01
 2.1809752E+01  2.3764576E+01
 2.1821251E+01  2.3771191E+01
 2.1832750E+01  2.3872776E+01
 2.1844252E+01  2.3843410E+01
 2.1855751E+01  2.3893688E+01
 2.1867250E+01  2.3829483E+01
 2.1878752E+01  2.3841402E+01
 2.1890251E+01  2.3714729E+01
 2.1901751E+01  2.3736403E+01
 2.1913252E+01  2.3742794E+01
 2.1924751E+01  2.3757915E+01
 2.1936251E+01  2.3765787E+01
 2.1947752E+01  2.3758593E+01
 2.1959251E+01  2.3742481E+01
 2.1970751E+01  2.3737835E+01
 2.1982250E+01  2.3742971E+01
 2.1993752E+01  2.3791224E+01
 2.2005251E+01  2.3785975E+01
 2.2016750E+01  2.3798624E+01
 2.2028252E+01  2.3798403E+01
 2.2039751E+01  2.3843990E+01
 2.2051250E+01  2.3901346E+01
 2.2062752E+01  2.3921293E+01
 2.2074251E+01  2.3956846E+01
 2.2085751E+01  2.3955303E+01
 2.2097252E+01  2.3980925E+01
 2.2108751E+01  2.3996943E+01
 2.2120251E+01  2.4076605E+01
 2.2131752E+01  2.4109444E+01
 2.2143251E+01  2.4137394E+01
 2.2154751E+01  2.4126734E+01
 2.2166250E+01  2.4166540E+01
 2.2177752E+01  2.4088125E+01
 2.2189251E+01  2.4035635E+01
 2.2200750E+01  2.3987432E+01
 2.2212252E+01  2.3993422E+01
 2.2223751E+01  2.4028030E+01
 2.2235250E+01  2.4053127E+01
 2.2246752E+01  2.4086365E+01
 2.2258251E+01  2.4090279E+01
 2.2269751E+01  2.4075298E+01
 2.2281252E+01  2.4071043E+01
 2.2292751E+01  2.4098366E+01
 2.2304251E+01  2.4147017E+01
 2.2315752E+01  2.4168671E+01
 2.2327251E+01  2.4127279E+01
 2.2338751E+01  2.4093933E+01
 2.2350250E+01  2.4065773E+01
 2.2361752E+01  2.4069138E+01
 2.2373251E+01  2.4092916E+01
 2.2384750E+01  2.4084129E+01
 2.2396252E+01  2.4111685E+01
 2.2407751E+01  2.4113918E+01
 2.2419250E+01  2.4137684E+01
 2.2430752E+01  2.4179640E+01
 2.2442251E+01  2.4216282E+01
 2.2453751E+01  2.4292908E+01
 2.2465252E+01  2.4314039E+01
 2.2476751E+01  2.4317211E+01
 2.2488251E+01  2.4384041E+01
 2.2499752E+01  2.4437103E+01
 2.2511251E+01  2.4505308E+01
 2.2522751E+01  2.4489656E+01
 2.2534250E+01  2.4494818E+01
 2.2545752E+01  2.4491652E+01
 2.2557251E+01  2.4452076E+01
 2.2568750E+01  2.4473640E+01
 2.2580252E+01  2.4479002E+01
 2.2591751E+01  2.4469004E+01
 2.2603251E+01  2.4421171E+01
 2.2614752E+01  2.4517456E+01
 2.2626251E+01  2.4645922E+01
 2.2637751E+01  2.4672295E+01
 2.2649252E+01  2.4738352E+01
 2.2660751E+01  2.4735043E+01
 2.2672251E+01  2.4860970E+01
 2.2683752E+01  2.4896215E+01
 2.2695251E+01  2.4989777E+01
 2.2706751E+01  2.4961777E+01
 2.2718250E+01  2.4931524E+01
 2.2729752E+01  2.4874016E+01
 2.2741251E+01  2.4837879E+01
 2.2752750E+01  2.4871235E+01
 2.2764252E+01  2.4836426E+01
 2.2775751E+01  2.4905972E+01
 2.2787251E+01  2.4911440E+01
 2.2798752E+01  2.4969421E+01
 2.2810251E+01  2.4998138E+01
 2.2821751E+01  2.5072088E+01
 2.2833252E+01  2.5130951E+01
 2.2844751E+01  2.5181461E+01
 2.2856251E+01  2.5167152E+01
 2.2867750E+01  2.5163160E+01
 2.2879251E+01  2.5168728E+01
 2.2890751E+01  2.5253500E+01
 2.2902250E+01  2.5300653E+01
 2.2913752E+01  2.5406401E+01
 2.2925251E+01  2.5422894E+01
 2.2936750E+01  2.5450960E+01
 2.2948252E+01  2.5518112E+01
 2.2959751E+01  2.5575581E+01
 2.2971251E+01  2.5714575E+01
 2.2982752E+01  2.5813379E+01
 2.2994251E+01  2.5930485E+01
