F:\20151113_APS_34IDE\\Brian\Particle1\OCV\Data_0101.tif
2-Theta Angle (Degrees)
Intensity
       2000
 5.7500005E-03  0.0000000E+00
 1.7250001E-02  0.0000000E+00
 2.8750001E-02  0.0000000E+00
 4.0250003E-02  0.0000000E+00
 5.1750004E-02  0.0000000E+00
 6.3250005E-02  0.0000000E+00
 7.4750006E-02  0.0000000E+00
 8.6250007E-02  0.0000000E+00
 9.7750008E-02  0.0000000E+00
 1.0925001E-01  0.0000000E+00
 1.2075000E-01  0.0000000E+00
 1.3225001E-01  0.0000000E+00
 1.4375001E-01  0.0000000E+00
 1.5525001E-01  0.0000000E+00
 1.6675001E-01  0.0000000E+00
 1.7825001E-01  0.0000000E+00
 1.8975002E-01  0.0000000E+00
 2.0125002E-01  0.0000000E+00
 2.1275002E-01  0.0000000E+00
 2.2425000E-01  0.0000000E+00
 2.3575000E-01  0.0000000E+00
 2.4725001E-01  0.0000000E+00
 2.5875002E-01  0.0000000E+00
 2.7025002E-01  0.0000000E+00
 2.8175002E-01  0.0000000E+00
 2.9325002E-01  0.0000000E+00
 3.0475003E-01  0.0000000E+00
 3.1625003E-01  0.0000000E+00
 3.2775003E-01  0.0000000E+00
 3.3925003E-01  0.0000000E+00
 3.5075003E-01  0.0000000E+00
 3.6225003E-01  0.0000000E+00
 3.7375003E-01  0.0000000E+00
 3.8525003E-01  0.0000000E+00
 3.9675003E-01  0.0000000E+00
 4.0825003E-01  0.0000000E+00
 4.1975003E-01  0.0000000E+00
 4.3125004E-01  0.0000000E+00
 4.4275001E-01  0.0000000E+00
 4.5425001E-01  0.0000000E+00
 4.6575001E-01  0.0000000E+00
 4.7725001E-01  0.0000000E+00
 4.8875001E-01  0.0000000E+00
 5.0025004E-01  0.0000000E+00
 5.1175004E-01  0.0000000E+00
 5.2325004E-01  0.0000000E+00
 5.3475004E-01  0.0000000E+00
 5.4625005E-01  0.0000000E+00
 5.5775005E-01  0.0000000E+00
 5.6925005E-01  0.0000000E+00
 5.8075005E-01  0.0000000E+00
 5.9225005E-01  0.0000000E+00
 6.0375005E-01  0.0000000E+00
 6.1525005E-01  0.0000000E+00
 6.2675005E-01  0.0000000E+00
 6.3825005E-01  0.0000000E+00
 6.4975005E-01  0.0000000E+00
 6.6125005E-01  0.0000000E+00
 6.7275006E-01  0.0000000E+00
 6.8425006E-01  0.0000000E+00
 6.9575006E-01  0.0000000E+00
 7.0725006E-01  0.0000000E+00
 7.1875006E-01  0.0000000E+00
 7.3025006E-01  0.0000000E+00
 7.4175006E-01  0.0000000E+00
 7.5325006E-01  0.0000000E+00
 7.6475006E-01  0.0000000E+00
 7.7625006E-01  0.0000000E+00
 7.8775007E-01  0.0000000E+00
 7.9925007E-01  0.0000000E+00
 8.1075007E-01  0.0000000E+00
 8.2225007E-01  0.0000000E+00
 8.3375007E-01  0.0000000E+00
 8.4525007E-01  0.0000000E+00
 8.5675007E-01  0.0000000E+00
 8.6825007E-01  0.0000000E+00
 8.7975001E-01  0.0000000E+00
 8.9125001E-01  0.0000000E+00
 9.0275002E-01  0.0000000E+00
 9.1425002E-01  0.0000000E+00
 9.2575002E-01  0.0000000E+00
 9.3725002E-01  0.0000000E+00
 9.4875002E-01  0.0000000E+00
 9.6025002E-01  0.0000000E+00
 9.7175002E-01  0.0000000E+00
 9.8325002E-01  0.0000000E+00
 9.9475002E-01  0.0000000E+00
 1.0062500E+00  0.0000000E+00
 1.0177500E+00  0.0000000E+00
 1.0292500E+00  0.0000000E+00
 1.0407500E+00  0.0000000E+00
 1.0522500E+00  0.0000000E+00
 1.0637500E+00  0.0000000E+00
 1.0752500E+00  0.0000000E+00
 1.0867500E+00  0.0000000E+00
 1.0982500E+00  0.0000000E+00
 1.1097500E+00  0.0000000E+00
 1.1212500E+00  0.0000000E+00
 1.1327500E+00  0.0000000E+00
 1.1442500E+00  0.0000000E+00
 1.1557500E+00  0.0000000E+00
 1.1672500E+00  0.0000000E+00
 1.1787500E+00  0.0000000E+00
 1.1902500E+00  0.0000000E+00
 1.2017500E+00  0.0000000E+00
 1.2132500E+00  0.0000000E+00
 1.2247500E+00  0.0000000E+00
 1.2362500E+00  0.0000000E+00
 1.2477500E+00  0.0000000E+00
 1.2592500E+00  0.0000000E+00
 1.2707500E+00  0.0000000E+00
 1.2822500E+00  0.0000000E+00
 1.2937500E+00  0.0000000E+00
 1.3052500E+00  0.0000000E+00
 1.3167500E+00  0.0000000E+00
 1.3282501E+00  0.0000000E+00
 1.3397501E+00  0.0000000E+00
 1.3512501E+00  0.0000000E+00
 1.3627501E+00  0.0000000E+00
 1.3742501E+00  0.0000000E+00
 1.3857501E+00  0.0000000E+00
 1.3972501E+00  0.0000000E+00
 1.4087501E+00  0.0000000E+00
 1.4202501E+00  0.0000000E+00
 1.4317501E+00  0.0000000E+00
 1.4432501E+00  0.0000000E+00
 1.4547501E+00  0.0000000E+00
 1.4662501E+00  0.0000000E+00
 1.4777501E+00  0.0000000E+00
 1.4892501E+00  0.0000000E+00
 1.5007501E+00  0.0000000E+00
 1.5122501E+00  0.0000000E+00
 1.5237501E+00  0.0000000E+00
 1.5352501E+00  0.0000000E+00
 1.5467501E+00  0.0000000E+00
 1.5582501E+00  0.0000000E+00
 1.5697501E+00  0.0000000E+00
 1.5812501E+00  0.0000000E+00
 1.5927501E+00  0.0000000E+00
 1.6042501E+00  0.0000000E+00
 1.6157501E+00  0.0000000E+00
 1.6272501E+00  0.0000000E+00
 1.6387501E+00  0.0000000E+00
 1.6502501E+00  0.0000000E+00
 1.6617501E+00  0.0000000E+00
 1.6732501E+00  0.0000000E+00
 1.6847501E+00  0.0000000E+00
 1.6962501E+00  0.0000000E+00
 1.7077501E+00  0.0000000E+00
 1.7192501E+00  0.0000000E+00
 1.7307501E+00  0.0000000E+00
 1.7422501E+00  0.0000000E+00
 1.7537501E+00  0.0000000E+00
 1.7652501E+00  0.0000000E+00
 1.7767501E+00  0.0000000E+00
 1.7882501E+00  0.0000000E+00
 1.7997501E+00  0.0000000E+00
 1.8112501E+00  0.0000000E+00
 1.8227501E+00  0.0000000E+00
 1.8342501E+00  0.0000000E+00
 1.8457501E+00  0.0000000E+00
 1.8572501E+00  0.0000000E+00
 1.8687501E+00  0.0000000E+00
 1.8802501E+00  0.0000000E+00
 1.8917501E+00  0.0000000E+00
 1.9032501E+00  0.0000000E+00
 1.9147501E+00  0.0000000E+00
 1.9262501E+00  0.0000000E+00
 1.9377501E+00  0.0000000E+00
 1.9492501E+00  0.0000000E+00
 1.9607501E+00  0.0000000E+00
 1.9722501E+00  0.0000000E+00
 1.9837501E+00  0.0000000E+00
 1.9952501E+00  0.0000000E+00
 2.0067501E+00  0.0000000E+00
 2.0182500E+00  0.0000000E+00
 2.0297501E+00  0.0000000E+00
 2.0412500E+00  0.0000000E+00
 2.0527501E+00  0.0000000E+00
 2.0642500E+00  0.0000000E+00
 2.0757501E+00  0.0000000E+00
 2.0872500E+00  0.0000000E+00
 2.0987501E+00  0.0000000E+00
 2.1102500E+00  0.0000000E+00
 2.1217501E+00  0.0000000E+00
 2.1332500E+00  0.0000000E+00
 2.1447501E+00  0.0000000E+00
 2.1562500E+00  0.0000000E+00
 2.1677501E+00  0.0000000E+00
 2.1792500E+00  0.0000000E+00
 2.1907501E+00  0.0000000E+00
 2.2022500E+00  0.0000000E+00
 2.2137501E+00  0.0000000E+00
 2.2252500E+00  0.0000000E+00
 2.2367501E+00  0.0000000E+00
 2.2482500E+00  0.0000000E+00
 2.2597501E+00  0.0000000E+00
 2.2712500E+00  0.0000000E+00
 2.2827501E+00  0.0000000E+00
 2.2942500E+00  0.0000000E+00
 2.3057501E+00  0.0000000E+00
 2.3172500E+00  0.0000000E+00
 2.3287501E+00  0.0000000E+00
 2.3402500E+00  0.0000000E+00
 2.3517501E+00  0.0000000E+00
 2.3632500E+00  0.0000000E+00
 2.3747501E+00  0.0000000E+00
 2.3862500E+00  0.0000000E+00
 2.3977501E+00  0.0000000E+00
 2.4092500E+00  0.0000000E+00
 2.4207501E+00  0.0000000E+00
 2.4322500E+00  0.0000000E+00
 2.4437501E+00  0.0000000E+00
 2.4552500E+00  0.0000000E+00
 2.4667501E+00  0.0000000E+00
 2.4782500E+00  0.0000000E+00
 2.4897501E+00  0.0000000E+00
 2.5012500E+00  0.0000000E+00
 2.5127501E+00  0.0000000E+00
 2.5242500E+00  0.0000000E+00
 2.5357502E+00  0.0000000E+00
 2.5472500E+00  0.0000000E+00
 2.5587502E+00  0.0000000E+00
 2.5702500E+00  0.0000000E+00
 2.5817502E+00  0.0000000E+00
 2.5932500E+00  0.0000000E+00
 2.6047502E+00  0.0000000E+00
 2.6162500E+00  0.0000000E+00
 2.6277502E+00  0.0000000E+00
 2.6392500E+00  0.0000000E+00
 2.6507502E+00  0.0000000E+00
 2.6622500E+00  0.0000000E+00
 2.6737502E+00  0.0000000E+00
 2.6852500E+00  0.0000000E+00
 2.6967502E+00  0.0000000E+00
 2.7082500E+00  0.0000000E+00
 2.7197502E+00  0.0000000E+00
 2.7312500E+00  0.0000000E+00
 2.7427502E+00  0.0000000E+00
 2.7542500E+00  0.0000000E+00
 2.7657502E+00  0.0000000E+00
 2.7772501E+00  0.0000000E+00
 2.7887502E+00  0.0000000E+00
 2.8002501E+00  0.0000000E+00
 2.8117502E+00  0.0000000E+00
 2.8232501E+00  3.1283127E+01
 2.8347502E+00  3.3020958E+01
 2.8462501E+00  3.3053513E+01
 2.8577502E+00  3.3128853E+01
 2.8692501E+00  3.3135830E+01
 2.8807502E+00  3.3848129E+01
 2.8922501E+00  3.4629063E+01
 2.9037502E+00  3.5385010E+01
 2.9152501E+00  3.5616264E+01
 2.9267502E+00  3.5553082E+01
 2.9382501E+00  3.5393951E+01
 2.9497502E+00  3.5797134E+01
 2.9612501E+00  3.5792542E+01
 2.9727502E+00  3.6124981E+01
 2.9842501E+00  3.6012749E+01
 2.9957502E+00  3.6078926E+01
 3.0072501E+00  3.5925201E+01
 3.0187502E+00  3.5787086E+01
 3.0302501E+00  3.5437649E+01
 3.0417502E+00  3.5466179E+01
 3.0532501E+00  3.4978382E+01
 3.0647502E+00  3.5306000E+01
 3.0762501E+00  3.5338608E+01
 3.0877502E+00  3.5732765E+01
 3.0992501E+00  3.5974594E+01
 3.1107502E+00  3.6113388E+01
 3.1222501E+00  3.6219364E+01
 3.1337502E+00  3.5999622E+01
 3.1452501E+00  3.5615070E+01
 3.1567502E+00  3.5380905E+01
 3.1682501E+00  3.5217346E+01
 3.1797502E+00  3.5099556E+01
 3.1912501E+00  3.5461559E+01
 3.2027502E+00  3.5634594E+01
 3.2142501E+00  3.6066273E+01
 3.2257502E+00  3.6289059E+01
 3.2372501E+00  3.6556499E+01
 3.2487502E+00  3.6755054E+01
 3.2602501E+00  3.6980721E+01
 3.2717502E+00  3.6890697E+01
 3.2832501E+00  3.6731682E+01
 3.2947502E+00  3.6102905E+01
 3.3062501E+00  3.5909233E+01
 3.3177502E+00  3.5572506E+01
 3.3292501E+00  3.5452579E+01
 3.3407502E+00  3.5169704E+01
 3.3522501E+00  3.5315792E+01
 3.3637502E+00  3.5543152E+01
 3.3752501E+00  3.5546040E+01
 3.3867502E+00  3.5143303E+01
 3.3982501E+00  3.4899078E+01
 3.4097502E+00  3.4534641E+01
 3.4212501E+00  3.4454697E+01
 3.4327502E+00  3.4306450E+01
 3.4442501E+00  3.4535908E+01
 3.4557502E+00  3.4735924E+01
 3.4672501E+00  3.4911476E+01
 3.4787502E+00  3.4967094E+01
 3.4902501E+00  3.5198055E+01
 3.5017502E+00  3.5208336E+01
 3.5132501E+00  3.5098888E+01
 3.5247502E+00  3.5055531E+01
 3.5362501E+00  3.5154560E+01
 3.5477502E+00  3.4855984E+01
 3.5592501E+00  3.4416664E+01
 3.5707502E+00  3.3740849E+01
 3.5822501E+00  3.3115524E+01
 3.5937502E+00  3.2686161E+01
 3.6052501E+00  3.2499622E+01
 3.6167502E+00  3.2691719E+01
 3.6282501E+00  3.2968327E+01
 3.6397502E+00  3.3249401E+01
 3.6512501E+00  3.3545166E+01
 3.6627502E+00  3.3442566E+01
 3.6742501E+00  3.3144684E+01
 3.6857502E+00  3.2839928E+01
 3.6972501E+00  3.2666962E+01
 3.7087502E+00  3.2688522E+01
 3.7202501E+00  3.2619484E+01
 3.7317502E+00  3.2721119E+01
 3.7432501E+00  3.2889477E+01
 3.7547503E+00  3.2978085E+01
 3.7662501E+00  3.3089340E+01
 3.7777503E+00  3.2980305E+01
 3.7892501E+00  3.2866982E+01
 3.8007503E+00  3.2619995E+01
 3.8122501E+00  3.2561447E+01
 3.8237503E+00  3.2627644E+01
 3.8352501E+00  3.2685600E+01
 3.8467503E+00  3.2961697E+01
 3.8582501E+00  3.2990383E+01
 3.8697503E+00  3.3327415E+01
 3.8812501E+00  3.3508804E+01
 3.8927503E+00  3.3388123E+01
 3.9042501E+00  3.3254612E+01
 3.9157503E+00  3.3038609E+01
 3.9272501E+00  3.3052311E+01
 3.9387503E+00  3.3023170E+01
 3.9502501E+00  3.2798389E+01
 3.9617503E+00  3.2693474E+01
 3.9732502E+00  3.2725910E+01
 3.9847503E+00  3.2749329E+01
 3.9962502E+00  3.2814045E+01
 4.0077500E+00  3.2798344E+01
 4.0192504E+00  3.2750183E+01
 4.0307503E+00  3.2642448E+01
 4.0422502E+00  3.2431301E+01
 4.0537500E+00  3.2362896E+01
 4.0652504E+00  3.2284134E+01
 4.0767503E+00  3.2217609E+01
 4.0882502E+00  3.2211430E+01
 4.0997500E+00  3.2340778E+01
 4.1112504E+00  3.2366821E+01
 4.1227503E+00  3.2596348E+01
 4.1342502E+00  3.2603779E+01
 4.1457500E+00  3.2775841E+01
 4.1572504E+00  3.2648388E+01
 4.1687503E+00  3.2631550E+01
 4.1802502E+00  3.2538445E+01
 4.1917500E+00  3.2461536E+01
 4.2032504E+00  3.2485687E+01
 4.2147503E+00  3.2447514E+01
 4.2262502E+00  3.2541580E+01
 4.2377501E+00  3.2539265E+01
 4.2492504E+00  3.2776772E+01
 4.2607503E+00  3.2932011E+01
 4.2722502E+00  3.2897263E+01
 4.2837501E+00  3.2927711E+01
 4.2952504E+00  3.2736900E+01
 4.3067503E+00  3.2636909E+01
 4.3182502E+00  3.2498360E+01
 4.3297501E+00  3.2331711E+01
 4.3412504E+00  3.2322113E+01
 4.3527503E+00  3.2366531E+01
 4.3642502E+00  3.2431610E+01
 4.3757501E+00  3.2802395E+01
 4.3872504E+00  3.2834236E+01
 4.3987503E+00  3.2777229E+01
 4.4102502E+00  3.2662712E+01
 4.4217501E+00  3.2509785E+01
 4.4332504E+00  3.2668953E+01
 4.4447503E+00  3.2669666E+01
 4.4562502E+00  3.2817417E+01
 4.4677501E+00  3.2880119E+01
 4.4792504E+00  3.2891846E+01
 4.4907503E+00  3.2879845E+01
 4.5022502E+00  3.2915928E+01
 4.5137501E+00  3.2965218E+01
 4.5252504E+00  3.2956253E+01
 4.5367503E+00  3.2945625E+01
 4.5482502E+00  3.2819069E+01
 4.5597501E+00  3.2860161E+01
 4.5712504E+00  3.2813789E+01
 4.5827503E+00  3.2875862E+01
 4.5942502E+00  3.2925713E+01
 4.6057501E+00  3.2984135E+01
 4.6172504E+00  3.3013401E+01
 4.6287503E+00  3.2987053E+01
 4.6402502E+00  3.2925312E+01
 4.6517501E+00  3.2992748E+01
 4.6632504E+00  3.2920597E+01
 4.6747503E+00  3.2803753E+01
 4.6862502E+00  3.2809292E+01
 4.6977501E+00  3.2873894E+01
 4.7092505E+00  3.2940536E+01
 4.7207503E+00  3.2886425E+01
 4.7322502E+00  3.2737488E+01
 4.7437501E+00  3.2647381E+01
 4.7552505E+00  3.2473026E+01
 4.7667503E+00  3.2519245E+01
 4.7782502E+00  3.2579430E+01
 4.7897501E+00  3.2704113E+01
 4.8012505E+00  3.2747211E+01
 4.8127503E+00  3.2766800E+01
 4.8242502E+00  3.2758064E+01
 4.8357501E+00  3.2841595E+01
 4.8472505E+00  3.2957466E+01
 4.8587503E+00  3.3089817E+01
 4.8702502E+00  3.2962345E+01
 4.8817501E+00  3.2906742E+01
 4.8932505E+00  3.2724041E+01
 4.9047503E+00  3.2706608E+01
 4.9162502E+00  3.2767399E+01
 4.9277501E+00  3.2699406E+01
 4.9392505E+00  3.2730556E+01
 4.9507504E+00  3.2565243E+01
 4.9622502E+00  3.2697186E+01
 4.9737501E+00  3.2802258E+01
 4.9852505E+00  3.2939873E+01
 4.9967504E+00  3.2976120E+01
 5.0082502E+00  3.3036087E+01
 5.0197501E+00  3.3063347E+01
 5.0312505E+00  3.3127594E+01
 5.0427504E+00  3.3327652E+01
 5.0542502E+00  3.3351749E+01
 5.0657501E+00  3.3450008E+01
 5.0772505E+00  3.3457005E+01
 5.0887504E+00  3.3491077E+01
 5.1002502E+00  3.3569202E+01
 5.1117501E+00  3.3587280E+01
 5.1232505E+00  3.3666939E+01
 5.1347504E+00  3.3793396E+01
 5.1462502E+00  3.3810204E+01
 5.1577501E+00  3.3842731E+01
 5.1692505E+00  3.3858265E+01
 5.1807504E+00  3.3861568E+01
 5.1922503E+00  3.3943043E+01
 5.2037501E+00  3.3954437E+01
 5.2152505E+00  3.3898537E+01
 5.2267504E+00  3.3993214E+01
 5.2382503E+00  3.3950745E+01
 5.2497501E+00  3.4073429E+01
 5.2612505E+00  3.4075081E+01
 5.2727504E+00  3.4251846E+01
 5.2842503E+00  3.4261295E+01
 5.2957501E+00  3.4389729E+01
 5.3072500E+00  3.4295628E+01
 5.3187504E+00  3.4390285E+01
 5.3302503E+00  3.4328083E+01
 5.3417501E+00  3.4319790E+01
 5.3532500E+00  3.4210907E+01
 5.3647504E+00  3.4174862E+01
 5.3762503E+00  3.4084435E+01
 5.3877501E+00  3.4354881E+01
 5.3992500E+00  3.4410530E+01
 5.4107504E+00  3.4613930E+01
 5.4222503E+00  3.4579586E+01
 5.4337502E+00  3.4558521E+01
 5.4452500E+00  3.4644230E+01
 5.4567504E+00  3.4692051E+01
 5.4682503E+00  3.4669907E+01
 5.4797502E+00  3.4606705E+01
 5.4912500E+00  3.4495571E+01
 5.5027504E+00  3.4474060E+01
 5.5142503E+00  3.4644867E+01
 5.5257502E+00  3.4715412E+01
 5.5372500E+00  3.4883820E+01
 5.5487504E+00  3.4940178E+01
 5.5602503E+00  3.5041039E+01
 5.5717502E+00  3.5129704E+01
 5.5832500E+00  3.5069992E+01
 5.5947504E+00  3.5063187E+01
 5.6062503E+00  3.5050831E+01
 5.6177502E+00  3.5157608E+01
 5.6292500E+00  3.5091805E+01
 5.6407504E+00  3.5223259E+01
 5.6522503E+00  3.5329426E+01
 5.6637502E+00  3.5496544E+01
 5.6752501E+00  3.5567635E+01
 5.6867504E+00  3.5659771E+01
 5.6982503E+00  3.5642971E+01
 5.7097502E+00  3.5699440E+01
 5.7212501E+00  3.5707783E+01
 5.7327504E+00  3.5834736E+01
 5.7442503E+00  3.5868095E+01
 5.7557502E+00  3.5850266E+01
 5.7672501E+00  3.5764584E+01
 5.7787504E+00  3.5876972E+01
 5.7902503E+00  3.6021687E+01
 5.8017502E+00  3.6204090E+01
 5.8132501E+00  3.6258476E+01
 5.8247504E+00  3.6273746E+01
 5.8362503E+00  3.6283653E+01
 5.8477502E+00  3.6260319E+01
 5.8592501E+00  3.6365433E+01
 5.8707504E+00  3.6610153E+01
 5.8822503E+00  3.6940224E+01
 5.8937502E+00  3.7311035E+01
 5.9052501E+00  3.7706253E+01
 5.9167504E+00  3.9080910E+01
 5.9282503E+00  4.0225250E+01
 5.9397502E+00  4.2797947E+01
 5.9512501E+00  4.7528755E+01
 5.9627504E+00  5.0929081E+01
 5.9742503E+00  5.3414875E+01
 5.9857502E+00  5.4490593E+01
 5.9972501E+00  5.2563740E+01
 6.0087504E+00  5.1505611E+01
 6.0202503E+00  4.6390385E+01
 6.0317502E+00  4.4314785E+01
 6.0432501E+00  4.1128544E+01
 6.0547504E+00  3.9575993E+01
 6.0662503E+00  3.8508045E+01
 6.0777502E+00  3.7866482E+01
 6.0892501E+00  3.7607124E+01
 6.1007504E+00  3.7372738E+01
 6.1122503E+00  3.7222992E+01
 6.1237502E+00  3.7216179E+01
 6.1352501E+00  3.7156761E+01
 6.1467505E+00  3.7190216E+01
 6.1582503E+00  3.7264706E+01
 6.1697502E+00  3.7325508E+01
 6.1812501E+00  3.7507118E+01
 6.1927505E+00  3.7567787E+01
 6.2042503E+00  3.7693119E+01
 6.2157502E+00  3.7739475E+01
 6.2272501E+00  3.7878345E+01
 6.2387505E+00  3.7873806E+01
 6.2502503E+00  3.8009792E+01
 6.2617502E+00  3.8013073E+01
 6.2732501E+00  3.8158115E+01
 6.2847505E+00  3.8263840E+01
 6.2962503E+00  3.8358402E+01
 6.3077502E+00  3.8389091E+01
 6.3192501E+00  3.8403286E+01
 6.3307505E+00  3.8468090E+01
 6.3422503E+00  3.8487522E+01
 6.3537502E+00  3.8437687E+01
 6.3652501E+00  3.8349869E+01
 6.3767505E+00  3.8327286E+01
 6.3882504E+00  3.8418663E+01
 6.3997502E+00  3.8461887E+01
 6.4112501E+00  3.8739960E+01
 6.4227505E+00  3.8810276E+01
 6.4342504E+00  3.8979908E+01
 6.4457502E+00  3.8909863E+01
 6.4572501E+00  3.8948334E+01
 6.4687505E+00  3.8979214E+01
 6.4802504E+00  3.8998150E+01
 6.4917502E+00  3.9103588E+01
 6.5032501E+00  3.9181644E+01
 6.5147505E+00  3.9358009E+01
 6.5262504E+00  3.9326862E+01
 6.5377502E+00  3.9374931E+01
 6.5492501E+00  3.9389141E+01
 6.5607505E+00  3.9476471E+01
 6.5722504E+00  3.9648941E+01
 6.5837502E+00  3.9795589E+01
 6.5952501E+00  3.9938972E+01
 6.6067505E+00  4.0087601E+01
 6.6182504E+00  4.0105213E+01
 6.6297503E+00  4.0274231E+01
 6.6412501E+00  4.0285290E+01
 6.6527505E+00  4.0446472E+01
 6.6642504E+00  4.0609383E+01
 6.6757503E+00  4.0620502E+01
 6.6872501E+00  4.0582001E+01
 6.6987505E+00  4.0460091E+01
 6.7102504E+00  4.0575142E+01
 6.7217503E+00  4.0656296E+01
 6.7332501E+00  4.0778362E+01
 6.7447505E+00  4.0855461E+01
 6.7562504E+00  4.0985641E+01
 6.7677503E+00  4.1077553E+01
 6.7792501E+00  4.1200638E+01
 6.7907505E+00  4.1241505E+01
 6.8022504E+00  4.1344540E+01
 6.8137503E+00  4.1512310E+01
 6.8252501E+00  4.1664459E+01
 6.8367505E+00  4.1765759E+01
 6.8482504E+00  4.1785576E+01
 6.8597503E+00  4.1820282E+01
 6.8712502E+00  4.1984970E+01
 6.8827505E+00  4.2026829E+01
 6.8942504E+00  4.2279652E+01
 6.9057503E+00  4.2319721E+01
 6.9172502E+00  4.2550068E+01
 6.9287505E+00  4.2539299E+01
 6.9402504E+00  4.2563824E+01
 6.9517503E+00  4.2565910E+01
 6.9632502E+00  4.2588238E+01
 6.9747505E+00  4.2660000E+01
 6.9862504E+00  4.2724010E+01
 6.9977503E+00  4.2720848E+01
 7.0092502E+00  4.2864220E+01
 7.0207505E+00  4.2848167E+01
 7.0322504E+00  4.2878201E+01
 7.0437503E+00  4.2921883E+01
 7.0552502E+00  4.3003422E+01
 7.0667505E+00  4.3106281E+01
 7.0782504E+00  4.3118145E+01
 7.0897503E+00  4.3140049E+01
 7.1012502E+00  4.3209419E+01
 7.1127505E+00  4.3264435E+01
 7.1242504E+00  4.3406464E+01
 7.1357503E+00  4.3469604E+01
 7.1472502E+00  4.3593170E+01
 7.1587505E+00  4.3568012E+01
 7.1702504E+00  4.3575081E+01
 7.1817503E+00  4.3543495E+01
 7.1932502E+00  4.3524197E+01
 7.2047505E+00  4.3552944E+01
 7.2162504E+00  4.3532719E+01
 7.2277503E+00  4.3609047E+01
 7.2392502E+00  4.3735321E+01
 7.2507505E+00  4.3832340E+01
 7.2622504E+00  4.3909912E+01
 7.2737503E+00  4.3871593E+01
 7.2852502E+00  4.3817192E+01
 7.2967505E+00  4.3727528E+01
 7.3082504E+00  4.3710232E+01
 7.3197503E+00  4.3812653E+01
 7.3312502E+00  4.3961426E+01
 7.3427505E+00  4.4112720E+01
 7.3542504E+00  4.4254238E+01
 7.3657503E+00  4.4309513E+01
 7.3772502E+00  4.4428829E+01
 7.3887506E+00  4.4514755E+01
 7.4002504E+00  4.4575203E+01
 7.4117503E+00  4.4578938E+01
 7.4232502E+00  4.4422241E+01
 7.4347506E+00  4.4374825E+01
 7.4462504E+00  4.4329197E+01
 7.4577503E+00  4.4415474E+01
 7.4692502E+00  4.4497356E+01
 7.4807506E+00  4.4616947E+01
 7.4922504E+00  4.4702820E+01
 7.5037503E+00  4.4752838E+01
 7.5152502E+00  4.4662521E+01
 7.5267506E+00  4.4563313E+01
 7.5382504E+00  4.4571262E+01
 7.5497503E+00  4.4542736E+01
 7.5612502E+00  4.4596809E+01
 7.5727506E+00  4.4568447E+01
 7.5842505E+00  4.4546589E+01
 7.5957503E+00  4.4530014E+01
 7.6072502E+00  4.4575512E+01
 7.6187506E+00  4.4575397E+01
 7.6302505E+00  4.4649727E+01
 7.6417503E+00  4.4593632E+01
 7.6532502E+00  4.4748234E+01
 7.6647506E+00  4.4733337E+01
 7.6762505E+00  4.4729485E+01
 7.6877503E+00  4.4781200E+01
 7.6992502E+00  4.4846088E+01
 7.7107506E+00  4.4910328E+01
 7.7222505E+00  4.4814873E+01
 7.7337503E+00  4.4748447E+01
 7.7452502E+00  4.4731411E+01
 7.7567506E+00  4.4643269E+01
 7.7682505E+00  4.4557915E+01
 7.7797503E+00  4.4497173E+01
 7.7912502E+00  4.4483620E+01
 7.8027506E+00  4.4538158E+01
 7.8142505E+00  4.4510513E+01
 7.8257504E+00  4.4510277E+01
 7.8372502E+00  4.4533234E+01
 7.8487506E+00  4.4535709E+01
 7.8602505E+00  4.4574425E+01
 7.8717504E+00  4.4432858E+01
 7.8832502E+00  4.4323837E+01
 7.8947506E+00  4.4207676E+01
 7.9062505E+00  4.4159489E+01
 7.9177504E+00  4.4165604E+01
 7.9292502E+00  4.4115479E+01
 7.9407506E+00  4.4049618E+01
 7.9522505E+00  4.3981709E+01
 7.9637504E+00  4.3859589E+01
 7.9752502E+00  4.3718048E+01
 7.9867506E+00  4.3592052E+01
 7.9982505E+00  4.3562157E+01
 8.0097504E+00  4.3610645E+01
 8.0212507E+00  4.3568298E+01
 8.0327501E+00  4.3519325E+01
 8.0442505E+00  4.3419750E+01
 8.0557508E+00  4.3401516E+01
 8.0672503E+00  4.3297539E+01
 8.0787506E+00  4.3252747E+01
 8.0902500E+00  4.3277275E+01
 8.1017504E+00  4.3321590E+01
 8.1132507E+00  4.3409885E+01
 8.1247501E+00  4.3276455E+01
 8.1362505E+00  4.3136429E+01
 8.1477509E+00  4.2846706E+01
 8.1592503E+00  4.2721046E+01
 8.1707506E+00  4.2601929E+01
 8.1822500E+00  4.2546589E+01
 8.1937504E+00  4.2403843E+01
 8.2052507E+00  4.2269760E+01
 8.2167501E+00  4.2110741E+01
 8.2282505E+00  4.2044594E+01
 8.2397509E+00  4.1989475E+01
 8.2512503E+00  4.1889904E+01
 8.2627506E+00  4.1709167E+01
 8.2742500E+00  4.1480305E+01
 8.2857504E+00  4.1321709E+01
 8.2972507E+00  4.1130962E+01
 8.3087502E+00  4.1052448E+01
 8.3202505E+00  4.0963341E+01
 8.3317509E+00  4.0868183E+01
 8.3432503E+00  4.0735569E+01
 8.3547506E+00  4.0519627E+01
 8.3662500E+00  4.0347244E+01
 8.3777504E+00  4.0120590E+01
 8.3892508E+00  3.9892059E+01
 8.4007502E+00  3.9700958E+01
 8.4122505E+00  3.9564377E+01
 8.4237509E+00  3.9497860E+01
 8.4352503E+00  3.9421421E+01
 8.4467506E+00  3.9335613E+01
 8.4582500E+00  3.9212311E+01
 8.4697504E+00  3.9076378E+01
 8.4812508E+00  3.8907829E+01
 8.4927502E+00  3.8635902E+01
 8.5042505E+00  3.8461346E+01
 8.5157509E+00  3.8134499E+01
 8.5272503E+00  3.7946739E+01
 8.5387506E+00  3.7592808E+01
 8.5502501E+00  3.7322670E+01
 8.5617504E+00  3.7019333E+01
 8.5732508E+00  3.6879189E+01
 8.5847502E+00  3.6755478E+01
 8.5962505E+00  3.6639355E+01
 8.6077509E+00  3.6427578E+01
 8.6192503E+00  3.6284077E+01
 8.6307507E+00  3.6082268E+01
 8.6422501E+00  3.5924278E+01
 8.6537504E+00  3.5695255E+01
 8.6652508E+00  3.5563873E+01
 8.6767502E+00  3.5424107E+01
 8.6882505E+00  3.5353962E+01
 8.6997509E+00  3.5227627E+01
 8.7112503E+00  3.5050945E+01
 8.7227507E+00  3.4940166E+01
 8.7342501E+00  3.4766117E+01
 8.7457504E+00  3.4638451E+01
 8.7572508E+00  3.4376698E+01
 8.7687502E+00  3.4289948E+01
 8.7802505E+00  3.4072495E+01
 8.7917500E+00  3.3969345E+01
 8.8032503E+00  3.3718166E+01
 8.8147507E+00  3.3568550E+01
 8.8262501E+00  3.3324299E+01
 8.8377504E+00  3.3158279E+01
 8.8492508E+00  3.3004936E+01
 8.8607502E+00  3.2919086E+01
 8.8722506E+00  3.2768616E+01
 8.8837500E+00  3.2572601E+01
 8.8952503E+00  3.2304604E+01
 8.9067507E+00  3.2116726E+01
 8.9182501E+00  3.1956581E+01
 8.9297504E+00  3.1825329E+01
 8.9412508E+00  3.1695005E+01
 8.9527502E+00  3.1558226E+01
 8.9642506E+00  3.1412275E+01
 8.9757500E+00  3.1239943E+01
 8.9872503E+00  3.1067175E+01
 8.9987507E+00  3.0873785E+01
 9.0102501E+00  3.0630924E+01
 9.0217505E+00  3.0471373E+01
 9.0332508E+00  3.0422075E+01
 9.0447502E+00  3.0364868E+01
 9.0562506E+00  3.0277445E+01
 9.0677500E+00  3.0196228E+01
 9.0792503E+00  3.0106880E+01
 9.0907507E+00  3.0000637E+01
 9.1022501E+00  2.9801792E+01
 9.1137505E+00  2.9723820E+01
 9.1252508E+00  2.9666975E+01
 9.1367502E+00  2.9568861E+01
 9.1482506E+00  2.9416891E+01
 9.1597500E+00  2.9226532E+01
 9.1712503E+00  2.9027731E+01
 9.1827507E+00  2.8846825E+01
 9.1942501E+00  2.8645924E+01
 9.2057505E+00  2.8558775E+01
 9.2172508E+00  2.8505688E+01
 9.2287502E+00  2.8431063E+01
 9.2402506E+00  2.8452587E+01
 9.2517500E+00  2.8402754E+01
 9.2632504E+00  2.8346210E+01
 9.2747507E+00  2.8198378E+01
 9.2862501E+00  2.8043034E+01
 9.2977505E+00  2.7984488E+01
 9.3092508E+00  2.7883348E+01
 9.3207502E+00  2.7688429E+01
 9.3322506E+00  2.7508364E+01
 9.3437500E+00  2.7424162E+01
 9.3552504E+00  2.7400373E+01
 9.3667507E+00  2.7409792E+01
 9.3782501E+00  2.7239256E+01
 9.3897505E+00  2.7160055E+01
 9.4012508E+00  2.7076307E+01
 9.4127502E+00  2.7044317E+01
 9.4242506E+00  2.6972296E+01
 9.4357500E+00  2.6885281E+01
 9.4472504E+00  2.6829699E+01
 9.4587507E+00  2.6783493E+01
 9.4702501E+00  2.6713102E+01
 9.4817505E+00  2.6623951E+01
 9.4932508E+00  2.6492912E+01
 9.5047503E+00  2.6358572E+01
 9.5162506E+00  2.6240450E+01
 9.5277500E+00  2.6194162E+01
 9.5392504E+00  2.6181198E+01
 9.5507507E+00  2.6212212E+01
 9.5622501E+00  2.6241947E+01
 9.5737505E+00  2.6179310E+01
 9.5852509E+00  2.6067951E+01
 9.5967503E+00  2.6003658E+01
 9.6082506E+00  2.5981796E+01
 9.6197500E+00  2.6013338E+01
 9.6312504E+00  2.5988073E+01
 9.6427507E+00  2.5882820E+01
 9.6542501E+00  2.5781736E+01
 9.6657505E+00  2.5649290E+01
 9.6772509E+00  2.5589516E+01
 9.6887503E+00  2.5543777E+01
 9.7002506E+00  2.5515879E+01
 9.7117500E+00  2.5490320E+01
 9.7232504E+00  2.5425062E+01
 9.7347507E+00  2.5339205E+01
 9.7462502E+00  2.5317144E+01
 9.7577505E+00  2.5220757E+01
 9.7692509E+00  2.5254763E+01
 9.7807503E+00  2.5254511E+01
 9.7922506E+00  2.5242920E+01
 9.8037500E+00  2.5168421E+01
 9.8152504E+00  2.5077133E+01
 9.8267508E+00  2.4987749E+01
 9.8382502E+00  2.4919230E+01
 9.8497505E+00  2.4854761E+01
 9.8612509E+00  2.4833393E+01
 9.8727503E+00  2.4857227E+01
 9.8842506E+00  2.4853689E+01
 9.8957500E+00  2.4918083E+01
 9.9072504E+00  2.4931036E+01
 9.9187508E+00  2.4912060E+01
 9.9302502E+00  2.4865068E+01
 9.9417505E+00  2.4764643E+01
 9.9532509E+00  2.4697220E+01
 9.9647503E+00  2.4616161E+01
 9.9762506E+00  2.4582550E+01
 9.9877501E+00  2.4489485E+01
 9.9992504E+00  2.4407711E+01
 1.0010751E+01  2.4252398E+01
 1.0022250E+01  2.4213692E+01
 1.0033751E+01  2.4207970E+01
 1.0045251E+01  2.4275349E+01
 1.0056750E+01  2.4244343E+01
 1.0068251E+01  2.4231228E+01
 1.0079750E+01  2.4151421E+01
 1.0091250E+01  2.4117020E+01
 1.0102751E+01  2.4106556E+01
 1.0114250E+01  2.4135777E+01
 1.0125751E+01  2.4150316E+01
 1.0137251E+01  2.4133310E+01
 1.0148750E+01  2.4128485E+01
 1.0160251E+01  2.4129953E+01
 1.0171750E+01  2.4056206E+01
 1.0183250E+01  2.4008062E+01
 1.0194751E+01  2.3918001E+01
 1.0206250E+01  2.3865625E+01
 1.0217751E+01  2.3822954E+01
 1.0229251E+01  2.3795605E+01
 1.0240750E+01  2.3785254E+01
 1.0252251E+01  2.3750883E+01
 1.0263750E+01  2.3742527E+01
 1.0275250E+01  2.3737988E+01
 1.0286751E+01  2.3738066E+01
 1.0298250E+01  2.3790316E+01
 1.0309751E+01  2.3780872E+01
 1.0321251E+01  2.3701706E+01
 1.0332750E+01  2.3615276E+01
 1.0344251E+01  2.3597485E+01
 1.0355750E+01  2.3602158E+01
 1.0367250E+01  2.3622215E+01
 1.0378751E+01  2.3580013E+01
 1.0390250E+01  2.3639017E+01
 1.0401751E+01  2.3608852E+01
 1.0413251E+01  2.3595547E+01
 1.0424750E+01  2.3506365E+01
 1.0436251E+01  2.3424702E+01
 1.0447750E+01  2.3420063E+01
 1.0459250E+01  2.3363739E+01
 1.0470751E+01  2.3379427E+01
 1.0482250E+01  2.3309170E+01
 1.0493751E+01  2.3345013E+01
 1.0505251E+01  2.3378874E+01
 1.0516750E+01  2.3448299E+01
 1.0528251E+01  2.3423391E+01
 1.0539750E+01  2.3374828E+01
 1.0551250E+01  2.3311436E+01
 1.0562751E+01  2.3339666E+01
 1.0574250E+01  2.3289379E+01
 1.0585751E+01  2.3287386E+01
 1.0597251E+01  2.3241007E+01
 1.0608750E+01  2.3299494E+01
 1.0620251E+01  2.3343630E+01
 1.0631750E+01  2.3372644E+01
 1.0643250E+01  2.3279573E+01
 1.0654751E+01  2.3199808E+01
 1.0666250E+01  2.3116447E+01
 1.0677751E+01  2.3075638E+01
 1.0689251E+01  2.2986879E+01
 1.0700750E+01  2.3041258E+01
 1.0712251E+01  2.3039892E+01
 1.0723750E+01  2.3106031E+01
 1.0735250E+01  2.3020365E+01
 1.0746751E+01  2.3023188E+01
 1.0758250E+01  2.2937790E+01
 1.0769751E+01  2.2854746E+01
 1.0781251E+01  2.2860348E+01
 1.0792750E+01  2.2819960E+01
 1.0804251E+01  2.2813143E+01
 1.0815750E+01  2.2724405E+01
 1.0827250E+01  2.2765095E+01
 1.0838751E+01  2.2717897E+01
 1.0850250E+01  2.2743370E+01
 1.0861751E+01  2.2751627E+01
 1.0873251E+01  2.2791786E+01
 1.0884750E+01  2.2766777E+01
 1.0896251E+01  2.2721214E+01
 1.0907750E+01  2.2777760E+01
 1.0919250E+01  2.2815231E+01
 1.0930751E+01  2.2807772E+01
 1.0942250E+01  2.2798113E+01
 1.0953751E+01  2.2805397E+01
 1.0965251E+01  2.2788383E+01
 1.0976750E+01  2.2790823E+01
 1.0988251E+01  2.2759575E+01
 1.0999750E+01  2.2754423E+01
 1.1011250E+01  2.2713306E+01
 1.1022751E+01  2.2661873E+01
 1.1034250E+01  2.2626389E+01
 1.1045751E+01  2.2553164E+01
 1.1057251E+01  2.2505136E+01
 1.1068750E+01  2.2510458E+01
 1.1080251E+01  2.2557867E+01
 1.1091750E+01  2.2618971E+01
 1.1103251E+01  2.2643892E+01
 1.1114751E+01  2.2649990E+01
 1.1126250E+01  2.2656843E+01
 1.1137751E+01  2.2658009E+01
 1.1149251E+01  2.2692671E+01
 1.1160750E+01  2.2720505E+01
 1.1172251E+01  2.2730658E+01
 1.1183750E+01  2.2729401E+01
 1.1195251E+01  2.2760738E+01
 1.1206751E+01  2.2800491E+01
 1.1218250E+01  2.2866480E+01
 1.1229751E+01  2.2858465E+01
 1.1241251E+01  2.2839533E+01
 1.1252750E+01  2.2762501E+01
 1.1264251E+01  2.2699108E+01
 1.1275750E+01  2.2645025E+01
 1.1287251E+01  2.2576361E+01
 1.1298751E+01  2.2531406E+01
 1.1310250E+01  2.2501432E+01
 1.1321751E+01  2.2552967E+01
 1.1333251E+01  2.2604465E+01
 1.1344750E+01  2.2665373E+01
 1.1356251E+01  2.2675026E+01
 1.1367750E+01  2.2698822E+01
 1.1379251E+01  2.2768396E+01
 1.1390751E+01  2.2766653E+01
 1.1402250E+01  2.2829691E+01
 1.1413751E+01  2.2769051E+01
 1.1425251E+01  2.2804108E+01
 1.1436750E+01  2.2832800E+01
 1.1448251E+01  2.2934141E+01
 1.1459750E+01  2.3033695E+01
 1.1471251E+01  2.3160816E+01
 1.1482751E+01  2.3238415E+01
 1.1494250E+01  2.3348841E+01
 1.1505751E+01  2.3424805E+01
 1.1517251E+01  2.3823980E+01
 1.1528750E+01  2.4360893E+01
 1.1540251E+01  2.5287378E+01
 1.1551750E+01  2.6980104E+01
 1.1563251E+01  2.8782463E+01
 1.1574751E+01  3.0685440E+01
 1.1586250E+01  3.2122990E+01
 1.1597751E+01  3.2510109E+01
 1.1609251E+01  3.1736292E+01
 1.1620750E+01  2.9802504E+01
 1.1632251E+01  2.8198910E+01
 1.1643750E+01  2.6464561E+01
 1.1655251E+01  2.5231625E+01
 1.1666751E+01  2.4177515E+01
 1.1678250E+01  2.3696712E+01
 1.1689751E+01  2.3271484E+01
 1.1701251E+01  2.2995939E+01
 1.1712750E+01  2.2849112E+01
 1.1724251E+01  2.2738354E+01
 1.1735750E+01  2.2644918E+01
 1.1747251E+01  2.2611336E+01
 1.1758751E+01  2.2589470E+01
 1.1770250E+01  2.2562714E+01
 1.1781751E+01  2.2530628E+01
 1.1793251E+01  2.2519485E+01
 1.1804750E+01  2.2568977E+01
 1.1816251E+01  2.2615353E+01
 1.1827750E+01  2.2594240E+01
 1.1839251E+01  2.2561361E+01
 1.1850751E+01  2.2550217E+01
 1.1862250E+01  2.2552479E+01
 1.1873751E+01  2.2538275E+01
 1.1885251E+01  2.2551558E+01
 1.1896750E+01  2.2586607E+01
 1.1908251E+01  2.2673029E+01
 1.1919750E+01  2.2769585E+01
 1.1931251E+01  2.3068460E+01
 1.1942751E+01  2.3306198E+01
 1.1954250E+01  2.3460781E+01
 1.1965751E+01  2.3663052E+01
 1.1977251E+01  2.3710133E+01
 1.1988750E+01  2.3808046E+01
 1.2000251E+01  2.3639141E+01
 1.2011750E+01  2.3541571E+01
 1.2023251E+01  2.3460188E+01
 1.2034751E+01  2.3379999E+01
 1.2046250E+01  2.3487787E+01
 1.2057751E+01  2.3715282E+01
 1.2069251E+01  2.4031279E+01
 1.2080750E+01  2.4472603E+01
 1.2092251E+01  2.4805027E+01
 1.2103750E+01  2.5057661E+01
 1.2115251E+01  2.4957457E+01
 1.2126751E+01  2.4744434E+01
 1.2138250E+01  2.4295998E+01
 1.2149751E+01  2.3919256E+01
 1.2161251E+01  2.3458448E+01
 1.2172750E+01  2.3201010E+01
 1.2184251E+01  2.2991518E+01
 1.2195750E+01  2.2883461E+01
 1.2207251E+01  2.2754622E+01
 1.2218751E+01  2.2656248E+01
 1.2230250E+01  2.2633663E+01
 1.2241751E+01  2.2635391E+01
 1.2253251E+01  2.2624298E+01
 1.2264750E+01  2.2642866E+01
 1.2276251E+01  2.2636402E+01
 1.2287750E+01  2.2691744E+01
 1.2299251E+01  2.2651697E+01
 1.2310751E+01  2.2713486E+01
 1.2322250E+01  2.2699432E+01
 1.2333751E+01  2.2720581E+01
 1.2345250E+01  2.2699860E+01
 1.2356750E+01  2.2763985E+01
 1.2368251E+01  2.2783686E+01
 1.2379750E+01  2.2789783E+01
 1.2391251E+01  2.2686056E+01
 1.2402751E+01  2.2585615E+01
 1.2414250E+01  2.2531240E+01
 1.2425751E+01  2.2546593E+01
 1.2437250E+01  2.2673227E+01
 1.2448750E+01  2.2757528E+01
 1.2460251E+01  2.2794638E+01
 1.2471750E+01  2.2789083E+01
 1.2483251E+01  2.2783058E+01
 1.2494751E+01  2.2780106E+01
 1.2506250E+01  2.2730659E+01
 1.2517751E+01  2.2763330E+01
 1.2529250E+01  2.2823025E+01
 1.2540751E+01  2.2896004E+01
 1.2552251E+01  2.2913372E+01
 1.2563750E+01  2.2900923E+01
 1.2575251E+01  2.2871485E+01
 1.2586751E+01  2.2827391E+01
 1.2598250E+01  2.2822037E+01
 1.2609751E+01  2.2841112E+01
 1.2621250E+01  2.2861595E+01
 1.2632751E+01  2.2873940E+01
 1.2644251E+01  2.2858868E+01
 1.2655750E+01  2.2868835E+01
 1.2667251E+01  2.2903536E+01
 1.2678751E+01  2.2978939E+01
 1.2690250E+01  2.3032660E+01
 1.2701751E+01  2.3068745E+01
 1.2713250E+01  2.3094160E+01
 1.2724751E+01  2.3106365E+01
 1.2736251E+01  2.3139765E+01
 1.2747750E+01  2.3187914E+01
 1.2759251E+01  2.3246138E+01
 1.2770751E+01  2.3206919E+01
 1.2782250E+01  2.3213093E+01
 1.2793751E+01  2.3185246E+01
 1.2805250E+01  2.3250107E+01
 1.2816751E+01  2.3302193E+01
 1.2828251E+01  2.3369957E+01
 1.2839750E+01  2.3427979E+01
 1.2851251E+01  2.3476954E+01
 1.2862751E+01  2.3507652E+01
 1.2874250E+01  2.3560923E+01
 1.2885751E+01  2.3550367E+01
 1.2897250E+01  2.3610647E+01
 1.2908751E+01  2.3696302E+01
 1.2920251E+01  2.3772251E+01
 1.2931750E+01  2.3902651E+01
 1.2943251E+01  2.3928352E+01
 1.2954751E+01  2.3983492E+01
 1.2966250E+01  2.3977026E+01
 1.2977751E+01  2.4028177E+01
 1.2989250E+01  2.4019554E+01
 1.3000751E+01  2.4036940E+01
 1.3012251E+01  2.4080442E+01
 1.3023750E+01  2.4176575E+01
 1.3035251E+01  2.4212280E+01
 1.3046751E+01  2.4256401E+01
 1.3058250E+01  2.4374746E+01
 1.3069751E+01  2.4522982E+01
 1.3081250E+01  2.4630013E+01
 1.3092751E+01  2.4746029E+01
 1.3104251E+01  2.4905031E+01
 1.3115750E+01  2.5078646E+01
 1.3127251E+01  2.5168344E+01
 1.3138751E+01  2.5263630E+01
 1.3150250E+01  2.5361935E+01
 1.3161751E+01  2.5456915E+01
 1.3173250E+01  2.5533142E+01
 1.3184751E+01  2.5596703E+01
 1.3196251E+01  2.5691212E+01
 1.3207750E+01  2.5844532E+01
 1.3219251E+01  2.6021254E+01
 1.3230751E+01  2.6232826E+01
 1.3242250E+01  2.6401566E+01
 1.3253751E+01  2.6557316E+01
 1.3265250E+01  2.6724314E+01
 1.3276751E+01  2.6862194E+01
 1.3288251E+01  2.7021679E+01
 1.3299750E+01  2.7121588E+01
 1.3311251E+01  2.7251431E+01
 1.3322751E+01  2.7389534E+01
 1.3334250E+01  2.7576590E+01
 1.3345751E+01  2.7726553E+01
 1.3357250E+01  2.7909573E+01
 1.3368751E+01  2.8064976E+01
 1.3380251E+01  2.8184008E+01
 1.3391750E+01  2.8312485E+01
 1.3403251E+01  2.8432814E+01
 1.3414751E+01  2.8575964E+01
 1.3426250E+01  2.8686110E+01
 1.3437751E+01  2.8804295E+01
 1.3449250E+01  2.8920040E+01
 1.3460751E+01  2.9017647E+01
 1.3472251E+01  2.9153259E+01
 1.3483750E+01  2.9351055E+01
 1.3495251E+01  2.9419062E+01
 1.3506751E+01  2.9506233E+01
 1.3518250E+01  2.9520845E+01
 1.3529751E+01  2.9621742E+01
 1.3541250E+01  2.9702015E+01
 1.3552751E+01  2.9732306E+01
 1.3564251E+01  2.9817629E+01
 1.3575750E+01  2.9811306E+01
 1.3587251E+01  2.9869644E+01
 1.3598751E+01  2.9874283E+01
 1.3610250E+01  2.9892387E+01
 1.3621751E+01  2.9948711E+01
 1.3633250E+01  2.9981722E+01
 1.3644751E+01  3.0058304E+01
 1.3656251E+01  3.0109932E+01
 1.3667750E+01  3.0205263E+01
 1.3679251E+01  3.0179337E+01
 1.3690751E+01  3.0121229E+01
 1.3702250E+01  3.0041693E+01
 1.3713751E+01  3.0059866E+01
 1.3725250E+01  3.0049128E+01
 1.3736751E+01  3.0005949E+01
 1.3748251E+01  2.9897518E+01
 1.3759750E+01  2.9841515E+01
 1.3771251E+01  2.9814400E+01
 1.3782751E+01  2.9869310E+01
 1.3794250E+01  2.9893141E+01
 1.3805751E+01  2.9972773E+01
 1.3817250E+01  3.0052084E+01
 1.3828751E+01  3.0196972E+01
 1.3840251E+01  3.0390402E+01
 1.3851750E+01  3.0694256E+01
 1.3863251E+01  3.1262352E+01
 1.3874751E+01  3.2147327E+01
 1.3886250E+01  3.3562477E+01
 1.3897751E+01  3.5780823E+01
 1.3909250E+01  3.9424313E+01
 1.3920751E+01  4.4787342E+01
 1.3932251E+01  5.0630184E+01
 1.3943750E+01  5.5981556E+01
 1.3955251E+01  5.9448803E+01
 1.3966751E+01  5.8851391E+01
 1.3978251E+01  5.4608711E+01
 1.3989751E+01  4.9072155E+01
 1.4001250E+01  4.3458099E+01
 1.4012751E+01  3.8217686E+01
 1.4024251E+01  3.4023140E+01
 1.4035750E+01  3.1974752E+01
 1.4047251E+01  3.0509871E+01
 1.4058751E+01  2.9714062E+01
 1.4070251E+01  2.9272781E+01
 1.4081751E+01  2.8856943E+01
 1.4093250E+01  2.8554636E+01
 1.4104751E+01  2.8357115E+01
 1.4116251E+01  2.8174194E+01
 1.4127750E+01  2.8042542E+01
 1.4139251E+01  2.7848488E+01
 1.4150751E+01  2.7705557E+01
 1.4162251E+01  2.7618111E+01
 1.4173751E+01  2.7492346E+01
 1.4185250E+01  2.7307615E+01
 1.4196751E+01  2.7208738E+01
 1.4208251E+01  2.7125015E+01
 1.4219750E+01  2.7108212E+01
 1.4231251E+01  2.6994539E+01
 1.4242751E+01  2.6927227E+01
 1.4254251E+01  2.6838415E+01
 1.4265751E+01  2.6736712E+01
 1.4277250E+01  2.6658365E+01
 1.4288751E+01  2.6575649E+01
 1.4300251E+01  2.6529951E+01
 1.4311750E+01  2.6492777E+01
 1.4323251E+01  2.6466051E+01
 1.4334751E+01  2.6457527E+01
 1.4346251E+01  2.6420933E+01
 1.4357751E+01  2.6439756E+01
 1.4369250E+01  2.6432554E+01
 1.4380751E+01  2.6432838E+01
 1.4392251E+01  2.6372072E+01
 1.4403750E+01  2.6280035E+01
 1.4415251E+01  2.6194658E+01
 1.4426751E+01  2.6137524E+01
 1.4438251E+01  2.6107069E+01
 1.4449751E+01  2.6086819E+01
 1.4461250E+01  2.6004557E+01
 1.4472751E+01  2.5897923E+01
 1.4484251E+01  2.5789042E+01
 1.4495750E+01  2.5780666E+01
 1.4507251E+01  2.5782743E+01
 1.4518751E+01  2.5796917E+01
 1.4530251E+01  2.5760483E+01
 1.4541751E+01  2.5744530E+01
 1.4553250E+01  2.5700216E+01
 1.4564751E+01  2.5638880E+01
 1.4576251E+01  2.5594872E+01
 1.4587750E+01  2.5537579E+01
 1.4599251E+01  2.5524961E+01
 1.4610751E+01  2.5516685E+01
 1.4622251E+01  2.5502789E+01
 1.4633751E+01  2.5513922E+01
 1.4645250E+01  2.5521692E+01
 1.4656751E+01  2.5547239E+01
 1.4668251E+01  2.5543358E+01
 1.4679750E+01  2.5554836E+01
 1.4691251E+01  2.5531485E+01
 1.4702751E+01  2.5480629E+01
 1.4714251E+01  2.5428419E+01
 1.4725751E+01  2.5393702E+01
 1.4737250E+01  2.5360683E+01
 1.4748751E+01  2.5328989E+01
 1.4760251E+01  2.5268763E+01
 1.4771750E+01  2.5272812E+01
 1.4783251E+01  2.5289898E+01
 1.4794751E+01  2.5378933E+01
 1.4806251E+01  2.5366388E+01
 1.4817751E+01  2.5346409E+01
 1.4829250E+01  2.5286661E+01
 1.4840751E+01  2.5259426E+01
 1.4852251E+01  2.5194218E+01
 1.4863750E+01  2.5159338E+01
 1.4875251E+01  2.5114210E+01
 1.4886751E+01  2.5155628E+01
 1.4898251E+01  2.5177013E+01
 1.4909751E+01  2.5194418E+01
 1.4921250E+01  2.5141472E+01
 1.4932751E+01  2.5131071E+01
 1.4944251E+01  2.5092314E+01
 1.4955750E+01  2.5083744E+01
 1.4967251E+01  2.5059223E+01
 1.4978751E+01  2.5090235E+01
 1.4990251E+01  2.5111927E+01
 1.5001751E+01  2.5127176E+01
 1.5013250E+01  2.5153564E+01
 1.5024751E+01  2.5106110E+01
 1.5036251E+01  2.5079569E+01
 1.5047750E+01  2.5007845E+01
 1.5059251E+01  2.5027306E+01
 1.5070751E+01  2.5042547E+01
 1.5082251E+01  2.5005753E+01
 1.5093751E+01  2.4990658E+01
 1.5105250E+01  2.5013479E+01
 1.5116751E+01  2.5176844E+01
 1.5128251E+01  2.5345453E+01
 1.5139750E+01  2.5700623E+01
 1.5151251E+01  2.6107368E+01
 1.5162751E+01  2.6537594E+01
 1.5174251E+01  2.6954485E+01
 1.5185751E+01  2.7166534E+01
 1.5197250E+01  2.7318203E+01
 1.5208751E+01  2.7012735E+01
 1.5220251E+01  2.6786129E+01
 1.5231750E+01  2.6289701E+01
 1.5243251E+01  2.5936848E+01
 1.5254751E+01  2.5535149E+01
 1.5266251E+01  2.5194771E+01
 1.5277751E+01  2.4985281E+01
 1.5289250E+01  2.4885960E+01
 1.5300751E+01  2.4871281E+01
 1.5312251E+01  2.4843845E+01
 1.5323750E+01  2.4815067E+01
 1.5335251E+01  2.4795515E+01
 1.5346751E+01  2.4782642E+01
 1.5358251E+01  2.4774355E+01
 1.5369751E+01  2.4762466E+01
 1.5381250E+01  2.4764629E+01
 1.5392751E+01  2.4745491E+01
 1.5404251E+01  2.4784765E+01
 1.5415751E+01  2.4782072E+01
 1.5427251E+01  2.4820288E+01
 1.5438751E+01  2.4805983E+01
 1.5450251E+01  2.4750399E+01
 1.5461751E+01  2.4685589E+01
 1.5473250E+01  2.4581305E+01
 1.5484751E+01  2.4579205E+01
 1.5496251E+01  2.4588467E+01
 1.5507751E+01  2.4661476E+01
 1.5519251E+01  2.4683096E+01
 1.5530751E+01  2.4660286E+01
 1.5542251E+01  2.4590950E+01
 1.5553751E+01  2.4540707E+01
 1.5565250E+01  2.4503660E+01
 1.5576751E+01  2.4495203E+01
 1.5588251E+01  2.4464520E+01
 1.5599751E+01  2.4466307E+01
 1.5611251E+01  2.4448565E+01
 1.5622751E+01  2.4459589E+01
 1.5634251E+01  2.4508028E+01
 1.5645751E+01  2.4583391E+01
 1.5657250E+01  2.4655886E+01
 1.5668751E+01  2.4702078E+01
 1.5680251E+01  2.4698153E+01
 1.5691751E+01  2.4733997E+01
 1.5703251E+01  2.4768829E+01
 1.5714751E+01  2.4791800E+01
 1.5726251E+01  2.4779539E+01
 1.5737751E+01  2.4742598E+01
 1.5749250E+01  2.4750942E+01
 1.5760751E+01  2.4779716E+01
 1.5772251E+01  2.4810822E+01
 1.5783751E+01  2.4821495E+01
 1.5795251E+01  2.4805496E+01
 1.5806751E+01  2.4857119E+01
 1.5818251E+01  2.4873842E+01
 1.5829751E+01  2.4823786E+01
 1.5841250E+01  2.4784395E+01
 1.5852751E+01  2.4773579E+01
 1.5864251E+01  2.4768171E+01
 1.5875751E+01  2.4775160E+01
 1.5887251E+01  2.4784620E+01
 1.5898750E+01  2.4791733E+01
 1.5910251E+01  2.4778177E+01
 1.5921751E+01  2.4766750E+01
 1.5933250E+01  2.4773348E+01
 1.5944751E+01  2.4761099E+01
 1.5956251E+01  2.4761131E+01
 1.5967751E+01  2.4800913E+01
 1.5979251E+01  2.4792473E+01
 1.5990750E+01  2.4817520E+01
 1.6002251E+01  2.4781700E+01
 1.6013750E+01  2.4838413E+01
 1.6025251E+01  2.4831320E+01
 1.6036751E+01  2.4888861E+01
 1.6048250E+01  2.4884392E+01
 1.6059752E+01  2.4921701E+01
 1.6071251E+01  2.4896172E+01
 1.6082750E+01  2.4911493E+01
 1.6094252E+01  2.4886065E+01
 1.6105751E+01  2.4958347E+01
 1.6117250E+01  2.4999481E+01
 1.6128750E+01  2.5071234E+01
 1.6140251E+01  2.5092621E+01
 1.6151751E+01  2.5081951E+01
 1.6163250E+01  2.5192659E+01
 1.6174751E+01  2.5142340E+01
 1.6186251E+01  2.5432850E+01
 1.6197750E+01  2.5343580E+01
 1.6209251E+01  2.6032867E+01
 1.6220751E+01  2.6108036E+01
 1.6232250E+01  2.7053381E+01
 1.6243752E+01  2.7337879E+01
 1.6255251E+01  2.7789343E+01
 1.6266750E+01  2.7865423E+01
 1.6278252E+01  2.7229914E+01
 1.6289751E+01  2.7026081E+01
 1.6301250E+01  2.5918259E+01
 1.6312750E+01  2.5871492E+01
 1.6324251E+01  2.5237600E+01
 1.6335751E+01  2.5285999E+01
 1.6347250E+01  2.4968115E+01
 1.6358751E+01  2.4929749E+01
 1.6370251E+01  2.4838379E+01
 1.6381750E+01  2.4889465E+01
 1.6393251E+01  2.4929930E+01
 1.6404751E+01  2.4943930E+01
 1.6416250E+01  2.4968777E+01
 1.6427752E+01  2.4940933E+01
 1.6439251E+01  2.4952982E+01
 1.6450750E+01  2.4894180E+01
 1.6462252E+01  2.4872940E+01
 1.6473751E+01  2.4861908E+01
 1.6485250E+01  2.4898098E+01
 1.6496750E+01  2.4919777E+01
 1.6508251E+01  2.4912039E+01
 1.6519751E+01  2.4915720E+01
 1.6531250E+01  2.4860210E+01
 1.6542751E+01  2.4861013E+01
 1.6554251E+01  2.4799122E+01
 1.6565750E+01  2.4785992E+01
 1.6577251E+01  2.4740917E+01
 1.6588751E+01  2.4709414E+01
 1.6600250E+01  2.4744581E+01
 1.6611752E+01  2.4769630E+01
 1.6623251E+01  2.4746418E+01
 1.6634750E+01  2.4694530E+01
 1.6646252E+01  2.4682966E+01
 1.6657751E+01  2.4648142E+01
 1.6669250E+01  2.4632900E+01
 1.6680750E+01  2.4615898E+01
 1.6692251E+01  2.4649000E+01
 1.6703751E+01  2.4697910E+01
 1.6715250E+01  2.4776308E+01
 1.6726751E+01  2.4785822E+01
 1.6738251E+01  2.4814154E+01
 1.6749750E+01  2.4807384E+01
 1.6761251E+01  2.4806860E+01
 1.6772751E+01  2.4719690E+01
 1.6784250E+01  2.4659647E+01
 1.6795752E+01  2.4591038E+01
 1.6807251E+01  2.4549526E+01
 1.6818750E+01  2.4537119E+01
 1.6830252E+01  2.4547758E+01
 1.6841751E+01  2.4526676E+01
 1.6853251E+01  2.4539103E+01
 1.6864750E+01  2.4532768E+01
 1.6876251E+01  2.4545265E+01
 1.6887751E+01  2.4499466E+01
 1.6899250E+01  2.4507999E+01
 1.6910751E+01  2.4496655E+01
 1.6922251E+01  2.4518787E+01
 1.6933750E+01  2.4466551E+01
 1.6945251E+01  2.4438938E+01
 1.6956751E+01  2.4397121E+01
 1.6968250E+01  2.4369413E+01
 1.6979752E+01  2.4337557E+01
 1.6991251E+01  2.4336620E+01
 1.7002750E+01  2.4387356E+01
 1.7014252E+01  2.4417351E+01
 1.7025751E+01  2.4446699E+01
 1.7037251E+01  2.4416468E+01
 1.7048750E+01  2.4405815E+01
 1.7060251E+01  2.4372314E+01
 1.7071751E+01  2.4365391E+01
 1.7083250E+01  2.4340075E+01
 1.7094751E+01  2.4377260E+01
 1.7106251E+01  2.4355322E+01
 1.7117750E+01  2.4364460E+01
 1.7129251E+01  2.4394842E+01
 1.7140751E+01  2.4418741E+01
 1.7152250E+01  2.4368561E+01
 1.7163752E+01  2.4338051E+01
 1.7175251E+01  2.4319973E+01
 1.7186750E+01  2.4346174E+01
 1.7198252E+01  2.4372297E+01
 1.7209751E+01  2.4411892E+01
 1.7221251E+01  2.4411386E+01
 1.7232750E+01  2.4375788E+01
 1.7244251E+01  2.4367407E+01
 1.7255751E+01  2.4290464E+01
 1.7267250E+01  2.4244446E+01
 1.7278751E+01  2.4189020E+01
 1.7290251E+01  2.4226633E+01
 1.7301750E+01  2.4267969E+01
 1.7313251E+01  2.4297955E+01
 1.7324751E+01  2.4285671E+01
 1.7336250E+01  2.4311644E+01
 1.7347752E+01  2.4270422E+01
 1.7359251E+01  2.4289864E+01
 1.7370750E+01  2.4221901E+01
 1.7382252E+01  2.4196894E+01
 1.7393751E+01  2.4138849E+01
 1.7405251E+01  2.4145311E+01
 1.7416750E+01  2.4119545E+01
 1.7428251E+01  2.4108168E+01
 1.7439751E+01  2.4115553E+01
 1.7451250E+01  2.4150919E+01
 1.7462751E+01  2.4122047E+01
 1.7474251E+01  2.4136728E+01
 1.7485750E+01  2.4154947E+01
 1.7497252E+01  2.4164793E+01
 1.7508751E+01  2.4110756E+01
 1.7520250E+01  2.4080700E+01
 1.7531752E+01  2.4028118E+01
 1.7543251E+01  2.4047935E+01
 1.7554750E+01  2.4058174E+01
 1.7566252E+01  2.4043428E+01
 1.7577751E+01  2.3973087E+01
 1.7589251E+01  2.3961933E+01
 1.7600750E+01  2.4022724E+01
 1.7612251E+01  2.4043888E+01
 1.7623751E+01  2.4072540E+01
 1.7635250E+01  2.4073236E+01
 1.7646751E+01  2.4040144E+01
 1.7658251E+01  2.3953382E+01
 1.7669750E+01  2.3890501E+01
 1.7681252E+01  2.3877277E+01
 1.7692751E+01  2.3921019E+01
 1.7704250E+01  2.3971685E+01
 1.7715752E+01  2.4002214E+01
 1.7727251E+01  2.3977777E+01
 1.7738750E+01  2.3928469E+01
 1.7750252E+01  2.3885042E+01
 1.7761751E+01  2.3853580E+01
 1.7773251E+01  2.3884840E+01
 1.7784750E+01  2.3919548E+01
 1.7796251E+01  2.3983683E+01
 1.7807751E+01  2.3966005E+01
 1.7819250E+01  2.3946968E+01
 1.7830751E+01  2.3946302E+01
 1.7842251E+01  2.3975994E+01
 1.7853750E+01  2.3978357E+01
 1.7865252E+01  2.4003286E+01
 1.7876751E+01  2.4057770E+01
 1.7888250E+01  2.4087036E+01
 1.7899752E+01  2.4074232E+01
 1.7911251E+01  2.4113369E+01
 1.7922750E+01  2.4135180E+01
 1.7934252E+01  2.4099024E+01
 1.7945751E+01  2.4070181E+01
 1.7957251E+01  2.4093063E+01
 1.7968750E+01  2.4312042E+01
 1.7980251E+01  2.4571909E+01
 1.7991751E+01  2.4988960E+01
 1.8003250E+01  2.5234520E+01
 1.8014751E+01  2.5447706E+01
 1.8026251E+01  2.5416079E+01
 1.8037750E+01  2.5479368E+01
 1.8049252E+01  2.5561359E+01
 1.8060751E+01  2.5666361E+01
 1.8072250E+01  2.5822847E+01
 1.8083752E+01  2.5934841E+01
 1.8095251E+01  2.6093328E+01
 1.8106750E+01  2.6144802E+01
 1.8118252E+01  2.6112722E+01
 1.8129751E+01  2.5876265E+01
 1.8141251E+01  2.5524960E+01
 1.8152750E+01  2.5173031E+01
 1.8164251E+01  2.4846298E+01
 1.8175751E+01  2.4472065E+01
 1.8187250E+01  2.4244102E+01
 1.8198751E+01  2.4078972E+01
 1.8210251E+01  2.3993067E+01
 1.8221750E+01  2.3925949E+01
 1.8233252E+01  2.3832188E+01
 1.8244751E+01  2.3818735E+01
 1.8256250E+01  2.3773569E+01
 1.8267752E+01  2.3796192E+01
 1.8279251E+01  2.3746872E+01
 1.8290751E+01  2.3705584E+01
 1.8302252E+01  2.3677895E+01
 1.8313751E+01  2.3714939E+01
 1.8325251E+01  2.3755499E+01
 1.8336750E+01  2.3776440E+01
 1.8348251E+01  2.3778191E+01
 1.8359751E+01  2.3784418E+01
 1.8371250E+01  2.3796347E+01
 1.8382751E+01  2.3777855E+01
 1.8394251E+01  2.3755983E+01
 1.8405750E+01  2.3762463E+01
 1.8417252E+01  2.3766544E+01
 1.8428751E+01  2.3737097E+01
 1.8440250E+01  2.3784220E+01
 1.8451752E+01  2.3734142E+01
 1.8463251E+01  2.3707384E+01
 1.8474751E+01  2.3620846E+01
 1.8486252E+01  2.3612055E+01
 1.8497751E+01  2.3588211E+01
 1.8509251E+01  2.3515362E+01
 1.8520750E+01  2.3510099E+01
 1.8532251E+01  2.3487085E+01
 1.8543751E+01  2.3506599E+01
 1.8555250E+01  2.3594378E+01
 1.8566751E+01  2.3664495E+01
 1.8578251E+01  2.3760574E+01
 1.8589750E+01  2.3808168E+01
 1.8601252E+01  2.3819540E+01
 1.8612751E+01  2.3765930E+01
 1.8624250E+01  2.3684078E+01
 1.8635752E+01  2.3691200E+01
 1.8647251E+01  2.3694376E+01
 1.8658751E+01  2.3699669E+01
 1.8670252E+01  2.3684509E+01
 1.8681751E+01  2.3725674E+01
 1.8693251E+01  2.3742142E+01
 1.8704750E+01  2.3707399E+01
 1.8716251E+01  2.3658842E+01
 1.8727751E+01  2.3621607E+01
 1.8739250E+01  2.3640619E+01
 1.8750751E+01  2.3682360E+01
 1.8762251E+01  2.3794731E+01
 1.8773750E+01  2.3824810E+01
 1.8785252E+01  2.3825548E+01
 1.8796751E+01  2.3789682E+01
 1.8808250E+01  2.3730188E+01
 1.8819752E+01  2.3751532E+01
 1.8831251E+01  2.3712946E+01
 1.8842751E+01  2.3796898E+01
 1.8854252E+01  2.3766779E+01
 1.8865751E+01  2.3763693E+01
 1.8877251E+01  2.3664427E+01
 1.8888750E+01  2.3618916E+01
 1.8900251E+01  2.3616341E+01
 1.8911751E+01  2.3607290E+01
 1.8923250E+01  2.3631254E+01
 1.8934752E+01  2.3599625E+01
 1.8946251E+01  2.3639624E+01
 1.8957750E+01  2.3654396E+01
 1.8969252E+01  2.3664162E+01
 1.8980751E+01  2.3639538E+01
 1.8992250E+01  2.3643583E+01
 1.9003752E+01  2.3653725E+01
 1.9015251E+01  2.3673306E+01
 1.9026751E+01  2.3710871E+01
 1.9038252E+01  2.3671234E+01
 1.9049751E+01  2.3655714E+01
 1.9061251E+01  2.3625952E+01
 1.9072750E+01  2.3647957E+01
 1.9084251E+01  2.3611418E+01
 1.9095751E+01  2.3560154E+01
 1.9107250E+01  2.3533138E+01
 1.9118752E+01  2.3558468E+01
 1.9130251E+01  2.3674820E+01
 1.9141750E+01  2.3705196E+01
 1.9153252E+01  2.3775999E+01
 1.9164751E+01  2.3741722E+01
 1.9176250E+01  2.3697853E+01
 1.9187752E+01  2.3615602E+01
 1.9199251E+01  2.3588732E+01
 1.9210751E+01  2.3553818E+01
 1.9222252E+01  2.3551544E+01
 1.9233751E+01  2.3536226E+01
 1.9245251E+01  2.3607416E+01
 1.9256750E+01  2.3650583E+01
 1.9268251E+01  2.3704380E+01
 1.9279751E+01  2.3676273E+01
 1.9291250E+01  2.3691423E+01
 1.9302752E+01  2.3697512E+01
 1.9314251E+01  2.3711704E+01
 1.9325750E+01  2.3677698E+01
 1.9337252E+01  2.3670584E+01
 1.9348751E+01  2.3716423E+01
 1.9360250E+01  2.3716919E+01
 1.9371752E+01  2.3732334E+01
 1.9383251E+01  2.3731443E+01
 1.9394751E+01  2.3780197E+01
 1.9406250E+01  2.3776993E+01
 1.9417751E+01  2.3805187E+01
 1.9429251E+01  2.3804487E+01
 1.9440750E+01  2.3827703E+01
 1.9452251E+01  2.3840296E+01
 1.9463751E+01  2.3889008E+01
 1.9475250E+01  2.3933249E+01
 1.9486752E+01  2.3931955E+01
 1.9498251E+01  2.3855970E+01
 1.9509750E+01  2.3803366E+01
 1.9521252E+01  2.3768724E+01
 1.9532751E+01  2.3813587E+01
 1.9544250E+01  2.3836170E+01
 1.9555752E+01  2.3871778E+01
 1.9567251E+01  2.3933661E+01
 1.9578751E+01  2.4014006E+01
 1.9590250E+01  2.4099638E+01
 1.9601751E+01  2.4129602E+01
 1.9613251E+01  2.4181229E+01
 1.9624750E+01  2.4271645E+01
 1.9636251E+01  2.4545713E+01
 1.9647751E+01  2.4849203E+01
 1.9659250E+01  2.5260582E+01
 1.9670752E+01  2.5822269E+01
 1.9682251E+01  2.6444136E+01
 1.9693750E+01  2.7150284E+01
 1.9705252E+01  2.7910999E+01
 1.9716751E+01  2.8747782E+01
 1.9728251E+01  2.8985140E+01
 1.9739752E+01  2.8800028E+01
 1.9751251E+01  2.8533796E+01
 1.9762751E+01  2.7963299E+01
 1.9774250E+01  2.7449680E+01
 1.9785751E+01  2.7128153E+01
 1.9797251E+01  2.7168024E+01
 1.9808750E+01  2.7883770E+01
 1.9820251E+01  2.8550673E+01
 1.9831751E+01  2.9837587E+01
 1.9843250E+01  3.0756035E+01
 1.9854752E+01  3.1224993E+01
 1.9866251E+01  3.1287079E+01
 1.9877750E+01  3.0588346E+01
 1.9889252E+01  2.9939781E+01
 1.9900751E+01  2.8576286E+01
 1.9912251E+01  2.7565260E+01
 1.9923752E+01  2.6474003E+01
 1.9935251E+01  2.5587969E+01
 1.9946751E+01  2.5012455E+01
 1.9958250E+01  2.4614536E+01
 1.9969751E+01  2.4457809E+01
 1.9981251E+01  2.4322035E+01
 1.9992750E+01  2.4248529E+01
 2.0004251E+01  2.4181955E+01
 2.0015751E+01  2.4120907E+01
 2.0027250E+01  2.4054482E+01
 2.0038752E+01  2.3994907E+01
 2.0050251E+01  2.4028763E+01
 2.0061750E+01  2.4044624E+01
 2.0073252E+01  2.4080236E+01
 2.0084751E+01  2.4055374E+01
 2.0096251E+01  2.4081337E+01
 2.0107752E+01  2.4047106E+01
 2.0119251E+01  2.4030859E+01
 2.0130751E+01  2.3926365E+01
 2.0142250E+01  2.3937033E+01
 2.0153751E+01  2.3916405E+01
 2.0165251E+01  2.3941742E+01
 2.0176750E+01  2.3913420E+01
 2.0188251E+01  2.3943611E+01
 2.0199751E+01  2.3975216E+01
 2.0211250E+01  2.3951464E+01
 2.0222752E+01  2.3910631E+01
 2.0234251E+01  2.3890018E+01
 2.0245750E+01  2.3920891E+01
 2.0257252E+01  2.3929649E+01
 2.0268751E+01  2.3914684E+01
 2.0280251E+01  2.3893684E+01
 2.0291752E+01  2.3853071E+01
 2.0303251E+01  2.3807653E+01
 2.0314751E+01  2.3736513E+01
 2.0326250E+01  2.3708513E+01
 2.0337751E+01  2.3714510E+01
 2.0349251E+01  2.3732365E+01
 2.0360750E+01  2.3808531E+01
 2.0372252E+01  2.3840954E+01
 2.0383751E+01  2.3847376E+01
 2.0395250E+01  2.3819014E+01
 2.0406752E+01  2.3858568E+01
 2.0418251E+01  2.3922503E+01
 2.0429750E+01  2.3949032E+01
 2.0441252E+01  2.3907904E+01
 2.0452751E+01  2.3905910E+01
 2.0464251E+01  2.3873955E+01
 2.0475752E+01  2.3886585E+01
 2.0487251E+01  2.3899153E+01
 2.0498751E+01  2.3927105E+01
 2.0510250E+01  2.3936153E+01
 2.0521751E+01  2.3876791E+01
 2.0533251E+01  2.3834826E+01
 2.0544750E+01  2.3876160E+01
 2.0556252E+01  2.4034094E+01
 2.0567751E+01  2.4129482E+01
 2.0579250E+01  2.4204082E+01
 2.0590752E+01  2.4216978E+01
 2.0602251E+01  2.4207949E+01
 2.0613750E+01  2.4198788E+01
 2.0625252E+01  2.4278528E+01
 2.0636751E+01  2.4356220E+01
 2.0648251E+01  2.4418423E+01
 2.0659752E+01  2.4492773E+01
 2.0671251E+01  2.4592703E+01
 2.0682751E+01  2.4821972E+01
 2.0694250E+01  2.5223032E+01
 2.0705751E+01  2.5760742E+01
 2.0717251E+01  2.6841206E+01
 2.0728750E+01  2.7834475E+01
 2.0740252E+01  2.9041933E+01
 2.0751751E+01  3.1346838E+01
 2.0763250E+01  3.1867176E+01
 2.0774752E+01  3.3102367E+01
 2.0786251E+01  3.2026730E+01
 2.0797750E+01  3.1249851E+01
 2.0809252E+01  2.8419254E+01
 2.0820751E+01  2.7467230E+01
 2.0832251E+01  2.6160925E+01
 2.0843752E+01  2.5131477E+01
 2.0855251E+01  2.4879293E+01
 2.0866751E+01  2.4528362E+01
 2.0878250E+01  2.4425020E+01
 2.0889751E+01  2.4365755E+01
 2.0901251E+01  2.4332056E+01
 2.0912750E+01  2.4358828E+01
 2.0924252E+01  2.4305946E+01
 2.0935751E+01  2.4327009E+01
 2.0947250E+01  2.4302778E+01
 2.0958752E+01  2.4280518E+01
 2.0970251E+01  2.4241934E+01
 2.0981750E+01  2.4218132E+01
 2.0993252E+01  2.4198446E+01
 2.1004751E+01  2.4165205E+01
 2.1016251E+01  2.4149492E+01
 2.1027752E+01  2.4114342E+01
 2.1039251E+01  2.4066021E+01
 2.1050751E+01  2.4031824E+01
 2.1062250E+01  2.4076088E+01
 2.1073751E+01  2.4072908E+01
 2.1085251E+01  2.4090317E+01
 2.1096750E+01  2.4087818E+01
 2.1108252E+01  2.4089214E+01
 2.1119751E+01  2.4080759E+01
 2.1131250E+01  2.4041126E+01
 2.1142752E+01  2.4003565E+01
 2.1154251E+01  2.3900900E+01
 2.1165751E+01  2.3900719E+01
 2.1177252E+01  2.3901852E+01
 2.1188751E+01  2.3932993E+01
 2.1200251E+01  2.3925623E+01
 2.1211752E+01  2.3922750E+01
 2.1223251E+01  2.3889914E+01
 2.1234751E+01  2.3922707E+01
 2.1246250E+01  2.3979517E+01
 2.1257751E+01  2.4063137E+01
 2.1269251E+01  2.4110004E+01
 2.1280750E+01  2.4114048E+01
 2.1292252E+01  2.4053591E+01
 2.1303751E+01  2.3999607E+01
 2.1315250E+01  2.3958061E+01
 2.1326752E+01  2.3980793E+01
 2.1338251E+01  2.4043962E+01
 2.1349751E+01  2.4088839E+01
 2.1361252E+01  2.4127579E+01
 2.1372751E+01  2.4137188E+01
 2.1384251E+01  2.4112280E+01
 2.1395752E+01  2.4074411E+01
 2.1407251E+01  2.4034357E+01
 2.1418751E+01  2.4005663E+01
 2.1430250E+01  2.4018888E+01
 2.1441751E+01  2.3982706E+01
 2.1453251E+01  2.3944517E+01
 2.1464750E+01  2.3920797E+01
 2.1476252E+01  2.3918884E+01
 2.1487751E+01  2.3948246E+01
 2.1499250E+01  2.4008026E+01
 2.1510752E+01  2.4067274E+01
 2.1522251E+01  2.4188131E+01
 2.1533751E+01  2.4218966E+01
 2.1545252E+01  2.4199799E+01
 2.1556751E+01  2.4123007E+01
 2.1568251E+01  2.4141628E+01
 2.1579752E+01  2.4219654E+01
 2.1591251E+01  2.4265440E+01
 2.1602751E+01  2.4241959E+01
 2.1614250E+01  2.4232561E+01
 2.1625751E+01  2.4259319E+01
 2.1637251E+01  2.4264338E+01
 2.1648750E+01  2.4264935E+01
 2.1660252E+01  2.4279739E+01
 2.1671751E+01  2.4286449E+01
 2.1683250E+01  2.4298674E+01
 2.1694752E+01  2.4307066E+01
 2.1706251E+01  2.4358042E+01
 2.1717751E+01  2.4349710E+01
 2.1729252E+01  2.4337727E+01
 2.1740751E+01  2.4322962E+01
 2.1752251E+01  2.4272797E+01
 2.1763752E+01  2.4236475E+01
 2.1775251E+01  2.4230391E+01
 2.1786751E+01  2.4247091E+01
 2.1798250E+01  2.4284971E+01
 2.1809752E+01  2.4286974E+01
 2.1821251E+01  2.4308178E+01
 2.1832750E+01  2.4254629E+01
 2.1844252E+01  2.4256639E+01
 2.1855751E+01  2.4241568E+01
 2.1867250E+01  2.4256422E+01
 2.1878752E+01  2.4266180E+01
 2.1890251E+01  2.4268375E+01
 2.1901751E+01  2.4242134E+01
 2.1913252E+01  2.4239758E+01
 2.1924751E+01  2.4206308E+01
 2.1936251E+01  2.4172855E+01
 2.1947752E+01  2.4168633E+01
 2.1959251E+01  2.4181576E+01
 2.1970751E+01  2.4175798E+01
 2.1982250E+01  2.4212835E+01
 2.1993752E+01  2.4216671E+01
 2.2005251E+01  2.4238924E+01
 2.2016750E+01  2.4270218E+01
 2.2028252E+01  2.4329939E+01
 2.2039751E+01  2.4330893E+01
 2.2051250E+01  2.4331451E+01
 2.2062752E+01  2.4314886E+01
 2.2074251E+01  2.4305166E+01
 2.2085751E+01  2.4299725E+01
 2.2097252E+01  2.4322910E+01
 2.2108751E+01  2.4360113E+01
 2.2120251E+01  2.4434990E+01
 2.2131752E+01  2.4424902E+01
 2.2143251E+01  2.4428410E+01
 2.2154751E+01  2.4394650E+01
 2.2166250E+01  2.4405748E+01
 2.2177752E+01  2.4359079E+01
 2.2189251E+01  2.4360416E+01
 2.2200750E+01  2.4389286E+01
 2.2212252E+01  2.4429867E+01
 2.2223751E+01  2.4462994E+01
 2.2235250E+01  2.4486904E+01
 2.2246752E+01  2.4502726E+01
 2.2258251E+01  2.4527348E+01
 2.2269751E+01  2.4552996E+01
 2.2281252E+01  2.4572161E+01
 2.2292751E+01  2.4589096E+01
 2.2304251E+01  2.4665363E+01
 2.2315752E+01  2.4671671E+01
 2.2327251E+01  2.4653044E+01
 2.2338751E+01  2.4627977E+01
 2.2350250E+01  2.4628220E+01
 2.2361752E+01  2.4579422E+01
 2.2373251E+01  2.4580177E+01
 2.2384750E+01  2.4518070E+01
 2.2396252E+01  2.4510759E+01
 2.2407751E+01  2.4526060E+01
 2.2419250E+01  2.4606979E+01
 2.2430752E+01  2.4667898E+01
 2.2442251E+01  2.4780928E+01
 2.2453751E+01  2.4803286E+01
 2.2465252E+01  2.4754866E+01
 2.2476751E+01  2.4645416E+01
 2.2488251E+01  2.4654228E+01
 2.2499752E+01  2.4641745E+01
 2.2511251E+01  2.4681599E+01
 2.2522751E+01  2.4693638E+01
 2.2534250E+01  2.4744823E+01
 2.2545752E+01  2.4771301E+01
 2.2557251E+01  2.4812172E+01
 2.2568750E+01  2.4829716E+01
 2.2580252E+01  2.4864145E+01
 2.2591751E+01  2.4875366E+01
 2.2603251E+01  2.4903038E+01
 2.2614752E+01  2.4938129E+01
 2.2626251E+01  2.4984102E+01
 2.2637751E+01  2.4982389E+01
 2.2649252E+01  2.4939135E+01
 2.2660751E+01  2.4945490E+01
 2.2672251E+01  2.5051350E+01
 2.2683752E+01  2.5190008E+01
 2.2695251E+01  2.5255545E+01
 2.2706751E+01  2.5262793E+01
 2.2718250E+01  2.5273811E+01
 2.2729752E+01  2.5235447E+01
 2.2741251E+01  2.5202812E+01
 2.2752750E+01  2.5150709E+01
 2.2764252E+01  2.5175144E+01
 2.2775751E+01  2.5229584E+01
 2.2787251E+01  2.5281652E+01
 2.2798752E+01  2.5393839E+01
 2.2810251E+01  2.5467175E+01
 2.2821751E+01  2.5560356E+01
 2.2833252E+01  2.5650209E+01
 2.2844751E+01  2.5719007E+01
 2.2856251E+01  2.5692299E+01
 2.2867750E+01  2.5727152E+01
 2.2879251E+01  2.5771904E+01
 2.2890751E+01  2.5874548E+01
 2.2902250E+01  2.5911625E+01
 2.2913752E+01  2.6004026E+01
 2.2925251E+01  2.6082993E+01
 2.2936750E+01  2.6086843E+01
 2.2948252E+01  2.6037729E+01
 2.2959751E+01  2.6062771E+01
 2.2971251E+01  2.6173187E+01
 2.2982752E+01  2.6274351E+01
 2.2994251E+01  2.6373762E+01
