F:\20151113_APS_34IDE\\Brian\Particle1\OCV\Data_0026.tif
2-Theta Angle (Degrees)
Intensity
       2000
 5.7500005E-03  0.0000000E+00
 1.7250001E-02  0.0000000E+00
 2.8750001E-02  0.0000000E+00
 4.0250003E-02  0.0000000E+00
 5.1750004E-02  0.0000000E+00
 6.3250005E-02  0.0000000E+00
 7.4750006E-02  0.0000000E+00
 8.6250007E-02  0.0000000E+00
 9.7750008E-02  0.0000000E+00
 1.0925001E-01  0.0000000E+00
 1.2075000E-01  0.0000000E+00
 1.3225001E-01  0.0000000E+00
 1.4375001E-01  0.0000000E+00
 1.5525001E-01  0.0000000E+00
 1.6675001E-01  0.0000000E+00
 1.7825001E-01  0.0000000E+00
 1.8975002E-01  0.0000000E+00
 2.0125002E-01  0.0000000E+00
 2.1275002E-01  0.0000000E+00
 2.2425000E-01  0.0000000E+00
 2.3575000E-01  0.0000000E+00
 2.4725001E-01  0.0000000E+00
 2.5875002E-01  0.0000000E+00
 2.7025002E-01  0.0000000E+00
 2.8175002E-01  0.0000000E+00
 2.9325002E-01  0.0000000E+00
 3.0475003E-01  0.0000000E+00
 3.1625003E-01  0.0000000E+00
 3.2775003E-01  0.0000000E+00
 3.3925003E-01  0.0000000E+00
 3.5075003E-01  0.0000000E+00
 3.6225003E-01  0.0000000E+00
 3.7375003E-01  0.0000000E+00
 3.8525003E-01  0.0000000E+00
 3.9675003E-01  0.0000000E+00
 4.0825003E-01  0.0000000E+00
 4.1975003E-01  0.0000000E+00
 4.3125004E-01  0.0000000E+00
 4.4275001E-01  0.0000000E+00
 4.5425001E-01  0.0000000E+00
 4.6575001E-01  0.0000000E+00
 4.7725001E-01  0.0000000E+00
 4.8875001E-01  0.0000000E+00
 5.0025004E-01  0.0000000E+00
 5.1175004E-01  0.0000000E+00
 5.2325004E-01  0.0000000E+00
 5.3475004E-01  0.0000000E+00
 5.4625005E-01  0.0000000E+00
 5.5775005E-01  0.0000000E+00
 5.6925005E-01  0.0000000E+00
 5.8075005E-01  0.0000000E+00
 5.9225005E-01  0.0000000E+00
 6.0375005E-01  0.0000000E+00
 6.1525005E-01  0.0000000E+00
 6.2675005E-01  0.0000000E+00
 6.3825005E-01  0.0000000E+00
 6.4975005E-01  0.0000000E+00
 6.6125005E-01  0.0000000E+00
 6.7275006E-01  0.0000000E+00
 6.8425006E-01  0.0000000E+00
 6.9575006E-01  0.0000000E+00
 7.0725006E-01  0.0000000E+00
 7.1875006E-01  0.0000000E+00
 7.3025006E-01  0.0000000E+00
 7.4175006E-01  0.0000000E+00
 7.5325006E-01  0.0000000E+00
 7.6475006E-01  0.0000000E+00
 7.7625006E-01  0.0000000E+00
 7.8775007E-01  0.0000000E+00
 7.9925007E-01  0.0000000E+00
 8.1075007E-01  0.0000000E+00
 8.2225007E-01  0.0000000E+00
 8.3375007E-01  0.0000000E+00
 8.4525007E-01  0.0000000E+00
 8.5675007E-01  0.0000000E+00
 8.6825007E-01  0.0000000E+00
 8.7975001E-01  0.0000000E+00
 8.9125001E-01  0.0000000E+00
 9.0275002E-01  0.0000000E+00
 9.1425002E-01  0.0000000E+00
 9.2575002E-01  0.0000000E+00
 9.3725002E-01  0.0000000E+00
 9.4875002E-01  0.0000000E+00
 9.6025002E-01  0.0000000E+00
 9.7175002E-01  0.0000000E+00
 9.8325002E-01  0.0000000E+00
 9.9475002E-01  0.0000000E+00
 1.0062500E+00  0.0000000E+00
 1.0177500E+00  0.0000000E+00
 1.0292500E+00  0.0000000E+00
 1.0407500E+00  0.0000000E+00
 1.0522500E+00  0.0000000E+00
 1.0637500E+00  0.0000000E+00
 1.0752500E+00  0.0000000E+00
 1.0867500E+00  0.0000000E+00
 1.0982500E+00  0.0000000E+00
 1.1097500E+00  0.0000000E+00
 1.1212500E+00  0.0000000E+00
 1.1327500E+00  0.0000000E+00
 1.1442500E+00  0.0000000E+00
 1.1557500E+00  0.0000000E+00
 1.1672500E+00  0.0000000E+00
 1.1787500E+00  0.0000000E+00
 1.1902500E+00  0.0000000E+00
 1.2017500E+00  0.0000000E+00
 1.2132500E+00  0.0000000E+00
 1.2247500E+00  0.0000000E+00
 1.2362500E+00  0.0000000E+00
 1.2477500E+00  0.0000000E+00
 1.2592500E+00  0.0000000E+00
 1.2707500E+00  0.0000000E+00
 1.2822500E+00  0.0000000E+00
 1.2937500E+00  0.0000000E+00
 1.3052500E+00  0.0000000E+00
 1.3167500E+00  0.0000000E+00
 1.3282501E+00  0.0000000E+00
 1.3397501E+00  0.0000000E+00
 1.3512501E+00  0.0000000E+00
 1.3627501E+00  0.0000000E+00
 1.3742501E+00  0.0000000E+00
 1.3857501E+00  0.0000000E+00
 1.3972501E+00  0.0000000E+00
 1.4087501E+00  0.0000000E+00
 1.4202501E+00  0.0000000E+00
 1.4317501E+00  0.0000000E+00
 1.4432501E+00  0.0000000E+00
 1.4547501E+00  0.0000000E+00
 1.4662501E+00  0.0000000E+00
 1.4777501E+00  0.0000000E+00
 1.4892501E+00  0.0000000E+00
 1.5007501E+00  0.0000000E+00
 1.5122501E+00  0.0000000E+00
 1.5237501E+00  0.0000000E+00
 1.5352501E+00  0.0000000E+00
 1.5467501E+00  0.0000000E+00
 1.5582501E+00  0.0000000E+00
 1.5697501E+00  0.0000000E+00
 1.5812501E+00  0.0000000E+00
 1.5927501E+00  0.0000000E+00
 1.6042501E+00  0.0000000E+00
 1.6157501E+00  0.0000000E+00
 1.6272501E+00  0.0000000E+00
 1.6387501E+00  0.0000000E+00
 1.6502501E+00  0.0000000E+00
 1.6617501E+00  0.0000000E+00
 1.6732501E+00  0.0000000E+00
 1.6847501E+00  0.0000000E+00
 1.6962501E+00  0.0000000E+00
 1.7077501E+00  0.0000000E+00
 1.7192501E+00  0.0000000E+00
 1.7307501E+00  0.0000000E+00
 1.7422501E+00  0.0000000E+00
 1.7537501E+00  0.0000000E+00
 1.7652501E+00  0.0000000E+00
 1.7767501E+00  0.0000000E+00
 1.7882501E+00  0.0000000E+00
 1.7997501E+00  0.0000000E+00
 1.8112501E+00  0.0000000E+00
 1.8227501E+00  0.0000000E+00
 1.8342501E+00  0.0000000E+00
 1.8457501E+00  0.0000000E+00
 1.8572501E+00  0.0000000E+00
 1.8687501E+00  0.0000000E+00
 1.8802501E+00  0.0000000E+00
 1.8917501E+00  0.0000000E+00
 1.9032501E+00  0.0000000E+00
 1.9147501E+00  0.0000000E+00
 1.9262501E+00  0.0000000E+00
 1.9377501E+00  0.0000000E+00
 1.9492501E+00  0.0000000E+00
 1.9607501E+00  0.0000000E+00
 1.9722501E+00  0.0000000E+00
 1.9837501E+00  0.0000000E+00
 1.9952501E+00  0.0000000E+00
 2.0067501E+00  0.0000000E+00
 2.0182500E+00  0.0000000E+00
 2.0297501E+00  0.0000000E+00
 2.0412500E+00  0.0000000E+00
 2.0527501E+00  0.0000000E+00
 2.0642500E+00  0.0000000E+00
 2.0757501E+00  0.0000000E+00
 2.0872500E+00  0.0000000E+00
 2.0987501E+00  0.0000000E+00
 2.1102500E+00  0.0000000E+00
 2.1217501E+00  0.0000000E+00
 2.1332500E+00  0.0000000E+00
 2.1447501E+00  0.0000000E+00
 2.1562500E+00  0.0000000E+00
 2.1677501E+00  0.0000000E+00
 2.1792500E+00  0.0000000E+00
 2.1907501E+00  0.0000000E+00
 2.2022500E+00  0.0000000E+00
 2.2137501E+00  0.0000000E+00
 2.2252500E+00  0.0000000E+00
 2.2367501E+00  0.0000000E+00
 2.2482500E+00  0.0000000E+00
 2.2597501E+00  0.0000000E+00
 2.2712500E+00  0.0000000E+00
 2.2827501E+00  0.0000000E+00
 2.2942500E+00  0.0000000E+00
 2.3057501E+00  0.0000000E+00
 2.3172500E+00  0.0000000E+00
 2.3287501E+00  0.0000000E+00
 2.3402500E+00  0.0000000E+00
 2.3517501E+00  0.0000000E+00
 2.3632500E+00  0.0000000E+00
 2.3747501E+00  0.0000000E+00
 2.3862500E+00  0.0000000E+00
 2.3977501E+00  0.0000000E+00
 2.4092500E+00  0.0000000E+00
 2.4207501E+00  0.0000000E+00
 2.4322500E+00  0.0000000E+00
 2.4437501E+00  0.0000000E+00
 2.4552500E+00  0.0000000E+00
 2.4667501E+00  0.0000000E+00
 2.4782500E+00  0.0000000E+00
 2.4897501E+00  0.0000000E+00
 2.5012500E+00  0.0000000E+00
 2.5127501E+00  0.0000000E+00
 2.5242500E+00  0.0000000E+00
 2.5357502E+00  0.0000000E+00
 2.5472500E+00  0.0000000E+00
 2.5587502E+00  0.0000000E+00
 2.5702500E+00  0.0000000E+00
 2.5817502E+00  0.0000000E+00
 2.5932500E+00  0.0000000E+00
 2.6047502E+00  0.0000000E+00
 2.6162500E+00  0.0000000E+00
 2.6277502E+00  0.0000000E+00
 2.6392500E+00  0.0000000E+00
 2.6507502E+00  0.0000000E+00
 2.6622500E+00  0.0000000E+00
 2.6737502E+00  0.0000000E+00
 2.6852500E+00  0.0000000E+00
 2.6967502E+00  0.0000000E+00
 2.7082500E+00  0.0000000E+00
 2.7197502E+00  0.0000000E+00
 2.7312500E+00  0.0000000E+00
 2.7427502E+00  0.0000000E+00
 2.7542500E+00  0.0000000E+00
 2.7657502E+00  0.0000000E+00
 2.7772501E+00  0.0000000E+00
 2.7887502E+00  0.0000000E+00
 2.8002501E+00  0.0000000E+00
 2.8117502E+00  0.0000000E+00
 2.8232501E+00  3.5704605E+01
 2.8347502E+00  3.3769672E+01
 2.8462501E+00  3.3903301E+01
 2.8577502E+00  3.4409840E+01
 2.8692501E+00  3.4950691E+01
 2.8807502E+00  3.5778931E+01
 2.8922501E+00  3.6079582E+01
 2.9037502E+00  3.6591591E+01
 2.9152501E+00  3.6714996E+01
 2.9267502E+00  3.6850632E+01
 2.9382501E+00  3.6926170E+01
 2.9497502E+00  3.6760342E+01
 2.9612501E+00  3.6747677E+01
 2.9727502E+00  3.6251888E+01
 2.9842501E+00  3.5925682E+01
 2.9957502E+00  3.5953075E+01
 3.0072501E+00  3.6283546E+01
 3.0187502E+00  3.6765343E+01
 3.0302501E+00  3.6630604E+01
 3.0417502E+00  3.6518291E+01
 3.0532501E+00  3.6320198E+01
 3.0647502E+00  3.6113712E+01
 3.0762501E+00  3.6060989E+01
 3.0877502E+00  3.6174873E+01
 3.0992501E+00  3.6379642E+01
 3.1107502E+00  3.6187359E+01
 3.1222501E+00  3.5990273E+01
 3.1337502E+00  3.5450581E+01
 3.1452501E+00  3.5440876E+01
 3.1567502E+00  3.5143131E+01
 3.1682501E+00  3.5354416E+01
 3.1797502E+00  3.5421272E+01
 3.1912501E+00  3.5435448E+01
 3.2027502E+00  3.5806988E+01
 3.2142501E+00  3.5547424E+01
 3.2257502E+00  3.5590382E+01
 3.2372501E+00  3.4882343E+01
 3.2487502E+00  3.4580719E+01
 3.2602501E+00  3.4496044E+01
 3.2717502E+00  3.4621353E+01
 3.2832501E+00  3.4714355E+01
 3.2947502E+00  3.4598068E+01
 3.3062501E+00  3.4241375E+01
 3.3177502E+00  3.4383240E+01
 3.3292501E+00  3.4359882E+01
 3.3407502E+00  3.4986256E+01
 3.3522501E+00  3.4680893E+01
 3.3637502E+00  3.4866455E+01
 3.3752501E+00  3.4818058E+01
 3.3867502E+00  3.4738537E+01
 3.3982501E+00  3.4993286E+01
 3.4097502E+00  3.4737530E+01
 3.4212501E+00  3.4796215E+01
 3.4327502E+00  3.4660042E+01
 3.4442501E+00  3.4439949E+01
 3.4557502E+00  3.4350456E+01
 3.4672501E+00  3.4204689E+01
 3.4787502E+00  3.4053181E+01
 3.4902501E+00  3.4081669E+01
 3.5017502E+00  3.3847412E+01
 3.5132501E+00  3.3641785E+01
 3.5247502E+00  3.3477737E+01
 3.5362501E+00  3.3496578E+01
 3.5477502E+00  3.3510113E+01
 3.5592501E+00  3.3800449E+01
 3.5707502E+00  3.3720856E+01
 3.5822501E+00  3.3903584E+01
 3.5937502E+00  3.3925320E+01
 3.6052501E+00  3.3830700E+01
 3.6167502E+00  3.3892826E+01
 3.6282501E+00  3.3689865E+01
 3.6397502E+00  3.3564758E+01
 3.6512501E+00  3.3282200E+01
 3.6627502E+00  3.2970203E+01
 3.6742501E+00  3.2900574E+01
 3.6857502E+00  3.2777515E+01
 3.6972501E+00  3.2918331E+01
 3.7087502E+00  3.2850719E+01
 3.7202501E+00  3.2917831E+01
 3.7317502E+00  3.2904545E+01
 3.7432501E+00  3.3070911E+01
 3.7547503E+00  3.3206356E+01
 3.7662501E+00  3.3249138E+01
 3.7777503E+00  3.3494526E+01
 3.7892501E+00  3.3478271E+01
 3.8007503E+00  3.3479214E+01
 3.8122501E+00  3.3379829E+01
 3.8237503E+00  3.3229305E+01
 3.8352501E+00  3.3222488E+01
 3.8467503E+00  3.3146530E+01
 3.8582501E+00  3.3000019E+01
 3.8697503E+00  3.2819126E+01
 3.8812501E+00  3.2682648E+01
 3.8927503E+00  3.2646721E+01
 3.9042501E+00  3.2530804E+01
 3.9157503E+00  3.2441925E+01
 3.9272501E+00  3.2182419E+01
 3.9387503E+00  3.2264683E+01
 3.9502501E+00  3.2191769E+01
 3.9617503E+00  3.2408993E+01
 3.9732502E+00  3.2589485E+01
 3.9847503E+00  3.2650051E+01
 3.9962502E+00  3.2817436E+01
 4.0077500E+00  3.2673248E+01
 4.0192504E+00  3.2593224E+01
 4.0307503E+00  3.2414009E+01
 4.0422502E+00  3.2204941E+01
 4.0537500E+00  3.2307819E+01
 4.0652504E+00  3.2197449E+01
 4.0767503E+00  3.2222233E+01
 4.0882502E+00  3.2419579E+01
 4.0997500E+00  3.2577076E+01
 4.1112504E+00  3.2702892E+01
 4.1227503E+00  3.2589966E+01
 4.1342502E+00  3.2598915E+01
 4.1457500E+00  3.2503384E+01
 4.1572504E+00  3.2377598E+01
 4.1687503E+00  3.2190281E+01
 4.1802502E+00  3.2182739E+01
 4.1917500E+00  3.2225620E+01
 4.2032504E+00  3.2321758E+01
 4.2147503E+00  3.2372707E+01
 4.2262502E+00  3.2489700E+01
 4.2377501E+00  3.2408745E+01
 4.2492504E+00  3.2305145E+01
 4.2607503E+00  3.2195633E+01
 4.2722502E+00  3.2185249E+01
 4.2837501E+00  3.2222900E+01
 4.2952504E+00  3.2212265E+01
 4.3067503E+00  3.2188473E+01
 4.3182502E+00  3.2300770E+01
 4.3297501E+00  3.2372746E+01
 4.3412504E+00  3.2487125E+01
 4.3527503E+00  3.2479267E+01
 4.3642502E+00  3.2623016E+01
 4.3757501E+00  3.2652256E+01
 4.3872504E+00  3.2717865E+01
 4.3987503E+00  3.2561558E+01
 4.4102502E+00  3.2632465E+01
 4.4217501E+00  3.2579269E+01
 4.4332504E+00  3.2774925E+01
 4.4447503E+00  3.2787365E+01
 4.4562502E+00  3.2874199E+01
 4.4677501E+00  3.2908073E+01
 4.4792504E+00  3.2834248E+01
 4.4907503E+00  3.2779224E+01
 4.5022502E+00  3.2564709E+01
 4.5137501E+00  3.2567017E+01
 4.5252504E+00  3.2614296E+01
 4.5367503E+00  3.2802715E+01
 4.5482502E+00  3.2677589E+01
 4.5597501E+00  3.2560448E+01
 4.5712504E+00  3.2270195E+01
 4.5827503E+00  3.2296024E+01
 4.5942502E+00  3.2355648E+01
 4.6057501E+00  3.2487465E+01
 4.6172504E+00  3.2605236E+01
 4.6287503E+00  3.2706299E+01
 4.6402502E+00  3.2812397E+01
 4.6517501E+00  3.2770840E+01
 4.6632504E+00  3.2673702E+01
 4.6747503E+00  3.2730762E+01
 4.6862502E+00  3.2741585E+01
 4.6977501E+00  3.2826164E+01
 4.7092505E+00  3.2767445E+01
 4.7207503E+00  3.2737186E+01
 4.7322502E+00  3.2605572E+01
 4.7437501E+00  3.2603615E+01
 4.7552505E+00  3.2590233E+01
 4.7667503E+00  3.2694641E+01
 4.7782502E+00  3.2726234E+01
 4.7897501E+00  3.2862808E+01
 4.8012505E+00  3.2873909E+01
 4.8127503E+00  3.2873909E+01
 4.8242502E+00  3.2729023E+01
 4.8357501E+00  3.2670876E+01
 4.8472505E+00  3.2682083E+01
 4.8587503E+00  3.2771698E+01
 4.8702502E+00  3.2834652E+01
 4.8817501E+00  3.2949261E+01
 4.8932505E+00  3.2911057E+01
 4.9047503E+00  3.2905899E+01
 4.9162502E+00  3.2813580E+01
 4.9277501E+00  3.2780727E+01
 4.9392505E+00  3.2853748E+01
 4.9507504E+00  3.2784908E+01
 4.9622502E+00  3.2849480E+01
 4.9737501E+00  3.2883411E+01
 4.9852505E+00  3.3003181E+01
 4.9967504E+00  3.2971188E+01
 5.0082502E+00  3.2959145E+01
 5.0197501E+00  3.2950382E+01
 5.0312505E+00  3.3066917E+01
 5.0427504E+00  3.3137932E+01
 5.0542502E+00  3.3140697E+01
 5.0657501E+00  3.3157230E+01
 5.0772505E+00  3.3239235E+01
 5.0887504E+00  3.3282387E+01
 5.1002502E+00  3.3453129E+01
 5.1117501E+00  3.3379520E+01
 5.1232505E+00  3.3427982E+01
 5.1347504E+00  3.3399006E+01
 5.1462502E+00  3.3448170E+01
 5.1577501E+00  3.3560558E+01
 5.1692505E+00  3.3611656E+01
 5.1807504E+00  3.3760563E+01
 5.1922503E+00  3.3786995E+01
 5.2037501E+00  3.3761189E+01
 5.2152505E+00  3.3769833E+01
 5.2267504E+00  3.3890228E+01
 5.2382503E+00  3.4038975E+01
 5.2497501E+00  3.4168144E+01
 5.2612505E+00  3.4267456E+01
 5.2727504E+00  3.4249512E+01
 5.2842503E+00  3.4254215E+01
 5.2957501E+00  3.4224422E+01
 5.3072500E+00  3.4200394E+01
 5.3187504E+00  3.4202534E+01
 5.3302503E+00  3.4141552E+01
 5.3417501E+00  3.4182198E+01
 5.3532500E+00  3.4196609E+01
 5.3647504E+00  3.4209595E+01
 5.3762503E+00  3.4261108E+01
 5.3877501E+00  3.4339039E+01
 5.3992500E+00  3.4424026E+01
 5.4107504E+00  3.4434830E+01
 5.4222503E+00  3.4529453E+01
 5.4337502E+00  3.4500813E+01
 5.4452500E+00  3.4596378E+01
 5.4567504E+00  3.4534637E+01
 5.4682503E+00  3.4561577E+01
 5.4797502E+00  3.4518627E+01
 5.4912500E+00  3.4515659E+01
 5.5027504E+00  3.4637627E+01
 5.5142503E+00  3.4808475E+01
 5.5257502E+00  3.4957355E+01
 5.5372500E+00  3.5015362E+01
 5.5487504E+00  3.5115215E+01
 5.5602503E+00  3.5266819E+01
 5.5717502E+00  3.5407925E+01
 5.5832500E+00  3.5396507E+01
 5.5947504E+00  3.5393776E+01
 5.6062503E+00  3.5412342E+01
 5.6177502E+00  3.5423183E+01
 5.6292500E+00  3.5474991E+01
 5.6407504E+00  3.5373436E+01
 5.6522503E+00  3.5436817E+01
 5.6637502E+00  3.5559361E+01
 5.6752501E+00  3.5775097E+01
 5.6867504E+00  3.6008923E+01
 5.6982503E+00  3.5942860E+01
 5.7097502E+00  3.5944946E+01
 5.7212501E+00  3.5811543E+01
 5.7327504E+00  3.5800446E+01
 5.7442503E+00  3.5782749E+01
 5.7557502E+00  3.5808578E+01
 5.7672501E+00  3.5768749E+01
 5.7787504E+00  3.5829361E+01
 5.7902503E+00  3.5876938E+01
 5.8017502E+00  3.6001274E+01
 5.8132501E+00  3.6167164E+01
 5.8247504E+00  3.6286442E+01
 5.8362503E+00  3.6452168E+01
 5.8477502E+00  3.6639305E+01
 5.8592501E+00  3.6772404E+01
 5.8707504E+00  3.7077202E+01
 5.8822503E+00  3.7376610E+01
 5.8937502E+00  3.7914207E+01
 5.9052501E+00  3.8599232E+01
 5.9167504E+00  4.0131065E+01
 5.9282503E+00  4.1947075E+01
 5.9397502E+00  4.5466434E+01
 5.9512501E+00  5.2081036E+01
 5.9627504E+00  5.6956764E+01
 5.9742503E+00  6.3200600E+01
 5.9857502E+00  6.7100471E+01
 5.9972501E+00  6.5981201E+01
 6.0087504E+00  6.3390224E+01
 6.0202503E+00  5.5147232E+01
 6.0317502E+00  5.1330681E+01
 6.0432501E+00  4.6314976E+01
 6.0547504E+00  4.2979202E+01
 6.0662503E+00  4.0603954E+01
 6.0777502E+00  3.9184765E+01
 6.0892501E+00  3.8371086E+01
 6.1007504E+00  3.8036751E+01
 6.1122503E+00  3.7826500E+01
 6.1237502E+00  3.7681927E+01
 6.1352501E+00  3.7586071E+01
 6.1467505E+00  3.7476101E+01
 6.1582503E+00  3.7438107E+01
 6.1697502E+00  3.7430126E+01
 6.1812501E+00  3.7396191E+01
 6.1927505E+00  3.7339703E+01
 6.2042503E+00  3.7189770E+01
 6.2157502E+00  3.7115917E+01
 6.2272501E+00  3.7245045E+01
 6.2387505E+00  3.7257118E+01
 6.2502503E+00  3.7438267E+01
 6.2617502E+00  3.7442387E+01
 6.2732501E+00  3.7620296E+01
 6.2847505E+00  3.7784843E+01
 6.2962503E+00  3.7768799E+01
 6.3077502E+00  3.7814255E+01
 6.3192501E+00  3.7752098E+01
 6.3307505E+00  3.7862759E+01
 6.3422503E+00  3.7983456E+01
 6.3537502E+00  3.8164593E+01
 6.3652501E+00  3.8306946E+01
 6.3767505E+00  3.8468220E+01
 6.3882504E+00  3.8499741E+01
 6.3997502E+00  3.8565029E+01
 6.4112501E+00  3.8583256E+01
 6.4227505E+00  3.8585094E+01
 6.4342504E+00  3.8559143E+01
 6.4457502E+00  3.8515041E+01
 6.4572501E+00  3.8479183E+01
 6.4687505E+00  3.8516247E+01
 6.4802504E+00  3.8623169E+01
 6.4917502E+00  3.8838337E+01
 6.5032501E+00  3.9086704E+01
 6.5147505E+00  3.9257683E+01
 6.5262504E+00  3.9391174E+01
 6.5377502E+00  3.9469852E+01
 6.5492501E+00  3.9635002E+01
 6.5607505E+00  3.9788471E+01
 6.5722504E+00  3.9832119E+01
 6.5837502E+00  3.9885319E+01
 6.5952501E+00  3.9892162E+01
 6.6067505E+00  4.0061256E+01
 6.6182504E+00  4.0157745E+01
 6.6297503E+00  4.0253845E+01
 6.6412501E+00  4.0321117E+01
 6.6527505E+00  4.0420601E+01
 6.6642504E+00  4.0398594E+01
 6.6757503E+00  4.0398232E+01
 6.6872501E+00  4.0271317E+01
 6.6987505E+00  4.0163723E+01
 6.7102504E+00  4.0117870E+01
 6.7217503E+00  4.0158306E+01
 6.7332501E+00  4.0335495E+01
 6.7447505E+00  4.0503624E+01
 6.7562504E+00  4.0636040E+01
 6.7677503E+00  4.0710964E+01
 6.7792501E+00  4.0802723E+01
 6.7907505E+00  4.0792652E+01
 6.8022504E+00  4.0928463E+01
 6.8137503E+00  4.1013878E+01
 6.8252501E+00  4.1234493E+01
 6.8367505E+00  4.1427967E+01
 6.8482504E+00  4.1553513E+01
 6.8597503E+00  4.1634930E+01
 6.8712502E+00  4.1879829E+01
 6.8827505E+00  4.2069942E+01
 6.8942504E+00  4.2286800E+01
 6.9057503E+00  4.2315739E+01
 6.9172502E+00  4.2413315E+01
 6.9287505E+00  4.2397602E+01
 6.9402504E+00  4.2313278E+01
 6.9517503E+00  4.2201878E+01
 6.9632502E+00  4.2139256E+01
 6.9747505E+00  4.2271172E+01
 6.9862504E+00  4.2277580E+01
 6.9977503E+00  4.2334976E+01
 7.0092502E+00  4.2330105E+01
 7.0207505E+00  4.2325710E+01
 7.0322504E+00  4.2371426E+01
 7.0437503E+00  4.2416927E+01
 7.0552502E+00  4.2464561E+01
 7.0667505E+00  4.2569607E+01
 7.0782504E+00  4.2626957E+01
 7.0897503E+00  4.2858334E+01
 7.1012502E+00  4.3097218E+01
 7.1127505E+00  4.3291943E+01
 7.1242504E+00  4.3464531E+01
 7.1357503E+00  4.3486145E+01
 7.1472502E+00  4.3465725E+01
 7.1587505E+00  4.3368912E+01
 7.1702504E+00  4.3369171E+01
 7.1817503E+00  4.3314949E+01
 7.1932502E+00  4.3400383E+01
 7.2047505E+00  4.3416542E+01
 7.2162504E+00  4.3526653E+01
 7.2277503E+00  4.3571632E+01
 7.2392502E+00  4.3586967E+01
 7.2507505E+00  4.3695625E+01
 7.2622504E+00  4.3753437E+01
 7.2737503E+00  4.3979252E+01
 7.2852502E+00  4.4017704E+01
 7.2967505E+00  4.4085194E+01
 7.3082504E+00  4.4000706E+01
 7.3197503E+00  4.3929554E+01
 7.3312502E+00  4.3894367E+01
 7.3427505E+00  4.3922707E+01
 7.3542504E+00  4.3994339E+01
 7.3657503E+00  4.4140724E+01
 7.3772502E+00  4.4172985E+01
 7.3887506E+00  4.4274590E+01
 7.4002504E+00  4.4340786E+01
 7.4117503E+00  4.4363255E+01
 7.4232502E+00  4.4338444E+01
 7.4347506E+00  4.4337662E+01
 7.4462504E+00  4.4380737E+01
 7.4577503E+00  4.4485672E+01
 7.4692502E+00  4.4503258E+01
 7.4807506E+00  4.4554462E+01
 7.4922504E+00  4.4529644E+01
 7.5037503E+00  4.4523067E+01
 7.5152502E+00  4.4460339E+01
 7.5267506E+00  4.4483345E+01
 7.5382504E+00  4.4433891E+01
 7.5497503E+00  4.4391174E+01
 7.5612502E+00  4.4382332E+01
 7.5727506E+00  4.4443222E+01
 7.5842505E+00  4.4526264E+01
 7.5957503E+00  4.4540730E+01
 7.6072502E+00  4.4579048E+01
 7.6187506E+00  4.4577579E+01
 7.6302505E+00  4.4612324E+01
 7.6417503E+00  4.4597328E+01
 7.6532502E+00  4.4635029E+01
 7.6647506E+00  4.4540146E+01
 7.6762505E+00  4.4485260E+01
 7.6877503E+00  4.4482082E+01
 7.6992502E+00  4.4545750E+01
 7.7107506E+00  4.4574425E+01
 7.7222505E+00  4.4716801E+01
 7.7337503E+00  4.5030548E+01
 7.7452502E+00  4.5479851E+01
 7.7567506E+00  4.6139923E+01
 7.7682505E+00  4.6220200E+01
 7.7797503E+00  4.6338585E+01
 7.7912502E+00  4.5653744E+01
 7.8027506E+00  4.5324192E+01
 7.8142505E+00  4.4840332E+01
 7.8257504E+00  4.4744884E+01
 7.8372502E+00  4.4646996E+01
 7.8487506E+00  4.4513042E+01
 7.8602505E+00  4.4441914E+01
 7.8717504E+00  4.4290939E+01
 7.8832502E+00  4.4243687E+01
 7.8947506E+00  4.4138477E+01
 7.9062505E+00  4.4184540E+01
 7.9177504E+00  4.4217083E+01
 7.9292502E+00  4.4273308E+01
 7.9407506E+00  4.4329918E+01
 7.9522505E+00  4.4260715E+01
 7.9637504E+00  4.4169956E+01
 7.9752502E+00  4.4000660E+01
 7.9867506E+00  4.3998779E+01
 7.9982505E+00  4.3937027E+01
 8.0097504E+00  4.3858826E+01
 8.0212507E+00  4.3803219E+01
 8.0327501E+00  4.3656116E+01
 8.0442505E+00  4.3597469E+01
 8.0557508E+00  4.3385254E+01
 8.0672503E+00  4.3412235E+01
 8.0787506E+00  4.3363697E+01
 8.0902500E+00  4.3358063E+01
 8.1017504E+00  4.3255058E+01
 8.1132507E+00  4.3214043E+01
 8.1247501E+00  4.3169685E+01
 8.1362505E+00  4.3097073E+01
 8.1477509E+00  4.2951103E+01
 8.1592503E+00  4.2718735E+01
 8.1707506E+00  4.2499809E+01
 8.1822500E+00  4.2296753E+01
 8.1937504E+00  4.2214859E+01
 8.2052507E+00  4.2110954E+01
 8.2167501E+00  4.2048267E+01
 8.2282505E+00  4.1958946E+01
 8.2397509E+00  4.1948635E+01
 8.2512503E+00  4.1893982E+01
 8.2627506E+00  4.1811291E+01
 8.2742500E+00  4.1613449E+01
 8.2857504E+00  4.1393127E+01
 8.2972507E+00  4.1200268E+01
 8.3087502E+00  4.0994911E+01
 8.3202505E+00  4.0903931E+01
 8.3317509E+00  4.0759224E+01
 8.3432503E+00  4.0603966E+01
 8.3547506E+00  4.0484928E+01
 8.3662500E+00  4.0400379E+01
 8.3777504E+00  4.0322983E+01
 8.3892508E+00  4.0224842E+01
 8.4007502E+00  4.0117252E+01
 8.4122505E+00  3.9958443E+01
 8.4237509E+00  3.9763382E+01
 8.4352503E+00  3.9452282E+01
 8.4467506E+00  3.9226974E+01
 8.4582500E+00  3.8981323E+01
 8.4697504E+00  3.8902935E+01
 8.4812508E+00  3.8795128E+01
 8.4927502E+00  3.8748245E+01
 8.5042505E+00  3.8576908E+01
 8.5157509E+00  3.8518707E+01
 8.5272503E+00  3.8345863E+01
 8.5387506E+00  3.8347332E+01
 8.5502501E+00  3.8191116E+01
 8.5617504E+00  3.8034679E+01
 8.5732508E+00  3.7712032E+01
 8.5847502E+00  3.7360588E+01
 8.5962505E+00  3.7063133E+01
 8.6077509E+00  3.6781929E+01
 8.6192503E+00  3.6713547E+01
 8.6307507E+00  3.6619595E+01
 8.6422501E+00  3.6581501E+01
 8.6537504E+00  3.6406170E+01
 8.6652508E+00  3.6247242E+01
 8.6767502E+00  3.6046368E+01
 8.6882505E+00  3.5797779E+01
 8.6997509E+00  3.5605343E+01
 8.7112503E+00  3.5417362E+01
 8.7227507E+00  3.5279404E+01
 8.7342501E+00  3.5138771E+01
 8.7457504E+00  3.4894554E+01
 8.7572508E+00  3.4809837E+01
 8.7687502E+00  3.4590065E+01
 8.7802505E+00  3.4526352E+01
 8.7917500E+00  3.4343533E+01
 8.8032503E+00  3.4248634E+01
 8.8147507E+00  3.4023220E+01
 8.8262501E+00  3.3808548E+01
 8.8377504E+00  3.3547909E+01
 8.8492508E+00  3.3404285E+01
 8.8607502E+00  3.3184650E+01
 8.8722506E+00  3.3032055E+01
 8.8837500E+00  3.2867165E+01
 8.8952503E+00  3.2711880E+01
 8.9067507E+00  3.2555050E+01
 8.9182501E+00  3.2392841E+01
 8.9297504E+00  3.2332539E+01
 8.9412508E+00  3.2192638E+01
 8.9527502E+00  3.2036346E+01
 8.9642506E+00  3.1845552E+01
 8.9757500E+00  3.1651466E+01
 8.9872503E+00  3.1499212E+01
 8.9987507E+00  3.1276953E+01
 9.0102501E+00  3.1164871E+01
 9.0217505E+00  3.1047546E+01
 9.0332508E+00  3.0919333E+01
 9.0447502E+00  3.0825340E+01
 9.0562506E+00  3.0704020E+01
 9.0677500E+00  3.0616926E+01
 9.0792503E+00  3.0505749E+01
 9.0907507E+00  3.0329243E+01
 9.1022501E+00  3.0221439E+01
 9.1137505E+00  3.0112082E+01
 9.1252508E+00  3.0039362E+01
 9.1367502E+00  2.9960203E+01
 9.1482506E+00  2.9845436E+01
 9.1597500E+00  2.9741892E+01
 9.1712503E+00  2.9661383E+01
 9.1827507E+00  2.9538219E+01
 9.1942501E+00  2.9465117E+01
 9.2057505E+00  2.9362648E+01
 9.2172508E+00  2.9204840E+01
 9.2287502E+00  2.9110508E+01
 9.2402506E+00  2.8986925E+01
 9.2517500E+00  2.8964018E+01
 9.2632504E+00  2.8845531E+01
 9.2747507E+00  2.8682825E+01
 9.2862501E+00  2.8564953E+01
 9.2977505E+00  2.8416239E+01
 9.3092508E+00  2.8310240E+01
 9.3207502E+00  2.8156708E+01
 9.3322506E+00  2.8089512E+01
 9.3437500E+00  2.7965931E+01
 9.3552504E+00  2.7870485E+01
 9.3667507E+00  2.7799911E+01
 9.3782501E+00  2.7797392E+01
 9.3897505E+00  2.7758747E+01
 9.4012508E+00  2.7705198E+01
 9.4127502E+00  2.7656597E+01
 9.4242506E+00  2.7667309E+01
 9.4357500E+00  2.7623184E+01
 9.4472504E+00  2.7538271E+01
 9.4587507E+00  2.7387239E+01
 9.4702501E+00  2.7295042E+01
 9.4817505E+00  2.7202776E+01
 9.4932508E+00  2.7074331E+01
 9.5047503E+00  2.6955521E+01
 9.5162506E+00  2.6801523E+01
 9.5277500E+00  2.6731398E+01
 9.5392504E+00  2.6601624E+01
 9.5507507E+00  2.6491621E+01
 9.5622501E+00  2.6434483E+01
 9.5737505E+00  2.6373083E+01
 9.5852509E+00  2.6354406E+01
 9.5967503E+00  2.6353783E+01
 9.6082506E+00  2.6404829E+01
 9.6197500E+00  2.6426615E+01
 9.6312504E+00  2.6377319E+01
 9.6427507E+00  2.6271694E+01
 9.6542501E+00  2.6172474E+01
 9.6657505E+00  2.6095512E+01
 9.6772509E+00  2.5957897E+01
 9.6887503E+00  2.5922554E+01
 9.7002506E+00  2.5959764E+01
 9.7117500E+00  2.6062990E+01
 9.7232504E+00  2.6116426E+01
 9.7347507E+00  2.6097309E+01
 9.7462502E+00  2.6034010E+01
 9.7577505E+00  2.5860542E+01
 9.7692509E+00  2.5710732E+01
 9.7807503E+00  2.5555290E+01
 9.7922506E+00  2.5534658E+01
 9.8037500E+00  2.5508080E+01
 9.8152504E+00  2.5545786E+01
 9.8267508E+00  2.5536343E+01
 9.8382502E+00  2.5515381E+01
 9.8497505E+00  2.5418400E+01
 9.8612509E+00  2.5375864E+01
 9.8727503E+00  2.5270929E+01
 9.8842506E+00  2.5240044E+01
 9.8957500E+00  2.5157919E+01
 9.9072504E+00  2.5091455E+01
 9.9187508E+00  2.5024986E+01
 9.9302502E+00  2.4934895E+01
 9.9417505E+00  2.4957211E+01
 9.9532509E+00  2.4944683E+01
 9.9647503E+00  2.4937664E+01
 9.9762506E+00  2.4909956E+01
 9.9877501E+00  2.4865574E+01
 9.9992504E+00  2.4867142E+01
 1.0010751E+01  2.4842815E+01
 1.0022250E+01  2.4824711E+01
 1.0033751E+01  2.4800556E+01
 1.0045251E+01  2.4747223E+01
 1.0056750E+01  2.4719223E+01
 1.0068251E+01  2.4700031E+01
 1.0079750E+01  2.4689011E+01
 1.0091250E+01  2.4671370E+01
 1.0102751E+01  2.4618097E+01
 1.0114250E+01  2.4572233E+01
 1.0125751E+01  2.4526577E+01
 1.0137251E+01  2.4447784E+01
 1.0148750E+01  2.4376484E+01
 1.0160251E+01  2.4372681E+01
 1.0171750E+01  2.4385065E+01
 1.0183250E+01  2.4411133E+01
 1.0194751E+01  2.4435093E+01
 1.0206250E+01  2.4445108E+01
 1.0217751E+01  2.4472996E+01
 1.0229251E+01  2.4478420E+01
 1.0240750E+01  2.4492094E+01
 1.0252251E+01  2.4432642E+01
 1.0263750E+01  2.4327480E+01
 1.0275250E+01  2.4247435E+01
 1.0286751E+01  2.4219389E+01
 1.0298250E+01  2.4199265E+01
 1.0309751E+01  2.4192368E+01
 1.0321251E+01  2.4121897E+01
 1.0332750E+01  2.4147682E+01
 1.0344251E+01  2.4099180E+01
 1.0355750E+01  2.4099600E+01
 1.0367250E+01  2.3978899E+01
 1.0378751E+01  2.3942200E+01
 1.0390250E+01  2.3958353E+01
 1.0401751E+01  2.3926659E+01
 1.0413251E+01  2.3930977E+01
 1.0424750E+01  2.3854597E+01
 1.0436251E+01  2.3862881E+01
 1.0447750E+01  2.3869905E+01
 1.0459250E+01  2.3842443E+01
 1.0470751E+01  2.3791691E+01
 1.0482250E+01  2.3742805E+01
 1.0493751E+01  2.3708139E+01
 1.0505251E+01  2.3697582E+01
 1.0516750E+01  2.3620371E+01
 1.0528251E+01  2.3572536E+01
 1.0539750E+01  2.3558702E+01
 1.0551250E+01  2.3571211E+01
 1.0562751E+01  2.3638863E+01
 1.0574250E+01  2.3688417E+01
 1.0585751E+01  2.3679358E+01
 1.0597251E+01  2.3653463E+01
 1.0608750E+01  2.3594231E+01
 1.0620251E+01  2.3589754E+01
 1.0631750E+01  2.3570061E+01
 1.0643250E+01  2.3536327E+01
 1.0654751E+01  2.3505753E+01
 1.0666250E+01  2.3472137E+01
 1.0677751E+01  2.3450890E+01
 1.0689251E+01  2.3423349E+01
 1.0700750E+01  2.3409199E+01
 1.0712251E+01  2.3345032E+01
 1.0723750E+01  2.3306713E+01
 1.0735250E+01  2.3268583E+01
 1.0746751E+01  2.3256804E+01
 1.0758250E+01  2.3258562E+01
 1.0769751E+01  2.3255486E+01
 1.0781251E+01  2.3267693E+01
 1.0792750E+01  2.3258303E+01
 1.0804251E+01  2.3252970E+01
 1.0815750E+01  2.3299637E+01
 1.0827250E+01  2.3313828E+01
 1.0838751E+01  2.3286236E+01
 1.0850250E+01  2.3247131E+01
 1.0861751E+01  2.3241003E+01
 1.0873251E+01  2.3285156E+01
 1.0884750E+01  2.3224144E+01
 1.0896251E+01  2.3226234E+01
 1.0907750E+01  2.3209970E+01
 1.0919250E+01  2.3255859E+01
 1.0930751E+01  2.3260223E+01
 1.0942250E+01  2.3242531E+01
 1.0953751E+01  2.3232477E+01
 1.0965251E+01  2.3167791E+01
 1.0976750E+01  2.3171137E+01
 1.0988251E+01  2.3127857E+01
 1.0999750E+01  2.3174147E+01
 1.1011250E+01  2.3095903E+01
 1.1022751E+01  2.3092663E+01
 1.1034250E+01  2.3025930E+01
 1.1045751E+01  2.3026838E+01
 1.1057251E+01  2.2989544E+01
 1.1068750E+01  2.2945719E+01
 1.1080251E+01  2.2966265E+01
 1.1091750E+01  2.2964214E+01
 1.1103251E+01  2.2994596E+01
 1.1114751E+01  2.2981800E+01
 1.1126250E+01  2.3023232E+01
 1.1137751E+01  2.3016134E+01
 1.1149251E+01  2.3018339E+01
 1.1160750E+01  2.3009327E+01
 1.1172251E+01  2.2991747E+01
 1.1183750E+01  2.2974968E+01
 1.1195251E+01  2.2976334E+01
 1.1206751E+01  2.3022087E+01
 1.1218250E+01  2.3015717E+01
 1.1229751E+01  2.3005625E+01
 1.1241251E+01  2.2999088E+01
 1.1252750E+01  2.2989380E+01
 1.1264251E+01  2.2960821E+01
 1.1275750E+01  2.2919876E+01
 1.1287251E+01  2.2900061E+01
 1.1298751E+01  2.2893612E+01
 1.1310250E+01  2.2951426E+01
 1.1321751E+01  2.3013926E+01
 1.1333251E+01  2.3031923E+01
 1.1344750E+01  2.2994810E+01
 1.1356251E+01  2.2994110E+01
 1.1367750E+01  2.3084097E+01
 1.1379251E+01  2.3195045E+01
 1.1390751E+01  2.3287006E+01
 1.1402250E+01  2.3475170E+01
 1.1413751E+01  2.3504101E+01
 1.1425251E+01  2.3514383E+01
 1.1436750E+01  2.3459173E+01
 1.1448251E+01  2.3410051E+01
 1.1459750E+01  2.3378246E+01
 1.1471251E+01  2.3323647E+01
 1.1482751E+01  2.3349373E+01
 1.1494250E+01  2.3375563E+01
 1.1505751E+01  2.3447445E+01
 1.1517251E+01  2.3621677E+01
 1.1528750E+01  2.4148718E+01
 1.1540251E+01  2.4746950E+01
 1.1551750E+01  2.5728777E+01
 1.1563251E+01  2.7713041E+01
 1.1574751E+01  2.9111284E+01
 1.1586250E+01  3.1225298E+01
 1.1597751E+01  3.3035057E+01
 1.1609251E+01  3.3066532E+01
 1.1620750E+01  3.2249157E+01
 1.1632251E+01  2.9650965E+01
 1.1643750E+01  2.8210577E+01
 1.1655251E+01  2.6370148E+01
 1.1666751E+01  2.4930408E+01
 1.1678250E+01  2.4315014E+01
 1.1689751E+01  2.3727743E+01
 1.1701251E+01  2.3425459E+01
 1.1712750E+01  2.3287848E+01
 1.1724251E+01  2.3189905E+01
 1.1735750E+01  2.3169113E+01
 1.1747251E+01  2.3186634E+01
 1.1758751E+01  2.3147175E+01
 1.1770250E+01  2.3102655E+01
 1.1781751E+01  2.3050737E+01
 1.1793251E+01  2.3005993E+01
 1.1804750E+01  2.3007833E+01
 1.1816251E+01  2.3013910E+01
 1.1827750E+01  2.3003799E+01
 1.1839251E+01  2.2949404E+01
 1.1850751E+01  2.2871971E+01
 1.1862250E+01  2.2867531E+01
 1.1873751E+01  2.2904844E+01
 1.1885251E+01  2.2947569E+01
 1.1896750E+01  2.3043371E+01
 1.1908251E+01  2.3052813E+01
 1.1919750E+01  2.3150311E+01
 1.1931251E+01  2.3258255E+01
 1.1942751E+01  2.3411753E+01
 1.1954250E+01  2.3747108E+01
 1.1965751E+01  2.3987160E+01
 1.1977251E+01  2.4457775E+01
 1.1988750E+01  2.5004877E+01
 1.2000251E+01  2.5101597E+01
 1.2011750E+01  2.5017786E+01
 1.2023251E+01  2.4649122E+01
 1.2034751E+01  2.4518860E+01
 1.2046250E+01  2.4386936E+01
 1.2057751E+01  2.4313978E+01
 1.2069251E+01  2.4634592E+01
 1.2080750E+01  2.5089252E+01
 1.2092251E+01  2.5559200E+01
 1.2103750E+01  2.5740538E+01
 1.2115251E+01  2.5626369E+01
 1.2126751E+01  2.5262192E+01
 1.2138250E+01  2.4855898E+01
 1.2149751E+01  2.4328939E+01
 1.2161251E+01  2.3884722E+01
 1.2172750E+01  2.3507177E+01
 1.2184251E+01  2.3270027E+01
 1.2195750E+01  2.3092459E+01
 1.2207251E+01  2.2986397E+01
 1.2218751E+01  2.2957850E+01
 1.2230250E+01  2.2969023E+01
 1.2241751E+01  2.3008444E+01
 1.2253251E+01  2.2986063E+01
 1.2264750E+01  2.2977537E+01
 1.2276251E+01  2.2945341E+01
 1.2287750E+01  2.2982149E+01
 1.2299251E+01  2.2950520E+01
 1.2310751E+01  2.2978104E+01
 1.2322250E+01  2.2941591E+01
 1.2333751E+01  2.2958872E+01
 1.2345250E+01  2.2925919E+01
 1.2356750E+01  2.2936453E+01
 1.2368251E+01  2.2964371E+01
 1.2379750E+01  2.3031916E+01
 1.2391251E+01  2.3059168E+01
 1.2402751E+01  2.3037935E+01
 1.2414250E+01  2.3008528E+01
 1.2425751E+01  2.3011768E+01
 1.2437250E+01  2.3043901E+01
 1.2448750E+01  2.3041534E+01
 1.2460251E+01  2.3055822E+01
 1.2471750E+01  2.3059856E+01
 1.2483251E+01  2.3079163E+01
 1.2494751E+01  2.3044336E+01
 1.2506250E+01  2.2983221E+01
 1.2517751E+01  2.2942719E+01
 1.2529250E+01  2.3009972E+01
 1.2540751E+01  2.3076557E+01
 1.2552251E+01  2.3134123E+01
 1.2563750E+01  2.3099022E+01
 1.2575251E+01  2.3143515E+01
 1.2586751E+01  2.3155630E+01
 1.2598250E+01  2.3190086E+01
 1.2609751E+01  2.3167664E+01
 1.2621250E+01  2.3229578E+01
 1.2632751E+01  2.3241360E+01
 1.2644251E+01  2.3225611E+01
 1.2655750E+01  2.3201359E+01
 1.2667251E+01  2.3177525E+01
 1.2678751E+01  2.3203133E+01
 1.2690250E+01  2.3236347E+01
 1.2701751E+01  2.3316267E+01
 1.2713250E+01  2.3394829E+01
 1.2724751E+01  2.3462017E+01
 1.2736251E+01  2.3485846E+01
 1.2747750E+01  2.3470695E+01
 1.2759251E+01  2.3445139E+01
 1.2770751E+01  2.3438925E+01
 1.2782250E+01  2.3508224E+01
 1.2793751E+01  2.3497711E+01
 1.2805250E+01  2.3538143E+01
 1.2816751E+01  2.3564526E+01
 1.2828251E+01  2.3602409E+01
 1.2839750E+01  2.3660614E+01
 1.2851251E+01  2.3668852E+01
 1.2862751E+01  2.3674097E+01
 1.2874250E+01  2.3687794E+01
 1.2885751E+01  2.3663404E+01
 1.2897250E+01  2.3705595E+01
 1.2908751E+01  2.3754498E+01
 1.2920251E+01  2.3890011E+01
 1.2931750E+01  2.4057014E+01
 1.2943251E+01  2.4179628E+01
 1.2954751E+01  2.4251638E+01
 1.2966250E+01  2.4278315E+01
 1.2977751E+01  2.4303585E+01
 1.2989250E+01  2.4316187E+01
 1.3000751E+01  2.4368143E+01
 1.3012251E+01  2.4405415E+01
 1.3023750E+01  2.4494823E+01
 1.3035251E+01  2.4582811E+01
 1.3046751E+01  2.4679424E+01
 1.3058250E+01  2.4793671E+01
 1.3069751E+01  2.4870008E+01
 1.3081250E+01  2.4923218E+01
 1.3092751E+01  2.4994984E+01
 1.3104251E+01  2.5122160E+01
 1.3115750E+01  2.5206951E+01
 1.3127251E+01  2.5304064E+01
 1.3138751E+01  2.5421144E+01
 1.3150250E+01  2.5593927E+01
 1.3161751E+01  2.5678015E+01
 1.3173250E+01  2.5812151E+01
 1.3184751E+01  2.5906384E+01
 1.3196251E+01  2.6085480E+01
 1.3207750E+01  2.6172762E+01
 1.3219251E+01  2.6323387E+01
 1.3230751E+01  2.6422550E+01
 1.3242250E+01  2.6527361E+01
 1.3253751E+01  2.6632095E+01
 1.3265250E+01  2.6751045E+01
 1.3276751E+01  2.6889400E+01
 1.3288251E+01  2.7094511E+01
 1.3299750E+01  2.7283922E+01
 1.3311251E+01  2.7392054E+01
 1.3322751E+01  2.7531441E+01
 1.3334250E+01  2.7653578E+01
 1.3345751E+01  2.7783863E+01
 1.3357250E+01  2.7959511E+01
 1.3368751E+01  2.8094660E+01
 1.3380251E+01  2.8292917E+01
 1.3391750E+01  2.8402498E+01
 1.3403251E+01  2.8539927E+01
 1.3414751E+01  2.8662527E+01
 1.3426250E+01  2.8757526E+01
 1.3437751E+01  2.8898651E+01
 1.3449250E+01  2.9007694E+01
 1.3460751E+01  2.9081833E+01
 1.3472251E+01  2.9195335E+01
 1.3483750E+01  2.9362671E+01
 1.3495251E+01  2.9480425E+01
 1.3506751E+01  2.9674158E+01
 1.3518250E+01  2.9786829E+01
 1.3529751E+01  2.9898798E+01
 1.3541250E+01  2.9915192E+01
 1.3552751E+01  2.9939781E+01
 1.3564251E+01  3.0031576E+01
 1.3575750E+01  3.0125626E+01
 1.3587251E+01  3.0139881E+01
 1.3598751E+01  3.0207188E+01
 1.3610250E+01  3.0142307E+01
 1.3621751E+01  3.0164049E+01
 1.3633250E+01  3.0099199E+01
 1.3644751E+01  3.0087547E+01
 1.3656251E+01  3.0111353E+01
 1.3667750E+01  3.0120777E+01
 1.3679251E+01  3.0095692E+01
 1.3690751E+01  3.0067852E+01
 1.3702250E+01  3.0025543E+01
 1.3713751E+01  3.0033382E+01
 1.3725250E+01  3.0041716E+01
 1.3736751E+01  3.0036371E+01
 1.3748251E+01  3.0042400E+01
 1.3759750E+01  2.9964041E+01
 1.3771251E+01  2.9884155E+01
 1.3782751E+01  2.9782888E+01
 1.3794250E+01  2.9746723E+01
 1.3805751E+01  2.9742815E+01
 1.3817250E+01  2.9707253E+01
 1.3828751E+01  2.9676329E+01
 1.3840251E+01  2.9677626E+01
 1.3851750E+01  2.9770782E+01
 1.3863251E+01  2.9966780E+01
 1.3874751E+01  3.0233349E+01
 1.3886250E+01  3.0731249E+01
 1.3897751E+01  3.1761787E+01
 1.3909250E+01  3.2853085E+01
 1.3920751E+01  3.4650890E+01
 1.3932251E+01  3.6647240E+01
 1.3943750E+01  3.8418034E+01
 1.3955251E+01  3.9558491E+01
 1.3966751E+01  3.9267239E+01
 1.3978251E+01  3.8163895E+01
 1.3989751E+01  3.6054581E+01
 1.4001250E+01  3.4118378E+01
 1.4012751E+01  3.2218044E+01
 1.4024251E+01  3.0772873E+01
 1.4035750E+01  2.9798359E+01
 1.4047251E+01  2.9220083E+01
 1.4058751E+01  2.8808216E+01
 1.4070251E+01  2.8634102E+01
 1.4081751E+01  2.8417965E+01
 1.4093250E+01  2.8253229E+01
 1.4104751E+01  2.8042297E+01
 1.4116251E+01  2.7883583E+01
 1.4127750E+01  2.7754692E+01
 1.4139251E+01  2.7649675E+01
 1.4150751E+01  2.7541195E+01
 1.4162251E+01  2.7470764E+01
 1.4173751E+01  2.7328873E+01
 1.4185250E+01  2.7247667E+01
 1.4196751E+01  2.7155956E+01
 1.4208251E+01  2.7087080E+01
 1.4219750E+01  2.7067348E+01
 1.4231251E+01  2.7004078E+01
 1.4242751E+01  2.7006151E+01
 1.4254251E+01  2.6923403E+01
 1.4265751E+01  2.6888319E+01
 1.4277250E+01  2.6839005E+01
 1.4288751E+01  2.6782759E+01
 1.4300251E+01  2.6749224E+01
 1.4311750E+01  2.6687656E+01
 1.4323251E+01  2.6615606E+01
 1.4334751E+01  2.6551741E+01
 1.4346251E+01  2.6515242E+01
 1.4357751E+01  2.6503807E+01
 1.4369250E+01  2.6473707E+01
 1.4380751E+01  2.6466515E+01
 1.4392251E+01  2.6475271E+01
 1.4403750E+01  2.6459755E+01
 1.4415251E+01  2.6469862E+01
 1.4426751E+01  2.6426460E+01
 1.4438251E+01  2.6440979E+01
 1.4449751E+01  2.6403431E+01
 1.4461250E+01  2.6372679E+01
 1.4472751E+01  2.6280554E+01
 1.4484251E+01  2.6219578E+01
 1.4495750E+01  2.6184277E+01
 1.4507251E+01  2.6146872E+01
 1.4518751E+01  2.6077658E+01
 1.4530251E+01  2.6045765E+01
 1.4541751E+01  2.6010944E+01
 1.4553250E+01  2.6055136E+01
 1.4564751E+01  2.6023170E+01
 1.4576251E+01  2.6112959E+01
 1.4587750E+01  2.6043514E+01
 1.4599251E+01  2.6098177E+01
 1.4610751E+01  2.5911871E+01
 1.4622251E+01  2.5891666E+01
 1.4633751E+01  2.5725222E+01
 1.4645250E+01  2.5695271E+01
 1.4656751E+01  2.5635717E+01
 1.4668251E+01  2.5623446E+01
 1.4679750E+01  2.5633066E+01
 1.4691251E+01  2.5617474E+01
 1.4702751E+01  2.5604507E+01
 1.4714251E+01  2.5569454E+01
 1.4725751E+01  2.5557867E+01
 1.4737250E+01  2.5548540E+01
 1.4748751E+01  2.5530148E+01
 1.4760251E+01  2.5492159E+01
 1.4771750E+01  2.5564795E+01
 1.4783251E+01  2.5592468E+01
 1.4794751E+01  2.5657141E+01
 1.4806251E+01  2.5568926E+01
 1.4817751E+01  2.5460302E+01
 1.4829250E+01  2.5375912E+01
 1.4840751E+01  2.5349043E+01
 1.4852251E+01  2.5358677E+01
 1.4863750E+01  2.5346231E+01
 1.4875251E+01  2.5316853E+01
 1.4886751E+01  2.5357204E+01
 1.4898251E+01  2.5413454E+01
 1.4909751E+01  2.5420219E+01
 1.4921250E+01  2.5414537E+01
 1.4932751E+01  2.5414165E+01
 1.4944251E+01  2.5427944E+01
 1.4955750E+01  2.5450691E+01
 1.4967251E+01  2.5427565E+01
 1.4978751E+01  2.5428169E+01
 1.4990251E+01  2.5315609E+01
 1.5001751E+01  2.5492802E+01
 1.5013250E+01  2.5575480E+01
 1.5024751E+01  2.5679684E+01
 1.5036251E+01  2.5438444E+01
 1.5047750E+01  2.5383413E+01
 1.5059251E+01  2.5327648E+01
 1.5070751E+01  2.5379007E+01
 1.5082251E+01  2.5337711E+01
 1.5093751E+01  2.5334747E+01
 1.5105250E+01  2.5378029E+01
 1.5116751E+01  2.5461586E+01
 1.5128251E+01  2.5580881E+01
 1.5139750E+01  2.5762901E+01
 1.5151251E+01  2.6134706E+01
 1.5162751E+01  2.6550175E+01
 1.5174251E+01  2.6992310E+01
 1.5185751E+01  2.7267179E+01
 1.5197250E+01  2.7365953E+01
 1.5208751E+01  2.7294811E+01
 1.5220251E+01  2.7027195E+01
 1.5231750E+01  2.6624256E+01
 1.5243251E+01  2.6112705E+01
 1.5254751E+01  2.5717239E+01
 1.5266251E+01  2.5394627E+01
 1.5277751E+01  2.5284378E+01
 1.5289250E+01  2.5229513E+01
 1.5300751E+01  2.5175730E+01
 1.5312251E+01  2.5114305E+01
 1.5323750E+01  2.5059490E+01
 1.5335251E+01  2.5075136E+01
 1.5346751E+01  2.5055799E+01
 1.5358251E+01  2.5037212E+01
 1.5369751E+01  2.4993793E+01
 1.5381250E+01  2.4981878E+01
 1.5392751E+01  2.4968136E+01
 1.5404251E+01  2.5003891E+01
 1.5415751E+01  2.5102268E+01
 1.5427251E+01  2.5218622E+01
 1.5438751E+01  2.5188103E+01
 1.5450251E+01  2.5092325E+01
 1.5461751E+01  2.5005960E+01
 1.5473250E+01  2.5011086E+01
 1.5484751E+01  2.5027731E+01
 1.5496251E+01  2.5021456E+01
 1.5507751E+01  2.4984114E+01
 1.5519251E+01  2.4978556E+01
 1.5530751E+01  2.4989124E+01
 1.5542251E+01  2.4999487E+01
 1.5553751E+01  2.5010015E+01
 1.5565250E+01  2.5050779E+01
 1.5576751E+01  2.5027288E+01
 1.5588251E+01  2.5000858E+01
 1.5599751E+01  2.4914450E+01
 1.5611251E+01  2.4906042E+01
 1.5622751E+01  2.4861536E+01
 1.5634251E+01  2.4889570E+01
 1.5645751E+01  2.4908813E+01
 1.5657250E+01  2.4943439E+01
 1.5668751E+01  2.5015575E+01
 1.5680251E+01  2.5040272E+01
 1.5691751E+01  2.5035305E+01
 1.5703251E+01  2.5001818E+01
 1.5714751E+01  2.5007309E+01
 1.5726251E+01  2.4985733E+01
 1.5737751E+01  2.4942547E+01
 1.5749250E+01  2.4902327E+01
 1.5760751E+01  2.4920801E+01
 1.5772251E+01  2.5003220E+01
 1.5783751E+01  2.5040432E+01
 1.5795251E+01  2.5085337E+01
 1.5806751E+01  2.5125002E+01
 1.5818251E+01  2.5119167E+01
 1.5829751E+01  2.5078814E+01
 1.5841250E+01  2.4989950E+01
 1.5852751E+01  2.4999002E+01
 1.5864251E+01  2.4991373E+01
 1.5875751E+01  2.4980125E+01
 1.5887251E+01  2.4941454E+01
 1.5898750E+01  2.4958563E+01
 1.5910251E+01  2.4980846E+01
 1.5921751E+01  2.4992189E+01
 1.5933250E+01  2.5016594E+01
 1.5944751E+01  2.4982853E+01
 1.5956251E+01  2.4970125E+01
 1.5967751E+01  2.4906439E+01
 1.5979251E+01  2.4921608E+01
 1.5990750E+01  2.4929113E+01
 1.6002251E+01  2.4904016E+01
 1.6013750E+01  2.4956209E+01
 1.6025251E+01  2.4949083E+01
 1.6036751E+01  2.4984102E+01
 1.6048250E+01  2.4949717E+01
 1.6059752E+01  2.4965572E+01
 1.6071251E+01  2.4944666E+01
 1.6082750E+01  2.4968496E+01
 1.6094252E+01  2.4990648E+01
 1.6105751E+01  2.5056623E+01
 1.6117250E+01  2.5109831E+01
 1.6128750E+01  2.5126688E+01
 1.6140251E+01  2.5155428E+01
 1.6151751E+01  2.5133005E+01
 1.6163250E+01  2.5214911E+01
 1.6174751E+01  2.5194815E+01
 1.6186251E+01  2.5473169E+01
 1.6197750E+01  2.5432747E+01
 1.6209251E+01  2.5904959E+01
 1.6220751E+01  2.5828390E+01
 1.6232250E+01  2.6268047E+01
 1.6243752E+01  2.6303293E+01
 1.6255251E+01  2.6554747E+01
 1.6266750E+01  2.6720909E+01
 1.6278252E+01  2.6408266E+01
 1.6289751E+01  2.6458815E+01
 1.6301250E+01  2.5807716E+01
 1.6312750E+01  2.5882282E+01
 1.6324251E+01  2.5416870E+01
 1.6335751E+01  2.5484119E+01
 1.6347250E+01  2.5255344E+01
 1.6358751E+01  2.5240334E+01
 1.6370251E+01  2.5116924E+01
 1.6381750E+01  2.5097870E+01
 1.6393251E+01  2.5080339E+01
 1.6404751E+01  2.5089346E+01
 1.6416250E+01  2.5128654E+01
 1.6427752E+01  2.5056589E+01
 1.6439251E+01  2.5039896E+01
 1.6450750E+01  2.4983980E+01
 1.6462252E+01  2.4978767E+01
 1.6473751E+01  2.4978683E+01
 1.6485250E+01  2.5036163E+01
 1.6496750E+01  2.5075874E+01
 1.6508251E+01  2.5085180E+01
 1.6519751E+01  2.5062178E+01
 1.6531250E+01  2.5036766E+01
 1.6542751E+01  2.5051556E+01
 1.6554251E+01  2.5004929E+01
 1.6565750E+01  2.5031055E+01
 1.6577251E+01  2.4967937E+01
 1.6588751E+01  2.5037388E+01
 1.6600250E+01  2.5033453E+01
 1.6611752E+01  2.5062248E+01
 1.6623251E+01  2.5008078E+01
 1.6634750E+01  2.4945707E+01
 1.6646252E+01  2.4885706E+01
 1.6657751E+01  2.4858263E+01
 1.6669250E+01  2.4881502E+01
 1.6680750E+01  2.4893353E+01
 1.6692251E+01  2.4883249E+01
 1.6703751E+01  2.4839863E+01
 1.6715250E+01  2.4893816E+01
 1.6726751E+01  2.4883278E+01
 1.6738251E+01  2.4939289E+01
 1.6749750E+01  2.4951334E+01
 1.6761251E+01  2.4920176E+01
 1.6772751E+01  2.4883276E+01
 1.6784250E+01  2.4833078E+01
 1.6795752E+01  2.4848785E+01
 1.6807251E+01  2.4834080E+01
 1.6818750E+01  2.4798103E+01
 1.6830252E+01  2.4787113E+01
 1.6841751E+01  2.4737066E+01
 1.6853251E+01  2.4718470E+01
 1.6864750E+01  2.4653748E+01
 1.6876251E+01  2.4663715E+01
 1.6887751E+01  2.4647493E+01
 1.6899250E+01  2.4685480E+01
 1.6910751E+01  2.4645752E+01
 1.6922251E+01  2.4662457E+01
 1.6933750E+01  2.4638052E+01
 1.6945251E+01  2.4646492E+01
 1.6956751E+01  2.4686043E+01
 1.6968250E+01  2.4746559E+01
 1.6979752E+01  2.4742020E+01
 1.6991251E+01  2.4663963E+01
 1.7002750E+01  2.4625128E+01
 1.7014252E+01  2.4623356E+01
 1.7025751E+01  2.4561636E+01
 1.7037251E+01  2.4553415E+01
 1.7048750E+01  2.4538097E+01
 1.7060251E+01  2.4584717E+01
 1.7071751E+01  2.4585396E+01
 1.7083250E+01  2.4649572E+01
 1.7094751E+01  2.4657677E+01
 1.7106251E+01  2.4674917E+01
 1.7117750E+01  2.4670216E+01
 1.7129251E+01  2.4744152E+01
 1.7140751E+01  2.4747389E+01
 1.7152250E+01  2.4800743E+01
 1.7163752E+01  2.4793962E+01
 1.7175251E+01  2.4826784E+01
 1.7186750E+01  2.4809719E+01
 1.7198252E+01  2.4784309E+01
 1.7209751E+01  2.4711016E+01
 1.7221251E+01  2.4615427E+01
 1.7232750E+01  2.4557417E+01
 1.7244251E+01  2.4499331E+01
 1.7255751E+01  2.4415672E+01
 1.7267250E+01  2.4379910E+01
 1.7278751E+01  2.4391565E+01
 1.7290251E+01  2.4409620E+01
 1.7301750E+01  2.4434643E+01
 1.7313251E+01  2.4426214E+01
 1.7324751E+01  2.4435892E+01
 1.7336250E+01  2.4400490E+01
 1.7347752E+01  2.4329721E+01
 1.7359251E+01  2.4284386E+01
 1.7370750E+01  2.4271629E+01
 1.7382252E+01  2.4267345E+01
 1.7393751E+01  2.4240038E+01
 1.7405251E+01  2.4241087E+01
 1.7416750E+01  2.4301247E+01
 1.7428251E+01  2.4378407E+01
 1.7439751E+01  2.4429035E+01
 1.7451250E+01  2.4461760E+01
 1.7462751E+01  2.4434637E+01
 1.7474251E+01  2.4378242E+01
 1.7485750E+01  2.4345587E+01
 1.7497252E+01  2.4335102E+01
 1.7508751E+01  2.4305437E+01
 1.7520250E+01  2.4288340E+01
 1.7531752E+01  2.4285797E+01
 1.7543251E+01  2.4325851E+01
 1.7554750E+01  2.4315342E+01
 1.7566252E+01  2.4274961E+01
 1.7577751E+01  2.4264835E+01
 1.7589251E+01  2.4218544E+01
 1.7600750E+01  2.4211065E+01
 1.7612251E+01  2.4163212E+01
 1.7623751E+01  2.4199713E+01
 1.7635250E+01  2.4173628E+01
 1.7646751E+01  2.4205795E+01
 1.7658251E+01  2.4181198E+01
 1.7669750E+01  2.4193045E+01
 1.7681252E+01  2.4184708E+01
 1.7692751E+01  2.4250078E+01
 1.7704250E+01  2.4289770E+01
 1.7715752E+01  2.4330610E+01
 1.7727251E+01  2.4336044E+01
 1.7738750E+01  2.4297899E+01
 1.7750252E+01  2.4266171E+01
 1.7761751E+01  2.4256836E+01
 1.7773251E+01  2.4244770E+01
 1.7784750E+01  2.4246613E+01
 1.7796251E+01  2.4273571E+01
 1.7807751E+01  2.4265650E+01
 1.7819250E+01  2.4214436E+01
 1.7830751E+01  2.4177124E+01
 1.7842251E+01  2.4190550E+01
 1.7853750E+01  2.4203548E+01
 1.7865252E+01  2.4204012E+01
 1.7876751E+01  2.4226551E+01
 1.7888250E+01  2.4274488E+01
 1.7899752E+01  2.4254581E+01
 1.7911251E+01  2.4316011E+01
 1.7922750E+01  2.4358774E+01
 1.7934252E+01  2.4401487E+01
 1.7945751E+01  2.4414646E+01
 1.7957251E+01  2.4450245E+01
 1.7968750E+01  2.4494839E+01
 1.7980251E+01  2.4584005E+01
 1.7991751E+01  2.4710764E+01
 1.8003250E+01  2.4916607E+01
 1.8014751E+01  2.5178953E+01
 1.8026251E+01  2.5458580E+01
 1.8037750E+01  2.5760891E+01
 1.8049252E+01  2.6146540E+01
 1.8060751E+01  2.6555134E+01
 1.8072250E+01  2.7025816E+01
 1.8083752E+01  2.7360968E+01
 1.8095251E+01  2.7813820E+01
 1.8106750E+01  2.7858049E+01
 1.8118252E+01  2.7724924E+01
 1.8129751E+01  2.7263922E+01
 1.8141251E+01  2.6551558E+01
 1.8152750E+01  2.6018213E+01
 1.8164251E+01  2.5419777E+01
 1.8175751E+01  2.5082418E+01
 1.8187250E+01  2.4735567E+01
 1.8198751E+01  2.4532240E+01
 1.8210251E+01  2.4414249E+01
 1.8221750E+01  2.4280397E+01
 1.8233252E+01  2.4227182E+01
 1.8244751E+01  2.4150608E+01
 1.8256250E+01  2.4140495E+01
 1.8267752E+01  2.4110067E+01
 1.8279251E+01  2.4128834E+01
 1.8290751E+01  2.4096636E+01
 1.8302252E+01  2.4058807E+01
 1.8313751E+01  2.4035055E+01
 1.8325251E+01  2.4039635E+01
 1.8336750E+01  2.4067570E+01
 1.8348251E+01  2.4079002E+01
 1.8359751E+01  2.4066429E+01
 1.8371250E+01  2.4026283E+01
 1.8382751E+01  2.4008331E+01
 1.8394251E+01  2.4135025E+01
 1.8405750E+01  2.4198034E+01
 1.8417252E+01  2.4313887E+01
 1.8428751E+01  2.4241978E+01
 1.8440250E+01  2.4180317E+01
 1.8451752E+01  2.4053303E+01
 1.8463251E+01  2.3994135E+01
 1.8474751E+01  2.3998575E+01
 1.8486252E+01  2.3981857E+01
 1.8497751E+01  2.3973169E+01
 1.8509251E+01  2.3965666E+01
 1.8520750E+01  2.3972450E+01
 1.8532251E+01  2.3988512E+01
 1.8543751E+01  2.3982561E+01
 1.8555250E+01  2.4020731E+01
 1.8566751E+01  2.4055651E+01
 1.8578251E+01  2.4057858E+01
 1.8589750E+01  2.4060293E+01
 1.8601252E+01  2.4058771E+01
 1.8612751E+01  2.4038528E+01
 1.8624250E+01  2.3993364E+01
 1.8635752E+01  2.3950428E+01
 1.8647251E+01  2.3920265E+01
 1.8658751E+01  2.3870947E+01
 1.8670252E+01  2.3903938E+01
 1.8681751E+01  2.3949667E+01
 1.8693251E+01  2.3999577E+01
 1.8704750E+01  2.3978584E+01
 1.8716251E+01  2.3948812E+01
 1.8727751E+01  2.3935316E+01
 1.8739250E+01  2.3926435E+01
 1.8750751E+01  2.3907700E+01
 1.8762251E+01  2.3894436E+01
 1.8773750E+01  2.3856466E+01
 1.8785252E+01  2.3858900E+01
 1.8796751E+01  2.3822363E+01
 1.8808250E+01  2.3799379E+01
 1.8819752E+01  2.3832306E+01
 1.8831251E+01  2.3841511E+01
 1.8842751E+01  2.3894533E+01
 1.8854252E+01  2.3850908E+01
 1.8865751E+01  2.3849072E+01
 1.8877251E+01  2.3832129E+01
 1.8888750E+01  2.3861223E+01
 1.8900251E+01  2.3883062E+01
 1.8911751E+01  2.3927334E+01
 1.8923250E+01  2.3954632E+01
 1.8934752E+01  2.3963989E+01
 1.8946251E+01  2.4004858E+01
 1.8957750E+01  2.4045216E+01
 1.8969252E+01  2.4029953E+01
 1.8980751E+01  2.4005791E+01
 1.8992250E+01  2.3952505E+01
 1.9003752E+01  2.3949631E+01
 1.9015251E+01  2.3912968E+01
 1.9026751E+01  2.3926653E+01
 1.9038252E+01  2.3906904E+01
 1.9049751E+01  2.3862963E+01
 1.9061251E+01  2.3871138E+01
 1.9072750E+01  2.3896271E+01
 1.9084251E+01  2.3930441E+01
 1.9095751E+01  2.3907259E+01
 1.9107250E+01  2.3863987E+01
 1.9118752E+01  2.3859295E+01
 1.9130251E+01  2.3871214E+01
 1.9141750E+01  2.3913284E+01
 1.9153252E+01  2.3967573E+01
 1.9164751E+01  2.4010311E+01
 1.9176250E+01  2.3968269E+01
 1.9187752E+01  2.3963249E+01
 1.9199251E+01  2.4004875E+01
 1.9210751E+01  2.4070738E+01
 1.9222252E+01  2.4040937E+01
 1.9233751E+01  2.3992865E+01
 1.9245251E+01  2.3982609E+01
 1.9256750E+01  2.4026165E+01
 1.9268251E+01  2.4046404E+01
 1.9279751E+01  2.4023533E+01
 1.9291250E+01  2.4009966E+01
 1.9302752E+01  2.4037348E+01
 1.9314251E+01  2.4077045E+01
 1.9325750E+01  2.4067467E+01
 1.9337252E+01  2.4068888E+01
 1.9348751E+01  2.4077316E+01
 1.9360250E+01  2.4061872E+01
 1.9371752E+01  2.4015329E+01
 1.9383251E+01  2.3969028E+01
 1.9394751E+01  2.3971502E+01
 1.9406250E+01  2.4020554E+01
 1.9417751E+01  2.4057835E+01
 1.9429251E+01  2.4089302E+01
 1.9440750E+01  2.4097834E+01
 1.9452251E+01  2.4126736E+01
 1.9463751E+01  2.4152777E+01
 1.9475250E+01  2.4169125E+01
 1.9486752E+01  2.4164146E+01
 1.9498251E+01  2.4135475E+01
 1.9509750E+01  2.4104115E+01
 1.9521252E+01  2.4110083E+01
 1.9532751E+01  2.4121494E+01
 1.9544250E+01  2.4196980E+01
 1.9555752E+01  2.4232704E+01
 1.9567251E+01  2.4271523E+01
 1.9578751E+01  2.4296606E+01
 1.9590250E+01  2.4340647E+01
 1.9601751E+01  2.4381445E+01
 1.9613251E+01  2.4447233E+01
 1.9624750E+01  2.4518238E+01
 1.9636251E+01  2.4680206E+01
 1.9647751E+01  2.4855482E+01
 1.9659250E+01  2.5186670E+01
 1.9670752E+01  2.5649248E+01
 1.9682251E+01  2.6033764E+01
 1.9693750E+01  2.6788960E+01
 1.9705252E+01  2.7088581E+01
 1.9716751E+01  2.7568193E+01
 1.9728251E+01  2.7317251E+01
 1.9739752E+01  2.7173145E+01
 1.9751251E+01  2.6716585E+01
 1.9762751E+01  2.6242022E+01
 1.9774250E+01  2.5934731E+01
 1.9785751E+01  2.5760408E+01
 1.9797251E+01  2.5911016E+01
 1.9808750E+01  2.6374815E+01
 1.9820251E+01  2.7077635E+01
 1.9831751E+01  2.7825516E+01
 1.9843250E+01  2.8814552E+01
 1.9854752E+01  2.8951994E+01
 1.9866251E+01  2.9103168E+01
 1.9877750E+01  2.8449955E+01
 1.9889252E+01  2.7649227E+01
 1.9900751E+01  2.6818922E+01
 1.9912251E+01  2.6013180E+01
 1.9923752E+01  2.5537840E+01
 1.9935251E+01  2.5035463E+01
 1.9946751E+01  2.4831470E+01
 1.9958250E+01  2.4574352E+01
 1.9969751E+01  2.4492348E+01
 1.9981251E+01  2.4382940E+01
 1.9992750E+01  2.4362852E+01
 2.0004251E+01  2.4352669E+01
 2.0015751E+01  2.4299948E+01
 2.0027250E+01  2.4287294E+01
 2.0038752E+01  2.4235054E+01
 2.0050251E+01  2.4224272E+01
 2.0061750E+01  2.4167393E+01
 2.0073252E+01  2.4130487E+01
 2.0084751E+01  2.4105953E+01
 2.0096251E+01  2.4139036E+01
 2.0107752E+01  2.4123524E+01
 2.0119251E+01  2.4102049E+01
 2.0130751E+01  2.4052603E+01
 2.0142250E+01  2.4042881E+01
 2.0153751E+01  2.4076544E+01
 2.0165251E+01  2.4180149E+01
 2.0176750E+01  2.4241562E+01
 2.0188251E+01  2.4242439E+01
 2.0199751E+01  2.4173923E+01
 2.0211250E+01  2.4164757E+01
 2.0222752E+01  2.4213495E+01
 2.0234251E+01  2.4227953E+01
 2.0245750E+01  2.4225945E+01
 2.0257252E+01  2.4188965E+01
 2.0268751E+01  2.4147921E+01
 2.0280251E+01  2.4152891E+01
 2.0291752E+01  2.4200596E+01
 2.0303251E+01  2.4211100E+01
 2.0314751E+01  2.4175203E+01
 2.0326250E+01  2.4122002E+01
 2.0337751E+01  2.4092384E+01
 2.0349251E+01  2.4044262E+01
 2.0360750E+01  2.4042459E+01
 2.0372252E+01  2.4111195E+01
 2.0383751E+01  2.4136732E+01
 2.0395250E+01  2.4121452E+01
 2.0406752E+01  2.4098131E+01
 2.0418251E+01  2.4132641E+01
 2.0429750E+01  2.4200781E+01
 2.0441252E+01  2.4177225E+01
 2.0452751E+01  2.4149488E+01
 2.0464251E+01  2.4104570E+01
 2.0475752E+01  2.4116484E+01
 2.0487251E+01  2.4131809E+01
 2.0498751E+01  2.4157869E+01
 2.0510250E+01  2.4131756E+01
 2.0521751E+01  2.4080011E+01
 2.0533251E+01  2.4026457E+01
 2.0544750E+01  2.4045353E+01
 2.0556252E+01  2.4112934E+01
 2.0567751E+01  2.4202028E+01
 2.0579250E+01  2.4256662E+01
 2.0590752E+01  2.4335457E+01
 2.0602251E+01  2.4386297E+01
 2.0613750E+01  2.4420782E+01
 2.0625252E+01  2.4414227E+01
 2.0636751E+01  2.4426094E+01
 2.0648251E+01  2.4390738E+01
 2.0659752E+01  2.4381096E+01
 2.0671251E+01  2.4415451E+01
 2.0682751E+01  2.4501444E+01
 2.0694250E+01  2.4690275E+01
 2.0705751E+01  2.4910141E+01
 2.0717251E+01  2.5227564E+01
 2.0728750E+01  2.5605822E+01
 2.0740252E+01  2.5816393E+01
 2.0751751E+01  2.6287254E+01
 2.0763250E+01  2.6457346E+01
 2.0774752E+01  2.6634478E+01
 2.0786251E+01  2.6522614E+01
 2.0797750E+01  2.6538288E+01
 2.0809252E+01  2.6118727E+01
 2.0820751E+01  2.5801273E+01
 2.0832251E+01  2.5410624E+01
 2.0843752E+01  2.5150318E+01
 2.0855251E+01  2.4772230E+01
 2.0866751E+01  2.4648958E+01
 2.0878250E+01  2.4543226E+01
 2.0889751E+01  2.4463898E+01
 2.0901251E+01  2.4406895E+01
 2.0912750E+01  2.4413183E+01
 2.0924252E+01  2.4445251E+01
 2.0935751E+01  2.4444653E+01
 2.0947250E+01  2.4413538E+01
 2.0958752E+01  2.4366241E+01
 2.0970251E+01  2.4364714E+01
 2.0981750E+01  2.4341539E+01
 2.0993252E+01  2.4342024E+01
 2.1004751E+01  2.4334532E+01
 2.1016251E+01  2.4290335E+01
 2.1027752E+01  2.4269434E+01
 2.1039251E+01  2.4238302E+01
 2.1050751E+01  2.4231379E+01
 2.1062250E+01  2.4232843E+01
 2.1073751E+01  2.4291218E+01
 2.1085251E+01  2.4349102E+01
 2.1096750E+01  2.4361023E+01
 2.1108252E+01  2.4318392E+01
 2.1119751E+01  2.4315630E+01
 2.1131250E+01  2.4295088E+01
 2.1142752E+01  2.4264088E+01
 2.1154251E+01  2.4235409E+01
 2.1165751E+01  2.4278038E+01
 2.1177252E+01  2.4308235E+01
 2.1188751E+01  2.4308626E+01
 2.1200251E+01  2.4305092E+01
 2.1211752E+01  2.4295870E+01
 2.1223251E+01  2.4262569E+01
 2.1234751E+01  2.4236813E+01
 2.1246250E+01  2.4271143E+01
 2.1257751E+01  2.4284187E+01
 2.1269251E+01  2.4318199E+01
 2.1280750E+01  2.4345148E+01
 2.1292252E+01  2.4346283E+01
 2.1303751E+01  2.4336746E+01
 2.1315250E+01  2.4282568E+01
 2.1326752E+01  2.4294876E+01
 2.1338251E+01  2.4277275E+01
 2.1349751E+01  2.4344751E+01
 2.1361252E+01  2.4372356E+01
 2.1372751E+01  2.4425482E+01
 2.1384251E+01  2.4410679E+01
 2.1395752E+01  2.4386003E+01
 2.1407251E+01  2.4335808E+01
 2.1418751E+01  2.4314297E+01
 2.1430250E+01  2.4307089E+01
 2.1441751E+01  2.4308624E+01
 2.1453251E+01  2.4315754E+01
 2.1464750E+01  2.4394175E+01
 2.1476252E+01  2.4396187E+01
 2.1487751E+01  2.4402166E+01
 2.1499250E+01  2.4364246E+01
 2.1510752E+01  2.4406261E+01
 2.1522251E+01  2.4366009E+01
 2.1533751E+01  2.4347466E+01
 2.1545252E+01  2.4348919E+01
 2.1556751E+01  2.4415152E+01
 2.1568251E+01  2.4439823E+01
 2.1579752E+01  2.4441576E+01
 2.1591251E+01  2.4451096E+01
 2.1602751E+01  2.4488577E+01
 2.1614250E+01  2.4464287E+01
 2.1625751E+01  2.4470810E+01
 2.1637251E+01  2.4500357E+01
 2.1648750E+01  2.4609318E+01
 2.1660252E+01  2.4586094E+01
 2.1671751E+01  2.4612043E+01
 2.1683250E+01  2.4571184E+01
 2.1694752E+01  2.4561235E+01
 2.1706251E+01  2.4501165E+01
 2.1717751E+01  2.4462610E+01
 2.1729252E+01  2.4431232E+01
 2.1740751E+01  2.4388680E+01
 2.1752251E+01  2.4338877E+01
 2.1763752E+01  2.4293890E+01
 2.1775251E+01  2.4314720E+01
 2.1786751E+01  2.4350550E+01
 2.1798250E+01  2.4409359E+01
 2.1809752E+01  2.4424917E+01
 2.1821251E+01  2.4444180E+01
 2.1832750E+01  2.4403254E+01
 2.1844252E+01  2.4411022E+01
 2.1855751E+01  2.4470135E+01
 2.1867250E+01  2.4530842E+01
 2.1878752E+01  2.4565357E+01
 2.1890251E+01  2.4530678E+01
 2.1901751E+01  2.4548212E+01
 2.1913252E+01  2.4539408E+01
 2.1924751E+01  2.4501945E+01
 2.1936251E+01  2.4510605E+01
 2.1947752E+01  2.4531153E+01
 2.1959251E+01  2.4553524E+01
 2.1970751E+01  2.4567450E+01
 2.1982250E+01  2.4574974E+01
 2.1993752E+01  2.4591467E+01
 2.2005251E+01  2.4600277E+01
 2.2016750E+01  2.4620337E+01
 2.2028252E+01  2.4619617E+01
 2.2039751E+01  2.4630283E+01
 2.2051250E+01  2.4635809E+01
 2.2062752E+01  2.4638353E+01
 2.2074251E+01  2.4634981E+01
 2.2085751E+01  2.4607319E+01
 2.2097252E+01  2.4595238E+01
 2.2108751E+01  2.4631380E+01
 2.2120251E+01  2.4722383E+01
 2.2131752E+01  2.4758265E+01
 2.2143251E+01  2.4737362E+01
 2.2154751E+01  2.4740547E+01
 2.2166250E+01  2.4758564E+01
 2.2177752E+01  2.4744387E+01
 2.2189251E+01  2.4706978E+01
 2.2200750E+01  2.4700003E+01
 2.2212252E+01  2.4692736E+01
 2.2223751E+01  2.4759155E+01
 2.2235250E+01  2.4746201E+01
 2.2246752E+01  2.4793852E+01
 2.2258251E+01  2.4767630E+01
 2.2269751E+01  2.4751532E+01
 2.2281252E+01  2.4749285E+01
 2.2292751E+01  2.4754894E+01
 2.2304251E+01  2.4787928E+01
 2.2315752E+01  2.4808533E+01
 2.2327251E+01  2.4811563E+01
 2.2338751E+01  2.4879145E+01
 2.2350250E+01  2.4933290E+01
 2.2361752E+01  2.4964233E+01
 2.2373251E+01  2.4951597E+01
 2.2384750E+01  2.4916002E+01
 2.2396252E+01  2.4934023E+01
 2.2407751E+01  2.4910112E+01
 2.2419250E+01  2.4918333E+01
 2.2430752E+01  2.4938595E+01
 2.2442251E+01  2.4977844E+01
 2.2453751E+01  2.5019403E+01
 2.2465252E+01  2.5031254E+01
 2.2476751E+01  2.5047977E+01
 2.2488251E+01  2.5079285E+01
 2.2499752E+01  2.5117044E+01
 2.2511251E+01  2.5146446E+01
 2.2522751E+01  2.5159706E+01
 2.2534250E+01  2.5127335E+01
 2.2545752E+01  2.5137726E+01
 2.2557251E+01  2.5157013E+01
 2.2568750E+01  2.5165565E+01
 2.2580252E+01  2.5176151E+01
 2.2591751E+01  2.5229267E+01
 2.2603251E+01  2.5282719E+01
 2.2614752E+01  2.5316561E+01
 2.2626251E+01  2.5368044E+01
 2.2637751E+01  2.5369846E+01
 2.2649252E+01  2.5433071E+01
 2.2660751E+01  2.5364420E+01
 2.2672251E+01  2.5417089E+01
 2.2683752E+01  2.5409687E+01
 2.2695251E+01  2.5439171E+01
 2.2706751E+01  2.5428181E+01
 2.2718250E+01  2.5441227E+01
 2.2729752E+01  2.5463581E+01
 2.2741251E+01  2.5490835E+01
 2.2752750E+01  2.5492830E+01
 2.2764252E+01  2.5507021E+01
 2.2775751E+01  2.5535446E+01
 2.2787251E+01  2.5545547E+01
 2.2798752E+01  2.5611721E+01
 2.2810251E+01  2.5756126E+01
 2.2821751E+01  2.5899601E+01
 2.2833252E+01  2.5993153E+01
 2.2844751E+01  2.6007090E+01
 2.2856251E+01  2.5991293E+01
 2.2867750E+01  2.5976837E+01
 2.2879251E+01  2.5980631E+01
 2.2890751E+01  2.6041185E+01
 2.2902250E+01  2.6070261E+01
 2.2913752E+01  2.6172350E+01
 2.2925251E+01  2.6252491E+01
 2.2936750E+01  2.6297302E+01
 2.2948252E+01  2.6315403E+01
 2.2959751E+01  2.6390528E+01
 2.2971251E+01  2.6530224E+01
 2.2982752E+01  2.6640516E+01
 2.2994251E+01  2.6758619E+01
