F:\20151113_APS_34IDE\\Brian\Particle1\OCV\Data_0106.tif
2-Theta Angle (Degrees)
Intensity
       2000
 5.7500005E-03  0.0000000E+00
 1.7250001E-02  0.0000000E+00
 2.8750001E-02  0.0000000E+00
 4.0250003E-02  0.0000000E+00
 5.1750004E-02  0.0000000E+00
 6.3250005E-02  0.0000000E+00
 7.4750006E-02  0.0000000E+00
 8.6250007E-02  0.0000000E+00
 9.7750008E-02  0.0000000E+00
 1.0925001E-01  0.0000000E+00
 1.2075000E-01  0.0000000E+00
 1.3225001E-01  0.0000000E+00
 1.4375001E-01  0.0000000E+00
 1.5525001E-01  0.0000000E+00
 1.6675001E-01  0.0000000E+00
 1.7825001E-01  0.0000000E+00
 1.8975002E-01  0.0000000E+00
 2.0125002E-01  0.0000000E+00
 2.1275002E-01  0.0000000E+00
 2.2425000E-01  0.0000000E+00
 2.3575000E-01  0.0000000E+00
 2.4725001E-01  0.0000000E+00
 2.5875002E-01  0.0000000E+00
 2.7025002E-01  0.0000000E+00
 2.8175002E-01  0.0000000E+00
 2.9325002E-01  0.0000000E+00
 3.0475003E-01  0.0000000E+00
 3.1625003E-01  0.0000000E+00
 3.2775003E-01  0.0000000E+00
 3.3925003E-01  0.0000000E+00
 3.5075003E-01  0.0000000E+00
 3.6225003E-01  0.0000000E+00
 3.7375003E-01  0.0000000E+00
 3.8525003E-01  0.0000000E+00
 3.9675003E-01  0.0000000E+00
 4.0825003E-01  0.0000000E+00
 4.1975003E-01  0.0000000E+00
 4.3125004E-01  0.0000000E+00
 4.4275001E-01  0.0000000E+00
 4.5425001E-01  0.0000000E+00
 4.6575001E-01  0.0000000E+00
 4.7725001E-01  0.0000000E+00
 4.8875001E-01  0.0000000E+00
 5.0025004E-01  0.0000000E+00
 5.1175004E-01  0.0000000E+00
 5.2325004E-01  0.0000000E+00
 5.3475004E-01  0.0000000E+00
 5.4625005E-01  0.0000000E+00
 5.5775005E-01  0.0000000E+00
 5.6925005E-01  0.0000000E+00
 5.8075005E-01  0.0000000E+00
 5.9225005E-01  0.0000000E+00
 6.0375005E-01  0.0000000E+00
 6.1525005E-01  0.0000000E+00
 6.2675005E-01  0.0000000E+00
 6.3825005E-01  0.0000000E+00
 6.4975005E-01  0.0000000E+00
 6.6125005E-01  0.0000000E+00
 6.7275006E-01  0.0000000E+00
 6.8425006E-01  0.0000000E+00
 6.9575006E-01  0.0000000E+00
 7.0725006E-01  0.0000000E+00
 7.1875006E-01  0.0000000E+00
 7.3025006E-01  0.0000000E+00
 7.4175006E-01  0.0000000E+00
 7.5325006E-01  0.0000000E+00
 7.6475006E-01  0.0000000E+00
 7.7625006E-01  0.0000000E+00
 7.8775007E-01  0.0000000E+00
 7.9925007E-01  0.0000000E+00
 8.1075007E-01  0.0000000E+00
 8.2225007E-01  0.0000000E+00
 8.3375007E-01  0.0000000E+00
 8.4525007E-01  0.0000000E+00
 8.5675007E-01  0.0000000E+00
 8.6825007E-01  0.0000000E+00
 8.7975001E-01  0.0000000E+00
 8.9125001E-01  0.0000000E+00
 9.0275002E-01  0.0000000E+00
 9.1425002E-01  0.0000000E+00
 9.2575002E-01  0.0000000E+00
 9.3725002E-01  0.0000000E+00
 9.4875002E-01  0.0000000E+00
 9.6025002E-01  0.0000000E+00
 9.7175002E-01  0.0000000E+00
 9.8325002E-01  0.0000000E+00
 9.9475002E-01  0.0000000E+00
 1.0062500E+00  0.0000000E+00
 1.0177500E+00  0.0000000E+00
 1.0292500E+00  0.0000000E+00
 1.0407500E+00  0.0000000E+00
 1.0522500E+00  0.0000000E+00
 1.0637500E+00  0.0000000E+00
 1.0752500E+00  0.0000000E+00
 1.0867500E+00  0.0000000E+00
 1.0982500E+00  0.0000000E+00
 1.1097500E+00  0.0000000E+00
 1.1212500E+00  0.0000000E+00
 1.1327500E+00  0.0000000E+00
 1.1442500E+00  0.0000000E+00
 1.1557500E+00  0.0000000E+00
 1.1672500E+00  0.0000000E+00
 1.1787500E+00  0.0000000E+00
 1.1902500E+00  0.0000000E+00
 1.2017500E+00  0.0000000E+00
 1.2132500E+00  0.0000000E+00
 1.2247500E+00  0.0000000E+00
 1.2362500E+00  0.0000000E+00
 1.2477500E+00  0.0000000E+00
 1.2592500E+00  0.0000000E+00
 1.2707500E+00  0.0000000E+00
 1.2822500E+00  0.0000000E+00
 1.2937500E+00  0.0000000E+00
 1.3052500E+00  0.0000000E+00
 1.3167500E+00  0.0000000E+00
 1.3282501E+00  0.0000000E+00
 1.3397501E+00  0.0000000E+00
 1.3512501E+00  0.0000000E+00
 1.3627501E+00  0.0000000E+00
 1.3742501E+00  0.0000000E+00
 1.3857501E+00  0.0000000E+00
 1.3972501E+00  0.0000000E+00
 1.4087501E+00  0.0000000E+00
 1.4202501E+00  0.0000000E+00
 1.4317501E+00  0.0000000E+00
 1.4432501E+00  0.0000000E+00
 1.4547501E+00  0.0000000E+00
 1.4662501E+00  0.0000000E+00
 1.4777501E+00  0.0000000E+00
 1.4892501E+00  0.0000000E+00
 1.5007501E+00  0.0000000E+00
 1.5122501E+00  0.0000000E+00
 1.5237501E+00  0.0000000E+00
 1.5352501E+00  0.0000000E+00
 1.5467501E+00  0.0000000E+00
 1.5582501E+00  0.0000000E+00
 1.5697501E+00  0.0000000E+00
 1.5812501E+00  0.0000000E+00
 1.5927501E+00  0.0000000E+00
 1.6042501E+00  0.0000000E+00
 1.6157501E+00  0.0000000E+00
 1.6272501E+00  0.0000000E+00
 1.6387501E+00  0.0000000E+00
 1.6502501E+00  0.0000000E+00
 1.6617501E+00  0.0000000E+00
 1.6732501E+00  0.0000000E+00
 1.6847501E+00  0.0000000E+00
 1.6962501E+00  0.0000000E+00
 1.7077501E+00  0.0000000E+00
 1.7192501E+00  0.0000000E+00
 1.7307501E+00  0.0000000E+00
 1.7422501E+00  0.0000000E+00
 1.7537501E+00  0.0000000E+00
 1.7652501E+00  0.0000000E+00
 1.7767501E+00  0.0000000E+00
 1.7882501E+00  0.0000000E+00
 1.7997501E+00  0.0000000E+00
 1.8112501E+00  0.0000000E+00
 1.8227501E+00  0.0000000E+00
 1.8342501E+00  0.0000000E+00
 1.8457501E+00  0.0000000E+00
 1.8572501E+00  0.0000000E+00
 1.8687501E+00  0.0000000E+00
 1.8802501E+00  0.0000000E+00
 1.8917501E+00  0.0000000E+00
 1.9032501E+00  0.0000000E+00
 1.9147501E+00  0.0000000E+00
 1.9262501E+00  0.0000000E+00
 1.9377501E+00  0.0000000E+00
 1.9492501E+00  0.0000000E+00
 1.9607501E+00  0.0000000E+00
 1.9722501E+00  0.0000000E+00
 1.9837501E+00  0.0000000E+00
 1.9952501E+00  0.0000000E+00
 2.0067501E+00  0.0000000E+00
 2.0182500E+00  0.0000000E+00
 2.0297501E+00  0.0000000E+00
 2.0412500E+00  0.0000000E+00
 2.0527501E+00  0.0000000E+00
 2.0642500E+00  0.0000000E+00
 2.0757501E+00  0.0000000E+00
 2.0872500E+00  0.0000000E+00
 2.0987501E+00  0.0000000E+00
 2.1102500E+00  0.0000000E+00
 2.1217501E+00  0.0000000E+00
 2.1332500E+00  0.0000000E+00
 2.1447501E+00  0.0000000E+00
 2.1562500E+00  0.0000000E+00
 2.1677501E+00  0.0000000E+00
 2.1792500E+00  0.0000000E+00
 2.1907501E+00  0.0000000E+00
 2.2022500E+00  0.0000000E+00
 2.2137501E+00  0.0000000E+00
 2.2252500E+00  0.0000000E+00
 2.2367501E+00  0.0000000E+00
 2.2482500E+00  0.0000000E+00
 2.2597501E+00  0.0000000E+00
 2.2712500E+00  0.0000000E+00
 2.2827501E+00  0.0000000E+00
 2.2942500E+00  0.0000000E+00
 2.3057501E+00  0.0000000E+00
 2.3172500E+00  0.0000000E+00
 2.3287501E+00  0.0000000E+00
 2.3402500E+00  0.0000000E+00
 2.3517501E+00  0.0000000E+00
 2.3632500E+00  0.0000000E+00
 2.3747501E+00  0.0000000E+00
 2.3862500E+00  0.0000000E+00
 2.3977501E+00  0.0000000E+00
 2.4092500E+00  0.0000000E+00
 2.4207501E+00  0.0000000E+00
 2.4322500E+00  0.0000000E+00
 2.4437501E+00  0.0000000E+00
 2.4552500E+00  0.0000000E+00
 2.4667501E+00  0.0000000E+00
 2.4782500E+00  0.0000000E+00
 2.4897501E+00  0.0000000E+00
 2.5012500E+00  0.0000000E+00
 2.5127501E+00  0.0000000E+00
 2.5242500E+00  0.0000000E+00
 2.5357502E+00  0.0000000E+00
 2.5472500E+00  0.0000000E+00
 2.5587502E+00  0.0000000E+00
 2.5702500E+00  0.0000000E+00
 2.5817502E+00  0.0000000E+00
 2.5932500E+00  0.0000000E+00
 2.6047502E+00  0.0000000E+00
 2.6162500E+00  0.0000000E+00
 2.6277502E+00  0.0000000E+00
 2.6392500E+00  0.0000000E+00
 2.6507502E+00  0.0000000E+00
 2.6622500E+00  0.0000000E+00
 2.6737502E+00  0.0000000E+00
 2.6852500E+00  0.0000000E+00
 2.6967502E+00  0.0000000E+00
 2.7082500E+00  0.0000000E+00
 2.7197502E+00  0.0000000E+00
 2.7312500E+00  0.0000000E+00
 2.7427502E+00  0.0000000E+00
 2.7542500E+00  0.0000000E+00
 2.7657502E+00  0.0000000E+00
 2.7772501E+00  0.0000000E+00
 2.7887502E+00  0.0000000E+00
 2.8002501E+00  0.0000000E+00
 2.8117502E+00  0.0000000E+00
 2.8232501E+00  3.2233303E+01
 2.8347502E+00  3.3971909E+01
 2.8462501E+00  3.4498573E+01
 2.8577502E+00  3.4729340E+01
 2.8692501E+00  3.4885677E+01
 2.8807502E+00  3.4645695E+01
 2.8922501E+00  3.4839966E+01
 2.9037502E+00  3.4506123E+01
 2.9152501E+00  3.4323860E+01
 2.9267502E+00  3.4050404E+01
 2.9382501E+00  3.3915546E+01
 2.9497502E+00  3.4126156E+01
 2.9612501E+00  3.3917439E+01
 2.9727502E+00  3.3992981E+01
 2.9842501E+00  3.3967457E+01
 2.9957502E+00  3.4460232E+01
 3.0072501E+00  3.4685978E+01
 3.0187502E+00  3.5209084E+01
 3.0302501E+00  3.5107346E+01
 3.0417502E+00  3.4930367E+01
 3.0532501E+00  3.4324776E+01
 3.0647502E+00  3.3893559E+01
 3.0762501E+00  3.3946655E+01
 3.0877502E+00  3.3640224E+01
 3.0992501E+00  3.3970261E+01
 3.1107502E+00  3.3537613E+01
 3.1222501E+00  3.3828682E+01
 3.1337502E+00  3.3764835E+01
 3.1452501E+00  3.4177990E+01
 3.1567502E+00  3.4587578E+01
 3.1682501E+00  3.4897625E+01
 3.1797502E+00  3.4949966E+01
 3.1912501E+00  3.4959953E+01
 3.2027502E+00  3.4884747E+01
 3.2142501E+00  3.5098267E+01
 3.2257502E+00  3.5260967E+01
 3.2372501E+00  3.5042416E+01
 3.2487502E+00  3.4945484E+01
 3.2602501E+00  3.4774136E+01
 3.2717502E+00  3.4790417E+01
 3.2832501E+00  3.4684418E+01
 3.2947502E+00  3.4682323E+01
 3.3062501E+00  3.4498177E+01
 3.3177502E+00  3.4642265E+01
 3.3292501E+00  3.4787354E+01
 3.3407502E+00  3.4965614E+01
 3.3522501E+00  3.4792694E+01
 3.3637502E+00  3.4581913E+01
 3.3752501E+00  3.4460087E+01
 3.3867502E+00  3.4261147E+01
 3.3982501E+00  3.3980545E+01
 3.4097502E+00  3.3877441E+01
 3.4212501E+00  3.4034634E+01
 3.4327502E+00  3.4215851E+01
 3.4442501E+00  3.4216957E+01
 3.4557502E+00  3.4118908E+01
 3.4672501E+00  3.4183357E+01
 3.4787502E+00  3.3970562E+01
 3.4902501E+00  3.3965069E+01
 3.5017502E+00  3.3567448E+01
 3.5132501E+00  3.3536114E+01
 3.5247502E+00  3.3708481E+01
 3.5362501E+00  3.3659203E+01
 3.5477502E+00  3.3659313E+01
 3.5592501E+00  3.3572048E+01
 3.5707502E+00  3.3535027E+01
 3.5822501E+00  3.3561249E+01
 3.5937502E+00  3.3338470E+01
 3.6052501E+00  3.3124756E+01
 3.6167502E+00  3.2863579E+01
 3.6282501E+00  3.2865685E+01
 3.6397502E+00  3.2899952E+01
 3.6512501E+00  3.3140472E+01
 3.6627502E+00  3.3167301E+01
 3.6742501E+00  3.3218151E+01
 3.6857502E+00  3.3172901E+01
 3.6972501E+00  3.3118057E+01
 3.7087502E+00  3.3009254E+01
 3.7202501E+00  3.2873798E+01
 3.7317502E+00  3.2773087E+01
 3.7432501E+00  3.2696606E+01
 3.7547503E+00  3.2610039E+01
 3.7662501E+00  3.2487228E+01
 3.7777503E+00  3.2594158E+01
 3.7892501E+00  3.2495804E+01
 3.8007503E+00  3.2396591E+01
 3.8122501E+00  3.2418278E+01
 3.8237503E+00  3.2396633E+01
 3.8352501E+00  3.2444004E+01
 3.8467503E+00  3.2354244E+01
 3.8582501E+00  3.2281452E+01
 3.8697503E+00  3.2204350E+01
 3.8812501E+00  3.2168564E+01
 3.8927503E+00  3.2157543E+01
 3.9042501E+00  3.2084217E+01
 3.9157503E+00  3.2051449E+01
 3.9272501E+00  3.2047222E+01
 3.9387503E+00  3.2216015E+01
 3.9502501E+00  3.2471222E+01
 3.9617503E+00  3.2527855E+01
 3.9732502E+00  3.2696144E+01
 3.9847503E+00  3.2591995E+01
 3.9962502E+00  3.2558365E+01
 4.0077500E+00  3.2454517E+01
 4.0192504E+00  3.2475742E+01
 4.0307503E+00  3.2343681E+01
 4.0422502E+00  3.2253372E+01
 4.0537500E+00  3.2188511E+01
 4.0652504E+00  3.2164219E+01
 4.0767503E+00  3.2278255E+01
 4.0882502E+00  3.2352272E+01
 4.0997500E+00  3.2385017E+01
 4.1112504E+00  3.2511547E+01
 4.1227503E+00  3.2543819E+01
 4.1342502E+00  3.2462208E+01
 4.1457500E+00  3.2502750E+01
 4.1572504E+00  3.2342705E+01
 4.1687503E+00  3.2207184E+01
 4.1802502E+00  3.1986223E+01
 4.1917500E+00  3.1858727E+01
 4.2032504E+00  3.1890020E+01
 4.2147503E+00  3.1922140E+01
 4.2262502E+00  3.1946535E+01
 4.2377501E+00  3.1796587E+01
 4.2492504E+00  3.1837933E+01
 4.2607503E+00  3.1787983E+01
 4.2722502E+00  3.1702868E+01
 4.2837501E+00  3.1628872E+01
 4.2952504E+00  3.1547977E+01
 4.3067503E+00  3.1744143E+01
 4.3182502E+00  3.1996159E+01
 4.3297501E+00  3.2085358E+01
 4.3412504E+00  3.2166645E+01
 4.3527503E+00  3.1976791E+01
 4.3642502E+00  3.1700556E+01
 4.3757501E+00  3.1527712E+01
 4.3872504E+00  3.1438984E+01
 4.3987503E+00  3.1581129E+01
 4.4102502E+00  3.1891970E+01
 4.4217501E+00  3.2021393E+01
 4.4332504E+00  3.2135471E+01
 4.4447503E+00  3.2054817E+01
 4.4562502E+00  3.1935741E+01
 4.4677501E+00  3.2063858E+01
 4.4792504E+00  3.2099781E+01
 4.4907503E+00  3.2134895E+01
 4.5022502E+00  3.2239685E+01
 4.5137501E+00  3.2233280E+01
 4.5252504E+00  3.2306988E+01
 4.5367503E+00  3.2263180E+01
 4.5482502E+00  3.2245892E+01
 4.5597501E+00  3.2273922E+01
 4.5712504E+00  3.2208004E+01
 4.5827503E+00  3.2268673E+01
 4.5942502E+00  3.2331043E+01
 4.6057501E+00  3.2352192E+01
 4.6172504E+00  3.2336933E+01
 4.6287503E+00  3.2398525E+01
 4.6402502E+00  3.2388126E+01
 4.6517501E+00  3.2416759E+01
 4.6632504E+00  3.2412003E+01
 4.6747503E+00  3.2564022E+01
 4.6862502E+00  3.2531158E+01
 4.6977501E+00  3.2520718E+01
 4.7092505E+00  3.2446251E+01
 4.7207503E+00  3.2374393E+01
 4.7322502E+00  3.2302460E+01
 4.7437501E+00  3.2281315E+01
 4.7552505E+00  3.2309574E+01
 4.7667503E+00  3.2381393E+01
 4.7782502E+00  3.2339703E+01
 4.7897501E+00  3.2451981E+01
 4.8012505E+00  3.2446476E+01
 4.8127503E+00  3.2507286E+01
 4.8242502E+00  3.2585022E+01
 4.8357501E+00  3.2602547E+01
 4.8472505E+00  3.2636360E+01
 4.8587503E+00  3.2688797E+01
 4.8702502E+00  3.2694912E+01
 4.8817501E+00  3.2785137E+01
 4.8932505E+00  3.2694832E+01
 4.9047503E+00  3.2720779E+01
 4.9162502E+00  3.2710495E+01
 4.9277501E+00  3.2617916E+01
 4.9392505E+00  3.2566811E+01
 4.9507504E+00  3.2479477E+01
 4.9622502E+00  3.2527901E+01
 4.9737501E+00  3.2680008E+01
 4.9852505E+00  3.2801014E+01
 4.9967504E+00  3.2908146E+01
 5.0082502E+00  3.2934002E+01
 5.0197501E+00  3.2973438E+01
 5.0312505E+00  3.3048134E+01
 5.0427504E+00  3.2976437E+01
 5.0542502E+00  3.2919506E+01
 5.0657501E+00  3.2841858E+01
 5.0772505E+00  3.2921665E+01
 5.0887504E+00  3.3036823E+01
 5.1002502E+00  3.3123417E+01
 5.1117501E+00  3.3113590E+01
 5.1232505E+00  3.3122280E+01
 5.1347504E+00  3.3211018E+01
 5.1462502E+00  3.3358334E+01
 5.1577501E+00  3.3456341E+01
 5.1692505E+00  3.3483364E+01
 5.1807504E+00  3.3510456E+01
 5.1922503E+00  3.3576458E+01
 5.2037501E+00  3.3525940E+01
 5.2152505E+00  3.3603436E+01
 5.2267504E+00  3.3577255E+01
 5.2382503E+00  3.3683285E+01
 5.2497501E+00  3.3575443E+01
 5.2612505E+00  3.3585403E+01
 5.2727504E+00  3.3503670E+01
 5.2842503E+00  3.3597069E+01
 5.2957501E+00  3.3666256E+01
 5.3072500E+00  3.3661034E+01
 5.3187504E+00  3.3646297E+01
 5.3302503E+00  3.3477837E+01
 5.3417501E+00  3.3487511E+01
 5.3532500E+00  3.3474453E+01
 5.3647504E+00  3.3512260E+01
 5.3762503E+00  3.3623562E+01
 5.3877501E+00  3.3813721E+01
 5.3992500E+00  3.4022717E+01
 5.4107504E+00  3.4099781E+01
 5.4222503E+00  3.4134903E+01
 5.4337502E+00  3.4035103E+01
 5.4452500E+00  3.4097012E+01
 5.4567504E+00  3.4099625E+01
 5.4682503E+00  3.4157185E+01
 5.4797502E+00  3.4176579E+01
 5.4912500E+00  3.4156208E+01
 5.5027504E+00  3.4267429E+01
 5.5142503E+00  3.4376110E+01
 5.5257502E+00  3.4593334E+01
 5.5372500E+00  3.4663773E+01
 5.5487504E+00  3.4838135E+01
 5.5602503E+00  3.4831112E+01
 5.5717502E+00  3.4953999E+01
 5.5832500E+00  3.4901577E+01
 5.5947504E+00  3.5015160E+01
 5.6062503E+00  3.4986984E+01
 5.6177502E+00  3.4921417E+01
 5.6292500E+00  3.4864468E+01
 5.6407504E+00  3.4765163E+01
 5.6522503E+00  3.4847984E+01
 5.6637502E+00  3.4895943E+01
 5.6752501E+00  3.5005501E+01
 5.6867504E+00  3.5049202E+01
 5.6982503E+00  3.5152367E+01
 5.7097502E+00  3.5242928E+01
 5.7212501E+00  3.5378277E+01
 5.7327504E+00  3.5437340E+01
 5.7442503E+00  3.5572945E+01
 5.7557502E+00  3.5629639E+01
 5.7672501E+00  3.5634293E+01
 5.7787504E+00  3.5629753E+01
 5.7902503E+00  3.5665462E+01
 5.8017502E+00  3.5678352E+01
 5.8132501E+00  3.5632137E+01
 5.8247504E+00  3.5670696E+01
 5.8362503E+00  3.5736244E+01
 5.8477502E+00  3.5840492E+01
 5.8592501E+00  3.5839600E+01
 5.8707504E+00  3.5993622E+01
 5.8822503E+00  3.6258629E+01
 5.8937502E+00  3.6541344E+01
 5.9052501E+00  3.7027161E+01
 5.9167504E+00  3.7342312E+01
 5.9282503E+00  3.8790310E+01
 5.9397502E+00  3.9897182E+01
 5.9512501E+00  4.3760674E+01
 5.9627504E+00  4.5502773E+01
 5.9742503E+00  5.0763226E+01
 5.9857502E+00  5.0583607E+01
 5.9972501E+00  5.2578541E+01
 6.0087504E+00  4.8765690E+01
 6.0202503E+00  4.6957573E+01
 6.0317502E+00  4.2947021E+01
 6.0432501E+00  4.0998802E+01
 6.0547504E+00  3.8923454E+01
 6.0662503E+00  3.8119408E+01
 6.0777502E+00  3.7380756E+01
 6.0892501E+00  3.7153721E+01
 6.1007504E+00  3.6795086E+01
 6.1122503E+00  3.6705044E+01
 6.1237502E+00  3.6605316E+01
 6.1352501E+00  3.6621906E+01
 6.1467505E+00  3.6563648E+01
 6.1582503E+00  3.6589520E+01
 6.1697502E+00  3.6654705E+01
 6.1812501E+00  3.6848915E+01
 6.1927505E+00  3.7036354E+01
 6.2042503E+00  3.7141315E+01
 6.2157502E+00  3.7202271E+01
 6.2272501E+00  3.7163498E+01
 6.2387505E+00  3.7093071E+01
 6.2502503E+00  3.7080425E+01
 6.2617502E+00  3.7027073E+01
 6.2732501E+00  3.7170368E+01
 6.2847505E+00  3.7262238E+01
 6.2962503E+00  3.7291512E+01
 6.3077502E+00  3.7291370E+01
 6.3192501E+00  3.7268635E+01
 6.3307505E+00  3.7366859E+01
 6.3422503E+00  3.7446213E+01
 6.3537502E+00  3.7506523E+01
 6.3652501E+00  3.7542534E+01
 6.3767505E+00  3.7640808E+01
 6.3882504E+00  3.7801826E+01
 6.3997502E+00  3.7985744E+01
 6.4112501E+00  3.8182968E+01
 6.4227505E+00  3.8342228E+01
 6.4342504E+00  3.8310310E+01
 6.4457502E+00  3.8311222E+01
 6.4572501E+00  3.8239391E+01
 6.4687505E+00  3.8276085E+01
 6.4802504E+00  3.8301231E+01
 6.4917502E+00  3.8331852E+01
 6.5032501E+00  3.8494293E+01
 6.5147505E+00  3.8626514E+01
 6.5262504E+00  3.8817482E+01
 6.5377502E+00  3.8860405E+01
 6.5492501E+00  3.8886150E+01
 6.5607505E+00  3.8793079E+01
 6.5722504E+00  3.8854099E+01
 6.5837502E+00  3.8951981E+01
 6.5952501E+00  3.9030804E+01
 6.6067505E+00  3.9063099E+01
 6.6182504E+00  3.9103600E+01
 6.6297503E+00  3.9211750E+01
 6.6412501E+00  3.9409218E+01
 6.6527505E+00  3.9591286E+01
 6.6642504E+00  3.9816181E+01
 6.6757503E+00  3.9964626E+01
 6.6872501E+00  3.9977848E+01
 6.6987505E+00  3.9960068E+01
 6.7102504E+00  4.0013481E+01
 6.7217503E+00  4.0067364E+01
 6.7332501E+00  4.0134960E+01
 6.7447505E+00  4.0230968E+01
 6.7562504E+00  4.0364571E+01
 6.7677503E+00  4.0513393E+01
 6.7792501E+00  4.0663578E+01
 6.7907505E+00  4.0704033E+01
 6.8022504E+00  4.0814098E+01
 6.8137503E+00  4.0795204E+01
 6.8252501E+00  4.0937336E+01
 6.8367505E+00  4.0981300E+01
 6.8482504E+00  4.1125561E+01
 6.8597503E+00  4.1078571E+01
 6.8712502E+00  4.1208187E+01
 6.8827505E+00  4.1178307E+01
 6.8942504E+00  4.1368877E+01
 6.9057503E+00  4.1472874E+01
 6.9172502E+00  4.1572857E+01
 6.9287505E+00  4.1555546E+01
 6.9402504E+00  4.1631157E+01
 6.9517503E+00  4.1667572E+01
 6.9632502E+00  4.1762260E+01
 6.9747505E+00  4.1771759E+01
 6.9862504E+00  4.1803978E+01
 6.9977503E+00  4.1863255E+01
 7.0092502E+00  4.1932552E+01
 7.0207505E+00  4.2083229E+01
 7.0322504E+00  4.2200111E+01
 7.0437503E+00  4.2258987E+01
 7.0552502E+00  4.2358177E+01
 7.0667505E+00  4.2438454E+01
 7.0782504E+00  4.2448368E+01
 7.0897503E+00  4.2459118E+01
 7.1012502E+00  4.2473225E+01
 7.1127505E+00  4.2568874E+01
 7.1242504E+00  4.2598728E+01
 7.1357503E+00  4.2585106E+01
 7.1472502E+00  4.2641560E+01
 7.1587505E+00  4.2686146E+01
 7.1702504E+00  4.2855137E+01
 7.1817503E+00  4.2924976E+01
 7.1932502E+00  4.3014759E+01
 7.2047505E+00  4.2997585E+01
 7.2162504E+00  4.2963768E+01
 7.2277503E+00  4.3017414E+01
 7.2392502E+00  4.3091805E+01
 7.2507505E+00  4.3217957E+01
 7.2622504E+00  4.3352688E+01
 7.2737503E+00  4.3445465E+01
 7.2852502E+00  4.3532349E+01
 7.2967505E+00  4.3478970E+01
 7.3082504E+00  4.3449547E+01
 7.3197503E+00  4.3372395E+01
 7.3312502E+00  4.3369102E+01
 7.3427505E+00  4.3451344E+01
 7.3542504E+00  4.3464386E+01
 7.3657503E+00  4.3618183E+01
 7.3772502E+00  4.3569534E+01
 7.3887506E+00  4.3726646E+01
 7.4002504E+00  4.3741508E+01
 7.4117503E+00  4.3880203E+01
 7.4232502E+00  4.3988514E+01
 7.4347506E+00  4.4026207E+01
 7.4462504E+00  4.3972569E+01
 7.4577503E+00  4.3953125E+01
 7.4692502E+00  4.3823605E+01
 7.4807506E+00  4.3772694E+01
 7.4922504E+00  4.3650448E+01
 7.5037503E+00  4.3713863E+01
 7.5152502E+00  4.3823158E+01
 7.5267506E+00  4.3904026E+01
 7.5382504E+00  4.3950481E+01
 7.5497503E+00  4.3813778E+01
 7.5612502E+00  4.3784740E+01
 7.5727506E+00  4.3681164E+01
 7.5842505E+00  4.3726650E+01
 7.5957503E+00  4.3719078E+01
 7.6072502E+00  4.3818195E+01
 7.6187506E+00  4.3789146E+01
 7.6302505E+00  4.3775997E+01
 7.6417503E+00  4.3777214E+01
 7.6532502E+00  4.3825527E+01
 7.6647506E+00  4.3884438E+01
 7.6762505E+00  4.3970383E+01
 7.6877503E+00  4.4010254E+01
 7.6992502E+00  4.4050026E+01
 7.7107506E+00  4.3935879E+01
 7.7222505E+00  4.3913082E+01
 7.7337503E+00  4.3904057E+01
 7.7452502E+00  4.3921795E+01
 7.7567506E+00  4.3898010E+01
 7.7682505E+00  4.3889137E+01
 7.7797503E+00  4.3793983E+01
 7.7912502E+00  4.3812828E+01
 7.8027506E+00  4.3811771E+01
 7.8142505E+00  4.3834549E+01
 7.8257504E+00  4.3840038E+01
 7.8372502E+00  4.3838917E+01
 7.8487506E+00  4.3816128E+01
 7.8602505E+00  4.3859436E+01
 7.8717504E+00  4.3726196E+01
 7.8832502E+00  4.3657955E+01
 7.8947506E+00  4.3523937E+01
 7.9062505E+00  4.3537155E+01
 7.9177504E+00  4.3533749E+01
 7.9292502E+00  4.3488262E+01
 7.9407506E+00  4.3395016E+01
 7.9522505E+00  4.3316662E+01
 7.9637504E+00  4.3262428E+01
 7.9752502E+00  4.3182091E+01
 7.9867506E+00  4.3139587E+01
 7.9982505E+00  4.3128586E+01
 8.0097504E+00  4.3121922E+01
 8.0212507E+00  4.3058990E+01
 8.0327501E+00  4.2927452E+01
 8.0442505E+00  4.2802082E+01
 8.0557508E+00  4.2766972E+01
 8.0672503E+00  4.2701973E+01
 8.0787506E+00  4.2683647E+01
 8.0902500E+00  4.2602558E+01
 8.1017504E+00  4.2507710E+01
 8.1132507E+00  4.2469814E+01
 8.1247501E+00  4.2320103E+01
 8.1362505E+00  4.2231129E+01
 8.1477509E+00  4.1996651E+01
 8.1592503E+00  4.1911465E+01
 8.1707506E+00  4.1800762E+01
 8.1822500E+00  4.1745449E+01
 8.1937504E+00  4.1559135E+01
 8.2052507E+00  4.1430721E+01
 8.2167501E+00  4.1215488E+01
 8.2282505E+00  4.1098820E+01
 8.2397509E+00  4.0958004E+01
 8.2512503E+00  4.0981190E+01
 8.2627506E+00  4.0887829E+01
 8.2742500E+00  4.0852783E+01
 8.2857504E+00  4.0747246E+01
 8.2972507E+00  4.0603821E+01
 8.3087502E+00  4.0418446E+01
 8.3202505E+00  4.0232929E+01
 8.3317509E+00  4.0083168E+01
 8.3432503E+00  3.9848709E+01
 8.3547506E+00  3.9523609E+01
 8.3662500E+00  3.9364555E+01
 8.3777504E+00  3.9159809E+01
 8.3892508E+00  3.9010593E+01
 8.4007502E+00  3.8773827E+01
 8.4122505E+00  3.8652184E+01
 8.4237509E+00  3.8529709E+01
 8.4352503E+00  3.8336338E+01
 8.4467506E+00  3.8238533E+01
 8.4582500E+00  3.8119015E+01
 8.4697504E+00  3.8083744E+01
 8.4812508E+00  3.7930874E+01
 8.4927502E+00  3.7844048E+01
 8.5042505E+00  3.7651188E+01
 8.5157509E+00  3.7501110E+01
 8.5272503E+00  3.7273209E+01
 8.5387506E+00  3.7143532E+01
 8.5502501E+00  3.6933945E+01
 8.5617504E+00  3.6721153E+01
 8.5732508E+00  3.6538002E+01
 8.5847502E+00  3.6345230E+01
 8.5962505E+00  3.6174164E+01
 8.6077509E+00  3.5941250E+01
 8.6192503E+00  3.5796089E+01
 8.6307507E+00  3.5627289E+01
 8.6422501E+00  3.5529533E+01
 8.6537504E+00  3.5412098E+01
 8.6652508E+00  3.5326347E+01
 8.6767502E+00  3.5090374E+01
 8.6882505E+00  3.5000210E+01
 8.6997509E+00  3.4841579E+01
 8.7112503E+00  3.4697971E+01
 8.7227507E+00  3.4461006E+01
 8.7342501E+00  3.4185833E+01
 8.7457504E+00  3.3998856E+01
 8.7572508E+00  3.3779991E+01
 8.7687502E+00  3.3685375E+01
 8.7802505E+00  3.3579075E+01
 8.7917500E+00  3.3458729E+01
 8.8032503E+00  3.3245750E+01
 8.8147507E+00  3.3151588E+01
 8.8262501E+00  3.3024971E+01
 8.8377504E+00  3.2920113E+01
 8.8492508E+00  3.2697392E+01
 8.8607502E+00  3.2582729E+01
 8.8722506E+00  3.2476212E+01
 8.8837500E+00  3.2342968E+01
 8.8952503E+00  3.2121147E+01
 8.9067507E+00  3.1859476E+01
 8.9182501E+00  3.1572237E+01
 8.9297504E+00  3.1288919E+01
 8.9412508E+00  3.1042772E+01
 8.9527502E+00  3.0897137E+01
 8.9642506E+00  3.0754208E+01
 8.9757500E+00  3.0642242E+01
 8.9872503E+00  3.0501226E+01
 8.9987507E+00  3.0320951E+01
 9.0102501E+00  3.0157728E+01
 9.0217505E+00  2.9969870E+01
 9.0332508E+00  2.9936001E+01
 9.0447502E+00  2.9836271E+01
 9.0562506E+00  2.9756508E+01
 9.0677500E+00  2.9675009E+01
 9.0792503E+00  2.9586542E+01
 9.0907507E+00  2.9581659E+01
 9.1022501E+00  2.9454449E+01
 9.1137505E+00  2.9389688E+01
 9.1252508E+00  2.9196796E+01
 9.1367502E+00  2.9088060E+01
 9.1482506E+00  2.8974781E+01
 9.1597500E+00  2.8892492E+01
 9.1712503E+00  2.8736237E+01
 9.1827507E+00  2.8652058E+01
 9.1942501E+00  2.8497375E+01
 9.2057505E+00  2.8325800E+01
 9.2172508E+00  2.8159452E+01
 9.2287502E+00  2.8057411E+01
 9.2402506E+00  2.8032295E+01
 9.2517500E+00  2.7961899E+01
 9.2632504E+00  2.7877079E+01
 9.2747507E+00  2.7789576E+01
 9.2862501E+00  2.7649235E+01
 9.2977505E+00  2.7605190E+01
 9.3092508E+00  2.7494970E+01
 9.3207502E+00  2.7445713E+01
 9.3322506E+00  2.7359240E+01
 9.3437500E+00  2.7333134E+01
 9.3552504E+00  2.7267462E+01
 9.3667507E+00  2.7187962E+01
 9.3782501E+00  2.7071735E+01
 9.3897505E+00  2.6932590E+01
 9.4012508E+00  2.6816801E+01
 9.4127502E+00  2.6723230E+01
 9.4242506E+00  2.6666306E+01
 9.4357500E+00  2.6548267E+01
 9.4472504E+00  2.6528057E+01
 9.4587507E+00  2.6501371E+01
 9.4702501E+00  2.6527845E+01
 9.4817505E+00  2.6491367E+01
 9.4932508E+00  2.6412321E+01
 9.5047503E+00  2.6340837E+01
 9.5162506E+00  2.6225229E+01
 9.5277500E+00  2.6093130E+01
 9.5392504E+00  2.6002270E+01
 9.5507507E+00  2.5944141E+01
 9.5622501E+00  2.5930584E+01
 9.5737505E+00  2.5861561E+01
 9.5852509E+00  2.5772472E+01
 9.5967503E+00  2.5775215E+01
 9.6082506E+00  2.5672419E+01
 9.6197500E+00  2.5602997E+01
 9.6312504E+00  2.5437227E+01
 9.6427507E+00  2.5389006E+01
 9.6542501E+00  2.5355387E+01
 9.6657505E+00  2.5326813E+01
 9.6772509E+00  2.5304195E+01
 9.6887503E+00  2.5220591E+01
 9.7002506E+00  2.5211809E+01
 9.7117500E+00  2.5194048E+01
 9.7232504E+00  2.5218357E+01
 9.7347507E+00  2.5140209E+01
 9.7462502E+00  2.5132959E+01
 9.7577505E+00  2.5107016E+01
 9.7692509E+00  2.5141678E+01
 9.7807503E+00  2.5070803E+01
 9.7922506E+00  2.5018866E+01
 9.8037500E+00  2.4969702E+01
 9.8152504E+00  2.4935013E+01
 9.8267508E+00  2.4842901E+01
 9.8382502E+00  2.4798714E+01
 9.8497505E+00  2.4714472E+01
 9.8612509E+00  2.4667473E+01
 9.8727503E+00  2.4594053E+01
 9.8842506E+00  2.4560257E+01
 9.8957500E+00  2.4531553E+01
 9.9072504E+00  2.4501383E+01
 9.9187508E+00  2.4482824E+01
 9.9302502E+00  2.4416161E+01
 9.9417505E+00  2.4327332E+01
 9.9532509E+00  2.4194700E+01
 9.9647503E+00  2.4148787E+01
 9.9762506E+00  2.4114286E+01
 9.9877501E+00  2.4105951E+01
 9.9992504E+00  2.4077814E+01
 1.0010751E+01  2.4020771E+01
 1.0022250E+01  2.4045835E+01
 1.0033751E+01  2.4036501E+01
 1.0045251E+01  2.4028667E+01
 1.0056750E+01  2.4001051E+01
 1.0068251E+01  2.3981792E+01
 1.0079750E+01  2.3963898E+01
 1.0091250E+01  2.3937359E+01
 1.0102751E+01  2.3945042E+01
 1.0114250E+01  2.3932964E+01
 1.0125751E+01  2.3928724E+01
 1.0137251E+01  2.3870714E+01
 1.0148750E+01  2.3871555E+01
 1.0160251E+01  2.3838049E+01
 1.0171750E+01  2.3757507E+01
 1.0183250E+01  2.3663424E+01
 1.0194751E+01  2.3570095E+01
 1.0206250E+01  2.3551456E+01
 1.0217751E+01  2.3540697E+01
 1.0229251E+01  2.3543449E+01
 1.0240750E+01  2.3526939E+01
 1.0252251E+01  2.3503286E+01
 1.0263750E+01  2.3456116E+01
 1.0275250E+01  2.3421068E+01
 1.0286751E+01  2.3406601E+01
 1.0298250E+01  2.3410076E+01
 1.0309751E+01  2.3418980E+01
 1.0321251E+01  2.3393938E+01
 1.0332750E+01  2.3378893E+01
 1.0344251E+01  2.3382584E+01
 1.0355750E+01  2.3373390E+01
 1.0367250E+01  2.3328028E+01
 1.0378751E+01  2.3313101E+01
 1.0390250E+01  2.3332560E+01
 1.0401751E+01  2.3362629E+01
 1.0413251E+01  2.3318626E+01
 1.0424750E+01  2.3226139E+01
 1.0436251E+01  2.3113716E+01
 1.0447750E+01  2.3023775E+01
 1.0459250E+01  2.2989702E+01
 1.0470751E+01  2.2977268E+01
 1.0482250E+01  2.2992678E+01
 1.0493751E+01  2.2976040E+01
 1.0505251E+01  2.2984329E+01
 1.0516750E+01  2.2998032E+01
 1.0528251E+01  2.2924690E+01
 1.0539750E+01  2.2884525E+01
 1.0551250E+01  2.2889025E+01
 1.0562751E+01  2.2957794E+01
 1.0574250E+01  2.2966398E+01
 1.0585751E+01  2.2912525E+01
 1.0597251E+01  2.2886904E+01
 1.0608750E+01  2.2881233E+01
 1.0620251E+01  2.2857473E+01
 1.0631750E+01  2.2856056E+01
 1.0643250E+01  2.2898144E+01
 1.0654751E+01  2.2895473E+01
 1.0666250E+01  2.2864494E+01
 1.0677751E+01  2.2805534E+01
 1.0689251E+01  2.2797243E+01
 1.0700750E+01  2.2867241E+01
 1.0712251E+01  2.2891396E+01
 1.0723750E+01  2.2908796E+01
 1.0735250E+01  2.2843819E+01
 1.0746751E+01  2.2781578E+01
 1.0758250E+01  2.2712797E+01
 1.0769751E+01  2.2708656E+01
 1.0781251E+01  2.2687195E+01
 1.0792750E+01  2.2649431E+01
 1.0804251E+01  2.2568678E+01
 1.0815750E+01  2.2524162E+01
 1.0827250E+01  2.2515842E+01
 1.0838751E+01  2.2533850E+01
 1.0850250E+01  2.2594723E+01
 1.0861751E+01  2.2624449E+01
 1.0873251E+01  2.2643227E+01
 1.0884750E+01  2.2614708E+01
 1.0896251E+01  2.2571053E+01
 1.0907750E+01  2.2569925E+01
 1.0919250E+01  2.2526148E+01
 1.0930751E+01  2.2497646E+01
 1.0942250E+01  2.2463451E+01
 1.0953751E+01  2.2413723E+01
 1.0965251E+01  2.2386787E+01
 1.0976750E+01  2.2342051E+01
 1.0988251E+01  2.2322483E+01
 1.0999750E+01  2.2342106E+01
 1.1011250E+01  2.2345953E+01
 1.1022751E+01  2.2375429E+01
 1.1034250E+01  2.2374607E+01
 1.1045751E+01  2.2366318E+01
 1.1057251E+01  2.2325821E+01
 1.1068750E+01  2.2362446E+01
 1.1080251E+01  2.2327700E+01
 1.1091750E+01  2.2372908E+01
 1.1103251E+01  2.2351694E+01
 1.1114751E+01  2.2402735E+01
 1.1126250E+01  2.2403605E+01
 1.1137751E+01  2.2403624E+01
 1.1149251E+01  2.2408499E+01
 1.1160750E+01  2.2411869E+01
 1.1172251E+01  2.2373787E+01
 1.1183750E+01  2.2337547E+01
 1.1195251E+01  2.2310461E+01
 1.1206751E+01  2.2316694E+01
 1.1218250E+01  2.2310747E+01
 1.1229751E+01  2.2288250E+01
 1.1241251E+01  2.2252075E+01
 1.1252750E+01  2.2257267E+01
 1.1264251E+01  2.2267231E+01
 1.1275750E+01  2.2329901E+01
 1.1287251E+01  2.2282719E+01
 1.1298751E+01  2.2311571E+01
 1.1310250E+01  2.2320406E+01
 1.1321751E+01  2.2374815E+01
 1.1333251E+01  2.2372332E+01
 1.1344750E+01  2.2358183E+01
 1.1356251E+01  2.2343246E+01
 1.1367750E+01  2.2351519E+01
 1.1379251E+01  2.2329618E+01
 1.1390751E+01  2.2389528E+01
 1.1402250E+01  2.2487028E+01
 1.1413751E+01  2.2499823E+01
 1.1425251E+01  2.2502676E+01
 1.1436750E+01  2.2439100E+01
 1.1448251E+01  2.2453554E+01
 1.1459750E+01  2.2469332E+01
 1.1471251E+01  2.2494015E+01
 1.1482751E+01  2.2543911E+01
 1.1494250E+01  2.2598673E+01
 1.1505751E+01  2.2654825E+01
 1.1517251E+01  2.2769260E+01
 1.1528750E+01  2.2941881E+01
 1.1540251E+01  2.3171232E+01
 1.1551750E+01  2.3534994E+01
 1.1563251E+01  2.4026424E+01
 1.1574751E+01  2.4415247E+01
 1.1586250E+01  2.4775364E+01
 1.1597751E+01  2.4753202E+01
 1.1609251E+01  2.4677265E+01
 1.1620750E+01  2.4318890E+01
 1.1632251E+01  2.3977734E+01
 1.1643750E+01  2.3588303E+01
 1.1655251E+01  2.3269398E+01
 1.1666751E+01  2.2924532E+01
 1.1678250E+01  2.2749783E+01
 1.1689751E+01  2.2532583E+01
 1.1701251E+01  2.2474342E+01
 1.1712750E+01  2.2348967E+01
 1.1724251E+01  2.2291023E+01
 1.1735750E+01  2.2234312E+01
 1.1747251E+01  2.2216763E+01
 1.1758751E+01  2.2229904E+01
 1.1770250E+01  2.2166296E+01
 1.1781751E+01  2.2194128E+01
 1.1793251E+01  2.2214695E+01
 1.1804750E+01  2.2290272E+01
 1.1816251E+01  2.2324877E+01
 1.1827750E+01  2.2354174E+01
 1.1839251E+01  2.2376127E+01
 1.1850751E+01  2.2293404E+01
 1.1862250E+01  2.2289080E+01
 1.1873751E+01  2.2273508E+01
 1.1885251E+01  2.2324387E+01
 1.1896750E+01  2.2304592E+01
 1.1908251E+01  2.2378162E+01
 1.1919750E+01  2.2411528E+01
 1.1931251E+01  2.2462372E+01
 1.1942751E+01  2.2477777E+01
 1.1954250E+01  2.2560387E+01
 1.1965751E+01  2.2683813E+01
 1.1977251E+01  2.2780519E+01
 1.1988750E+01  2.2869431E+01
 1.2000251E+01  2.2863218E+01
 1.2011750E+01  2.2897926E+01
 1.2023251E+01  2.2938805E+01
 1.2034751E+01  2.3000336E+01
 1.2046250E+01  2.3087833E+01
 1.2057751E+01  2.3292242E+01
 1.2069251E+01  2.3545774E+01
 1.2080750E+01  2.3863018E+01
 1.2092251E+01  2.4111317E+01
 1.2103750E+01  2.4304089E+01
 1.2115251E+01  2.4257996E+01
 1.2126751E+01  2.4063990E+01
 1.2138250E+01  2.3783907E+01
 1.2149751E+01  2.3413382E+01
 1.2161251E+01  2.3113951E+01
 1.2172750E+01  2.2836958E+01
 1.2184251E+01  2.2713394E+01
 1.2195750E+01  2.2564892E+01
 1.2207251E+01  2.2490803E+01
 1.2218751E+01  2.2427116E+01
 1.2230250E+01  2.2409777E+01
 1.2241751E+01  2.2411276E+01
 1.2253251E+01  2.2393614E+01
 1.2264750E+01  2.2396019E+01
 1.2276251E+01  2.2379478E+01
 1.2287750E+01  2.2447350E+01
 1.2299251E+01  2.2468636E+01
 1.2310751E+01  2.2520174E+01
 1.2322250E+01  2.2472797E+01
 1.2333751E+01  2.2481689E+01
 1.2345250E+01  2.2458422E+01
 1.2356750E+01  2.2518501E+01
 1.2368251E+01  2.2520918E+01
 1.2379750E+01  2.2535170E+01
 1.2391251E+01  2.2487335E+01
 1.2402751E+01  2.2451477E+01
 1.2414250E+01  2.2423672E+01
 1.2425751E+01  2.2466921E+01
 1.2437250E+01  2.2487900E+01
 1.2448750E+01  2.2575230E+01
 1.2460251E+01  2.2641294E+01
 1.2471750E+01  2.2728018E+01
 1.2483251E+01  2.2726021E+01
 1.2494751E+01  2.2648539E+01
 1.2506250E+01  2.2514780E+01
 1.2517751E+01  2.2413425E+01
 1.2529250E+01  2.2389204E+01
 1.2540751E+01  2.2419073E+01
 1.2552251E+01  2.2444744E+01
 1.2563750E+01  2.2454134E+01
 1.2575251E+01  2.2469212E+01
 1.2586751E+01  2.2468628E+01
 1.2598250E+01  2.2495632E+01
 1.2609751E+01  2.2603577E+01
 1.2621250E+01  2.2645304E+01
 1.2632751E+01  2.2677662E+01
 1.2644251E+01  2.2637117E+01
 1.2655750E+01  2.2665857E+01
 1.2667251E+01  2.2664400E+01
 1.2678751E+01  2.2691019E+01
 1.2690250E+01  2.2717491E+01
 1.2701751E+01  2.2757511E+01
 1.2713250E+01  2.2803251E+01
 1.2724751E+01  2.2837669E+01
 1.2736251E+01  2.2835169E+01
 1.2747750E+01  2.2782333E+01
 1.2759251E+01  2.2762945E+01
 1.2770751E+01  2.2737623E+01
 1.2782250E+01  2.2775869E+01
 1.2793751E+01  2.2776104E+01
 1.2805250E+01  2.2845814E+01
 1.2816751E+01  2.2923754E+01
 1.2828251E+01  2.2996405E+01
 1.2839750E+01  2.3028191E+01
 1.2851251E+01  2.3049688E+01
 1.2862751E+01  2.3071138E+01
 1.2874250E+01  2.3163713E+01
 1.2885751E+01  2.3261303E+01
 1.2897250E+01  2.3363228E+01
 1.2908751E+01  2.3437143E+01
 1.2920251E+01  2.3428314E+01
 1.2931750E+01  2.3503105E+01
 1.2943251E+01  2.3549070E+01
 1.2954751E+01  2.3638811E+01
 1.2966250E+01  2.3630690E+01
 1.2977751E+01  2.3662989E+01
 1.2989250E+01  2.3640192E+01
 1.3000751E+01  2.3721470E+01
 1.3012251E+01  2.3785500E+01
 1.3023750E+01  2.3900501E+01
 1.3035251E+01  2.3997932E+01
 1.3046751E+01  2.4056095E+01
 1.3058250E+01  2.4174585E+01
 1.3069751E+01  2.4204847E+01
 1.3081250E+01  2.4287848E+01
 1.3092751E+01  2.4384285E+01
 1.3104251E+01  2.4588083E+01
 1.3115750E+01  2.4797390E+01
 1.3127251E+01  2.4948006E+01
 1.3138751E+01  2.5040346E+01
 1.3150250E+01  2.5084616E+01
 1.3161751E+01  2.5093523E+01
 1.3173250E+01  2.5140730E+01
 1.3184751E+01  2.5223055E+01
 1.3196251E+01  2.5400669E+01
 1.3207750E+01  2.5560734E+01
 1.3219251E+01  2.5758902E+01
 1.3230751E+01  2.5889051E+01
 1.3242250E+01  2.6074028E+01
 1.3253751E+01  2.6159756E+01
 1.3265250E+01  2.6300159E+01
 1.3276751E+01  2.6455475E+01
 1.3288251E+01  2.6675362E+01
 1.3299750E+01  2.6830042E+01
 1.3311251E+01  2.6921093E+01
 1.3322751E+01  2.7031919E+01
 1.3334250E+01  2.7236551E+01
 1.3345751E+01  2.7409052E+01
 1.3357250E+01  2.7582651E+01
 1.3368751E+01  2.7671469E+01
 1.3380251E+01  2.7784555E+01
 1.3391750E+01  2.7906464E+01
 1.3403251E+01  2.8039478E+01
 1.3414751E+01  2.8212145E+01
 1.3426250E+01  2.8331326E+01
 1.3437751E+01  2.8498871E+01
 1.3449250E+01  2.8574192E+01
 1.3460751E+01  2.8675451E+01
 1.3472251E+01  2.8732920E+01
 1.3483750E+01  2.8887571E+01
 1.3495251E+01  2.8987442E+01
 1.3506751E+01  2.9099648E+01
 1.3518250E+01  2.9188137E+01
 1.3529751E+01  2.9242271E+01
 1.3541250E+01  2.9309710E+01
 1.3552751E+01  2.9307455E+01
 1.3564251E+01  2.9420774E+01
 1.3575750E+01  2.9448463E+01
 1.3587251E+01  2.9506186E+01
 1.3598751E+01  2.9506290E+01
 1.3610250E+01  2.9520603E+01
 1.3621751E+01  2.9519575E+01
 1.3633250E+01  2.9545816E+01
 1.3644751E+01  2.9524765E+01
 1.3656251E+01  2.9488428E+01
 1.3667750E+01  2.9461851E+01
 1.3679251E+01  2.9465984E+01
 1.3690751E+01  2.9480215E+01
 1.3702250E+01  2.9414148E+01
 1.3713751E+01  2.9397522E+01
 1.3725250E+01  2.9383804E+01
 1.3736751E+01  2.9353811E+01
 1.3748251E+01  2.9340239E+01
 1.3759750E+01  2.9287998E+01
 1.3771251E+01  2.9303379E+01
 1.3782751E+01  2.9287455E+01
 1.3794250E+01  2.9349249E+01
 1.3805751E+01  2.9364611E+01
 1.3817250E+01  2.9432764E+01
 1.3828751E+01  2.9502998E+01
 1.3840251E+01  2.9644192E+01
 1.3851750E+01  2.9876596E+01
 1.3863251E+01  3.0254055E+01
 1.3874751E+01  3.0951069E+01
 1.3886250E+01  3.1983309E+01
 1.3897751E+01  3.3926628E+01
 1.3909250E+01  3.5915001E+01
 1.3920751E+01  3.9475838E+01
 1.3932251E+01  4.1534428E+01
 1.3943750E+01  4.5252457E+01
 1.3955251E+01  4.5996780E+01
 1.3966751E+01  4.6916172E+01
 1.3978251E+01  4.4465382E+01
 1.3989751E+01  4.1612621E+01
 1.4001250E+01  3.8123360E+01
 1.4012751E+01  3.4547131E+01
 1.4024251E+01  3.1959873E+01
 1.4035750E+01  3.0255842E+01
 1.4047251E+01  2.9185173E+01
 1.4058751E+01  2.8614038E+01
 1.4070251E+01  2.8371904E+01
 1.4081751E+01  2.8110546E+01
 1.4093250E+01  2.8046478E+01
 1.4104751E+01  2.7842731E+01
 1.4116251E+01  2.7726717E+01
 1.4127750E+01  2.7547338E+01
 1.4139251E+01  2.7396780E+01
 1.4150751E+01  2.7238113E+01
 1.4162251E+01  2.7083647E+01
 1.4173751E+01  2.6959646E+01
 1.4185250E+01  2.6823833E+01
 1.4196751E+01  2.6752460E+01
 1.4208251E+01  2.6677340E+01
 1.4219750E+01  2.6633776E+01
 1.4231251E+01  2.6547199E+01
 1.4242751E+01  2.6486155E+01
 1.4254251E+01  2.6409555E+01
 1.4265751E+01  2.6363026E+01
 1.4277250E+01  2.6267963E+01
 1.4288751E+01  2.6223146E+01
 1.4300251E+01  2.6140137E+01
 1.4311750E+01  2.6051830E+01
 1.4323251E+01  2.5966249E+01
 1.4334751E+01  2.5902325E+01
 1.4346251E+01  2.5899725E+01
 1.4357751E+01  2.5884714E+01
 1.4369250E+01  2.5930048E+01
 1.4380751E+01  2.5954239E+01
 1.4392251E+01  2.5998682E+01
 1.4403750E+01  2.5972794E+01
 1.4415251E+01  2.5953487E+01
 1.4426751E+01  2.5871759E+01
 1.4438251E+01  2.5802824E+01
 1.4449751E+01  2.5728989E+01
 1.4461250E+01  2.5655235E+01
 1.4472751E+01  2.5604548E+01
 1.4484251E+01  2.5553057E+01
 1.4495750E+01  2.5539770E+01
 1.4507251E+01  2.5473747E+01
 1.4518751E+01  2.5450111E+01
 1.4530251E+01  2.5454947E+01
 1.4541751E+01  2.5485847E+01
 1.4553250E+01  2.5520350E+01
 1.4564751E+01  2.5490519E+01
 1.4576251E+01  2.5434570E+01
 1.4587750E+01  2.5373672E+01
 1.4599251E+01  2.5306112E+01
 1.4610751E+01  2.5254787E+01
 1.4622251E+01  2.5255026E+01
 1.4633751E+01  2.5281012E+01
 1.4645250E+01  2.5293545E+01
 1.4656751E+01  2.5202982E+01
 1.4668251E+01  2.5097355E+01
 1.4679750E+01  2.5070230E+01
 1.4691251E+01  2.5099936E+01
 1.4702751E+01  2.5154850E+01
 1.4714251E+01  2.5114388E+01
 1.4725751E+01  2.5191967E+01
 1.4737250E+01  2.5265558E+01
 1.4748751E+01  2.5254238E+01
 1.4760251E+01  2.5112282E+01
 1.4771750E+01  2.4998899E+01
 1.4783251E+01  2.4967636E+01
 1.4794751E+01  2.4950630E+01
 1.4806251E+01  2.4907679E+01
 1.4817751E+01  2.4887396E+01
 1.4829250E+01  2.4828718E+01
 1.4840751E+01  2.4811005E+01
 1.4852251E+01  2.4766100E+01
 1.4863750E+01  2.4758934E+01
 1.4875251E+01  2.4794558E+01
 1.4886751E+01  2.4825788E+01
 1.4898251E+01  2.4873722E+01
 1.4909751E+01  2.4837646E+01
 1.4921250E+01  2.4802927E+01
 1.4932751E+01  2.4738321E+01
 1.4944251E+01  2.4680054E+01
 1.4955750E+01  2.4640924E+01
 1.4967251E+01  2.4587755E+01
 1.4978751E+01  2.4587963E+01
 1.4990251E+01  2.4552740E+01
 1.5001751E+01  2.4561781E+01
 1.5013250E+01  2.4609734E+01
 1.5024751E+01  2.4668072E+01
 1.5036251E+01  2.4683764E+01
 1.5047750E+01  2.4675762E+01
 1.5059251E+01  2.4676168E+01
 1.5070751E+01  2.4656950E+01
 1.5082251E+01  2.4637436E+01
 1.5093751E+01  2.4664232E+01
 1.5105250E+01  2.4807573E+01
 1.5116751E+01  2.4966530E+01
 1.5128251E+01  2.5070742E+01
 1.5139750E+01  2.5312359E+01
 1.5151251E+01  2.5643789E+01
 1.5162751E+01  2.5991077E+01
 1.5174251E+01  2.6718168E+01
 1.5185751E+01  2.7176069E+01
 1.5197250E+01  2.7471090E+01
 1.5208751E+01  2.7375832E+01
 1.5220251E+01  2.7103241E+01
 1.5231750E+01  2.6735350E+01
 1.5243251E+01  2.6107227E+01
 1.5254751E+01  2.5712543E+01
 1.5266251E+01  2.5269041E+01
 1.5277751E+01  2.4992971E+01
 1.5289250E+01  2.4855778E+01
 1.5300751E+01  2.4743387E+01
 1.5312251E+01  2.4682150E+01
 1.5323750E+01  2.4611897E+01
 1.5335251E+01  2.4591211E+01
 1.5346751E+01  2.4525770E+01
 1.5358251E+01  2.4500132E+01
 1.5369751E+01  2.4484608E+01
 1.5381250E+01  2.4471472E+01
 1.5392751E+01  2.4487469E+01
 1.5404251E+01  2.4528763E+01
 1.5415751E+01  2.4519541E+01
 1.5427251E+01  2.4460560E+01
 1.5438751E+01  2.4410721E+01
 1.5450251E+01  2.4416264E+01
 1.5461751E+01  2.4395767E+01
 1.5473250E+01  2.4324562E+01
 1.5484751E+01  2.4308430E+01
 1.5496251E+01  2.4266729E+01
 1.5507751E+01  2.4237844E+01
 1.5519251E+01  2.4182062E+01
 1.5530751E+01  2.4177044E+01
 1.5542251E+01  2.4181070E+01
 1.5553751E+01  2.4159061E+01
 1.5565250E+01  2.4159735E+01
 1.5576751E+01  2.4234669E+01
 1.5588251E+01  2.4334827E+01
 1.5599751E+01  2.4405722E+01
 1.5611251E+01  2.4383644E+01
 1.5622751E+01  2.4377411E+01
 1.5634251E+01  2.4367830E+01
 1.5645751E+01  2.4364700E+01
 1.5657250E+01  2.4357105E+01
 1.5668751E+01  2.4380472E+01
 1.5680251E+01  2.4404018E+01
 1.5691751E+01  2.4427752E+01
 1.5703251E+01  2.4421162E+01
 1.5714751E+01  2.4410591E+01
 1.5726251E+01  2.4454960E+01
 1.5737751E+01  2.4462324E+01
 1.5749250E+01  2.4479361E+01
 1.5760751E+01  2.4453438E+01
 1.5772251E+01  2.4455467E+01
 1.5783751E+01  2.4459597E+01
 1.5795251E+01  2.4428471E+01
 1.5806751E+01  2.4451616E+01
 1.5818251E+01  2.4410507E+01
 1.5829751E+01  2.4375879E+01
 1.5841250E+01  2.4353853E+01
 1.5852751E+01  2.4376884E+01
 1.5864251E+01  2.4402351E+01
 1.5875751E+01  2.4430912E+01
 1.5887251E+01  2.4420591E+01
 1.5898750E+01  2.4402233E+01
 1.5910251E+01  2.4390499E+01
 1.5921751E+01  2.4380693E+01
 1.5933250E+01  2.4372490E+01
 1.5944751E+01  2.4293941E+01
 1.5956251E+01  2.4292519E+01
 1.5967751E+01  2.4324677E+01
 1.5979251E+01  2.4344137E+01
 1.5990750E+01  2.4348549E+01
 1.6002251E+01  2.4324587E+01
 1.6013750E+01  2.4382463E+01
 1.6025251E+01  2.4450575E+01
 1.6036751E+01  2.4491440E+01
 1.6048250E+01  2.4524326E+01
 1.6059752E+01  2.4555656E+01
 1.6071251E+01  2.4554205E+01
 1.6082750E+01  2.4601654E+01
 1.6094252E+01  2.4592270E+01
 1.6105751E+01  2.4679716E+01
 1.6117250E+01  2.4688141E+01
 1.6128750E+01  2.4711184E+01
 1.6140251E+01  2.4736036E+01
 1.6151751E+01  2.4728226E+01
 1.6163250E+01  2.4763138E+01
 1.6174751E+01  2.4680731E+01
 1.6186251E+01  2.4804411E+01
 1.6197750E+01  2.4761143E+01
 1.6209251E+01  2.5041975E+01
 1.6220751E+01  2.5022568E+01
 1.6232250E+01  2.5345621E+01
 1.6243752E+01  2.5410847E+01
 1.6255251E+01  2.5618820E+01
 1.6266750E+01  2.5772833E+01
 1.6278252E+01  2.5643848E+01
 1.6289751E+01  2.5688650E+01
 1.6301250E+01  2.5175068E+01
 1.6312750E+01  2.5158140E+01
 1.6324251E+01  2.4774279E+01
 1.6335751E+01  2.4843163E+01
 1.6347250E+01  2.4660612E+01
 1.6358751E+01  2.4668283E+01
 1.6370251E+01  2.4552717E+01
 1.6381750E+01  2.4542196E+01
 1.6393251E+01  2.4499884E+01
 1.6404751E+01  2.4455275E+01
 1.6416250E+01  2.4437216E+01
 1.6427752E+01  2.4441889E+01
 1.6439251E+01  2.4496401E+01
 1.6450750E+01  2.4549145E+01
 1.6462252E+01  2.4570469E+01
 1.6473751E+01  2.4597450E+01
 1.6485250E+01  2.4597099E+01
 1.6496750E+01  2.4590773E+01
 1.6508251E+01  2.4531034E+01
 1.6519751E+01  2.4461897E+01
 1.6531250E+01  2.4373993E+01
 1.6542751E+01  2.4357933E+01
 1.6554251E+01  2.4324047E+01
 1.6565750E+01  2.4332815E+01
 1.6577251E+01  2.4316219E+01
 1.6588751E+01  2.4336910E+01
 1.6600250E+01  2.4340427E+01
 1.6611752E+01  2.4422295E+01
 1.6623251E+01  2.4423119E+01
 1.6634750E+01  2.4602453E+01
 1.6646252E+01  2.4710541E+01
 1.6657751E+01  2.4778141E+01
 1.6669250E+01  2.4707085E+01
 1.6680750E+01  2.4557810E+01
 1.6692251E+01  2.4509632E+01
 1.6703751E+01  2.4412281E+01
 1.6715250E+01  2.4389677E+01
 1.6726751E+01  2.4360064E+01
 1.6738251E+01  2.4390003E+01
 1.6749750E+01  2.4422659E+01
 1.6761251E+01  2.4402857E+01
 1.6772751E+01  2.4397509E+01
 1.6784250E+01  2.4375006E+01
 1.6795752E+01  2.4395782E+01
 1.6807251E+01  2.4411879E+01
 1.6818750E+01  2.4356199E+01
 1.6830252E+01  2.4266039E+01
 1.6841751E+01  2.4191187E+01
 1.6853251E+01  2.4173605E+01
 1.6864750E+01  2.4168484E+01
 1.6876251E+01  2.4185852E+01
 1.6887751E+01  2.4199205E+01
 1.6899250E+01  2.4228989E+01
 1.6910751E+01  2.4209463E+01
 1.6922251E+01  2.4181753E+01
 1.6933750E+01  2.4163813E+01
 1.6945251E+01  2.4137440E+01
 1.6956751E+01  2.4155880E+01
 1.6968250E+01  2.4139322E+01
 1.6979752E+01  2.4164820E+01
 1.6991251E+01  2.4140053E+01
 1.7002750E+01  2.4119156E+01
 1.7014252E+01  2.4095612E+01
 1.7025751E+01  2.4043922E+01
 1.7037251E+01  2.3987808E+01
 1.7048750E+01  2.3929062E+01
 1.7060251E+01  2.3944508E+01
 1.7071751E+01  2.3959061E+01
 1.7083250E+01  2.4039448E+01
 1.7094751E+01  2.4089764E+01
 1.7106251E+01  2.4116095E+01
 1.7117750E+01  2.4114952E+01
 1.7129251E+01  2.4135231E+01
 1.7140751E+01  2.4186754E+01
 1.7152250E+01  2.4177616E+01
 1.7163752E+01  2.4135046E+01
 1.7175251E+01  2.4092529E+01
 1.7186750E+01  2.4057835E+01
 1.7198252E+01  2.3998260E+01
 1.7209751E+01  2.3973551E+01
 1.7221251E+01  2.3944517E+01
 1.7232750E+01  2.3970602E+01
 1.7244251E+01  2.3961676E+01
 1.7255751E+01  2.3972094E+01
 1.7267250E+01  2.3964928E+01
 1.7278751E+01  2.3947140E+01
 1.7290251E+01  2.3919453E+01
 1.7301750E+01  2.3948158E+01
 1.7313251E+01  2.3913750E+01
 1.7324751E+01  2.3910568E+01
 1.7336250E+01  2.3878254E+01
 1.7347752E+01  2.3860340E+01
 1.7359251E+01  2.3841871E+01
 1.7370750E+01  2.3823696E+01
 1.7382252E+01  2.3794855E+01
 1.7393751E+01  2.3754118E+01
 1.7405251E+01  2.3715969E+01
 1.7416750E+01  2.3683409E+01
 1.7428251E+01  2.3684940E+01
 1.7439751E+01  2.3683729E+01
 1.7451250E+01  2.3732004E+01
 1.7462751E+01  2.3747658E+01
 1.7474251E+01  2.3786381E+01
 1.7485750E+01  2.3804340E+01
 1.7497252E+01  2.3764568E+01
 1.7508751E+01  2.3733698E+01
 1.7520250E+01  2.3701643E+01
 1.7531752E+01  2.3695011E+01
 1.7543251E+01  2.3718561E+01
 1.7554750E+01  2.3662275E+01
 1.7566252E+01  2.3633020E+01
 1.7577751E+01  2.3650087E+01
 1.7589251E+01  2.3675701E+01
 1.7600750E+01  2.3696102E+01
 1.7612251E+01  2.3667795E+01
 1.7623751E+01  2.3729937E+01
 1.7635250E+01  2.3732876E+01
 1.7646751E+01  2.3694681E+01
 1.7658251E+01  2.3693937E+01
 1.7669750E+01  2.3698706E+01
 1.7681252E+01  2.3736034E+01
 1.7692751E+01  2.3733471E+01
 1.7704250E+01  2.3723421E+01
 1.7715752E+01  2.3718138E+01
 1.7727251E+01  2.3666504E+01
 1.7738750E+01  2.3637918E+01
 1.7750252E+01  2.3620008E+01
 1.7761751E+01  2.3595598E+01
 1.7773251E+01  2.3584475E+01
 1.7784750E+01  2.3596775E+01
 1.7796251E+01  2.3656540E+01
 1.7807751E+01  2.3651621E+01
 1.7819250E+01  2.3621323E+01
 1.7830751E+01  2.3588182E+01
 1.7842251E+01  2.3606030E+01
 1.7853750E+01  2.3619101E+01
 1.7865252E+01  2.3650120E+01
 1.7876751E+01  2.3653200E+01
 1.7888250E+01  2.3629702E+01
 1.7899752E+01  2.3627167E+01
 1.7911251E+01  2.3686079E+01
 1.7922750E+01  2.3705044E+01
 1.7934252E+01  2.3662756E+01
 1.7945751E+01  2.3642757E+01
 1.7957251E+01  2.3633072E+01
 1.7968750E+01  2.3647701E+01
 1.7980251E+01  2.3691254E+01
 1.7991751E+01  2.3770655E+01
 1.8003250E+01  2.3903919E+01
 1.8014751E+01  2.3935354E+01
 1.8026251E+01  2.3986607E+01
 1.8037750E+01  2.4002548E+01
 1.8049252E+01  2.4050041E+01
 1.8060751E+01  2.4104271E+01
 1.8072250E+01  2.4089182E+01
 1.8083752E+01  2.4238020E+01
 1.8095251E+01  2.4374187E+01
 1.8106750E+01  2.4473890E+01
 1.8118252E+01  2.4403522E+01
 1.8129751E+01  2.4303669E+01
 1.8141251E+01  2.4178297E+01
 1.8152750E+01  2.4037556E+01
 1.8164251E+01  2.3915424E+01
 1.8175751E+01  2.3844585E+01
 1.8187250E+01  2.3723602E+01
 1.8198751E+01  2.3664705E+01
 1.8210251E+01  2.3590466E+01
 1.8221750E+01  2.3546143E+01
 1.8233252E+01  2.3468908E+01
 1.8244751E+01  2.3423548E+01
 1.8256250E+01  2.3392893E+01
 1.8267752E+01  2.3354343E+01
 1.8279251E+01  2.3353210E+01
 1.8290751E+01  2.3354715E+01
 1.8302252E+01  2.3388624E+01
 1.8313751E+01  2.3378952E+01
 1.8325251E+01  2.3386040E+01
 1.8336750E+01  2.3376802E+01
 1.8348251E+01  2.3394844E+01
 1.8359751E+01  2.3406544E+01
 1.8371250E+01  2.3418798E+01
 1.8382751E+01  2.3437239E+01
 1.8394251E+01  2.3471886E+01
 1.8405750E+01  2.3463394E+01
 1.8417252E+01  2.3436020E+01
 1.8428751E+01  2.3376619E+01
 1.8440250E+01  2.3374140E+01
 1.8451752E+01  2.3330698E+01
 1.8463251E+01  2.3332289E+01
 1.8474751E+01  2.3354174E+01
 1.8486252E+01  2.3339455E+01
 1.8497751E+01  2.3314974E+01
 1.8509251E+01  2.3293919E+01
 1.8520750E+01  2.3320425E+01
 1.8532251E+01  2.3341965E+01
 1.8543751E+01  2.3339691E+01
 1.8555250E+01  2.3333622E+01
 1.8566751E+01  2.3314894E+01
 1.8578251E+01  2.3336796E+01
 1.8589750E+01  2.3348368E+01
 1.8601252E+01  2.3379635E+01
 1.8612751E+01  2.3350027E+01
 1.8624250E+01  2.3374456E+01
 1.8635752E+01  2.3388498E+01
 1.8647251E+01  2.3403120E+01
 1.8658751E+01  2.3391283E+01
 1.8670252E+01  2.3369915E+01
 1.8681751E+01  2.3369442E+01
 1.8693251E+01  2.3331511E+01
 1.8704750E+01  2.3325680E+01
 1.8716251E+01  2.3318537E+01
 1.8727751E+01  2.3351856E+01
 1.8739250E+01  2.3349188E+01
 1.8750751E+01  2.3358578E+01
 1.8762251E+01  2.3314970E+01
 1.8773750E+01  2.3322941E+01
 1.8785252E+01  2.3246023E+01
 1.8796751E+01  2.3255278E+01
 1.8808250E+01  2.3235819E+01
 1.8819752E+01  2.3293003E+01
 1.8831251E+01  2.3286394E+01
 1.8842751E+01  2.3303087E+01
 1.8854252E+01  2.3275320E+01
 1.8865751E+01  2.3255711E+01
 1.8877251E+01  2.3207067E+01
 1.8888750E+01  2.3215469E+01
 1.8900251E+01  2.3225025E+01
 1.8911751E+01  2.3273838E+01
 1.8923250E+01  2.3336769E+01
 1.8934752E+01  2.3404528E+01
 1.8946251E+01  2.3457808E+01
 1.8957750E+01  2.3441353E+01
 1.8969252E+01  2.3392490E+01
 1.8980751E+01  2.3395746E+01
 1.8992250E+01  2.3383928E+01
 1.9003752E+01  2.3414106E+01
 1.9015251E+01  2.3403122E+01
 1.9026751E+01  2.3408552E+01
 1.9038252E+01  2.3433832E+01
 1.9049751E+01  2.3411997E+01
 1.9061251E+01  2.3428404E+01
 1.9072750E+01  2.3394348E+01
 1.9084251E+01  2.3414700E+01
 1.9095751E+01  2.3399506E+01
 1.9107250E+01  2.3383375E+01
 1.9118752E+01  2.3361256E+01
 1.9130251E+01  2.3355135E+01
 1.9141750E+01  2.3380770E+01
 1.9153252E+01  2.3374023E+01
 1.9164751E+01  2.3333712E+01
 1.9176250E+01  2.3267626E+01
 1.9187752E+01  2.3234758E+01
 1.9199251E+01  2.3240013E+01
 1.9210751E+01  2.3307678E+01
 1.9222252E+01  2.3333267E+01
 1.9233751E+01  2.3358803E+01
 1.9245251E+01  2.3359724E+01
 1.9256750E+01  2.3384903E+01
 1.9268251E+01  2.3379110E+01
 1.9279751E+01  2.3341333E+01
 1.9291250E+01  2.3338531E+01
 1.9302752E+01  2.3374214E+01
 1.9314251E+01  2.3428753E+01
 1.9325750E+01  2.3450451E+01
 1.9337252E+01  2.3463140E+01
 1.9348751E+01  2.3393585E+01
 1.9360250E+01  2.3311676E+01
 1.9371752E+01  2.3291162E+01
 1.9383251E+01  2.3340012E+01
 1.9394751E+01  2.3428822E+01
 1.9406250E+01  2.3410892E+01
 1.9417751E+01  2.3463669E+01
 1.9429251E+01  2.3472620E+01
 1.9440750E+01  2.3493484E+01
 1.9452251E+01  2.3492474E+01
 1.9463751E+01  2.3524370E+01
 1.9475250E+01  2.3576265E+01
 1.9486752E+01  2.3589861E+01
 1.9498251E+01  2.3596256E+01
 1.9509750E+01  2.3586504E+01
 1.9521252E+01  2.3581701E+01
 1.9532751E+01  2.3606449E+01
 1.9544250E+01  2.3638266E+01
 1.9555752E+01  2.3700701E+01
 1.9567251E+01  2.3702742E+01
 1.9578751E+01  2.3746189E+01
 1.9590250E+01  2.3731112E+01
 1.9601751E+01  2.3801176E+01
 1.9613251E+01  2.3894598E+01
 1.9624750E+01  2.4019957E+01
 1.9636251E+01  2.4172693E+01
 1.9647751E+01  2.4410339E+01
 1.9659250E+01  2.4837679E+01
 1.9670752E+01  2.5436840E+01
 1.9682251E+01  2.6377213E+01
 1.9693750E+01  2.7094524E+01
 1.9705252E+01  2.7776485E+01
 1.9716751E+01  2.7805052E+01
 1.9728251E+01  2.7418205E+01
 1.9739752E+01  2.6687170E+01
 1.9751251E+01  2.6123480E+01
 1.9762751E+01  2.5710686E+01
 1.9774250E+01  2.5355509E+01
 1.9785751E+01  2.5337627E+01
 1.9797251E+01  2.5555155E+01
 1.9808750E+01  2.5803188E+01
 1.9820251E+01  2.6411501E+01
 1.9831751E+01  2.6782633E+01
 1.9843250E+01  2.7206406E+01
 1.9854752E+01  2.7269625E+01
 1.9866251E+01  2.7121758E+01
 1.9877750E+01  2.6811392E+01
 1.9889252E+01  2.6165560E+01
 1.9900751E+01  2.5746496E+01
 1.9912251E+01  2.5069021E+01
 1.9923752E+01  2.4644041E+01
 1.9935251E+01  2.4253880E+01
 1.9946751E+01  2.4023226E+01
 1.9958250E+01  2.3886011E+01
 1.9969751E+01  2.3823906E+01
 1.9981251E+01  2.3755215E+01
 1.9992750E+01  2.3702868E+01
 2.0004251E+01  2.3678974E+01
 2.0015751E+01  2.3629799E+01
 2.0027250E+01  2.3593801E+01
 2.0038752E+01  2.3603443E+01
 2.0050251E+01  2.3604425E+01
 2.0061750E+01  2.3607170E+01
 2.0073252E+01  2.3581427E+01
 2.0084751E+01  2.3620535E+01
 2.0096251E+01  2.3660908E+01
 2.0107752E+01  2.3682436E+01
 2.0119251E+01  2.3686943E+01
 2.0130751E+01  2.3619301E+01
 2.0142250E+01  2.3608747E+01
 2.0153751E+01  2.3618555E+01
 2.0165251E+01  2.3630587E+01
 2.0176750E+01  2.3631393E+01
 2.0188251E+01  2.3566622E+01
 2.0199751E+01  2.3533331E+01
 2.0211250E+01  2.3533926E+01
 2.0222752E+01  2.3530392E+01
 2.0234251E+01  2.3536041E+01
 2.0245750E+01  2.3479319E+01
 2.0257252E+01  2.3458353E+01
 2.0268751E+01  2.3445208E+01
 2.0280251E+01  2.3499102E+01
 2.0291752E+01  2.3547842E+01
 2.0303251E+01  2.3526390E+01
 2.0314751E+01  2.3479727E+01
 2.0326250E+01  2.3463636E+01
 2.0337751E+01  2.3473915E+01
 2.0349251E+01  2.3518875E+01
 2.0360750E+01  2.3487200E+01
 2.0372252E+01  2.3478142E+01
 2.0383751E+01  2.3438095E+01
 2.0395250E+01  2.3482231E+01
 2.0406752E+01  2.3523180E+01
 2.0418251E+01  2.3625986E+01
 2.0429750E+01  2.3653833E+01
 2.0441252E+01  2.3605566E+01
 2.0452751E+01  2.3595598E+01
 2.0464251E+01  2.3575428E+01
 2.0475752E+01  2.3589714E+01
 2.0487251E+01  2.3569237E+01
 2.0498751E+01  2.3591629E+01
 2.0510250E+01  2.3617760E+01
 2.0521751E+01  2.3557510E+01
 2.0533251E+01  2.3533297E+01
 2.0544750E+01  2.3503160E+01
 2.0556252E+01  2.3570103E+01
 2.0567751E+01  2.3562582E+01
 2.0579250E+01  2.3582277E+01
 2.0590752E+01  2.3609724E+01
 2.0602251E+01  2.3701075E+01
 2.0613750E+01  2.3758661E+01
 2.0625252E+01  2.3836826E+01
 2.0636751E+01  2.3916084E+01
 2.0648251E+01  2.3992584E+01
 2.0659752E+01  2.4081570E+01
 2.0671251E+01  2.4207308E+01
 2.0682751E+01  2.4447807E+01
 2.0694250E+01  2.4770615E+01
 2.0705751E+01  2.5404930E+01
 2.0717251E+01  2.5955261E+01
 2.0728750E+01  2.6670059E+01
 2.0740252E+01  2.7012646E+01
 2.0751751E+01  2.7371044E+01
 2.0763250E+01  2.7501863E+01
 2.0774752E+01  2.7280466E+01
 2.0786251E+01  2.6853125E+01
 2.0797750E+01  2.6188801E+01
 2.0809252E+01  2.5618656E+01
 2.0820751E+01  2.5021181E+01
 2.0832251E+01  2.4590580E+01
 2.0843752E+01  2.4323675E+01
 2.0855251E+01  2.4170061E+01
 2.0866751E+01  2.4020081E+01
 2.0878250E+01  2.3941805E+01
 2.0889751E+01  2.3934835E+01
 2.0901251E+01  2.3967644E+01
 2.0912750E+01  2.3948387E+01
 2.0924252E+01  2.3942459E+01
 2.0935751E+01  2.3904491E+01
 2.0947250E+01  2.3874886E+01
 2.0958752E+01  2.3824511E+01
 2.0970251E+01  2.3808516E+01
 2.0981750E+01  2.3841356E+01
 2.0993252E+01  2.3851189E+01
 2.1004751E+01  2.3849804E+01
 2.1016251E+01  2.3825623E+01
 2.1027752E+01  2.3844994E+01
 2.1039251E+01  2.3852545E+01
 2.1050751E+01  2.3822283E+01
 2.1062250E+01  2.3785433E+01
 2.1073751E+01  2.3778370E+01
 2.1085251E+01  2.3739500E+01
 2.1096750E+01  2.3680437E+01
 2.1108252E+01  2.3664406E+01
 2.1119751E+01  2.3667370E+01
 2.1131250E+01  2.3637550E+01
 2.1142752E+01  2.3632866E+01
 2.1154251E+01  2.3635477E+01
 2.1165751E+01  2.3689489E+01
 2.1177252E+01  2.3683964E+01
 2.1188751E+01  2.3733688E+01
 2.1200251E+01  2.3759993E+01
 2.1211752E+01  2.3809742E+01
 2.1223251E+01  2.3755426E+01
 2.1234751E+01  2.3700769E+01
 2.1246250E+01  2.3659702E+01
 2.1257751E+01  2.3630802E+01
 2.1269251E+01  2.3587654E+01
 2.1280750E+01  2.3586456E+01
 2.1292252E+01  2.3636580E+01
 2.1303751E+01  2.3687384E+01
 2.1315250E+01  2.3702772E+01
 2.1326752E+01  2.3685917E+01
 2.1338251E+01  2.3695536E+01
 2.1349751E+01  2.3696989E+01
 2.1361252E+01  2.3769423E+01
 2.1372751E+01  2.3817732E+01
 2.1384251E+01  2.3802797E+01
 2.1395752E+01  2.3769529E+01
 2.1407251E+01  2.3738386E+01
 2.1418751E+01  2.3748646E+01
 2.1430250E+01  2.3749447E+01
 2.1441751E+01  2.3696802E+01
 2.1453251E+01  2.3692457E+01
 2.1464750E+01  2.3719185E+01
 2.1476252E+01  2.3749823E+01
 2.1487751E+01  2.3782619E+01
 2.1499250E+01  2.3776814E+01
 2.1510752E+01  2.3771376E+01
 2.1522251E+01  2.3761168E+01
 2.1533751E+01  2.3757830E+01
 2.1545252E+01  2.3792927E+01
 2.1556751E+01  2.3770477E+01
 2.1568251E+01  2.3788971E+01
 2.1579752E+01  2.3806509E+01
 2.1591251E+01  2.3848032E+01
 2.1602751E+01  2.3927860E+01
 2.1614250E+01  2.3965841E+01
 2.1625751E+01  2.3974112E+01
 2.1637251E+01  2.3947021E+01
 2.1648750E+01  2.3920895E+01
 2.1660252E+01  2.3917107E+01
 2.1671751E+01  2.3879391E+01
 2.1683250E+01  2.3852041E+01
 2.1694752E+01  2.3855925E+01
 2.1706251E+01  2.3870405E+01
 2.1717751E+01  2.3859623E+01
 2.1729252E+01  2.3838514E+01
 2.1740751E+01  2.3881540E+01
 2.1752251E+01  2.3889235E+01
 2.1763752E+01  2.3932127E+01
 2.1775251E+01  2.3961397E+01
 2.1786751E+01  2.3969028E+01
 2.1798250E+01  2.4030283E+01
 2.1809752E+01  2.4099802E+01
 2.1821251E+01  2.4147137E+01
 2.1832750E+01  2.4013872E+01
 2.1844252E+01  2.3954742E+01
 2.1855751E+01  2.3967546E+01
 2.1867250E+01  2.4025633E+01
 2.1878752E+01  2.3997667E+01
 2.1890251E+01  2.3962902E+01
 2.1901751E+01  2.3945766E+01
 2.1913252E+01  2.3990583E+01
 2.1924751E+01  2.4001951E+01
 2.1936251E+01  2.4039473E+01
 2.1947752E+01  2.4072264E+01
 2.1959251E+01  2.4080200E+01
 2.1970751E+01  2.4092945E+01
 2.1982250E+01  2.4136398E+01
 2.1993752E+01  2.4175404E+01
 2.2005251E+01  2.4205673E+01
 2.2016750E+01  2.4174227E+01
 2.2028252E+01  2.4163054E+01
 2.2039751E+01  2.4092220E+01
 2.2051250E+01  2.4080235E+01
 2.2062752E+01  2.4013601E+01
 2.2074251E+01  2.4045441E+01
 2.2085751E+01  2.4038609E+01
 2.2097252E+01  2.4054819E+01
 2.2108751E+01  2.4059038E+01
 2.2120251E+01  2.4138094E+01
 2.2131752E+01  2.4164173E+01
 2.2143251E+01  2.4187037E+01
 2.2154751E+01  2.4156254E+01
 2.2166250E+01  2.4167339E+01
 2.2177752E+01  2.4125044E+01
 2.2189251E+01  2.4103395E+01
 2.2200750E+01  2.4107037E+01
 2.2212252E+01  2.4145498E+01
 2.2223751E+01  2.4234632E+01
 2.2235250E+01  2.4296570E+01
 2.2246752E+01  2.4320950E+01
 2.2258251E+01  2.4317026E+01
 2.2269751E+01  2.4255949E+01
 2.2281252E+01  2.4271006E+01
 2.2292751E+01  2.4227871E+01
 2.2304251E+01  2.4277491E+01
 2.2315752E+01  2.4276640E+01
 2.2327251E+01  2.4267271E+01
 2.2338751E+01  2.4261513E+01
 2.2350250E+01  2.4262680E+01
 2.2361752E+01  2.4279661E+01
 2.2373251E+01  2.4332403E+01
 2.2384750E+01  2.4343060E+01
 2.2396252E+01  2.4371044E+01
 2.2407751E+01  2.4332050E+01
 2.2419250E+01  2.4286251E+01
 2.2430752E+01  2.4265848E+01
 2.2442251E+01  2.4331472E+01
 2.2453751E+01  2.4425716E+01
 2.2465252E+01  2.4485920E+01
 2.2476751E+01  2.4523611E+01
 2.2488251E+01  2.4561819E+01
 2.2499752E+01  2.4590851E+01
 2.2511251E+01  2.4589685E+01
 2.2522751E+01  2.4596029E+01
 2.2534250E+01  2.4587793E+01
 2.2545752E+01  2.4645920E+01
 2.2557251E+01  2.4657169E+01
 2.2568750E+01  2.4666693E+01
 2.2580252E+01  2.4650209E+01
 2.2591751E+01  2.4666159E+01
 2.2603251E+01  2.4704962E+01
 2.2614752E+01  2.4742758E+01
 2.2626251E+01  2.4766123E+01
 2.2637751E+01  2.4824720E+01
 2.2649252E+01  2.4815342E+01
 2.2660751E+01  2.4823116E+01
 2.2672251E+01  2.4858868E+01
 2.2683752E+01  2.4961458E+01
 2.2695251E+01  2.5015486E+01
 2.2706751E+01  2.5041435E+01
 2.2718250E+01  2.5031075E+01
 2.2729752E+01  2.5060841E+01
 2.2741251E+01  2.5086172E+01
 2.2752750E+01  2.5125067E+01
 2.2764252E+01  2.5133917E+01
 2.2775751E+01  2.5148935E+01
 2.2787251E+01  2.5143047E+01
 2.2798752E+01  2.5192379E+01
 2.2810251E+01  2.5215992E+01
 2.2821751E+01  2.5217840E+01
 2.2833252E+01  2.5242479E+01
 2.2844751E+01  2.5249907E+01
 2.2856251E+01  2.5297867E+01
 2.2867750E+01  2.5382639E+01
 2.2879251E+01  2.5458038E+01
 2.2890751E+01  2.5589975E+01
 2.2902250E+01  2.5657263E+01
 2.2913752E+01  2.5755203E+01
 2.2925251E+01  2.5842045E+01
 2.2936750E+01  2.5848652E+01
 2.2948252E+01  2.5840906E+01
 2.2959751E+01  2.5850004E+01
 2.2971251E+01  2.6025105E+01
 2.2982752E+01  2.6150331E+01
 2.2994251E+01  2.6299881E+01
