F:\20151113_APS_34IDE\\Brian\Particle1\OCV\Data_0070.tif
2-Theta Angle (Degrees)
Intensity
       2000
 5.7500005E-03  0.0000000E+00
 1.7250001E-02  0.0000000E+00
 2.8750001E-02  0.0000000E+00
 4.0250003E-02  0.0000000E+00
 5.1750004E-02  0.0000000E+00
 6.3250005E-02  0.0000000E+00
 7.4750006E-02  0.0000000E+00
 8.6250007E-02  0.0000000E+00
 9.7750008E-02  0.0000000E+00
 1.0925001E-01  0.0000000E+00
 1.2075000E-01  0.0000000E+00
 1.3225001E-01  0.0000000E+00
 1.4375001E-01  0.0000000E+00
 1.5525001E-01  0.0000000E+00
 1.6675001E-01  0.0000000E+00
 1.7825001E-01  0.0000000E+00
 1.8975002E-01  0.0000000E+00
 2.0125002E-01  0.0000000E+00
 2.1275002E-01  0.0000000E+00
 2.2425000E-01  0.0000000E+00
 2.3575000E-01  0.0000000E+00
 2.4725001E-01  0.0000000E+00
 2.5875002E-01  0.0000000E+00
 2.7025002E-01  0.0000000E+00
 2.8175002E-01  0.0000000E+00
 2.9325002E-01  0.0000000E+00
 3.0475003E-01  0.0000000E+00
 3.1625003E-01  0.0000000E+00
 3.2775003E-01  0.0000000E+00
 3.3925003E-01  0.0000000E+00
 3.5075003E-01  0.0000000E+00
 3.6225003E-01  0.0000000E+00
 3.7375003E-01  0.0000000E+00
 3.8525003E-01  0.0000000E+00
 3.9675003E-01  0.0000000E+00
 4.0825003E-01  0.0000000E+00
 4.1975003E-01  0.0000000E+00
 4.3125004E-01  0.0000000E+00
 4.4275001E-01  0.0000000E+00
 4.5425001E-01  0.0000000E+00
 4.6575001E-01  0.0000000E+00
 4.7725001E-01  0.0000000E+00
 4.8875001E-01  0.0000000E+00
 5.0025004E-01  0.0000000E+00
 5.1175004E-01  0.0000000E+00
 5.2325004E-01  0.0000000E+00
 5.3475004E-01  0.0000000E+00
 5.4625005E-01  0.0000000E+00
 5.5775005E-01  0.0000000E+00
 5.6925005E-01  0.0000000E+00
 5.8075005E-01  0.0000000E+00
 5.9225005E-01  0.0000000E+00
 6.0375005E-01  0.0000000E+00
 6.1525005E-01  0.0000000E+00
 6.2675005E-01  0.0000000E+00
 6.3825005E-01  0.0000000E+00
 6.4975005E-01  0.0000000E+00
 6.6125005E-01  0.0000000E+00
 6.7275006E-01  0.0000000E+00
 6.8425006E-01  0.0000000E+00
 6.9575006E-01  0.0000000E+00
 7.0725006E-01  0.0000000E+00
 7.1875006E-01  0.0000000E+00
 7.3025006E-01  0.0000000E+00
 7.4175006E-01  0.0000000E+00
 7.5325006E-01  0.0000000E+00
 7.6475006E-01  0.0000000E+00
 7.7625006E-01  0.0000000E+00
 7.8775007E-01  0.0000000E+00
 7.9925007E-01  0.0000000E+00
 8.1075007E-01  0.0000000E+00
 8.2225007E-01  0.0000000E+00
 8.3375007E-01  0.0000000E+00
 8.4525007E-01  0.0000000E+00
 8.5675007E-01  0.0000000E+00
 8.6825007E-01  0.0000000E+00
 8.7975001E-01  0.0000000E+00
 8.9125001E-01  0.0000000E+00
 9.0275002E-01  0.0000000E+00
 9.1425002E-01  0.0000000E+00
 9.2575002E-01  0.0000000E+00
 9.3725002E-01  0.0000000E+00
 9.4875002E-01  0.0000000E+00
 9.6025002E-01  0.0000000E+00
 9.7175002E-01  0.0000000E+00
 9.8325002E-01  0.0000000E+00
 9.9475002E-01  0.0000000E+00
 1.0062500E+00  0.0000000E+00
 1.0177500E+00  0.0000000E+00
 1.0292500E+00  0.0000000E+00
 1.0407500E+00  0.0000000E+00
 1.0522500E+00  0.0000000E+00
 1.0637500E+00  0.0000000E+00
 1.0752500E+00  0.0000000E+00
 1.0867500E+00  0.0000000E+00
 1.0982500E+00  0.0000000E+00
 1.1097500E+00  0.0000000E+00
 1.1212500E+00  0.0000000E+00
 1.1327500E+00  0.0000000E+00
 1.1442500E+00  0.0000000E+00
 1.1557500E+00  0.0000000E+00
 1.1672500E+00  0.0000000E+00
 1.1787500E+00  0.0000000E+00
 1.1902500E+00  0.0000000E+00
 1.2017500E+00  0.0000000E+00
 1.2132500E+00  0.0000000E+00
 1.2247500E+00  0.0000000E+00
 1.2362500E+00  0.0000000E+00
 1.2477500E+00  0.0000000E+00
 1.2592500E+00  0.0000000E+00
 1.2707500E+00  0.0000000E+00
 1.2822500E+00  0.0000000E+00
 1.2937500E+00  0.0000000E+00
 1.3052500E+00  0.0000000E+00
 1.3167500E+00  0.0000000E+00
 1.3282501E+00  0.0000000E+00
 1.3397501E+00  0.0000000E+00
 1.3512501E+00  0.0000000E+00
 1.3627501E+00  0.0000000E+00
 1.3742501E+00  0.0000000E+00
 1.3857501E+00  0.0000000E+00
 1.3972501E+00  0.0000000E+00
 1.4087501E+00  0.0000000E+00
 1.4202501E+00  0.0000000E+00
 1.4317501E+00  0.0000000E+00
 1.4432501E+00  0.0000000E+00
 1.4547501E+00  0.0000000E+00
 1.4662501E+00  0.0000000E+00
 1.4777501E+00  0.0000000E+00
 1.4892501E+00  0.0000000E+00
 1.5007501E+00  0.0000000E+00
 1.5122501E+00  0.0000000E+00
 1.5237501E+00  0.0000000E+00
 1.5352501E+00  0.0000000E+00
 1.5467501E+00  0.0000000E+00
 1.5582501E+00  0.0000000E+00
 1.5697501E+00  0.0000000E+00
 1.5812501E+00  0.0000000E+00
 1.5927501E+00  0.0000000E+00
 1.6042501E+00  0.0000000E+00
 1.6157501E+00  0.0000000E+00
 1.6272501E+00  0.0000000E+00
 1.6387501E+00  0.0000000E+00
 1.6502501E+00  0.0000000E+00
 1.6617501E+00  0.0000000E+00
 1.6732501E+00  0.0000000E+00
 1.6847501E+00  0.0000000E+00
 1.6962501E+00  0.0000000E+00
 1.7077501E+00  0.0000000E+00
 1.7192501E+00  0.0000000E+00
 1.7307501E+00  0.0000000E+00
 1.7422501E+00  0.0000000E+00
 1.7537501E+00  0.0000000E+00
 1.7652501E+00  0.0000000E+00
 1.7767501E+00  0.0000000E+00
 1.7882501E+00  0.0000000E+00
 1.7997501E+00  0.0000000E+00
 1.8112501E+00  0.0000000E+00
 1.8227501E+00  0.0000000E+00
 1.8342501E+00  0.0000000E+00
 1.8457501E+00  0.0000000E+00
 1.8572501E+00  0.0000000E+00
 1.8687501E+00  0.0000000E+00
 1.8802501E+00  0.0000000E+00
 1.8917501E+00  0.0000000E+00
 1.9032501E+00  0.0000000E+00
 1.9147501E+00  0.0000000E+00
 1.9262501E+00  0.0000000E+00
 1.9377501E+00  0.0000000E+00
 1.9492501E+00  0.0000000E+00
 1.9607501E+00  0.0000000E+00
 1.9722501E+00  0.0000000E+00
 1.9837501E+00  0.0000000E+00
 1.9952501E+00  0.0000000E+00
 2.0067501E+00  0.0000000E+00
 2.0182500E+00  0.0000000E+00
 2.0297501E+00  0.0000000E+00
 2.0412500E+00  0.0000000E+00
 2.0527501E+00  0.0000000E+00
 2.0642500E+00  0.0000000E+00
 2.0757501E+00  0.0000000E+00
 2.0872500E+00  0.0000000E+00
 2.0987501E+00  0.0000000E+00
 2.1102500E+00  0.0000000E+00
 2.1217501E+00  0.0000000E+00
 2.1332500E+00  0.0000000E+00
 2.1447501E+00  0.0000000E+00
 2.1562500E+00  0.0000000E+00
 2.1677501E+00  0.0000000E+00
 2.1792500E+00  0.0000000E+00
 2.1907501E+00  0.0000000E+00
 2.2022500E+00  0.0000000E+00
 2.2137501E+00  0.0000000E+00
 2.2252500E+00  0.0000000E+00
 2.2367501E+00  0.0000000E+00
 2.2482500E+00  0.0000000E+00
 2.2597501E+00  0.0000000E+00
 2.2712500E+00  0.0000000E+00
 2.2827501E+00  0.0000000E+00
 2.2942500E+00  0.0000000E+00
 2.3057501E+00  0.0000000E+00
 2.3172500E+00  0.0000000E+00
 2.3287501E+00  0.0000000E+00
 2.3402500E+00  0.0000000E+00
 2.3517501E+00  0.0000000E+00
 2.3632500E+00  0.0000000E+00
 2.3747501E+00  0.0000000E+00
 2.3862500E+00  0.0000000E+00
 2.3977501E+00  0.0000000E+00
 2.4092500E+00  0.0000000E+00
 2.4207501E+00  0.0000000E+00
 2.4322500E+00  0.0000000E+00
 2.4437501E+00  0.0000000E+00
 2.4552500E+00  0.0000000E+00
 2.4667501E+00  0.0000000E+00
 2.4782500E+00  0.0000000E+00
 2.4897501E+00  0.0000000E+00
 2.5012500E+00  0.0000000E+00
 2.5127501E+00  0.0000000E+00
 2.5242500E+00  0.0000000E+00
 2.5357502E+00  0.0000000E+00
 2.5472500E+00  0.0000000E+00
 2.5587502E+00  0.0000000E+00
 2.5702500E+00  0.0000000E+00
 2.5817502E+00  0.0000000E+00
 2.5932500E+00  0.0000000E+00
 2.6047502E+00  0.0000000E+00
 2.6162500E+00  0.0000000E+00
 2.6277502E+00  0.0000000E+00
 2.6392500E+00  0.0000000E+00
 2.6507502E+00  0.0000000E+00
 2.6622500E+00  0.0000000E+00
 2.6737502E+00  0.0000000E+00
 2.6852500E+00  0.0000000E+00
 2.6967502E+00  0.0000000E+00
 2.7082500E+00  0.0000000E+00
 2.7197502E+00  0.0000000E+00
 2.7312500E+00  0.0000000E+00
 2.7427502E+00  0.0000000E+00
 2.7542500E+00  0.0000000E+00
 2.7657502E+00  0.0000000E+00
 2.7772501E+00  0.0000000E+00
 2.7887502E+00  0.0000000E+00
 2.8002501E+00  0.0000000E+00
 2.8117502E+00  0.0000000E+00
 2.8232501E+00  3.5984657E+01
 2.8347502E+00  3.4550827E+01
 2.8462501E+00  3.4209900E+01
 2.8577502E+00  3.4198166E+01
 2.8692501E+00  3.4686653E+01
 2.8807502E+00  3.5356884E+01
 2.8922501E+00  3.6021076E+01
 2.9037502E+00  3.6033623E+01
 2.9152501E+00  3.5904320E+01
 2.9267502E+00  3.5518322E+01
 2.9382501E+00  3.5480179E+01
 2.9497502E+00  3.5450623E+01
 2.9612501E+00  3.5468727E+01
 2.9727502E+00  3.5145935E+01
 2.9842501E+00  3.5120438E+01
 2.9957502E+00  3.5316795E+01
 3.0072501E+00  3.5886738E+01
 3.0187502E+00  3.6510857E+01
 3.0302501E+00  3.6569420E+01
 3.0417502E+00  3.6000183E+01
 3.0532501E+00  3.5027325E+01
 3.0647502E+00  3.4364941E+01
 3.0762501E+00  3.4180782E+01
 3.0877502E+00  3.4359932E+01
 3.0992501E+00  3.4546795E+01
 3.1107502E+00  3.4512718E+01
 3.1222501E+00  3.4482224E+01
 3.1337502E+00  3.4487133E+01
 3.1452501E+00  3.5069942E+01
 3.1567502E+00  3.5542149E+01
 3.1682501E+00  3.5825500E+01
 3.1797502E+00  3.5671635E+01
 3.1912501E+00  3.5797546E+01
 3.2027502E+00  3.5650146E+01
 3.2142501E+00  3.5683960E+01
 3.2257502E+00  3.5680729E+01
 3.2372501E+00  3.5365917E+01
 3.2487502E+00  3.5264236E+01
 3.2602501E+00  3.5036980E+01
 3.2717502E+00  3.4940002E+01
 3.2832501E+00  3.4840420E+01
 3.2947502E+00  3.4771938E+01
 3.3062501E+00  3.4966194E+01
 3.3177502E+00  3.4984913E+01
 3.3292501E+00  3.4850662E+01
 3.3407502E+00  3.4639168E+01
 3.3522501E+00  3.4477280E+01
 3.3637502E+00  3.4221947E+01
 3.3752501E+00  3.3945816E+01
 3.3867502E+00  3.3636833E+01
 3.3982501E+00  3.3504898E+01
 3.4097502E+00  3.3286602E+01
 3.4212501E+00  3.3314255E+01
 3.4327502E+00  3.3544498E+01
 3.4442501E+00  3.3769859E+01
 3.4557502E+00  3.4079273E+01
 3.4672501E+00  3.4071888E+01
 3.4787502E+00  3.4203510E+01
 3.4902501E+00  3.3816376E+01
 3.5017502E+00  3.3865833E+01
 3.5132501E+00  3.3451477E+01
 3.5247502E+00  3.3563442E+01
 3.5362501E+00  3.3523666E+01
 3.5477502E+00  3.3530319E+01
 3.5592501E+00  3.3581360E+01
 3.5707502E+00  3.3336288E+01
 3.5822501E+00  3.3302677E+01
 3.5937502E+00  3.3265812E+01
 3.6052501E+00  3.3051304E+01
 3.6167502E+00  3.3033215E+01
 3.6282501E+00  3.2912975E+01
 3.6397502E+00  3.2831917E+01
 3.6512501E+00  3.2807880E+01
 3.6627502E+00  3.2653961E+01
 3.6742501E+00  3.2804874E+01
 3.6857502E+00  3.2874344E+01
 3.6972501E+00  3.2917217E+01
 3.7087502E+00  3.2688950E+01
 3.7202501E+00  3.2565544E+01
 3.7317502E+00  3.2515621E+01
 3.7432501E+00  3.2726192E+01
 3.7547503E+00  3.2814838E+01
 3.7662501E+00  3.2969810E+01
 3.7777503E+00  3.3069321E+01
 3.7892501E+00  3.3023315E+01
 3.8007503E+00  3.2743389E+01
 3.8122501E+00  3.2555931E+01
 3.8237503E+00  3.2281647E+01
 3.8352501E+00  3.2198071E+01
 3.8467503E+00  3.2019974E+01
 3.8582501E+00  3.2028973E+01
 3.8697503E+00  3.2336544E+01
 3.8812501E+00  3.2458103E+01
 3.8927503E+00  3.2319050E+01
 3.9042501E+00  3.2147820E+01
 3.9157503E+00  3.1958649E+01
 3.9272501E+00  3.2167847E+01
 3.9387503E+00  3.2062729E+01
 3.9502501E+00  3.2304836E+01
 3.9617503E+00  3.2493023E+01
 3.9732502E+00  3.2645206E+01
 3.9847503E+00  3.2615673E+01
 3.9962502E+00  3.2761681E+01
 4.0077500E+00  3.2728382E+01
 4.0192504E+00  3.2774620E+01
 4.0307503E+00  3.2442848E+01
 4.0422502E+00  3.2493404E+01
 4.0537500E+00  3.2235306E+01
 4.0652504E+00  3.2015717E+01
 4.0767503E+00  3.1662973E+01
 4.0882502E+00  3.1623928E+01
 4.0997500E+00  3.1788948E+01
 4.1112504E+00  3.1922106E+01
 4.1227503E+00  3.1869499E+01
 4.1342502E+00  3.1775959E+01
 4.1457500E+00  3.1619452E+01
 4.1572504E+00  3.1354614E+01
 4.1687503E+00  3.1231873E+01
 4.1802502E+00  3.1134054E+01
 4.1917500E+00  3.1413071E+01
 4.2032504E+00  3.1581505E+01
 4.2147503E+00  3.1784811E+01
 4.2262502E+00  3.1912910E+01
 4.2377501E+00  3.1892323E+01
 4.2492504E+00  3.1780237E+01
 4.2607503E+00  3.1914719E+01
 4.2722502E+00  3.1824427E+01
 4.2837501E+00  3.1952408E+01
 4.2952504E+00  3.1826754E+01
 4.3067503E+00  3.1887724E+01
 4.3182502E+00  3.1852310E+01
 4.3297501E+00  3.1904707E+01
 4.3412504E+00  3.2055763E+01
 4.3527503E+00  3.2093060E+01
 4.3642502E+00  3.2148987E+01
 4.3757501E+00  3.2027203E+01
 4.3872504E+00  3.1941967E+01
 4.3987503E+00  3.1870949E+01
 4.4102502E+00  3.1970606E+01
 4.4217501E+00  3.2044098E+01
 4.4332504E+00  3.2132141E+01
 4.4447503E+00  3.2179241E+01
 4.4562502E+00  3.2201965E+01
 4.4677501E+00  3.2334736E+01
 4.4792504E+00  3.2350117E+01
 4.4907503E+00  3.2401360E+01
 4.5022502E+00  3.2295296E+01
 4.5137501E+00  3.2256596E+01
 4.5252504E+00  3.2258419E+01
 4.5367503E+00  3.2136139E+01
 4.5482502E+00  3.2043034E+01
 4.5597501E+00  3.1943798E+01
 4.5712504E+00  3.2079433E+01
 4.5827503E+00  3.2037086E+01
 4.5942502E+00  3.2139965E+01
 4.6057501E+00  3.2094742E+01
 4.6172504E+00  3.2159481E+01
 4.6287503E+00  3.2204422E+01
 4.6402502E+00  3.2373764E+01
 4.6517501E+00  3.2423870E+01
 4.6632504E+00  3.2503380E+01
 4.6747503E+00  3.2375057E+01
 4.6862502E+00  3.2378681E+01
 4.6977501E+00  3.2384415E+01
 4.7092505E+00  3.2425529E+01
 4.7207503E+00  3.2499065E+01
 4.7322502E+00  3.2346634E+01
 4.7437501E+00  3.2277470E+01
 4.7552505E+00  3.2112915E+01
 4.7667503E+00  3.2144405E+01
 4.7782502E+00  3.2177834E+01
 4.7897501E+00  3.2253304E+01
 4.8012505E+00  3.2388916E+01
 4.8127503E+00  3.2561756E+01
 4.8242502E+00  3.2735958E+01
 4.8357501E+00  3.2764248E+01
 4.8472505E+00  3.2672501E+01
 4.8587503E+00  3.2660908E+01
 4.8702502E+00  3.2522472E+01
 4.8817501E+00  3.2548603E+01
 4.8932505E+00  3.2533558E+01
 4.9047503E+00  3.2639881E+01
 4.9162502E+00  3.2737343E+01
 4.9277501E+00  3.2740913E+01
 4.9392505E+00  3.2811192E+01
 4.9507504E+00  3.2794655E+01
 4.9622502E+00  3.2849144E+01
 4.9737501E+00  3.2859974E+01
 4.9852505E+00  3.2888557E+01
 4.9967504E+00  3.2775810E+01
 5.0082502E+00  3.2832005E+01
 5.0197501E+00  3.2881981E+01
 5.0312505E+00  3.3074032E+01
 5.0427504E+00  3.3053944E+01
 5.0542502E+00  3.3077885E+01
 5.0657501E+00  3.2899208E+01
 5.0772505E+00  3.2863190E+01
 5.0887504E+00  3.2814838E+01
 5.1002502E+00  3.2897114E+01
 5.1117501E+00  3.3045647E+01
 5.1232505E+00  3.3091347E+01
 5.1347504E+00  3.3372219E+01
 5.1462502E+00  3.3407791E+01
 5.1577501E+00  3.3584843E+01
 5.1692505E+00  3.3739376E+01
 5.1807504E+00  3.3973061E+01
 5.1922503E+00  3.4207787E+01
 5.2037501E+00  3.4240047E+01
 5.2152505E+00  3.4289501E+01
 5.2267504E+00  3.4174652E+01
 5.2382503E+00  3.4136120E+01
 5.2497501E+00  3.4023167E+01
 5.2612505E+00  3.3875164E+01
 5.2727504E+00  3.3598412E+01
 5.2842503E+00  3.3501205E+01
 5.2957501E+00  3.3544933E+01
 5.3072500E+00  3.3668140E+01
 5.3187504E+00  3.3753830E+01
 5.3302503E+00  3.3843445E+01
 5.3417501E+00  3.4010349E+01
 5.3532500E+00  3.4086391E+01
 5.3647504E+00  3.4091660E+01
 5.3762503E+00  3.4155094E+01
 5.3877501E+00  3.4290752E+01
 5.3992500E+00  3.4391148E+01
 5.4107504E+00  3.4485138E+01
 5.4222503E+00  3.4385746E+01
 5.4337502E+00  3.4403362E+01
 5.4452500E+00  3.4282238E+01
 5.4567504E+00  3.4310066E+01
 5.4682503E+00  3.4275505E+01
 5.4797502E+00  3.4359032E+01
 5.4912500E+00  3.4378983E+01
 5.5027504E+00  3.4419445E+01
 5.5142503E+00  3.4538670E+01
 5.5257502E+00  3.4612270E+01
 5.5372500E+00  3.4759026E+01
 5.5487504E+00  3.4864334E+01
 5.5602503E+00  3.4976032E+01
 5.5717502E+00  3.5013050E+01
 5.5832500E+00  3.5035580E+01
 5.5947504E+00  3.5110630E+01
 5.6062503E+00  3.5198277E+01
 5.6177502E+00  3.5138905E+01
 5.6292500E+00  3.5198784E+01
 5.6407504E+00  3.5252651E+01
 5.6522503E+00  3.5391071E+01
 5.6637502E+00  3.5545151E+01
 5.6752501E+00  3.5665989E+01
 5.6867504E+00  3.5755543E+01
 5.6982503E+00  3.5719543E+01
 5.7097502E+00  3.5689552E+01
 5.7212501E+00  3.5720093E+01
 5.7327504E+00  3.5709095E+01
 5.7442503E+00  3.5743000E+01
 5.7557502E+00  3.5805641E+01
 5.7672501E+00  3.5889755E+01
 5.7787504E+00  3.5989700E+01
 5.7902503E+00  3.6126675E+01
 5.8017502E+00  3.6189461E+01
 5.8132501E+00  3.6236443E+01
 5.8247504E+00  3.6294064E+01
 5.8362503E+00  3.6374058E+01
 5.8477502E+00  3.6635906E+01
 5.8592501E+00  3.6771225E+01
 5.8707504E+00  3.7108955E+01
 5.8822503E+00  3.7572990E+01
 5.8937502E+00  3.8258778E+01
 5.9052501E+00  3.9638790E+01
 5.9167504E+00  4.1871925E+01
 5.9282503E+00  4.5319942E+01
 5.9397502E+00  5.1941547E+01
 5.9512501E+00  6.0064316E+01
 5.9627504E+00  6.6648384E+01
 5.9742503E+00  7.5438423E+01
 5.9857502E+00  7.7525215E+01
 5.9972501E+00  7.6591881E+01
 6.0087504E+00  7.1902077E+01
 6.0202503E+00  6.3485966E+01
 6.0317502E+00  5.6544018E+01
 6.0432501E+00  4.7467205E+01
 6.0547504E+00  4.2963379E+01
 6.0662503E+00  4.0759869E+01
 6.0777502E+00  3.8951641E+01
 6.0892501E+00  3.8352226E+01
 6.1007504E+00  3.7925941E+01
 6.1122503E+00  3.7614025E+01
 6.1237502E+00  3.7468334E+01
 6.1352501E+00  3.7318855E+01
 6.1467505E+00  3.7266846E+01
 6.1582503E+00  3.7261406E+01
 6.1697502E+00  3.7248680E+01
 6.1812501E+00  3.7190388E+01
 6.1927505E+00  3.7177422E+01
 6.2042503E+00  3.7129700E+01
 6.2157502E+00  3.7212646E+01
 6.2272501E+00  3.7257572E+01
 6.2387505E+00  3.7209076E+01
 6.2502503E+00  3.7292057E+01
 6.2617502E+00  3.7326385E+01
 6.2732501E+00  3.7385227E+01
 6.2847505E+00  3.7426388E+01
 6.2962503E+00  3.7433105E+01
 6.3077502E+00  3.7589100E+01
 6.3192501E+00  3.7690647E+01
 6.3307505E+00  3.7812065E+01
 6.3422503E+00  3.7871246E+01
 6.3537502E+00  3.7880814E+01
 6.3652501E+00  3.7886341E+01
 6.3767505E+00  3.7872425E+01
 6.3882504E+00  3.7887341E+01
 6.3997502E+00  3.7910088E+01
 6.4112501E+00  3.8003220E+01
 6.4227505E+00  3.8058163E+01
 6.4342504E+00  3.8100079E+01
 6.4457502E+00  3.8247135E+01
 6.4572501E+00  3.8315685E+01
 6.4687505E+00  3.8492317E+01
 6.4802504E+00  3.8532001E+01
 6.4917502E+00  3.8691540E+01
 6.5032501E+00  3.8764668E+01
 6.5147505E+00  3.8944683E+01
 6.5262504E+00  3.9036636E+01
 6.5377502E+00  3.9166874E+01
 6.5492501E+00  3.9220722E+01
 6.5607505E+00  3.9286777E+01
 6.5722504E+00  3.9399357E+01
 6.5837502E+00  3.9465385E+01
 6.5952501E+00  3.9524162E+01
 6.6067505E+00  3.9573578E+01
 6.6182504E+00  3.9619072E+01
 6.6297503E+00  3.9745144E+01
 6.6412501E+00  3.9843700E+01
 6.6527505E+00  3.9950371E+01
 6.6642504E+00  4.0146374E+01
 6.6757503E+00  4.0165913E+01
 6.6872501E+00  4.0158569E+01
 6.6987505E+00  4.0074913E+01
 6.7102504E+00  4.0091549E+01
 6.7217503E+00  4.0131023E+01
 6.7332501E+00  4.0203987E+01
 6.7447505E+00  4.0211510E+01
 6.7562504E+00  4.0329445E+01
 6.7677503E+00  4.0463017E+01
 6.7792501E+00  4.0622292E+01
 6.7907505E+00  4.0705608E+01
 6.8022504E+00  4.0738682E+01
 6.8137503E+00  4.0876431E+01
 6.8252501E+00  4.0906227E+01
 6.8367505E+00  4.0941372E+01
 6.8482504E+00  4.0982067E+01
 6.8597503E+00  4.1069508E+01
 6.8712502E+00  4.1148548E+01
 6.8827505E+00  4.1277901E+01
 6.8942504E+00  4.1412392E+01
 6.9057503E+00  4.1612923E+01
 6.9172502E+00  4.1733646E+01
 6.9287505E+00  4.1703751E+01
 6.9402504E+00  4.1793530E+01
 6.9517503E+00  4.1806759E+01
 6.9632502E+00  4.1930553E+01
 6.9747505E+00  4.1988224E+01
 6.9862504E+00  4.2027565E+01
 6.9977503E+00  4.2142635E+01
 7.0092502E+00  4.2171589E+01
 7.0207505E+00  4.2072357E+01
 7.0322504E+00  4.2054325E+01
 7.0437503E+00  4.2086182E+01
 7.0552502E+00  4.2227093E+01
 7.0667505E+00  4.2323471E+01
 7.0782504E+00  4.2306248E+01
 7.0897503E+00  4.2199932E+01
 7.1012502E+00  4.2205181E+01
 7.1127505E+00  4.2216026E+01
 7.1242504E+00  4.2435688E+01
 7.1357503E+00  4.2581566E+01
 7.1472502E+00  4.2797844E+01
 7.1587505E+00  4.2908955E+01
 7.1702504E+00  4.3036968E+01
 7.1817503E+00  4.3062637E+01
 7.1932502E+00  4.3117001E+01
 7.2047505E+00  4.3114906E+01
 7.2162504E+00  4.2997841E+01
 7.2277503E+00  4.2984406E+01
 7.2392502E+00  4.2946198E+01
 7.2507505E+00  4.2939442E+01
 7.2622504E+00  4.2971352E+01
 7.2737503E+00  4.2966808E+01
 7.2852502E+00  4.3110722E+01
 7.2967505E+00  4.3214870E+01
 7.3082504E+00  4.3316189E+01
 7.3197503E+00  4.3466553E+01
 7.3312502E+00  4.3553837E+01
 7.3427505E+00  4.3714542E+01
 7.3542504E+00  4.3793526E+01
 7.3657503E+00  4.3846249E+01
 7.3772502E+00  4.3834076E+01
 7.3887506E+00  4.3781006E+01
 7.4002504E+00  4.3758919E+01
 7.4117503E+00  4.3689285E+01
 7.4232502E+00  4.3604595E+01
 7.4347506E+00  4.3572548E+01
 7.4462504E+00  4.3683624E+01
 7.4577503E+00  4.3851696E+01
 7.4692502E+00  4.3960590E+01
 7.4807506E+00  4.4017769E+01
 7.4922504E+00  4.4038898E+01
 7.5037503E+00  4.4016533E+01
 7.5152502E+00  4.3946911E+01
 7.5267506E+00  4.3798832E+01
 7.5382504E+00  4.3722141E+01
 7.5497503E+00  4.3618073E+01
 7.5612502E+00  4.3800545E+01
 7.5727506E+00  4.3878590E+01
 7.5842505E+00  4.3969662E+01
 7.5957503E+00  4.3964115E+01
 7.6072502E+00  4.4003880E+01
 7.6187506E+00  4.3939491E+01
 7.6302505E+00  4.3855705E+01
 7.6417503E+00  4.3879997E+01
 7.6532502E+00  4.3951180E+01
 7.6647506E+00  4.3951717E+01
 7.6762505E+00  4.3890133E+01
 7.6877503E+00  4.3917995E+01
 7.6992502E+00  4.3940334E+01
 7.7107506E+00  4.3999771E+01
 7.7222505E+00  4.4012691E+01
 7.7337503E+00  4.4057671E+01
 7.7452502E+00  4.3984879E+01
 7.7567506E+00  4.3952564E+01
 7.7682505E+00  4.3811718E+01
 7.7797503E+00  4.3727287E+01
 7.7912502E+00  4.3674065E+01
 7.8027506E+00  4.3679165E+01
 7.8142505E+00  4.3688133E+01
 7.8257504E+00  4.3637447E+01
 7.8372502E+00  4.3744190E+01
 7.8487506E+00  4.3860203E+01
 7.8602505E+00  4.3906429E+01
 7.8717504E+00  4.3856346E+01
 7.8832502E+00  4.3670471E+01
 7.8947506E+00  4.3657295E+01
 7.9062505E+00  4.3601044E+01
 7.9177504E+00  4.3623734E+01
 7.9292502E+00  4.3578293E+01
 7.9407506E+00  4.3506390E+01
 7.9522505E+00  4.3411610E+01
 7.9637504E+00  4.3255062E+01
 7.9752502E+00  4.3107216E+01
 7.9867506E+00  4.3041843E+01
 7.9982505E+00  4.3015919E+01
 8.0097504E+00  4.2953026E+01
 8.0212507E+00  4.2887516E+01
 8.0327501E+00  4.2805767E+01
 8.0442505E+00  4.2720234E+01
 8.0557508E+00  4.2600906E+01
 8.0672503E+00  4.2517277E+01
 8.0787506E+00  4.2375198E+01
 8.0902500E+00  4.2303822E+01
 8.1017504E+00  4.2186031E+01
 8.1132507E+00  4.2232899E+01
 8.1247501E+00  4.2215805E+01
 8.1362505E+00  4.2209705E+01
 8.1477509E+00  4.2031986E+01
 8.1592503E+00  4.1846878E+01
 8.1707506E+00  4.1669292E+01
 8.1822500E+00  4.1554199E+01
 8.1937504E+00  4.1541954E+01
 8.2052507E+00  4.1473412E+01
 8.2167501E+00  4.1361984E+01
 8.2282505E+00  4.1248550E+01
 8.2397509E+00  4.1088493E+01
 8.2512503E+00  4.1027210E+01
 8.2627506E+00  4.0860188E+01
 8.2742500E+00  4.0760227E+01
 8.2857504E+00  4.0530090E+01
 8.2972507E+00  4.0294140E+01
 8.3087502E+00  4.0151466E+01
 8.3202505E+00  4.0076050E+01
 8.3317509E+00  3.9951851E+01
 8.3432503E+00  3.9733978E+01
 8.3547506E+00  3.9539440E+01
 8.3662500E+00  3.9353008E+01
 8.3777504E+00  3.9270447E+01
 8.3892508E+00  3.9134510E+01
 8.4007502E+00  3.9032707E+01
 8.4122505E+00  3.8937103E+01
 8.4237509E+00  3.8807426E+01
 8.4352503E+00  3.8666210E+01
 8.4467506E+00  3.8493137E+01
 8.4582500E+00  3.8315102E+01
 8.4697504E+00  3.8276093E+01
 8.4812508E+00  3.8133808E+01
 8.4927502E+00  3.8065022E+01
 8.5042505E+00  3.7769360E+01
 8.5157509E+00  3.7608192E+01
 8.5272503E+00  3.7338356E+01
 8.5387506E+00  3.7305958E+01
 8.5502501E+00  3.7112049E+01
 8.5617504E+00  3.6961422E+01
 8.5732508E+00  3.6760567E+01
 8.5847502E+00  3.6522346E+01
 8.5962505E+00  3.6325134E+01
 8.6077509E+00  3.6082191E+01
 8.6192503E+00  3.6011059E+01
 8.6307507E+00  3.5917484E+01
 8.6422501E+00  3.5910633E+01
 8.6537504E+00  3.5723160E+01
 8.6652508E+00  3.5542088E+01
 8.6767502E+00  3.5192104E+01
 8.6882505E+00  3.4933681E+01
 8.6997509E+00  3.4692368E+01
 8.7112503E+00  3.4490364E+01
 8.7227507E+00  3.4318069E+01
 8.7342501E+00  3.4159878E+01
 8.7457504E+00  3.3989925E+01
 8.7572508E+00  3.3771057E+01
 8.7687502E+00  3.3626694E+01
 8.7802505E+00  3.3480431E+01
 8.7917500E+00  3.3431316E+01
 8.8032503E+00  3.3267586E+01
 8.8147507E+00  3.3206932E+01
 8.8262501E+00  3.3000069E+01
 8.8377504E+00  3.2821022E+01
 8.8492508E+00  3.2588528E+01
 8.8607502E+00  3.2446892E+01
 8.8722506E+00  3.2294605E+01
 8.8837500E+00  3.2132099E+01
 8.8952503E+00  3.1937775E+01
 8.9067507E+00  3.1758438E+01
 8.9182501E+00  3.1648542E+01
 8.9297504E+00  3.1562801E+01
 8.9412508E+00  3.1453146E+01
 8.9527502E+00  3.1350809E+01
 8.9642506E+00  3.1180805E+01
 8.9757500E+00  3.0982763E+01
 8.9872503E+00  3.0842850E+01
 8.9987507E+00  3.0669453E+01
 9.0102501E+00  3.0596201E+01
 9.0217505E+00  3.0440220E+01
 9.0332508E+00  3.0349300E+01
 9.0447502E+00  3.0230446E+01
 9.0562506E+00  3.0076792E+01
 9.0677500E+00  2.9927776E+01
 9.0792503E+00  2.9769081E+01
 9.0907507E+00  2.9638350E+01
 9.1022501E+00  2.9439663E+01
 9.1137505E+00  2.9286499E+01
 9.1252508E+00  2.9160101E+01
 9.1367502E+00  2.9096800E+01
 9.1482506E+00  2.9087711E+01
 9.1597500E+00  2.9047674E+01
 9.1712503E+00  2.8963215E+01
 9.1827507E+00  2.8814665E+01
 9.1942501E+00  2.8677183E+01
 9.2057505E+00  2.8574308E+01
 9.2172508E+00  2.8461065E+01
 9.2287502E+00  2.8312727E+01
 9.2402506E+00  2.8232363E+01
 9.2517500E+00  2.8144423E+01
 9.2632504E+00  2.8024244E+01
 9.2747507E+00  2.7899454E+01
 9.2862501E+00  2.7763521E+01
 9.2977505E+00  2.7655249E+01
 9.3092508E+00  2.7505833E+01
 9.3207502E+00  2.7359594E+01
 9.3322506E+00  2.7310102E+01
 9.3437500E+00  2.7183037E+01
 9.3552504E+00  2.7166359E+01
 9.3667507E+00  2.7122578E+01
 9.3782501E+00  2.7063629E+01
 9.3897505E+00  2.6992382E+01
 9.4012508E+00  2.6897142E+01
 9.4127502E+00  2.6865660E+01
 9.4242506E+00  2.6802982E+01
 9.4357500E+00  2.6724424E+01
 9.4472504E+00  2.6705992E+01
 9.4587507E+00  2.6614172E+01
 9.4702501E+00  2.6527651E+01
 9.4817505E+00  2.6457062E+01
 9.4932508E+00  2.6399277E+01
 9.5047503E+00  2.6257198E+01
 9.5162506E+00  2.6167120E+01
 9.5277500E+00  2.6068514E+01
 9.5392504E+00  2.6098145E+01
 9.5507507E+00  2.5991360E+01
 9.5622501E+00  2.5990211E+01
 9.5737505E+00  2.5855816E+01
 9.5852509E+00  2.5856567E+01
 9.5967503E+00  2.5795345E+01
 9.6082506E+00  2.5806627E+01
 9.6197500E+00  2.5728609E+01
 9.6312504E+00  2.5596165E+01
 9.6427507E+00  2.5471119E+01
 9.6542501E+00  2.5404938E+01
 9.6657505E+00  2.5350348E+01
 9.6772509E+00  2.5299885E+01
 9.6887503E+00  2.5239674E+01
 9.7002506E+00  2.5200384E+01
 9.7117500E+00  2.5194597E+01
 9.7232504E+00  2.5195333E+01
 9.7347507E+00  2.5192404E+01
 9.7462502E+00  2.5239323E+01
 9.7577505E+00  2.5210346E+01
 9.7692509E+00  2.5229692E+01
 9.7807503E+00  2.5153589E+01
 9.7922506E+00  2.5181725E+01
 9.8037500E+00  2.5134451E+01
 9.8152504E+00  2.5065905E+01
 9.8267508E+00  2.4906015E+01
 9.8382502E+00  2.4827906E+01
 9.8497505E+00  2.4745770E+01
 9.8612509E+00  2.4677059E+01
 9.8727503E+00  2.4588142E+01
 9.8842506E+00  2.4526304E+01
 9.8957500E+00  2.4508101E+01
 9.9072504E+00  2.4470606E+01
 9.9187508E+00  2.4489592E+01
 9.9302502E+00  2.4494089E+01
 9.9417505E+00  2.4484236E+01
 9.9532509E+00  2.4428677E+01
 9.9647503E+00  2.4358551E+01
 9.9762506E+00  2.4303772E+01
 9.9877501E+00  2.4269196E+01
 9.9992504E+00  2.4235975E+01
 1.0010751E+01  2.4209824E+01
 1.0022250E+01  2.4189928E+01
 1.0033751E+01  2.4159250E+01
 1.0045251E+01  2.4154837E+01
 1.0056750E+01  2.4140377E+01
 1.0068251E+01  2.4119165E+01
 1.0079750E+01  2.4067533E+01
 1.0091250E+01  2.3985785E+01
 1.0102751E+01  2.3889584E+01
 1.0114250E+01  2.3844946E+01
 1.0125751E+01  2.3873680E+01
 1.0137251E+01  2.3899023E+01
 1.0148750E+01  2.3923136E+01
 1.0160251E+01  2.3895235E+01
 1.0171750E+01  2.3869612E+01
 1.0183250E+01  2.3860804E+01
 1.0194751E+01  2.3807236E+01
 1.0206250E+01  2.3818981E+01
 1.0217751E+01  2.3792673E+01
 1.0229251E+01  2.3790674E+01
 1.0240750E+01  2.3728983E+01
 1.0252251E+01  2.3630270E+01
 1.0263750E+01  2.3563337E+01
 1.0275250E+01  2.3520365E+01
 1.0286751E+01  2.3504892E+01
 1.0298250E+01  2.3483070E+01
 1.0309751E+01  2.3475424E+01
 1.0321251E+01  2.3492390E+01
 1.0332750E+01  2.3494730E+01
 1.0344251E+01  2.3495029E+01
 1.0355750E+01  2.3439981E+01
 1.0367250E+01  2.3379623E+01
 1.0378751E+01  2.3375799E+01
 1.0390250E+01  2.3445951E+01
 1.0401751E+01  2.3475620E+01
 1.0413251E+01  2.3455885E+01
 1.0424750E+01  2.3367821E+01
 1.0436251E+01  2.3373171E+01
 1.0447750E+01  2.3328733E+01
 1.0459250E+01  2.3340349E+01
 1.0470751E+01  2.3300383E+01
 1.0482250E+01  2.3335283E+01
 1.0493751E+01  2.3332500E+01
 1.0505251E+01  2.3321703E+01
 1.0516750E+01  2.3236288E+01
 1.0528251E+01  2.3145796E+01
 1.0539750E+01  2.3098598E+01
 1.0551250E+01  2.3101957E+01
 1.0562751E+01  2.3177462E+01
 1.0574250E+01  2.3096169E+01
 1.0585751E+01  2.3026396E+01
 1.0597251E+01  2.2904919E+01
 1.0608750E+01  2.2911802E+01
 1.0620251E+01  2.2872143E+01
 1.0631750E+01  2.2911612E+01
 1.0643250E+01  2.2958588E+01
 1.0654751E+01  2.3051210E+01
 1.0666250E+01  2.3049255E+01
 1.0677751E+01  2.3049728E+01
 1.0689251E+01  2.3019445E+01
 1.0700750E+01  2.3040243E+01
 1.0712251E+01  2.3070372E+01
 1.0723750E+01  2.3103043E+01
 1.0735250E+01  2.3037386E+01
 1.0746751E+01  2.2983118E+01
 1.0758250E+01  2.2895416E+01
 1.0769751E+01  2.2860666E+01
 1.0781251E+01  2.2791176E+01
 1.0792750E+01  2.2731722E+01
 1.0804251E+01  2.2660860E+01
 1.0815750E+01  2.2614935E+01
 1.0827250E+01  2.2611670E+01
 1.0838751E+01  2.2623964E+01
 1.0850250E+01  2.2653692E+01
 1.0861751E+01  2.2672325E+01
 1.0873251E+01  2.2757860E+01
 1.0884750E+01  2.2728273E+01
 1.0896251E+01  2.2706455E+01
 1.0907750E+01  2.2741631E+01
 1.0919250E+01  2.2762989E+01
 1.0930751E+01  2.2801367E+01
 1.0942250E+01  2.2709440E+01
 1.0953751E+01  2.2717075E+01
 1.0965251E+01  2.2676449E+01
 1.0976750E+01  2.2725496E+01
 1.0988251E+01  2.2704538E+01
 1.0999750E+01  2.2706390E+01
 1.1011250E+01  2.2650866E+01
 1.1022751E+01  2.2635189E+01
 1.1034250E+01  2.2637165E+01
 1.1045751E+01  2.2532845E+01
 1.1057251E+01  2.2436785E+01
 1.1068750E+01  2.2389036E+01
 1.1080251E+01  2.2437475E+01
 1.1091750E+01  2.2495075E+01
 1.1103251E+01  2.2526670E+01
 1.1114751E+01  2.2547781E+01
 1.1126250E+01  2.2596357E+01
 1.1137751E+01  2.2580191E+01
 1.1149251E+01  2.2597033E+01
 1.1160750E+01  2.2575531E+01
 1.1172251E+01  2.2554090E+01
 1.1183750E+01  2.2508280E+01
 1.1195251E+01  2.2480297E+01
 1.1206751E+01  2.2457958E+01
 1.1218250E+01  2.2437664E+01
 1.1229751E+01  2.2430584E+01
 1.1241251E+01  2.2438585E+01
 1.1252750E+01  2.2445267E+01
 1.1264251E+01  2.2460365E+01
 1.1275750E+01  2.2478550E+01
 1.1287251E+01  2.2459492E+01
 1.1298751E+01  2.2447199E+01
 1.1310250E+01  2.2451612E+01
 1.1321751E+01  2.2496157E+01
 1.1333251E+01  2.2484968E+01
 1.1344750E+01  2.2509205E+01
 1.1356251E+01  2.2524561E+01
 1.1367750E+01  2.2584467E+01
 1.1379251E+01  2.2631046E+01
 1.1390751E+01  2.2689011E+01
 1.1402250E+01  2.2807060E+01
 1.1413751E+01  2.2818590E+01
 1.1425251E+01  2.2807123E+01
 1.1436750E+01  2.2742365E+01
 1.1448251E+01  2.2741369E+01
 1.1459750E+01  2.2731422E+01
 1.1471251E+01  2.2751156E+01
 1.1482751E+01  2.2739716E+01
 1.1494250E+01  2.2813248E+01
 1.1505751E+01  2.2974009E+01
 1.1517251E+01  2.3269499E+01
 1.1528750E+01  2.3707193E+01
 1.1540251E+01  2.4396843E+01
 1.1551750E+01  2.5546022E+01
 1.1563251E+01  2.6775433E+01
 1.1574751E+01  2.8772823E+01
 1.1586250E+01  2.9994297E+01
 1.1597751E+01  3.0713612E+01
 1.1609251E+01  3.0068842E+01
 1.1620750E+01  2.8954529E+01
 1.1632251E+01  2.7399714E+01
 1.1643750E+01  2.5837156E+01
 1.1655251E+01  2.4647356E+01
 1.1666751E+01  2.3935905E+01
 1.1678250E+01  2.3346762E+01
 1.1689751E+01  2.3051636E+01
 1.1701251E+01  2.2887814E+01
 1.1712750E+01  2.2806929E+01
 1.1724251E+01  2.2745668E+01
 1.1735750E+01  2.2717747E+01
 1.1747251E+01  2.2719753E+01
 1.1758751E+01  2.2676331E+01
 1.1770250E+01  2.2612875E+01
 1.1781751E+01  2.2596889E+01
 1.1793251E+01  2.2624306E+01
 1.1804750E+01  2.2664900E+01
 1.1816251E+01  2.2676725E+01
 1.1827750E+01  2.2669067E+01
 1.1839251E+01  2.2656292E+01
 1.1850751E+01  2.2578667E+01
 1.1862250E+01  2.2524326E+01
 1.1873751E+01  2.2465715E+01
 1.1885251E+01  2.2498268E+01
 1.1896750E+01  2.2577164E+01
 1.1908251E+01  2.2631889E+01
 1.1919750E+01  2.2709703E+01
 1.1931251E+01  2.2809042E+01
 1.1942751E+01  2.3020311E+01
 1.1954250E+01  2.3384092E+01
 1.1965751E+01  2.3774143E+01
 1.1977251E+01  2.4188414E+01
 1.1988750E+01  2.4304028E+01
 1.2000251E+01  2.4247473E+01
 1.2011750E+01  2.4106531E+01
 1.2023251E+01  2.3914366E+01
 1.2034751E+01  2.3938034E+01
 1.2046250E+01  2.3890263E+01
 1.2057751E+01  2.4132841E+01
 1.2069251E+01  2.4494865E+01
 1.2080750E+01  2.5117378E+01
 1.2092251E+01  2.6183083E+01
 1.2103750E+01  2.6689573E+01
 1.2115251E+01  2.7308575E+01
 1.2126751E+01  2.7268024E+01
 1.2138250E+01  2.7101080E+01
 1.2149751E+01  2.6255121E+01
 1.2161251E+01  2.5383289E+01
 1.2172750E+01  2.4497173E+01
 1.2184251E+01  2.3812105E+01
 1.2195750E+01  2.3174866E+01
 1.2207251E+01  2.2904802E+01
 1.2218751E+01  2.2722359E+01
 1.2230250E+01  2.2600016E+01
 1.2241751E+01  2.2546196E+01
 1.2253251E+01  2.2513853E+01
 1.2264750E+01  2.2533234E+01
 1.2276251E+01  2.2577246E+01
 1.2287750E+01  2.2606680E+01
 1.2299251E+01  2.2601206E+01
 1.2310751E+01  2.2602579E+01
 1.2322250E+01  2.2596489E+01
 1.2333751E+01  2.2594179E+01
 1.2345250E+01  2.2578566E+01
 1.2356750E+01  2.2553764E+01
 1.2368251E+01  2.2572504E+01
 1.2379750E+01  2.2586893E+01
 1.2391251E+01  2.2634172E+01
 1.2402751E+01  2.2633467E+01
 1.2414250E+01  2.2623636E+01
 1.2425751E+01  2.2596478E+01
 1.2437250E+01  2.2577888E+01
 1.2448750E+01  2.2521200E+01
 1.2460251E+01  2.2520136E+01
 1.2471750E+01  2.2531639E+01
 1.2483251E+01  2.2578505E+01
 1.2494751E+01  2.2610744E+01
 1.2506250E+01  2.2634544E+01
 1.2517751E+01  2.2660196E+01
 1.2529250E+01  2.2672792E+01
 1.2540751E+01  2.2677872E+01
 1.2552251E+01  2.2673943E+01
 1.2563750E+01  2.2659836E+01
 1.2575251E+01  2.2679243E+01
 1.2586751E+01  2.2729620E+01
 1.2598250E+01  2.2742128E+01
 1.2609751E+01  2.2760668E+01
 1.2621250E+01  2.2760536E+01
 1.2632751E+01  2.2776928E+01
 1.2644251E+01  2.2731037E+01
 1.2655750E+01  2.2733749E+01
 1.2667251E+01  2.2711618E+01
 1.2678751E+01  2.2743214E+01
 1.2690250E+01  2.2770353E+01
 1.2701751E+01  2.2847876E+01
 1.2713250E+01  2.2926764E+01
 1.2724751E+01  2.3013336E+01
 1.2736251E+01  2.3080750E+01
 1.2747750E+01  2.3064146E+01
 1.2759251E+01  2.3060005E+01
 1.2770751E+01  2.3056023E+01
 1.2782250E+01  2.3166948E+01
 1.2793751E+01  2.3167500E+01
 1.2805250E+01  2.3232140E+01
 1.2816751E+01  2.3243366E+01
 1.2828251E+01  2.3275835E+01
 1.2839750E+01  2.3294661E+01
 1.2851251E+01  2.3333233E+01
 1.2862751E+01  2.3366787E+01
 1.2874250E+01  2.3429323E+01
 1.2885751E+01  2.3453594E+01
 1.2897250E+01  2.3534843E+01
 1.2908751E+01  2.3513689E+01
 1.2920251E+01  2.3554901E+01
 1.2931750E+01  2.3563917E+01
 1.2943251E+01  2.3624649E+01
 1.2954751E+01  2.3689819E+01
 1.2966250E+01  2.3782202E+01
 1.2977751E+01  2.3858942E+01
 1.2989250E+01  2.3937836E+01
 1.3000751E+01  2.4006918E+01
 1.3012251E+01  2.4085180E+01
 1.3023750E+01  2.4110785E+01
 1.3035251E+01  2.4218344E+01
 1.3046751E+01  2.4315273E+01
 1.3058250E+01  2.4440773E+01
 1.3069751E+01  2.4464754E+01
 1.3081250E+01  2.4539576E+01
 1.3092751E+01  2.4610582E+01
 1.3104251E+01  2.4768692E+01
 1.3115750E+01  2.4858923E+01
 1.3127251E+01  2.4991770E+01
 1.3138751E+01  2.5041428E+01
 1.3150250E+01  2.5164766E+01
 1.3161751E+01  2.5208517E+01
 1.3173250E+01  2.5277225E+01
 1.3184751E+01  2.5370979E+01
 1.3196251E+01  2.5517380E+01
 1.3207750E+01  2.5749586E+01
 1.3219251E+01  2.5932484E+01
 1.3230751E+01  2.6182184E+01
 1.3242250E+01  2.6364309E+01
 1.3253751E+01  2.6495218E+01
 1.3265250E+01  2.6595360E+01
 1.3276751E+01  2.6690147E+01
 1.3288251E+01  2.6851801E+01
 1.3299750E+01  2.7007153E+01
 1.3311251E+01  2.7121805E+01
 1.3322751E+01  2.7202084E+01
 1.3334250E+01  2.7330715E+01
 1.3345751E+01  2.7462654E+01
 1.3357250E+01  2.7646389E+01
 1.3368751E+01  2.7763557E+01
 1.3380251E+01  2.7932556E+01
 1.3391750E+01  2.8068460E+01
 1.3403251E+01  2.8221754E+01
 1.3414751E+01  2.8322186E+01
 1.3426250E+01  2.8388836E+01
 1.3437751E+01  2.8514204E+01
 1.3449250E+01  2.8650341E+01
 1.3460751E+01  2.8802483E+01
 1.3472251E+01  2.8928045E+01
 1.3483750E+01  2.9098160E+01
 1.3495251E+01  2.9211243E+01
 1.3506751E+01  2.9296835E+01
 1.3518250E+01  2.9341642E+01
 1.3529751E+01  2.9432154E+01
 1.3541250E+01  2.9487890E+01
 1.3552751E+01  2.9591171E+01
 1.3564251E+01  2.9642498E+01
 1.3575750E+01  2.9724522E+01
 1.3587251E+01  2.9741856E+01
 1.3598751E+01  2.9761276E+01
 1.3610250E+01  2.9708282E+01
 1.3621751E+01  2.9664249E+01
 1.3633250E+01  2.9669029E+01
 1.3644751E+01  2.9664301E+01
 1.3656251E+01  2.9737888E+01
 1.3667750E+01  2.9756067E+01
 1.3679251E+01  2.9807367E+01
 1.3690751E+01  2.9767162E+01
 1.3702250E+01  2.9749859E+01
 1.3713751E+01  2.9750504E+01
 1.3725250E+01  2.9714529E+01
 1.3736751E+01  2.9682083E+01
 1.3748251E+01  2.9604675E+01
 1.3759750E+01  2.9631611E+01
 1.3771251E+01  2.9597088E+01
 1.3782751E+01  2.9642941E+01
 1.3794250E+01  2.9633110E+01
 1.3805751E+01  2.9682838E+01
 1.3817250E+01  2.9763838E+01
 1.3828751E+01  2.9898767E+01
 1.3840251E+01  3.0143646E+01
 1.3851750E+01  3.0435677E+01
 1.3863251E+01  3.0854532E+01
 1.3874751E+01  3.1668673E+01
 1.3886250E+01  3.3119408E+01
 1.3897751E+01  3.5622932E+01
 1.3909250E+01  3.9233746E+01
 1.3920751E+01  4.3709469E+01
 1.3932251E+01  4.8797295E+01
 1.3943750E+01  5.2199455E+01
 1.3955251E+01  5.3850540E+01
 1.3966751E+01  5.2282887E+01
 1.3978251E+01  4.9308346E+01
 1.3989751E+01  4.4748371E+01
 1.4001250E+01  4.1094105E+01
 1.4012751E+01  3.6944267E+01
 1.4024251E+01  3.4098965E+01
 1.4035750E+01  3.1674406E+01
 1.4047251E+01  3.0178072E+01
 1.4058751E+01  2.9250114E+01
 1.4070251E+01  2.8742004E+01
 1.4081751E+01  2.8386835E+01
 1.4093250E+01  2.8162224E+01
 1.4104751E+01  2.7970982E+01
 1.4116251E+01  2.7851316E+01
 1.4127750E+01  2.7693583E+01
 1.4139251E+01  2.7561207E+01
 1.4150751E+01  2.7439405E+01
 1.4162251E+01  2.7333158E+01
 1.4173751E+01  2.7226149E+01
 1.4185250E+01  2.7113394E+01
 1.4196751E+01  2.7068886E+01
 1.4208251E+01  2.6977036E+01
 1.4219750E+01  2.6908472E+01
 1.4231251E+01  2.6751461E+01
 1.4242751E+01  2.6686275E+01
 1.4254251E+01  2.6605993E+01
 1.4265751E+01  2.6548044E+01
 1.4277250E+01  2.6447443E+01
 1.4288751E+01  2.6379503E+01
 1.4300251E+01  2.6322395E+01
 1.4311750E+01  2.6324892E+01
 1.4323251E+01  2.6327671E+01
 1.4334751E+01  2.6348856E+01
 1.4346251E+01  2.6313457E+01
 1.4357751E+01  2.6299376E+01
 1.4369250E+01  2.6291868E+01
 1.4380751E+01  2.6216776E+01
 1.4392251E+01  2.6124996E+01
 1.4403750E+01  2.5981728E+01
 1.4415251E+01  2.5961437E+01
 1.4426751E+01  2.5913342E+01
 1.4438251E+01  2.5935547E+01
 1.4449751E+01  2.5961967E+01
 1.4461250E+01  2.5953211E+01
 1.4472751E+01  2.5931957E+01
 1.4484251E+01  2.5850561E+01
 1.4495750E+01  2.5782234E+01
 1.4507251E+01  2.5710045E+01
 1.4518751E+01  2.5650185E+01
 1.4530251E+01  2.5637445E+01
 1.4541751E+01  2.5626291E+01
 1.4553250E+01  2.5673872E+01
 1.4564751E+01  2.5682739E+01
 1.4576251E+01  2.5724077E+01
 1.4587750E+01  2.5661459E+01
 1.4599251E+01  2.5660767E+01
 1.4610751E+01  2.5574741E+01
 1.4622251E+01  2.5541941E+01
 1.4633751E+01  2.5486414E+01
 1.4645250E+01  2.5483295E+01
 1.4656751E+01  2.5480064E+01
 1.4668251E+01  2.5435585E+01
 1.4679750E+01  2.5378618E+01
 1.4691251E+01  2.5443596E+01
 1.4702751E+01  2.5528770E+01
 1.4714251E+01  2.5861969E+01
 1.4725751E+01  2.6063429E+01
 1.4737250E+01  2.5970896E+01
 1.4748751E+01  2.5598547E+01
 1.4760251E+01  2.5269238E+01
 1.4771750E+01  2.5187696E+01
 1.4783251E+01  2.5098419E+01
 1.4794751E+01  2.5023949E+01
 1.4806251E+01  2.4999508E+01
 1.4817751E+01  2.4950893E+01
 1.4829250E+01  2.4938992E+01
 1.4840751E+01  2.4928131E+01
 1.4852251E+01  2.4922960E+01
 1.4863750E+01  2.4917870E+01
 1.4875251E+01  2.4886744E+01
 1.4886751E+01  2.4894543E+01
 1.4898251E+01  2.4921547E+01
 1.4909751E+01  2.4925385E+01
 1.4921250E+01  2.4913271E+01
 1.4932751E+01  2.4861534E+01
 1.4944251E+01  2.4874392E+01
 1.4955750E+01  2.4877272E+01
 1.4967251E+01  2.4911291E+01
 1.4978751E+01  2.4964970E+01
 1.4990251E+01  2.4957508E+01
 1.5001751E+01  2.4975245E+01
 1.5013250E+01  2.4995392E+01
 1.5024751E+01  2.5062840E+01
 1.5036251E+01  2.5059082E+01
 1.5047750E+01  2.5058432E+01
 1.5059251E+01  2.5060732E+01
 1.5070751E+01  2.5162779E+01
 1.5082251E+01  2.5252895E+01
 1.5093751E+01  2.5431540E+01
 1.5105250E+01  2.5594286E+01
 1.5116751E+01  2.5799273E+01
 1.5128251E+01  2.6153080E+01
 1.5139750E+01  2.6784792E+01
 1.5151251E+01  2.8112385E+01
 1.5162751E+01  3.0304716E+01
 1.5174251E+01  3.3479156E+01
 1.5185751E+01  3.6617386E+01
 1.5197250E+01  3.8741070E+01
 1.5208751E+01  3.9233021E+01
 1.5220251E+01  3.8173561E+01
 1.5231750E+01  3.5849159E+01
 1.5243251E+01  3.3018230E+01
 1.5254751E+01  3.0329447E+01
 1.5266251E+01  2.8220898E+01
 1.5277751E+01  2.6682886E+01
 1.5289250E+01  2.5911118E+01
 1.5300751E+01  2.5533405E+01
 1.5312251E+01  2.5297060E+01
 1.5323750E+01  2.5151478E+01
 1.5335251E+01  2.5050901E+01
 1.5346751E+01  2.5000135E+01
 1.5358251E+01  2.4924202E+01
 1.5369751E+01  2.4954012E+01
 1.5381250E+01  2.4966759E+01
 1.5392751E+01  2.5107967E+01
 1.5404251E+01  2.5093464E+01
 1.5415751E+01  2.5092361E+01
 1.5427251E+01  2.4907843E+01
 1.5438751E+01  2.4862598E+01
 1.5450251E+01  2.4747913E+01
 1.5461751E+01  2.4799013E+01
 1.5473250E+01  2.4778955E+01
 1.5484751E+01  2.4837086E+01
 1.5496251E+01  2.4894920E+01
 1.5507751E+01  2.4949986E+01
 1.5519251E+01  2.4999372E+01
 1.5530751E+01  2.4938982E+01
 1.5542251E+01  2.4842707E+01
 1.5553751E+01  2.4689322E+01
 1.5565250E+01  2.4589058E+01
 1.5576751E+01  2.4555740E+01
 1.5588251E+01  2.4577797E+01
 1.5599751E+01  2.4608433E+01
 1.5611251E+01  2.4619467E+01
 1.5622751E+01  2.4642714E+01
 1.5634251E+01  2.4657673E+01
 1.5645751E+01  2.4641830E+01
 1.5657250E+01  2.4604095E+01
 1.5668751E+01  2.4575058E+01
 1.5680251E+01  2.4525824E+01
 1.5691751E+01  2.4515596E+01
 1.5703251E+01  2.4515429E+01
 1.5714751E+01  2.4569456E+01
 1.5726251E+01  2.4607803E+01
 1.5737751E+01  2.4575525E+01
 1.5749250E+01  2.4569702E+01
 1.5760751E+01  2.4555557E+01
 1.5772251E+01  2.4636005E+01
 1.5783751E+01  2.4598402E+01
 1.5795251E+01  2.4600258E+01
 1.5806751E+01  2.4621416E+01
 1.5818251E+01  2.4647482E+01
 1.5829751E+01  2.4669395E+01
 1.5841250E+01  2.4698151E+01
 1.5852751E+01  2.4723967E+01
 1.5864251E+01  2.4682966E+01
 1.5875751E+01  2.4659296E+01
 1.5887251E+01  2.4669909E+01
 1.5898750E+01  2.4608524E+01
 1.5910251E+01  2.4602724E+01
 1.5921751E+01  2.4585274E+01
 1.5933250E+01  2.4659992E+01
 1.5944751E+01  2.4601505E+01
 1.5956251E+01  2.4609489E+01
 1.5967751E+01  2.4602434E+01
 1.5979251E+01  2.4646769E+01
 1.5990750E+01  2.4681787E+01
 1.6002251E+01  2.4654657E+01
 1.6013750E+01  2.4676853E+01
 1.6025251E+01  2.4663738E+01
 1.6036751E+01  2.4750227E+01
 1.6048250E+01  2.4786263E+01
 1.6059752E+01  2.4859354E+01
 1.6071251E+01  2.4849611E+01
 1.6082750E+01  2.4943008E+01
 1.6094252E+01  2.4961884E+01
 1.6105751E+01  2.5020914E+01
 1.6117250E+01  2.4934113E+01
 1.6128750E+01  2.4887329E+01
 1.6140251E+01  2.4837154E+01
 1.6151751E+01  2.4818123E+01
 1.6163250E+01  2.4878452E+01
 1.6174751E+01  2.4829700E+01
 1.6186251E+01  2.5043242E+01
 1.6197750E+01  2.4982491E+01
 1.6209251E+01  2.5447212E+01
 1.6220751E+01  2.5438416E+01
 1.6232250E+01  2.5978159E+01
 1.6243752E+01  2.6164066E+01
 1.6255251E+01  2.6497030E+01
 1.6266750E+01  2.6713655E+01
 1.6278252E+01  2.6360231E+01
 1.6289751E+01  2.6366394E+01
 1.6301250E+01  2.5530151E+01
 1.6312750E+01  2.5540127E+01
 1.6324251E+01  2.5000252E+01
 1.6335751E+01  2.5056101E+01
 1.6347250E+01  2.4778063E+01
 1.6358751E+01  2.4700861E+01
 1.6370251E+01  2.4647802E+01
 1.6381750E+01  2.4652157E+01
 1.6393251E+01  2.4723133E+01
 1.6404751E+01  2.4774681E+01
 1.6416250E+01  2.4828362E+01
 1.6427752E+01  2.4795143E+01
 1.6439251E+01  2.4770628E+01
 1.6450750E+01  2.4725126E+01
 1.6462252E+01  2.4699318E+01
 1.6473751E+01  2.4687405E+01
 1.6485250E+01  2.4774567E+01
 1.6496750E+01  2.4777203E+01
 1.6508251E+01  2.4739813E+01
 1.6519751E+01  2.4669502E+01
 1.6531250E+01  2.4649450E+01
 1.6542751E+01  2.4652628E+01
 1.6554251E+01  2.4617714E+01
 1.6565750E+01  2.4613543E+01
 1.6577251E+01  2.4576437E+01
 1.6588751E+01  2.4568245E+01
 1.6600250E+01  2.4557022E+01
 1.6611752E+01  2.4569601E+01
 1.6623251E+01  2.4474771E+01
 1.6634750E+01  2.4470217E+01
 1.6646252E+01  2.4407509E+01
 1.6657751E+01  2.4452232E+01
 1.6669250E+01  2.4439077E+01
 1.6680750E+01  2.4505045E+01
 1.6692251E+01  2.4519344E+01
 1.6703751E+01  2.4541536E+01
 1.6715250E+01  2.4578938E+01
 1.6726751E+01  2.4609219E+01
 1.6738251E+01  2.4556719E+01
 1.6749750E+01  2.4529839E+01
 1.6761251E+01  2.4487057E+01
 1.6772751E+01  2.4500740E+01
 1.6784250E+01  2.4473019E+01
 1.6795752E+01  2.4483210E+01
 1.6807251E+01  2.4497707E+01
 1.6818750E+01  2.4494854E+01
 1.6830252E+01  2.4496876E+01
 1.6841751E+01  2.4474514E+01
 1.6853251E+01  2.4471075E+01
 1.6864750E+01  2.4464823E+01
 1.6876251E+01  2.4440723E+01
 1.6887751E+01  2.4438179E+01
 1.6899250E+01  2.4397009E+01
 1.6910751E+01  2.4382166E+01
 1.6922251E+01  2.4366964E+01
 1.6933750E+01  2.4385942E+01
 1.6945251E+01  2.4403025E+01
 1.6956751E+01  2.4390198E+01
 1.6968250E+01  2.4382267E+01
 1.6979752E+01  2.4389963E+01
 1.6991251E+01  2.4370033E+01
 1.7002750E+01  2.4315519E+01
 1.7014252E+01  2.4297915E+01
 1.7025751E+01  2.4295614E+01
 1.7037251E+01  2.4298952E+01
 1.7048750E+01  2.4227222E+01
 1.7060251E+01  2.4159922E+01
 1.7071751E+01  2.4121983E+01
 1.7083250E+01  2.4156506E+01
 1.7094751E+01  2.4152346E+01
 1.7106251E+01  2.4139814E+01
 1.7117750E+01  2.4094395E+01
 1.7129251E+01  2.4151789E+01
 1.7140751E+01  2.4255934E+01
 1.7152250E+01  2.4283451E+01
 1.7163752E+01  2.4336155E+01
 1.7175251E+01  2.4341022E+01
 1.7186750E+01  2.4360710E+01
 1.7198252E+01  2.4352234E+01
 1.7209751E+01  2.4331560E+01
 1.7221251E+01  2.4327570E+01
 1.7232750E+01  2.4261843E+01
 1.7244251E+01  2.4253325E+01
 1.7255751E+01  2.4172869E+01
 1.7267250E+01  2.4174002E+01
 1.7278751E+01  2.4155098E+01
 1.7290251E+01  2.4177349E+01
 1.7301750E+01  2.4188700E+01
 1.7313251E+01  2.4124794E+01
 1.7324751E+01  2.4128258E+01
 1.7336250E+01  2.4087519E+01
 1.7347752E+01  2.4079725E+01
 1.7359251E+01  2.4058273E+01
 1.7370750E+01  2.4060961E+01
 1.7382252E+01  2.4121229E+01
 1.7393751E+01  2.4143835E+01
 1.7405251E+01  2.4121429E+01
 1.7416750E+01  2.4050425E+01
 1.7428251E+01  2.3989494E+01
 1.7439751E+01  2.3975515E+01
 1.7451250E+01  2.3993509E+01
 1.7462751E+01  2.4029148E+01
 1.7474251E+01  2.4046999E+01
 1.7485750E+01  2.4101700E+01
 1.7497252E+01  2.4076532E+01
 1.7508751E+01  2.4069199E+01
 1.7520250E+01  2.4013510E+01
 1.7531752E+01  2.4020584E+01
 1.7543251E+01  2.4022295E+01
 1.7554750E+01  2.4013515E+01
 1.7566252E+01  2.3997078E+01
 1.7577751E+01  2.3960245E+01
 1.7589251E+01  2.3914490E+01
 1.7600750E+01  2.3937342E+01
 1.7612251E+01  2.3985588E+01
 1.7623751E+01  2.4085672E+01
 1.7635250E+01  2.4089197E+01
 1.7646751E+01  2.4048447E+01
 1.7658251E+01  2.3955801E+01
 1.7669750E+01  2.3900700E+01
 1.7681252E+01  2.3901808E+01
 1.7692751E+01  2.3940474E+01
 1.7704250E+01  2.3964073E+01
 1.7715752E+01  2.3986748E+01
 1.7727251E+01  2.3987984E+01
 1.7738750E+01  2.3998266E+01
 1.7750252E+01  2.3993261E+01
 1.7761751E+01  2.4052063E+01
 1.7773251E+01  2.4127420E+01
 1.7784750E+01  2.4217194E+01
 1.7796251E+01  2.4294558E+01
 1.7807751E+01  2.4293196E+01
 1.7819250E+01  2.4232237E+01
 1.7830751E+01  2.4154123E+01
 1.7842251E+01  2.4098131E+01
 1.7853750E+01  2.4066359E+01
 1.7865252E+01  2.4066116E+01
 1.7876751E+01  2.4101492E+01
 1.7888250E+01  2.4082092E+01
 1.7899752E+01  2.4142715E+01
 1.7911251E+01  2.4215372E+01
 1.7922750E+01  2.4336807E+01
 1.7934252E+01  2.4397760E+01
 1.7945751E+01  2.4485338E+01
 1.7957251E+01  2.4649790E+01
 1.7968750E+01  2.4877811E+01
 1.7980251E+01  2.5182095E+01
 1.7991751E+01  2.5604042E+01
 1.8003250E+01  2.6106010E+01
 1.8014751E+01  2.6791096E+01
 1.8026251E+01  2.7517120E+01
 1.8037750E+01  2.8664146E+01
 1.8049252E+01  3.0151640E+01
 1.8060751E+01  3.2314041E+01
 1.8072250E+01  3.5722263E+01
 1.8083752E+01  3.8930935E+01
 1.8095251E+01  4.0937584E+01
 1.8106750E+01  4.1589031E+01
 1.8118252E+01  4.0226978E+01
 1.8129751E+01  3.7772427E+01
 1.8141251E+01  3.3820827E+01
 1.8152750E+01  3.1458755E+01
 1.8164251E+01  2.8826202E+01
 1.8175751E+01  2.7219303E+01
 1.8187250E+01  2.6155165E+01
 1.8198751E+01  2.5439159E+01
 1.8210251E+01  2.5098917E+01
 1.8221750E+01  2.4779650E+01
 1.8233252E+01  2.4642675E+01
 1.8244751E+01  2.4558489E+01
 1.8256250E+01  2.4510502E+01
 1.8267752E+01  2.4465448E+01
 1.8279251E+01  2.4534616E+01
 1.8290751E+01  2.4497442E+01
 1.8302252E+01  2.4837444E+01
 1.8313751E+01  2.4916861E+01
 1.8325251E+01  2.5002958E+01
 1.8336750E+01  2.4765352E+01
 1.8348251E+01  2.4477636E+01
 1.8359751E+01  2.4260986E+01
 1.8371250E+01  2.4068180E+01
 1.8382751E+01  2.3984446E+01
 1.8394251E+01  2.3930956E+01
 1.8405750E+01  2.3942924E+01
 1.8417252E+01  2.3961823E+01
 1.8428751E+01  2.3950541E+01
 1.8440250E+01  2.3952477E+01
 1.8451752E+01  2.3934645E+01
 1.8463251E+01  2.3945612E+01
 1.8474751E+01  2.3873333E+01
 1.8486252E+01  2.3799442E+01
 1.8497751E+01  2.3750217E+01
 1.8509251E+01  2.3793201E+01
 1.8520750E+01  2.3786690E+01
 1.8532251E+01  2.3783979E+01
 1.8543751E+01  2.3743319E+01
 1.8555250E+01  2.3746582E+01
 1.8566751E+01  2.3752626E+01
 1.8578251E+01  2.3754267E+01
 1.8589750E+01  2.3772087E+01
 1.8601252E+01  2.3770466E+01
 1.8612751E+01  2.3720076E+01
 1.8624250E+01  2.3687126E+01
 1.8635752E+01  2.3634699E+01
 1.8647251E+01  2.3570417E+01
 1.8658751E+01  2.3516087E+01
 1.8670252E+01  2.3495155E+01
 1.8681751E+01  2.3604141E+01
 1.8693251E+01  2.3699373E+01
 1.8704750E+01  2.3715698E+01
 1.8716251E+01  2.3633282E+01
 1.8727751E+01  2.3596375E+01
 1.8739250E+01  2.3624331E+01
 1.8750751E+01  2.3605154E+01
 1.8762251E+01  2.3612108E+01
 1.8773750E+01  2.3582214E+01
 1.8785252E+01  2.3595877E+01
 1.8796751E+01  2.3626600E+01
 1.8808250E+01  2.3617311E+01
 1.8819752E+01  2.3639135E+01
 1.8831251E+01  2.3577023E+01
 1.8842751E+01  2.3558807E+01
 1.8854252E+01  2.3499447E+01
 1.8865751E+01  2.3518499E+01
 1.8877251E+01  2.3520855E+01
 1.8888750E+01  2.3489725E+01
 1.8900251E+01  2.3512835E+01
 1.8911751E+01  2.3525183E+01
 1.8923250E+01  2.3567635E+01
 1.8934752E+01  2.3572052E+01
 1.8946251E+01  2.3643066E+01
 1.8957750E+01  2.3652922E+01
 1.8969252E+01  2.3634439E+01
 1.8980751E+01  2.3588329E+01
 1.8992250E+01  2.3567205E+01
 1.9003752E+01  2.3508051E+01
 1.9015251E+01  2.3522799E+01
 1.9026751E+01  2.3545778E+01
 1.9038252E+01  2.3563707E+01
 1.9049751E+01  2.3547720E+01
 1.9061251E+01  2.3562851E+01
 1.9072750E+01  2.3603426E+01
 1.9084251E+01  2.3617233E+01
 1.9095751E+01  2.3615320E+01
 1.9107250E+01  2.3596485E+01
 1.9118752E+01  2.3581760E+01
 1.9130251E+01  2.3594778E+01
 1.9141750E+01  2.3613119E+01
 1.9153252E+01  2.3606316E+01
 1.9164751E+01  2.3566389E+01
 1.9176250E+01  2.3500687E+01
 1.9187752E+01  2.3480341E+01
 1.9199251E+01  2.3488342E+01
 1.9210751E+01  2.3539787E+01
 1.9222252E+01  2.3555799E+01
 1.9233751E+01  2.3614004E+01
 1.9245251E+01  2.3681492E+01
 1.9256750E+01  2.3751333E+01
 1.9268251E+01  2.3776686E+01
 1.9279751E+01  2.3735607E+01
 1.9291250E+01  2.3747465E+01
 1.9302752E+01  2.3723394E+01
 1.9314251E+01  2.3726910E+01
 1.9325750E+01  2.3690083E+01
 1.9337252E+01  2.3699286E+01
 1.9348751E+01  2.3681112E+01
 1.9360250E+01  2.3661139E+01
 1.9371752E+01  2.3663658E+01
 1.9383251E+01  2.3672476E+01
 1.9394751E+01  2.3713560E+01
 1.9406250E+01  2.3732229E+01
 1.9417751E+01  2.3755152E+01
 1.9429251E+01  2.3795128E+01
 1.9440750E+01  2.3829859E+01
 1.9452251E+01  2.3822918E+01
 1.9463751E+01  2.3795057E+01
 1.9475250E+01  2.3794394E+01
 1.9486752E+01  2.3849096E+01
 1.9498251E+01  2.3843758E+01
 1.9509750E+01  2.3877216E+01
 1.9521252E+01  2.3924892E+01
 1.9532751E+01  2.3974501E+01
 1.9544250E+01  2.4035673E+01
 1.9555752E+01  2.3990929E+01
 1.9567251E+01  2.4003883E+01
 1.9578751E+01  2.4018974E+01
 1.9590250E+01  2.4094215E+01
 1.9601751E+01  2.4170485E+01
 1.9613251E+01  2.4283510E+01
 1.9624750E+01  2.4463892E+01
 1.9636251E+01  2.4708076E+01
 1.9647751E+01  2.4981764E+01
 1.9659250E+01  2.5467537E+01
 1.9670752E+01  2.6140308E+01
 1.9682251E+01  2.6845297E+01
 1.9693750E+01  2.7946627E+01
 1.9705252E+01  2.8768118E+01
 1.9716751E+01  2.9770630E+01
 1.9728251E+01  3.0137537E+01
 1.9739752E+01  3.0043341E+01
 1.9751251E+01  2.9485245E+01
 1.9762751E+01  2.8557138E+01
 1.9774250E+01  2.7860430E+01
 1.9785751E+01  2.7074947E+01
 1.9797251E+01  2.7002432E+01
 1.9808750E+01  2.7046717E+01
 1.9820251E+01  2.7603100E+01
 1.9831751E+01  2.8934422E+01
 1.9843250E+01  2.9373274E+01
 1.9854752E+01  3.2005009E+01
 1.9866251E+01  3.2566185E+01
 1.9877750E+01  3.3360664E+01
 1.9889252E+01  3.2284824E+01
 1.9900751E+01  3.1426426E+01
 1.9912251E+01  3.0045595E+01
 1.9923752E+01  2.7701075E+01
 1.9935251E+01  2.7134649E+01
 1.9946751E+01  2.5561480E+01
 1.9958250E+01  2.5125637E+01
 1.9969751E+01  2.4854584E+01
 1.9981251E+01  2.4545950E+01
 1.9992750E+01  2.4544250E+01
 2.0004251E+01  2.4364368E+01
 2.0015751E+01  2.4297831E+01
 2.0027250E+01  2.4190901E+01
 2.0038752E+01  2.4125166E+01
 2.0050251E+01  2.4139261E+01
 2.0061750E+01  2.4049908E+01
 2.0073252E+01  2.4034805E+01
 2.0084751E+01  2.3968500E+01
 2.0096251E+01  2.3969976E+01
 2.0107752E+01  2.3964663E+01
 2.0119251E+01  2.3935120E+01
 2.0130751E+01  2.3888628E+01
 2.0142250E+01  2.3843199E+01
 2.0153751E+01  2.3859512E+01
 2.0165251E+01  2.3895994E+01
 2.0176750E+01  2.3911604E+01
 2.0188251E+01  2.3940933E+01
 2.0199751E+01  2.3912785E+01
 2.0211250E+01  2.3905937E+01
 2.0222752E+01  2.3917253E+01
 2.0234251E+01  2.3945255E+01
 2.0245750E+01  2.3934910E+01
 2.0257252E+01  2.3902723E+01
 2.0268751E+01  2.3847387E+01
 2.0280251E+01  2.3840033E+01
 2.0291752E+01  2.3817545E+01
 2.0303251E+01  2.3779974E+01
 2.0314751E+01  2.3749620E+01
 2.0326250E+01  2.3754070E+01
 2.0337751E+01  2.3776022E+01
 2.0349251E+01  2.3789280E+01
 2.0360750E+01  2.3810539E+01
 2.0372252E+01  2.3813425E+01
 2.0383751E+01  2.3798605E+01
 2.0395250E+01  2.3834255E+01
 2.0406752E+01  2.3873365E+01
 2.0418251E+01  2.3950567E+01
 2.0429750E+01  2.3992594E+01
 2.0441252E+01  2.4012936E+01
 2.0452751E+01  2.4000313E+01
 2.0464251E+01  2.3977819E+01
 2.0475752E+01  2.3955534E+01
 2.0487251E+01  2.3887747E+01
 2.0498751E+01  2.3824652E+01
 2.0510250E+01  2.3800613E+01
 2.0521751E+01  2.3794186E+01
 2.0533251E+01  2.3790602E+01
 2.0544750E+01  2.3843147E+01
 2.0556252E+01  2.3915150E+01
 2.0567751E+01  2.3925331E+01
 2.0579250E+01  2.3907866E+01
 2.0590752E+01  2.3896515E+01
 2.0602251E+01  2.3876640E+01
 2.0613750E+01  2.3888355E+01
 2.0625252E+01  2.3950256E+01
 2.0636751E+01  2.4075285E+01
 2.0648251E+01  2.4111761E+01
 2.0659752E+01  2.4141018E+01
 2.0671251E+01  2.4153412E+01
 2.0682751E+01  2.4186020E+01
 2.0694250E+01  2.4298677E+01
 2.0705751E+01  2.4518696E+01
 2.0717251E+01  2.4844622E+01
 2.0728750E+01  2.5214218E+01
 2.0740252E+01  2.5668791E+01
 2.0751751E+01  2.6043280E+01
 2.0763250E+01  2.6332445E+01
 2.0774752E+01  2.6457478E+01
 2.0786251E+01  2.6308899E+01
 2.0797750E+01  2.6017956E+01
 2.0809252E+01  2.5619946E+01
 2.0820751E+01  2.5176718E+01
 2.0832251E+01  2.4802397E+01
 2.0843752E+01  2.4498753E+01
 2.0855251E+01  2.4342241E+01
 2.0866751E+01  2.4199400E+01
 2.0878250E+01  2.4116467E+01
 2.0889751E+01  2.4066393E+01
 2.0901251E+01  2.4078341E+01
 2.0912750E+01  2.4036425E+01
 2.0924252E+01  2.4010912E+01
 2.0935751E+01  2.4007442E+01
 2.0947250E+01  2.4018326E+01
 2.0958752E+01  2.3966352E+01
 2.0970251E+01  2.3911509E+01
 2.0981750E+01  2.3916000E+01
 2.0993252E+01  2.3914303E+01
 2.1004751E+01  2.3908800E+01
 2.1016251E+01  2.3949463E+01
 2.1027752E+01  2.4102688E+01
 2.1039251E+01  2.4235432E+01
 2.1050751E+01  2.4233362E+01
 2.1062250E+01  2.4159397E+01
 2.1073751E+01  2.4132420E+01
 2.1085251E+01  2.4062265E+01
 2.1096750E+01  2.3931194E+01
 2.1108252E+01  2.3880959E+01
 2.1119751E+01  2.3871870E+01
 2.1131250E+01  2.3865124E+01
 2.1142752E+01  2.3806641E+01
 2.1154251E+01  2.3816219E+01
 2.1165751E+01  2.3868158E+01
 2.1177252E+01  2.3973743E+01
 2.1188751E+01  2.4016111E+01
 2.1200251E+01  2.4028231E+01
 2.1211752E+01  2.4036928E+01
 2.1223251E+01  2.4008541E+01
 2.1234751E+01  2.3943314E+01
 2.1246250E+01  2.3945097E+01
 2.1257751E+01  2.3998543E+01
 2.1269251E+01  2.4026072E+01
 2.1280750E+01  2.4001560E+01
 2.1292252E+01  2.4002974E+01
 2.1303751E+01  2.3961445E+01
 2.1315250E+01  2.3915276E+01
 2.1326752E+01  2.3916142E+01
 2.1338251E+01  2.3921179E+01
 2.1349751E+01  2.3917877E+01
 2.1361252E+01  2.3908581E+01
 2.1372751E+01  2.3942001E+01
 2.1384251E+01  2.3957525E+01
 2.1395752E+01  2.3969927E+01
 2.1407251E+01  2.4013823E+01
 2.1418751E+01  2.4057085E+01
 2.1430250E+01  2.4050913E+01
 2.1441751E+01  2.4022694E+01
 2.1453251E+01  2.3995064E+01
 2.1464750E+01  2.3982042E+01
 2.1476252E+01  2.3965370E+01
 2.1487751E+01  2.3988434E+01
 2.1499250E+01  2.3982637E+01
 2.1510752E+01  2.3990261E+01
 2.1522251E+01  2.4043421E+01
 2.1533751E+01  2.4070114E+01
 2.1545252E+01  2.4022963E+01
 2.1556751E+01  2.4016436E+01
 2.1568251E+01  2.4022051E+01
 2.1579752E+01  2.4067312E+01
 2.1591251E+01  2.4069571E+01
 2.1602751E+01  2.4085011E+01
 2.1614250E+01  2.4050135E+01
 2.1625751E+01  2.4069706E+01
 2.1637251E+01  2.4117657E+01
 2.1648750E+01  2.4193876E+01
 2.1660252E+01  2.4227171E+01
 2.1671751E+01  2.4208822E+01
 2.1683250E+01  2.4183899E+01
 2.1694752E+01  2.4157690E+01
 2.1706251E+01  2.4151411E+01
 2.1717751E+01  2.4174747E+01
 2.1729252E+01  2.4200073E+01
 2.1740751E+01  2.4224264E+01
 2.1752251E+01  2.4226337E+01
 2.1763752E+01  2.4190649E+01
 2.1775251E+01  2.4142611E+01
 2.1786751E+01  2.4130232E+01
 2.1798250E+01  2.4122871E+01
 2.1809752E+01  2.4147898E+01
 2.1821251E+01  2.4159771E+01
 2.1832750E+01  2.4206158E+01
 2.1844252E+01  2.4230179E+01
 2.1855751E+01  2.4251223E+01
 2.1867250E+01  2.4183407E+01
 2.1878752E+01  2.4190912E+01
 2.1890251E+01  2.4191793E+01
 2.1901751E+01  2.4268469E+01
 2.1913252E+01  2.4305023E+01
 2.1924751E+01  2.4315941E+01
 2.1936251E+01  2.4300207E+01
 2.1947752E+01  2.4266352E+01
 2.1959251E+01  2.4289083E+01
 2.1970751E+01  2.4297501E+01
 2.1982250E+01  2.4338037E+01
 2.1993752E+01  2.4317886E+01
 2.2005251E+01  2.4321877E+01
 2.2016750E+01  2.4368084E+01
 2.2028252E+01  2.4413107E+01
 2.2039751E+01  2.4388382E+01
 2.2051250E+01  2.4390310E+01
 2.2062752E+01  2.4374336E+01
 2.2074251E+01  2.4377893E+01
 2.2085751E+01  2.4352470E+01
 2.2097252E+01  2.4382843E+01
 2.2108751E+01  2.4441835E+01
 2.2120251E+01  2.4455454E+01
 2.2131752E+01  2.4441238E+01
 2.2143251E+01  2.4433542E+01
 2.2154751E+01  2.4435997E+01
 2.2166250E+01  2.4455063E+01
 2.2177752E+01  2.4499813E+01
 2.2189251E+01  2.4523575E+01
 2.2200750E+01  2.4519798E+01
 2.2212252E+01  2.4505259E+01
 2.2223751E+01  2.4484501E+01
 2.2235250E+01  2.4505482E+01
 2.2246752E+01  2.4504816E+01
 2.2258251E+01  2.4500998E+01
 2.2269751E+01  2.4470263E+01
 2.2281252E+01  2.4474487E+01
 2.2292751E+01  2.4506338E+01
 2.2304251E+01  2.4588440E+01
 2.2315752E+01  2.4615408E+01
 2.2327251E+01  2.4610178E+01
 2.2338751E+01  2.4593418E+01
 2.2350250E+01  2.4588945E+01
 2.2361752E+01  2.4586802E+01
 2.2373251E+01  2.4638582E+01
 2.2384750E+01  2.4624090E+01
 2.2396252E+01  2.4598766E+01
 2.2407751E+01  2.4548725E+01
 2.2419250E+01  2.4576454E+01
 2.2430752E+01  2.4615583E+01
 2.2442251E+01  2.4719526E+01
 2.2453751E+01  2.4764645E+01
 2.2465252E+01  2.4816730E+01
 2.2476751E+01  2.4773916E+01
 2.2488251E+01  2.4780113E+01
 2.2499752E+01  2.4788641E+01
 2.2511251E+01  2.4821535E+01
 2.2522751E+01  2.4798214E+01
 2.2534250E+01  2.4797203E+01
 2.2545752E+01  2.4820066E+01
 2.2557251E+01  2.4801201E+01
 2.2568750E+01  2.4781057E+01
 2.2580252E+01  2.4751768E+01
 2.2591751E+01  2.4784199E+01
 2.2603251E+01  2.4873217E+01
 2.2614752E+01  2.4965776E+01
 2.2626251E+01  2.5052973E+01
 2.2637751E+01  2.5084007E+01
 2.2649252E+01  2.5114391E+01
 2.2660751E+01  2.5082842E+01
 2.2672251E+01  2.5110302E+01
 2.2683752E+01  2.5153666E+01
 2.2695251E+01  2.5201700E+01
 2.2706751E+01  2.5184856E+01
 2.2718250E+01  2.5232025E+01
 2.2729752E+01  2.5248478E+01
 2.2741251E+01  2.5285130E+01
 2.2752750E+01  2.5285866E+01
 2.2764252E+01  2.5352718E+01
 2.2775751E+01  2.5319771E+01
 2.2787251E+01  2.5322323E+01
 2.2798752E+01  2.5350668E+01
 2.2810251E+01  2.5407915E+01
 2.2821751E+01  2.5464911E+01
 2.2833252E+01  2.5516771E+01
 2.2844751E+01  2.5593897E+01
 2.2856251E+01  2.5643414E+01
 2.2867750E+01  2.5692238E+01
 2.2879251E+01  2.5692972E+01
 2.2890751E+01  2.5777256E+01
 2.2902250E+01  2.5797981E+01
 2.2913752E+01  2.5921110E+01
 2.2925251E+01  2.5987022E+01
 2.2936750E+01  2.6063145E+01
 2.2948252E+01  2.6110645E+01
 2.2959751E+01  2.6175228E+01
 2.2971251E+01  2.6313999E+01
 2.2982752E+01  2.6455873E+01
 2.2994251E+01  2.6626970E+01
