F:\20151113_APS_34IDE\\Brian\Particle1\OCV\Data_0130.tif
2-Theta Angle (Degrees)
Intensity
       2000
 5.7500005E-03  0.0000000E+00
 1.7250001E-02  0.0000000E+00
 2.8750001E-02  0.0000000E+00
 4.0250003E-02  0.0000000E+00
 5.1750004E-02  0.0000000E+00
 6.3250005E-02  0.0000000E+00
 7.4750006E-02  0.0000000E+00
 8.6250007E-02  0.0000000E+00
 9.7750008E-02  0.0000000E+00
 1.0925001E-01  0.0000000E+00
 1.2075000E-01  0.0000000E+00
 1.3225001E-01  0.0000000E+00
 1.4375001E-01  0.0000000E+00
 1.5525001E-01  0.0000000E+00
 1.6675001E-01  0.0000000E+00
 1.7825001E-01  0.0000000E+00
 1.8975002E-01  0.0000000E+00
 2.0125002E-01  0.0000000E+00
 2.1275002E-01  0.0000000E+00
 2.2425000E-01  0.0000000E+00
 2.3575000E-01  0.0000000E+00
 2.4725001E-01  0.0000000E+00
 2.5875002E-01  0.0000000E+00
 2.7025002E-01  0.0000000E+00
 2.8175002E-01  0.0000000E+00
 2.9325002E-01  0.0000000E+00
 3.0475003E-01  0.0000000E+00
 3.1625003E-01  0.0000000E+00
 3.2775003E-01  0.0000000E+00
 3.3925003E-01  0.0000000E+00
 3.5075003E-01  0.0000000E+00
 3.6225003E-01  0.0000000E+00
 3.7375003E-01  0.0000000E+00
 3.8525003E-01  0.0000000E+00
 3.9675003E-01  0.0000000E+00
 4.0825003E-01  0.0000000E+00
 4.1975003E-01  0.0000000E+00
 4.3125004E-01  0.0000000E+00
 4.4275001E-01  0.0000000E+00
 4.5425001E-01  0.0000000E+00
 4.6575001E-01  0.0000000E+00
 4.7725001E-01  0.0000000E+00
 4.8875001E-01  0.0000000E+00
 5.0025004E-01  0.0000000E+00
 5.1175004E-01  0.0000000E+00
 5.2325004E-01  0.0000000E+00
 5.3475004E-01  0.0000000E+00
 5.4625005E-01  0.0000000E+00
 5.5775005E-01  0.0000000E+00
 5.6925005E-01  0.0000000E+00
 5.8075005E-01  0.0000000E+00
 5.9225005E-01  0.0000000E+00
 6.0375005E-01  0.0000000E+00
 6.1525005E-01  0.0000000E+00
 6.2675005E-01  0.0000000E+00
 6.3825005E-01  0.0000000E+00
 6.4975005E-01  0.0000000E+00
 6.6125005E-01  0.0000000E+00
 6.7275006E-01  0.0000000E+00
 6.8425006E-01  0.0000000E+00
 6.9575006E-01  0.0000000E+00
 7.0725006E-01  0.0000000E+00
 7.1875006E-01  0.0000000E+00
 7.3025006E-01  0.0000000E+00
 7.4175006E-01  0.0000000E+00
 7.5325006E-01  0.0000000E+00
 7.6475006E-01  0.0000000E+00
 7.7625006E-01  0.0000000E+00
 7.8775007E-01  0.0000000E+00
 7.9925007E-01  0.0000000E+00
 8.1075007E-01  0.0000000E+00
 8.2225007E-01  0.0000000E+00
 8.3375007E-01  0.0000000E+00
 8.4525007E-01  0.0000000E+00
 8.5675007E-01  0.0000000E+00
 8.6825007E-01  0.0000000E+00
 8.7975001E-01  0.0000000E+00
 8.9125001E-01  0.0000000E+00
 9.0275002E-01  0.0000000E+00
 9.1425002E-01  0.0000000E+00
 9.2575002E-01  0.0000000E+00
 9.3725002E-01  0.0000000E+00
 9.4875002E-01  0.0000000E+00
 9.6025002E-01  0.0000000E+00
 9.7175002E-01  0.0000000E+00
 9.8325002E-01  0.0000000E+00
 9.9475002E-01  0.0000000E+00
 1.0062500E+00  0.0000000E+00
 1.0177500E+00  0.0000000E+00
 1.0292500E+00  0.0000000E+00
 1.0407500E+00  0.0000000E+00
 1.0522500E+00  0.0000000E+00
 1.0637500E+00  0.0000000E+00
 1.0752500E+00  0.0000000E+00
 1.0867500E+00  0.0000000E+00
 1.0982500E+00  0.0000000E+00
 1.1097500E+00  0.0000000E+00
 1.1212500E+00  0.0000000E+00
 1.1327500E+00  0.0000000E+00
 1.1442500E+00  0.0000000E+00
 1.1557500E+00  0.0000000E+00
 1.1672500E+00  0.0000000E+00
 1.1787500E+00  0.0000000E+00
 1.1902500E+00  0.0000000E+00
 1.2017500E+00  0.0000000E+00
 1.2132500E+00  0.0000000E+00
 1.2247500E+00  0.0000000E+00
 1.2362500E+00  0.0000000E+00
 1.2477500E+00  0.0000000E+00
 1.2592500E+00  0.0000000E+00
 1.2707500E+00  0.0000000E+00
 1.2822500E+00  0.0000000E+00
 1.2937500E+00  0.0000000E+00
 1.3052500E+00  0.0000000E+00
 1.3167500E+00  0.0000000E+00
 1.3282501E+00  0.0000000E+00
 1.3397501E+00  0.0000000E+00
 1.3512501E+00  0.0000000E+00
 1.3627501E+00  0.0000000E+00
 1.3742501E+00  0.0000000E+00
 1.3857501E+00  0.0000000E+00
 1.3972501E+00  0.0000000E+00
 1.4087501E+00  0.0000000E+00
 1.4202501E+00  0.0000000E+00
 1.4317501E+00  0.0000000E+00
 1.4432501E+00  0.0000000E+00
 1.4547501E+00  0.0000000E+00
 1.4662501E+00  0.0000000E+00
 1.4777501E+00  0.0000000E+00
 1.4892501E+00  0.0000000E+00
 1.5007501E+00  0.0000000E+00
 1.5122501E+00  0.0000000E+00
 1.5237501E+00  0.0000000E+00
 1.5352501E+00  0.0000000E+00
 1.5467501E+00  0.0000000E+00
 1.5582501E+00  0.0000000E+00
 1.5697501E+00  0.0000000E+00
 1.5812501E+00  0.0000000E+00
 1.5927501E+00  0.0000000E+00
 1.6042501E+00  0.0000000E+00
 1.6157501E+00  0.0000000E+00
 1.6272501E+00  0.0000000E+00
 1.6387501E+00  0.0000000E+00
 1.6502501E+00  0.0000000E+00
 1.6617501E+00  0.0000000E+00
 1.6732501E+00  0.0000000E+00
 1.6847501E+00  0.0000000E+00
 1.6962501E+00  0.0000000E+00
 1.7077501E+00  0.0000000E+00
 1.7192501E+00  0.0000000E+00
 1.7307501E+00  0.0000000E+00
 1.7422501E+00  0.0000000E+00
 1.7537501E+00  0.0000000E+00
 1.7652501E+00  0.0000000E+00
 1.7767501E+00  0.0000000E+00
 1.7882501E+00  0.0000000E+00
 1.7997501E+00  0.0000000E+00
 1.8112501E+00  0.0000000E+00
 1.8227501E+00  0.0000000E+00
 1.8342501E+00  0.0000000E+00
 1.8457501E+00  0.0000000E+00
 1.8572501E+00  0.0000000E+00
 1.8687501E+00  0.0000000E+00
 1.8802501E+00  0.0000000E+00
 1.8917501E+00  0.0000000E+00
 1.9032501E+00  0.0000000E+00
 1.9147501E+00  0.0000000E+00
 1.9262501E+00  0.0000000E+00
 1.9377501E+00  0.0000000E+00
 1.9492501E+00  0.0000000E+00
 1.9607501E+00  0.0000000E+00
 1.9722501E+00  0.0000000E+00
 1.9837501E+00  0.0000000E+00
 1.9952501E+00  0.0000000E+00
 2.0067501E+00  0.0000000E+00
 2.0182500E+00  0.0000000E+00
 2.0297501E+00  0.0000000E+00
 2.0412500E+00  0.0000000E+00
 2.0527501E+00  0.0000000E+00
 2.0642500E+00  0.0000000E+00
 2.0757501E+00  0.0000000E+00
 2.0872500E+00  0.0000000E+00
 2.0987501E+00  0.0000000E+00
 2.1102500E+00  0.0000000E+00
 2.1217501E+00  0.0000000E+00
 2.1332500E+00  0.0000000E+00
 2.1447501E+00  0.0000000E+00
 2.1562500E+00  0.0000000E+00
 2.1677501E+00  0.0000000E+00
 2.1792500E+00  0.0000000E+00
 2.1907501E+00  0.0000000E+00
 2.2022500E+00  0.0000000E+00
 2.2137501E+00  0.0000000E+00
 2.2252500E+00  0.0000000E+00
 2.2367501E+00  0.0000000E+00
 2.2482500E+00  0.0000000E+00
 2.2597501E+00  0.0000000E+00
 2.2712500E+00  0.0000000E+00
 2.2827501E+00  0.0000000E+00
 2.2942500E+00  0.0000000E+00
 2.3057501E+00  0.0000000E+00
 2.3172500E+00  0.0000000E+00
 2.3287501E+00  0.0000000E+00
 2.3402500E+00  0.0000000E+00
 2.3517501E+00  0.0000000E+00
 2.3632500E+00  0.0000000E+00
 2.3747501E+00  0.0000000E+00
 2.3862500E+00  0.0000000E+00
 2.3977501E+00  0.0000000E+00
 2.4092500E+00  0.0000000E+00
 2.4207501E+00  0.0000000E+00
 2.4322500E+00  0.0000000E+00
 2.4437501E+00  0.0000000E+00
 2.4552500E+00  0.0000000E+00
 2.4667501E+00  0.0000000E+00
 2.4782500E+00  0.0000000E+00
 2.4897501E+00  0.0000000E+00
 2.5012500E+00  0.0000000E+00
 2.5127501E+00  0.0000000E+00
 2.5242500E+00  0.0000000E+00
 2.5357502E+00  0.0000000E+00
 2.5472500E+00  0.0000000E+00
 2.5587502E+00  0.0000000E+00
 2.5702500E+00  0.0000000E+00
 2.5817502E+00  0.0000000E+00
 2.5932500E+00  0.0000000E+00
 2.6047502E+00  0.0000000E+00
 2.6162500E+00  0.0000000E+00
 2.6277502E+00  0.0000000E+00
 2.6392500E+00  0.0000000E+00
 2.6507502E+00  0.0000000E+00
 2.6622500E+00  0.0000000E+00
 2.6737502E+00  0.0000000E+00
 2.6852500E+00  0.0000000E+00
 2.6967502E+00  0.0000000E+00
 2.7082500E+00  0.0000000E+00
 2.7197502E+00  0.0000000E+00
 2.7312500E+00  0.0000000E+00
 2.7427502E+00  0.0000000E+00
 2.7542500E+00  0.0000000E+00
 2.7657502E+00  0.0000000E+00
 2.7772501E+00  0.0000000E+00
 2.7887502E+00  0.0000000E+00
 2.8002501E+00  0.0000000E+00
 2.8117502E+00  0.0000000E+00
 2.8232501E+00  3.4174580E+01
 2.8347502E+00  3.5035149E+01
 2.8462501E+00  3.4834133E+01
 2.8577502E+00  3.4863667E+01
 2.8692501E+00  3.5157593E+01
 2.8807502E+00  3.6304504E+01
 2.8922501E+00  3.6685303E+01
 2.9037502E+00  3.6967262E+01
 2.9152501E+00  3.6687954E+01
 2.9267502E+00  3.6272400E+01
 2.9382501E+00  3.6064159E+01
 2.9497502E+00  3.5689072E+01
 2.9612501E+00  3.5788765E+01
 2.9727502E+00  3.5831585E+01
 2.9842501E+00  3.6166676E+01
 2.9957502E+00  3.6345875E+01
 3.0072501E+00  3.6687729E+01
 3.0187502E+00  3.6524445E+01
 3.0302501E+00  3.6606525E+01
 3.0417502E+00  3.6475266E+01
 3.0532501E+00  3.6173958E+01
 3.0647502E+00  3.5997234E+01
 3.0762501E+00  3.5528290E+01
 3.0877502E+00  3.5577011E+01
 3.0992501E+00  3.5518803E+01
 3.1107502E+00  3.5379921E+01
 3.1222501E+00  3.5205868E+01
 3.1337502E+00  3.4976517E+01
 3.1452501E+00  3.5009537E+01
 3.1567502E+00  3.4897507E+01
 3.1682501E+00  3.5257900E+01
 3.1797502E+00  3.5261578E+01
 3.1912501E+00  3.5139389E+01
 3.2027502E+00  3.4935680E+01
 3.2142501E+00  3.4810104E+01
 3.2257502E+00  3.4962654E+01
 3.2372501E+00  3.4790676E+01
 3.2487502E+00  3.4469296E+01
 3.2602501E+00  3.4503754E+01
 3.2717502E+00  3.4164967E+01
 3.2832501E+00  3.3836403E+01
 3.2947502E+00  3.3924416E+01
 3.3062501E+00  3.4201031E+01
 3.3177502E+00  3.4383121E+01
 3.3292501E+00  3.4466858E+01
 3.3407502E+00  3.4284096E+01
 3.3522501E+00  3.4719524E+01
 3.3637502E+00  3.4699009E+01
 3.3752501E+00  3.5154324E+01
 3.3867502E+00  3.4877068E+01
 3.3982501E+00  3.4895630E+01
 3.4097502E+00  3.4638256E+01
 3.4212501E+00  3.4566730E+01
 3.4327502E+00  3.4613255E+01
 3.4442501E+00  3.4620831E+01
 3.4557502E+00  3.4778255E+01
 3.4672501E+00  3.4951023E+01
 3.4787502E+00  3.4895653E+01
 3.4902501E+00  3.5025661E+01
 3.5017502E+00  3.4936897E+01
 3.5132501E+00  3.4772400E+01
 3.5247502E+00  3.4620625E+01
 3.5362501E+00  3.4491329E+01
 3.5477502E+00  3.4398754E+01
 3.5592501E+00  3.4151089E+01
 3.5707502E+00  3.3771473E+01
 3.5822501E+00  3.3552917E+01
 3.5937502E+00  3.3191902E+01
 3.6052501E+00  3.2995609E+01
 3.6167502E+00  3.2898403E+01
 3.6282501E+00  3.2872322E+01
 3.6397502E+00  3.2892796E+01
 3.6512501E+00  3.2945847E+01
 3.6627502E+00  3.2999493E+01
 3.6742501E+00  3.3015091E+01
 3.6857502E+00  3.2883247E+01
 3.6972501E+00  3.2859573E+01
 3.7087502E+00  3.2779510E+01
 3.7202501E+00  3.2904152E+01
 3.7317502E+00  3.2821114E+01
 3.7432501E+00  3.3215134E+01
 3.7547503E+00  3.3357262E+01
 3.7662501E+00  3.3523094E+01
 3.7777503E+00  3.3509613E+01
 3.7892501E+00  3.3013844E+01
 3.8007503E+00  3.2913090E+01
 3.8122501E+00  3.2813946E+01
 3.8237503E+00  3.2869331E+01
 3.8352501E+00  3.2935173E+01
 3.8467503E+00  3.2910683E+01
 3.8582501E+00  3.3133400E+01
 3.8697503E+00  3.3249969E+01
 3.8812501E+00  3.3231255E+01
 3.8927503E+00  3.3116486E+01
 3.9042501E+00  3.3105865E+01
 3.9157503E+00  3.2965351E+01
 3.9272501E+00  3.3000580E+01
 3.9387503E+00  3.3051407E+01
 3.9502501E+00  3.3231438E+01
 3.9617503E+00  3.3235905E+01
 3.9732502E+00  3.3065189E+01
 3.9847503E+00  3.3077789E+01
 3.9962502E+00  3.2966595E+01
 4.0077500E+00  3.2996910E+01
 4.0192504E+00  3.2993595E+01
 4.0307503E+00  3.2902210E+01
 4.0422502E+00  3.2952332E+01
 4.0537500E+00  3.2764172E+01
 4.0652504E+00  3.2739246E+01
 4.0767503E+00  3.2540924E+01
 4.0882502E+00  3.2391487E+01
 4.0997500E+00  3.2290379E+01
 4.1112504E+00  3.2181961E+01
 4.1227503E+00  3.2148735E+01
 4.1342502E+00  3.2201237E+01
 4.1457500E+00  3.2364639E+01
 4.1572504E+00  3.2169456E+01
 4.1687503E+00  3.2124374E+01
 4.1802502E+00  3.2026093E+01
 4.1917500E+00  3.2070919E+01
 4.2032504E+00  3.2066673E+01
 4.2147503E+00  3.2077518E+01
 4.2262502E+00  3.2168068E+01
 4.2377501E+00  3.2168415E+01
 4.2492504E+00  3.2263748E+01
 4.2607503E+00  3.2420631E+01
 4.2722502E+00  3.2488728E+01
 4.2837501E+00  3.2578850E+01
 4.2952504E+00  3.2493809E+01
 4.3067503E+00  3.2550888E+01
 4.3182502E+00  3.2368370E+01
 4.3297501E+00  3.2285130E+01
 4.3412504E+00  3.2230751E+01
 4.3527503E+00  3.2289692E+01
 4.3642502E+00  3.2339973E+01
 4.3757501E+00  3.2252602E+01
 4.3872504E+00  3.2302502E+01
 4.3987503E+00  3.2322521E+01
 4.4102502E+00  3.2567936E+01
 4.4217501E+00  3.2625389E+01
 4.4332504E+00  3.2689823E+01
 4.4447503E+00  3.2594444E+01
 4.4562502E+00  3.2474869E+01
 4.4677501E+00  3.2437397E+01
 4.4792504E+00  3.2492672E+01
 4.4907503E+00  3.2571507E+01
 4.5022502E+00  3.2638512E+01
 4.5137501E+00  3.2626358E+01
 4.5252504E+00  3.2763821E+01
 4.5367503E+00  3.2811844E+01
 4.5482502E+00  3.2825329E+01
 4.5597501E+00  3.2603855E+01
 4.5712504E+00  3.2492077E+01
 4.5827503E+00  3.2331131E+01
 4.5942502E+00  3.2351265E+01
 4.6057501E+00  3.2481064E+01
 4.6172504E+00  3.2479912E+01
 4.6287503E+00  3.2566673E+01
 4.6402502E+00  3.2697079E+01
 4.6517501E+00  3.2776772E+01
 4.6632504E+00  3.2894680E+01
 4.6747503E+00  3.2804920E+01
 4.6862502E+00  3.2906105E+01
 4.6977501E+00  3.2919239E+01
 4.7092505E+00  3.2977642E+01
 4.7207503E+00  3.3026806E+01
 4.7322502E+00  3.3050270E+01
 4.7437501E+00  3.2859840E+01
 4.7552505E+00  3.2777706E+01
 4.7667503E+00  3.2692234E+01
 4.7782502E+00  3.2742474E+01
 4.7897501E+00  3.2650414E+01
 4.8012505E+00  3.2554623E+01
 4.8127503E+00  3.2389980E+01
 4.8242502E+00  3.2379898E+01
 4.8357501E+00  3.2362446E+01
 4.8472505E+00  3.2498383E+01
 4.8587503E+00  3.2597878E+01
 4.8702502E+00  3.2641945E+01
 4.8817501E+00  3.2723648E+01
 4.8932505E+00  3.2630718E+01
 4.9047503E+00  3.2628601E+01
 4.9162502E+00  3.2532494E+01
 4.9277501E+00  3.2356972E+01
 4.9392505E+00  3.2318096E+01
 4.9507504E+00  3.2287666E+01
 4.9622502E+00  3.2430813E+01
 4.9737501E+00  3.2600826E+01
 4.9852505E+00  3.2720238E+01
 4.9967504E+00  3.2846275E+01
 5.0082502E+00  3.2987297E+01
 5.0197501E+00  3.3055832E+01
 5.0312505E+00  3.3184555E+01
 5.0427504E+00  3.3277725E+01
 5.0542502E+00  3.3260822E+01
 5.0657501E+00  3.3308815E+01
 5.0772505E+00  3.3300030E+01
 5.0887504E+00  3.3289055E+01
 5.1002502E+00  3.3318455E+01
 5.1117501E+00  3.3350407E+01
 5.1232505E+00  3.3579395E+01
 5.1347504E+00  3.3698349E+01
 5.1462502E+00  3.3857021E+01
 5.1577501E+00  3.3962650E+01
 5.1692505E+00  3.4071869E+01
 5.1807504E+00  3.4099201E+01
 5.1922503E+00  3.4054153E+01
 5.2037501E+00  3.3999546E+01
 5.2152505E+00  3.3978924E+01
 5.2267504E+00  3.3846119E+01
 5.2382503E+00  3.3770321E+01
 5.2497501E+00  3.3684322E+01
 5.2612505E+00  3.3567951E+01
 5.2727504E+00  3.3583065E+01
 5.2842503E+00  3.3641304E+01
 5.2957501E+00  3.3876411E+01
 5.3072500E+00  3.3952114E+01
 5.3187504E+00  3.4147038E+01
 5.3302503E+00  3.4154346E+01
 5.3417501E+00  3.4287907E+01
 5.3532500E+00  3.4204525E+01
 5.3647504E+00  3.4220573E+01
 5.3762503E+00  3.4258213E+01
 5.3877501E+00  3.4375465E+01
 5.3992500E+00  3.4377323E+01
 5.4107504E+00  3.4391758E+01
 5.4222503E+00  3.4289673E+01
 5.4337502E+00  3.4216965E+01
 5.4452500E+00  3.4162224E+01
 5.4567504E+00  3.4175991E+01
 5.4682503E+00  3.4224880E+01
 5.4797502E+00  3.4337769E+01
 5.4912500E+00  3.4400597E+01
 5.5027504E+00  3.4525440E+01
 5.5142503E+00  3.4615486E+01
 5.5257502E+00  3.4739933E+01
 5.5372500E+00  3.4784790E+01
 5.5487504E+00  3.4942162E+01
 5.5602503E+00  3.5066746E+01
 5.5717502E+00  3.5270145E+01
 5.5832500E+00  3.5320660E+01
 5.5947504E+00  3.5311684E+01
 5.6062503E+00  3.5151028E+01
 5.6177502E+00  3.5085400E+01
 5.6292500E+00  3.5075005E+01
 5.6407504E+00  3.5175705E+01
 5.6522503E+00  3.5225368E+01
 5.6637502E+00  3.5276638E+01
 5.6752501E+00  3.5361931E+01
 5.6867504E+00  3.5495201E+01
 5.6982503E+00  3.5482353E+01
 5.7097502E+00  3.5448021E+01
 5.7212501E+00  3.5392693E+01
 5.7327504E+00  3.5348419E+01
 5.7442503E+00  3.5390823E+01
 5.7557502E+00  3.5362614E+01
 5.7672501E+00  3.5346508E+01
 5.7787504E+00  3.5442020E+01
 5.7902503E+00  3.5468040E+01
 5.8017502E+00  3.5445740E+01
 5.8132501E+00  3.5407894E+01
 5.8247504E+00  3.5467594E+01
 5.8362503E+00  3.5530643E+01
 5.8477502E+00  3.5596745E+01
 5.8592501E+00  3.5469429E+01
 5.8707504E+00  3.5507545E+01
 5.8822503E+00  3.5455223E+01
 5.8937502E+00  3.5569710E+01
 5.9052501E+00  3.5728657E+01
 5.9167504E+00  3.5768661E+01
 5.9282503E+00  3.5924114E+01
 5.9397502E+00  3.6100533E+01
 5.9512501E+00  3.6451916E+01
 5.9627504E+00  3.6795532E+01
 5.9742503E+00  3.6964943E+01
 5.9857502E+00  3.7097919E+01
 5.9972501E+00  3.7144444E+01
 6.0087504E+00  3.6989132E+01
 6.0202503E+00  3.6806664E+01
 6.0317502E+00  3.6456699E+01
 6.0432501E+00  3.6261528E+01
 6.0547504E+00  3.6131493E+01
 6.0662503E+00  3.6112907E+01
 6.0777502E+00  3.6077679E+01
 6.0892501E+00  3.6120808E+01
 6.1007504E+00  3.6041191E+01
 6.1122503E+00  3.6131779E+01
 6.1237502E+00  3.6120476E+01
 6.1352501E+00  3.6201950E+01
 6.1467505E+00  3.6297112E+01
 6.1582503E+00  3.6499676E+01
 6.1697502E+00  3.6616753E+01
 6.1812501E+00  3.6691647E+01
 6.1927505E+00  3.6635082E+01
 6.2042503E+00  3.6632408E+01
 6.2157502E+00  3.6765049E+01
 6.2272501E+00  3.6867336E+01
 6.2387505E+00  3.6927433E+01
 6.2502503E+00  3.6947739E+01
 6.2617502E+00  3.7059494E+01
 6.2732501E+00  3.7228889E+01
 6.2847505E+00  3.7455513E+01
 6.2962503E+00  3.7474953E+01
 6.3077502E+00  3.7561108E+01
 6.3192501E+00  3.7552185E+01
 6.3307505E+00  3.7654560E+01
 6.3422503E+00  3.7776173E+01
 6.3537502E+00  3.7821053E+01
 6.3652501E+00  3.7841217E+01
 6.3767505E+00  3.7934265E+01
 6.3882504E+00  3.8035339E+01
 6.3997502E+00  3.8150444E+01
 6.4112501E+00  3.8224987E+01
 6.4227505E+00  3.8255295E+01
 6.4342504E+00  3.8282776E+01
 6.4457502E+00  3.8385246E+01
 6.4572501E+00  3.8260712E+01
 6.4687505E+00  3.8346195E+01
 6.4802504E+00  3.8284473E+01
 6.4917502E+00  3.8494781E+01
 6.5032501E+00  3.8663193E+01
 6.5147505E+00  3.8931908E+01
 6.5262504E+00  3.9169945E+01
 6.5377502E+00  3.9341286E+01
 6.5492501E+00  3.9325123E+01
 6.5607505E+00  3.9319088E+01
 6.5722504E+00  3.9325008E+01
 6.5837502E+00  3.9351048E+01
 6.5952501E+00  3.9416687E+01
 6.6067505E+00  3.9501228E+01
 6.6182504E+00  3.9703018E+01
 6.6297503E+00  3.9715473E+01
 6.6412501E+00  3.9793346E+01
 6.6527505E+00  3.9718739E+01
 6.6642504E+00  3.9830059E+01
 6.6757503E+00  3.9839298E+01
 6.6872501E+00  3.9905693E+01
 6.6987505E+00  4.0074585E+01
 6.7102504E+00  4.0235931E+01
 6.7217503E+00  4.0478596E+01
 6.7332501E+00  4.0619270E+01
 6.7447505E+00  4.0690090E+01
 6.7562504E+00  4.0689457E+01
 6.7677503E+00  4.0784065E+01
 6.7792501E+00  4.0876415E+01
 6.7907505E+00  4.0937172E+01
 6.8022504E+00  4.0973076E+01
 6.8137503E+00  4.1088963E+01
 6.8252501E+00  4.1154102E+01
 6.8367505E+00  4.1136177E+01
 6.8482504E+00  4.1100574E+01
 6.8597503E+00  4.1137196E+01
 6.8712502E+00  4.1330391E+01
 6.8827505E+00  4.1436512E+01
 6.8942504E+00  4.1559357E+01
 6.9057503E+00  4.1581451E+01
 6.9172502E+00  4.1633114E+01
 6.9287505E+00  4.1666679E+01
 6.9402504E+00  4.1721367E+01
 6.9517503E+00  4.1817543E+01
 6.9632502E+00  4.1915691E+01
 6.9747505E+00  4.1950157E+01
 6.9862504E+00  4.2117500E+01
 6.9977503E+00  4.2275963E+01
 7.0092502E+00  4.2515713E+01
 7.0207505E+00  4.2610931E+01
 7.0322504E+00  4.2700886E+01
 7.0437503E+00  4.2687111E+01
 7.0552502E+00  4.2678715E+01
 7.0667505E+00  4.2691071E+01
 7.0782504E+00  4.2740921E+01
 7.0897503E+00  4.2850288E+01
 7.1012502E+00  4.2920414E+01
 7.1127505E+00  4.2993954E+01
 7.1242504E+00  4.3028809E+01
 7.1357503E+00  4.3054718E+01
 7.1472502E+00  4.3149857E+01
 7.1587505E+00  4.3205425E+01
 7.1702504E+00  4.3254578E+01
 7.1817503E+00  4.3223709E+01
 7.1932502E+00  4.3246288E+01
 7.2047505E+00  4.3220261E+01
 7.2162504E+00  4.3184391E+01
 7.2277503E+00  4.3076637E+01
 7.2392502E+00  4.3213013E+01
 7.2507505E+00  4.3322567E+01
 7.2622504E+00  4.3427135E+01
 7.2737503E+00  4.3528717E+01
 7.2852502E+00  4.3524071E+01
 7.2967505E+00  4.3568836E+01
 7.3082504E+00  4.3551483E+01
 7.3197503E+00  4.3701088E+01
 7.3312502E+00  4.3822197E+01
 7.3427505E+00  4.3853691E+01
 7.3542504E+00  4.3877735E+01
 7.3657503E+00  4.3967552E+01
 7.3772502E+00  4.3997623E+01
 7.3887506E+00  4.3974407E+01
 7.4002504E+00  4.3889099E+01
 7.4117503E+00  4.3951138E+01
 7.4232502E+00  4.3974792E+01
 7.4347506E+00  4.4019325E+01
 7.4462504E+00  4.4105167E+01
 7.4577503E+00  4.4118401E+01
 7.4692502E+00  4.4165958E+01
 7.4807506E+00  4.4101788E+01
 7.4922504E+00  4.4145638E+01
 7.5037503E+00  4.4177460E+01
 7.5152502E+00  4.4200760E+01
 7.5267506E+00  4.4239933E+01
 7.5382504E+00  4.4210232E+01
 7.5497503E+00  4.4234303E+01
 7.5612502E+00  4.4313911E+01
 7.5727506E+00  4.4406078E+01
 7.5842505E+00  4.4432659E+01
 7.5957503E+00  4.4413700E+01
 7.6072502E+00  4.4477718E+01
 7.6187506E+00  4.4545330E+01
 7.6302505E+00  4.4562023E+01
 7.6417503E+00  4.4521931E+01
 7.6532502E+00  4.4429436E+01
 7.6647506E+00  4.4293129E+01
 7.6762505E+00  4.4095459E+01
 7.6877503E+00  4.4002121E+01
 7.6992502E+00  4.3909626E+01
 7.7107506E+00  4.3936371E+01
 7.7222505E+00  4.3961510E+01
 7.7337503E+00  4.4020554E+01
 7.7452502E+00  4.4027218E+01
 7.7567506E+00  4.4084995E+01
 7.7682505E+00  4.4072258E+01
 7.7797503E+00  4.4089905E+01
 7.7912502E+00  4.4046711E+01
 7.8027506E+00  4.4058601E+01
 7.8142505E+00  4.4061207E+01
 7.8257504E+00  4.3980759E+01
 7.8372502E+00  4.4026276E+01
 7.8487506E+00  4.4042007E+01
 7.8602505E+00  4.4101257E+01
 7.8717504E+00  4.4050430E+01
 7.8832502E+00  4.4023129E+01
 7.8947506E+00  4.4014954E+01
 7.9062505E+00  4.3975830E+01
 7.9177504E+00  4.3976406E+01
 7.9292502E+00  4.3943550E+01
 7.9407506E+00  4.3930672E+01
 7.9522505E+00  4.3851883E+01
 7.9637504E+00  4.3715874E+01
 7.9752502E+00  4.3560219E+01
 7.9867506E+00  4.3413162E+01
 7.9982505E+00  4.3325592E+01
 8.0097504E+00  4.3149281E+01
 8.0212507E+00  4.3133068E+01
 8.0327501E+00  4.3049637E+01
 8.0442505E+00  4.3062847E+01
 8.0557508E+00  4.2995319E+01
 8.0672503E+00  4.2904430E+01
 8.0787506E+00  4.2828609E+01
 8.0902500E+00  4.2791878E+01
 8.1017504E+00  4.2733349E+01
 8.1132507E+00  4.2701092E+01
 8.1247501E+00  4.2562000E+01
 8.1362505E+00  4.2431835E+01
 8.1477509E+00  4.2275997E+01
 8.1592503E+00  4.2124741E+01
 8.1707506E+00  4.2068913E+01
 8.1822500E+00  4.1963341E+01
 8.1937504E+00  4.1956318E+01
 8.2052507E+00  4.1726723E+01
 8.2167501E+00  4.1631046E+01
 8.2282505E+00  4.1388012E+01
 8.2397509E+00  4.1304192E+01
 8.2512503E+00  4.1121307E+01
 8.2627506E+00  4.0927734E+01
 8.2742500E+00  4.0813129E+01
 8.2857504E+00  4.0672447E+01
 8.2972507E+00  4.0568531E+01
 8.3087502E+00  4.0427048E+01
 8.3202505E+00  4.0388084E+01
 8.3317509E+00  4.0287590E+01
 8.3432503E+00  4.0292004E+01
 8.3547506E+00  4.0235809E+01
 8.3662500E+00  4.0252697E+01
 8.3777504E+00  4.0102352E+01
 8.3892508E+00  3.9820377E+01
 8.4007502E+00  3.9604786E+01
 8.4122505E+00  3.9296352E+01
 8.4237509E+00  3.9100449E+01
 8.4352503E+00  3.8813713E+01
 8.4467506E+00  3.8654022E+01
 8.4582500E+00  3.8430614E+01
 8.4697504E+00  3.8243221E+01
 8.4812508E+00  3.8004242E+01
 8.4927502E+00  3.7881012E+01
 8.5042505E+00  3.7697105E+01
 8.5157509E+00  3.7520142E+01
 8.5272503E+00  3.7403439E+01
 8.5387506E+00  3.7282494E+01
 8.5502501E+00  3.7062996E+01
 8.5617504E+00  3.6876572E+01
 8.5732508E+00  3.6791218E+01
 8.5847502E+00  3.6711292E+01
 8.5962505E+00  3.6538532E+01
 8.6077509E+00  3.6309387E+01
 8.6192503E+00  3.6193218E+01
 8.6307507E+00  3.6061672E+01
 8.6422501E+00  3.5844666E+01
 8.6537504E+00  3.5618526E+01
 8.6652508E+00  3.5391495E+01
 8.6767502E+00  3.5214687E+01
 8.6882505E+00  3.5123199E+01
 8.6997509E+00  3.5006367E+01
 8.7112503E+00  3.4847599E+01
 8.7227507E+00  3.4641937E+01
 8.7342501E+00  3.4449665E+01
 8.7457504E+00  3.4143143E+01
 8.7572508E+00  3.3898129E+01
 8.7687502E+00  3.3650822E+01
 8.7802505E+00  3.3528713E+01
 8.7917500E+00  3.3377876E+01
 8.8032503E+00  3.3255890E+01
 8.8147507E+00  3.3155090E+01
 8.8262501E+00  3.3011101E+01
 8.8377504E+00  3.2837864E+01
 8.8492508E+00  3.2607811E+01
 8.8607502E+00  3.2491562E+01
 8.8722506E+00  3.2328926E+01
 8.8837500E+00  3.2169334E+01
 8.8952503E+00  3.1952444E+01
 8.9067507E+00  3.1739784E+01
 8.9182501E+00  3.1652521E+01
 8.9297504E+00  3.1555159E+01
 8.9412508E+00  3.1458633E+01
 8.9527502E+00  3.1379841E+01
 8.9642506E+00  3.1290867E+01
 8.9757500E+00  3.1119627E+01
 8.9872503E+00  3.0893301E+01
 8.9987507E+00  3.0570601E+01
 9.0102501E+00  3.0369484E+01
 9.0217505E+00  3.0112143E+01
 9.0332508E+00  2.9997662E+01
 9.0447502E+00  2.9867071E+01
 9.0562506E+00  2.9760044E+01
 9.0677500E+00  2.9605312E+01
 9.0792503E+00  2.9525928E+01
 9.0907507E+00  2.9412907E+01
 9.1022501E+00  2.9349663E+01
 9.1137505E+00  2.9210331E+01
 9.1252508E+00  2.9140289E+01
 9.1367502E+00  2.9016293E+01
 9.1482506E+00  2.8926771E+01
 9.1597500E+00  2.8800667E+01
 9.1712503E+00  2.8701609E+01
 9.1827507E+00  2.8562534E+01
 9.1942501E+00  2.8455276E+01
 9.2057505E+00  2.8275257E+01
 9.2172508E+00  2.8196692E+01
 9.2287502E+00  2.8055166E+01
 9.2402506E+00  2.7896713E+01
 9.2517500E+00  2.7773804E+01
 9.2632504E+00  2.7700788E+01
 9.2747507E+00  2.7718079E+01
 9.2862501E+00  2.7599028E+01
 9.2977505E+00  2.7513325E+01
 9.3092508E+00  2.7429462E+01
 9.3207502E+00  2.7372742E+01
 9.3322506E+00  2.7279984E+01
 9.3437500E+00  2.7156206E+01
 9.3552504E+00  2.7105471E+01
 9.3667507E+00  2.7060917E+01
 9.3782501E+00  2.7020327E+01
 9.3897505E+00  2.6849443E+01
 9.4012508E+00  2.6711044E+01
 9.4127502E+00  2.6548506E+01
 9.4242506E+00  2.6442356E+01
 9.4357500E+00  2.6339268E+01
 9.4472504E+00  2.6336895E+01
 9.4587507E+00  2.6382122E+01
 9.4702501E+00  2.6432922E+01
 9.4817505E+00  2.6434149E+01
 9.4932508E+00  2.6423567E+01
 9.5047503E+00  2.6366871E+01
 9.5162506E+00  2.6282030E+01
 9.5277500E+00  2.6121790E+01
 9.5392504E+00  2.5985058E+01
 9.5507507E+00  2.5818693E+01
 9.5622501E+00  2.5766262E+01
 9.5737505E+00  2.5635757E+01
 9.5852509E+00  2.5541365E+01
 9.5967503E+00  2.5479580E+01
 9.6082506E+00  2.5450119E+01
 9.6197500E+00  2.5461277E+01
 9.6312504E+00  2.5404514E+01
 9.6427507E+00  2.5400843E+01
 9.6542501E+00  2.5362164E+01
 9.6657505E+00  2.5313168E+01
 9.6772509E+00  2.5271706E+01
 9.6887503E+00  2.5232763E+01
 9.7002506E+00  2.5224825E+01
 9.7117500E+00  2.5153685E+01
 9.7232504E+00  2.5059923E+01
 9.7347507E+00  2.4907452E+01
 9.7462502E+00  2.4793432E+01
 9.7577505E+00  2.4745186E+01
 9.7692509E+00  2.4707922E+01
 9.7807503E+00  2.4713472E+01
 9.7922506E+00  2.4677929E+01
 9.8037500E+00  2.4722681E+01
 9.8152504E+00  2.4661949E+01
 9.8267508E+00  2.4592701E+01
 9.8382502E+00  2.4513321E+01
 9.8497505E+00  2.4428791E+01
 9.8612509E+00  2.4450542E+01
 9.8727503E+00  2.4453905E+01
 9.8842506E+00  2.4466125E+01
 9.8957500E+00  2.4460575E+01
 9.9072504E+00  2.4382881E+01
 9.9187508E+00  2.4364307E+01
 9.9302502E+00  2.4271975E+01
 9.9417505E+00  2.4230101E+01
 9.9532509E+00  2.4143522E+01
 9.9647503E+00  2.4111757E+01
 9.9762506E+00  2.4090664E+01
 9.9877501E+00  2.4115372E+01
 9.9992504E+00  2.4068996E+01
 1.0010751E+01  2.4080761E+01
 1.0022250E+01  2.4085947E+01
 1.0033751E+01  2.4126991E+01
 1.0045251E+01  2.4084730E+01
 1.0056750E+01  2.4005646E+01
 1.0068251E+01  2.3921398E+01
 1.0079750E+01  2.3827652E+01
 1.0091250E+01  2.3741467E+01
 1.0102751E+01  2.3714983E+01
 1.0114250E+01  2.3626091E+01
 1.0125751E+01  2.3618050E+01
 1.0137251E+01  2.3585016E+01
 1.0148750E+01  2.3622435E+01
 1.0160251E+01  2.3646130E+01
 1.0171750E+01  2.3625370E+01
 1.0183250E+01  2.3629194E+01
 1.0194751E+01  2.3585512E+01
 1.0206250E+01  2.3597603E+01
 1.0217751E+01  2.3601046E+01
 1.0229251E+01  2.3591478E+01
 1.0240750E+01  2.3514681E+01
 1.0252251E+01  2.3428522E+01
 1.0263750E+01  2.3405809E+01
 1.0275250E+01  2.3423235E+01
 1.0286751E+01  2.3448139E+01
 1.0298250E+01  2.3466192E+01
 1.0309751E+01  2.3455656E+01
 1.0321251E+01  2.3433821E+01
 1.0332750E+01  2.3329378E+01
 1.0344251E+01  2.3221685E+01
 1.0355750E+01  2.3125456E+01
 1.0367250E+01  2.3078268E+01
 1.0378751E+01  2.3116987E+01
 1.0390250E+01  2.3209597E+01
 1.0401751E+01  2.3280054E+01
 1.0413251E+01  2.3217739E+01
 1.0424750E+01  2.3121899E+01
 1.0436251E+01  2.3033213E+01
 1.0447750E+01  2.2942726E+01
 1.0459250E+01  2.2911890E+01
 1.0470751E+01  2.2876400E+01
 1.0482250E+01  2.2927282E+01
 1.0493751E+01  2.2897840E+01
 1.0505251E+01  2.2870050E+01
 1.0516750E+01  2.2815620E+01
 1.0528251E+01  2.2788134E+01
 1.0539750E+01  2.2762743E+01
 1.0551250E+01  2.2758923E+01
 1.0562751E+01  2.2783966E+01
 1.0574250E+01  2.2808624E+01
 1.0585751E+01  2.2830053E+01
 1.0597251E+01  2.2861324E+01
 1.0608750E+01  2.2830643E+01
 1.0620251E+01  2.2839939E+01
 1.0631750E+01  2.2766886E+01
 1.0643250E+01  2.2756214E+01
 1.0654751E+01  2.2772413E+01
 1.0666250E+01  2.2738174E+01
 1.0677751E+01  2.2738543E+01
 1.0689251E+01  2.2659031E+01
 1.0700750E+01  2.2683270E+01
 1.0712251E+01  2.2699532E+01
 1.0723750E+01  2.2704372E+01
 1.0735250E+01  2.2668671E+01
 1.0746751E+01  2.2679647E+01
 1.0758250E+01  2.2629749E+01
 1.0769751E+01  2.2637129E+01
 1.0781251E+01  2.2581779E+01
 1.0792750E+01  2.2583450E+01
 1.0804251E+01  2.2558573E+01
 1.0815750E+01  2.2535870E+01
 1.0827250E+01  2.2551689E+01
 1.0838751E+01  2.2563251E+01
 1.0850250E+01  2.2539690E+01
 1.0861751E+01  2.2520119E+01
 1.0873251E+01  2.2486500E+01
 1.0884750E+01  2.2455013E+01
 1.0896251E+01  2.2435415E+01
 1.0907750E+01  2.2459696E+01
 1.0919250E+01  2.2463394E+01
 1.0930751E+01  2.2450537E+01
 1.0942250E+01  2.2402138E+01
 1.0953751E+01  2.2456497E+01
 1.0965251E+01  2.2413235E+01
 1.0976750E+01  2.2408247E+01
 1.0988251E+01  2.2316835E+01
 1.0999750E+01  2.2350565E+01
 1.1011250E+01  2.2340956E+01
 1.1022751E+01  2.2389311E+01
 1.1034250E+01  2.2362835E+01
 1.1045751E+01  2.2312593E+01
 1.1057251E+01  2.2211905E+01
 1.1068750E+01  2.2177252E+01
 1.1080251E+01  2.2179350E+01
 1.1091750E+01  2.2233450E+01
 1.1103251E+01  2.2288420E+01
 1.1114751E+01  2.2319468E+01
 1.1126250E+01  2.2333118E+01
 1.1137751E+01  2.2284359E+01
 1.1149251E+01  2.2298483E+01
 1.1160750E+01  2.2321510E+01
 1.1172251E+01  2.2313368E+01
 1.1183750E+01  2.2259037E+01
 1.1195251E+01  2.2142252E+01
 1.1206751E+01  2.2164682E+01
 1.1218250E+01  2.2125320E+01
 1.1229751E+01  2.2190632E+01
 1.1241251E+01  2.2179489E+01
 1.1252750E+01  2.2255989E+01
 1.1264251E+01  2.2245352E+01
 1.1275750E+01  2.2243780E+01
 1.1287251E+01  2.2180130E+01
 1.1298751E+01  2.2178705E+01
 1.1310250E+01  2.2180149E+01
 1.1321751E+01  2.2212009E+01
 1.1333251E+01  2.2254522E+01
 1.1344750E+01  2.2265211E+01
 1.1356251E+01  2.2281729E+01
 1.1367750E+01  2.2262131E+01
 1.1379251E+01  2.2280775E+01
 1.1390751E+01  2.2315372E+01
 1.1402250E+01  2.2411726E+01
 1.1413751E+01  2.2365345E+01
 1.1425251E+01  2.2366480E+01
 1.1436750E+01  2.2301840E+01
 1.1448251E+01  2.2320221E+01
 1.1459750E+01  2.2345598E+01
 1.1471251E+01  2.2365732E+01
 1.1482751E+01  2.2398415E+01
 1.1494250E+01  2.2409580E+01
 1.1505751E+01  2.2396872E+01
 1.1517251E+01  2.2455046E+01
 1.1528750E+01  2.2473083E+01
 1.1540251E+01  2.2603788E+01
 1.1551750E+01  2.2638388E+01
 1.1563251E+01  2.2747496E+01
 1.1574751E+01  2.2770433E+01
 1.1586250E+01  2.2853462E+01
 1.1597751E+01  2.2827616E+01
 1.1609251E+01  2.2771891E+01
 1.1620750E+01  2.2710405E+01
 1.1632251E+01  2.2578890E+01
 1.1643750E+01  2.2466946E+01
 1.1655251E+01  2.2303249E+01
 1.1666751E+01  2.2216242E+01
 1.1678250E+01  2.2137632E+01
 1.1689751E+01  2.2076960E+01
 1.1701251E+01  2.2050270E+01
 1.1712750E+01  2.2027468E+01
 1.1724251E+01  2.2019823E+01
 1.1735750E+01  2.2046806E+01
 1.1747251E+01  2.2034832E+01
 1.1758751E+01  2.2031113E+01
 1.1770250E+01  2.1994331E+01
 1.1781751E+01  2.2004780E+01
 1.1793251E+01  2.2061729E+01
 1.1804750E+01  2.2112663E+01
 1.1816251E+01  2.2186359E+01
 1.1827750E+01  2.2160273E+01
 1.1839251E+01  2.2164194E+01
 1.1850751E+01  2.2057751E+01
 1.1862250E+01  2.2017082E+01
 1.1873751E+01  2.1975607E+01
 1.1885251E+01  2.1962984E+01
 1.1896750E+01  2.1993536E+01
 1.1908251E+01  2.1968939E+01
 1.1919750E+01  2.2011801E+01
 1.1931251E+01  2.2032820E+01
 1.1942751E+01  2.2109423E+01
 1.1954250E+01  2.2174454E+01
 1.1965751E+01  2.2238823E+01
 1.1977251E+01  2.2268526E+01
 1.1988750E+01  2.2278633E+01
 1.2000251E+01  2.2275694E+01
 1.2011750E+01  2.2237873E+01
 1.2023251E+01  2.2261292E+01
 1.2034751E+01  2.2279747E+01
 1.2046250E+01  2.2335295E+01
 1.2057751E+01  2.2391697E+01
 1.2069251E+01  2.2460501E+01
 1.2080750E+01  2.2532509E+01
 1.2092251E+01  2.2504770E+01
 1.2103750E+01  2.2529278E+01
 1.2115251E+01  2.2466000E+01
 1.2126751E+01  2.2453680E+01
 1.2138250E+01  2.2391253E+01
 1.2149751E+01  2.2358374E+01
 1.2161251E+01  2.2359776E+01
 1.2172750E+01  2.2322058E+01
 1.2184251E+01  2.2314316E+01
 1.2195750E+01  2.2270901E+01
 1.2207251E+01  2.2172657E+01
 1.2218751E+01  2.2084406E+01
 1.2230250E+01  2.2008575E+01
 1.2241751E+01  2.2012672E+01
 1.2253251E+01  2.2074327E+01
 1.2264750E+01  2.2136007E+01
 1.2276251E+01  2.2183567E+01
 1.2287750E+01  2.2221382E+01
 1.2299251E+01  2.2196695E+01
 1.2310751E+01  2.2224651E+01
 1.2322250E+01  2.2207140E+01
 1.2333751E+01  2.2292212E+01
 1.2345250E+01  2.2278893E+01
 1.2356750E+01  2.2339457E+01
 1.2368251E+01  2.2351772E+01
 1.2379750E+01  2.2413458E+01
 1.2391251E+01  2.2377584E+01
 1.2402751E+01  2.2358765E+01
 1.2414250E+01  2.2312094E+01
 1.2425751E+01  2.2301634E+01
 1.2437250E+01  2.2259615E+01
 1.2448750E+01  2.2221352E+01
 1.2460251E+01  2.2228281E+01
 1.2471750E+01  2.2267859E+01
 1.2483251E+01  2.2347210E+01
 1.2494751E+01  2.2362947E+01
 1.2506250E+01  2.2339109E+01
 1.2517751E+01  2.2287189E+01
 1.2529250E+01  2.2252636E+01
 1.2540751E+01  2.2263311E+01
 1.2552251E+01  2.2307076E+01
 1.2563750E+01  2.2350225E+01
 1.2575251E+01  2.2417000E+01
 1.2586751E+01  2.2438908E+01
 1.2598250E+01  2.2445004E+01
 1.2609751E+01  2.2410122E+01
 1.2621250E+01  2.2450916E+01
 1.2632751E+01  2.2483074E+01
 1.2644251E+01  2.2473724E+01
 1.2655750E+01  2.2451956E+01
 1.2667251E+01  2.2453062E+01
 1.2678751E+01  2.2548317E+01
 1.2690250E+01  2.2589231E+01
 1.2701751E+01  2.2617891E+01
 1.2713250E+01  2.2696369E+01
 1.2724751E+01  2.2717445E+01
 1.2736251E+01  2.2746090E+01
 1.2747750E+01  2.2661497E+01
 1.2759251E+01  2.2669855E+01
 1.2770751E+01  2.2686502E+01
 1.2782250E+01  2.2776440E+01
 1.2793751E+01  2.2840538E+01
 1.2805250E+01  2.2892765E+01
 1.2816751E+01  2.2902233E+01
 1.2828251E+01  2.2908926E+01
 1.2839750E+01  2.2928959E+01
 1.2851251E+01  2.2939095E+01
 1.2862751E+01  2.3027792E+01
 1.2874250E+01  2.3109945E+01
 1.2885751E+01  2.3170078E+01
 1.2897250E+01  2.3212900E+01
 1.2908751E+01  2.3285501E+01
 1.2920251E+01  2.3350203E+01
 1.2931750E+01  2.3414856E+01
 1.2943251E+01  2.3436422E+01
 1.2954751E+01  2.3501518E+01
 1.2966250E+01  2.3576927E+01
 1.2977751E+01  2.3666431E+01
 1.2989250E+01  2.3693378E+01
 1.3000751E+01  2.3708281E+01
 1.3012251E+01  2.3682570E+01
 1.3023750E+01  2.3737307E+01
 1.3035251E+01  2.3811443E+01
 1.3046751E+01  2.3904482E+01
 1.3058250E+01  2.3996500E+01
 1.3069751E+01  2.4052645E+01
 1.3081250E+01  2.4180273E+01
 1.3092751E+01  2.4268400E+01
 1.3104251E+01  2.4412693E+01
 1.3115750E+01  2.4550886E+01
 1.3127251E+01  2.4705208E+01
 1.3138751E+01  2.4832451E+01
 1.3150250E+01  2.4975456E+01
 1.3161751E+01  2.5060892E+01
 1.3173250E+01  2.5175283E+01
 1.3184751E+01  2.5260012E+01
 1.3196251E+01  2.5385956E+01
 1.3207750E+01  2.5522795E+01
 1.3219251E+01  2.5710882E+01
 1.3230751E+01  2.5961611E+01
 1.3242250E+01  2.6185696E+01
 1.3253751E+01  2.6300030E+01
 1.3265250E+01  2.6361734E+01
 1.3276751E+01  2.6460428E+01
 1.3288251E+01  2.6621365E+01
 1.3299750E+01  2.6776539E+01
 1.3311251E+01  2.6837122E+01
 1.3322751E+01  2.6955507E+01
 1.3334250E+01  2.7111118E+01
 1.3345751E+01  2.7207348E+01
 1.3357250E+01  2.7302935E+01
 1.3368751E+01  2.7373697E+01
 1.3380251E+01  2.7572643E+01
 1.3391750E+01  2.7695894E+01
 1.3403251E+01  2.7851023E+01
 1.3414751E+01  2.7967672E+01
 1.3426250E+01  2.8077133E+01
 1.3437751E+01  2.8140631E+01
 1.3449250E+01  2.8231478E+01
 1.3460751E+01  2.8323017E+01
 1.3472251E+01  2.8494986E+01
 1.3483750E+01  2.8606962E+01
 1.3495251E+01  2.8738541E+01
 1.3506751E+01  2.8828234E+01
 1.3518250E+01  2.8970352E+01
 1.3529751E+01  2.9073639E+01
 1.3541250E+01  2.9175303E+01
 1.3552751E+01  2.9266296E+01
 1.3564251E+01  2.9333187E+01
 1.3575750E+01  2.9369499E+01
 1.3587251E+01  2.9411198E+01
 1.3598751E+01  2.9508713E+01
 1.3610250E+01  2.9555492E+01
 1.3621751E+01  2.9635815E+01
 1.3633250E+01  2.9641863E+01
 1.3644751E+01  2.9612907E+01
 1.3656251E+01  2.9524315E+01
 1.3667750E+01  2.9479954E+01
 1.3679251E+01  2.9425541E+01
 1.3690751E+01  2.9442995E+01
 1.3702250E+01  2.9350805E+01
 1.3713751E+01  2.9307217E+01
 1.3725250E+01  2.9183056E+01
 1.3736751E+01  2.9096186E+01
 1.3748251E+01  2.8955624E+01
 1.3759750E+01  2.8804749E+01
 1.3771251E+01  2.8702969E+01
 1.3782751E+01  2.8662836E+01
 1.3794250E+01  2.8656830E+01
 1.3805751E+01  2.8622196E+01
 1.3817250E+01  2.8575359E+01
 1.3828751E+01  2.8505310E+01
 1.3840251E+01  2.8580254E+01
 1.3851750E+01  2.8604977E+01
 1.3863251E+01  2.8644974E+01
 1.3874751E+01  2.8628313E+01
 1.3886250E+01  2.8659376E+01
 1.3897751E+01  2.8700281E+01
 1.3909250E+01  2.8752451E+01
 1.3920751E+01  2.8861691E+01
 1.3932251E+01  2.8980509E+01
 1.3943750E+01  2.9006918E+01
 1.3955251E+01  2.9033495E+01
 1.3966751E+01  2.8964310E+01
 1.3978251E+01  2.8857126E+01
 1.3989751E+01  2.8541679E+01
 1.4001250E+01  2.8298109E+01
 1.4012751E+01  2.8011063E+01
 1.4024251E+01  2.7779137E+01
 1.4035750E+01  2.7542046E+01
 1.4047251E+01  2.7389515E+01
 1.4058751E+01  2.7294184E+01
 1.4070251E+01  2.7219421E+01
 1.4081751E+01  2.7090431E+01
 1.4093250E+01  2.6998144E+01
 1.4104751E+01  2.6855679E+01
 1.4116251E+01  2.6804939E+01
 1.4127750E+01  2.6718334E+01
 1.4139251E+01  2.6665522E+01
 1.4150751E+01  2.6576918E+01
 1.4162251E+01  2.6567070E+01
 1.4173751E+01  2.6517500E+01
 1.4185250E+01  2.6476177E+01
 1.4196751E+01  2.6379469E+01
 1.4208251E+01  2.6327169E+01
 1.4219750E+01  2.6244144E+01
 1.4231251E+01  2.6188795E+01
 1.4242751E+01  2.6116673E+01
 1.4254251E+01  2.6074780E+01
 1.4265751E+01  2.6047323E+01
 1.4277250E+01  2.5972557E+01
 1.4288751E+01  2.5991690E+01
 1.4300251E+01  2.5864662E+01
 1.4311750E+01  2.5825918E+01
 1.4323251E+01  2.5685513E+01
 1.4334751E+01  2.5702801E+01
 1.4346251E+01  2.5715675E+01
 1.4357751E+01  2.5753086E+01
 1.4369250E+01  2.5712999E+01
 1.4380751E+01  2.5645622E+01
 1.4392251E+01  2.5608665E+01
 1.4403750E+01  2.5569244E+01
 1.4415251E+01  2.5566925E+01
 1.4426751E+01  2.5527168E+01
 1.4438251E+01  2.5491585E+01
 1.4449751E+01  2.5422724E+01
 1.4461250E+01  2.5374464E+01
 1.4472751E+01  2.5365776E+01
 1.4484251E+01  2.5343414E+01
 1.4495750E+01  2.5366945E+01
 1.4507251E+01  2.5348724E+01
 1.4518751E+01  2.5348330E+01
 1.4530251E+01  2.5331783E+01
 1.4541751E+01  2.5294863E+01
 1.4553250E+01  2.5268137E+01
 1.4564751E+01  2.5194065E+01
 1.4576251E+01  2.5159443E+01
 1.4587750E+01  2.5109404E+01
 1.4599251E+01  2.5085550E+01
 1.4610751E+01  2.5092237E+01
 1.4622251E+01  2.5094290E+01
 1.4633751E+01  2.5068609E+01
 1.4645250E+01  2.5009201E+01
 1.4656751E+01  2.4938501E+01
 1.4668251E+01  2.4898443E+01
 1.4679750E+01  2.4895081E+01
 1.4691251E+01  2.4936132E+01
 1.4702751E+01  2.4969955E+01
 1.4714251E+01  2.4988230E+01
 1.4725751E+01  2.4911631E+01
 1.4737250E+01  2.4813560E+01
 1.4748751E+01  2.4717936E+01
 1.4760251E+01  2.4702225E+01
 1.4771750E+01  2.4722851E+01
 1.4783251E+01  2.4719097E+01
 1.4794751E+01  2.4745562E+01
 1.4806251E+01  2.4704370E+01
 1.4817751E+01  2.4670988E+01
 1.4829250E+01  2.4613113E+01
 1.4840751E+01  2.4620708E+01
 1.4852251E+01  2.4584036E+01
 1.4863750E+01  2.4541571E+01
 1.4875251E+01  2.4511312E+01
 1.4886751E+01  2.4491442E+01
 1.4898251E+01  2.4557142E+01
 1.4909751E+01  2.4560280E+01
 1.4921250E+01  2.4580620E+01
 1.4932751E+01  2.4551182E+01
 1.4944251E+01  2.4550962E+01
 1.4955750E+01  2.4530588E+01
 1.4967251E+01  2.4487150E+01
 1.4978751E+01  2.4441139E+01
 1.4990251E+01  2.4432848E+01
 1.5001751E+01  2.4388599E+01
 1.5013250E+01  2.4398567E+01
 1.5024751E+01  2.4387436E+01
 1.5036251E+01  2.4402197E+01
 1.5047750E+01  2.4409504E+01
 1.5059251E+01  2.4473331E+01
 1.5070751E+01  2.4482365E+01
 1.5082251E+01  2.4528671E+01
 1.5093751E+01  2.4482487E+01
 1.5105250E+01  2.4469059E+01
 1.5116751E+01  2.4409208E+01
 1.5128251E+01  2.4390320E+01
 1.5139750E+01  2.4435106E+01
 1.5151251E+01  2.4482899E+01
 1.5162751E+01  2.4517504E+01
 1.5174251E+01  2.4500065E+01
 1.5185751E+01  2.4454220E+01
 1.5197250E+01  2.4419409E+01
 1.5208751E+01  2.4438858E+01
 1.5220251E+01  2.4493938E+01
 1.5231750E+01  2.4507992E+01
 1.5243251E+01  2.4466871E+01
 1.5254751E+01  2.4444817E+01
 1.5266251E+01  2.4380590E+01
 1.5277751E+01  2.4330393E+01
 1.5289250E+01  2.4297546E+01
 1.5300751E+01  2.4271652E+01
 1.5312251E+01  2.4269917E+01
 1.5323750E+01  2.4284170E+01
 1.5335251E+01  2.4302889E+01
 1.5346751E+01  2.4295280E+01
 1.5358251E+01  2.4257832E+01
 1.5369751E+01  2.4252129E+01
 1.5381250E+01  2.4223484E+01
 1.5392751E+01  2.4220346E+01
 1.5404251E+01  2.4278967E+01
 1.5415751E+01  2.4297764E+01
 1.5427251E+01  2.4291355E+01
 1.5438751E+01  2.4294468E+01
 1.5450251E+01  2.4283587E+01
 1.5461751E+01  2.4218365E+01
 1.5473250E+01  2.4157438E+01
 1.5484751E+01  2.4172749E+01
 1.5496251E+01  2.4195688E+01
 1.5507751E+01  2.4216619E+01
 1.5519251E+01  2.4226297E+01
 1.5530751E+01  2.4229662E+01
 1.5542251E+01  2.4193657E+01
 1.5553751E+01  2.4206444E+01
 1.5565250E+01  2.4255901E+01
 1.5576751E+01  2.4315479E+01
 1.5588251E+01  2.4324472E+01
 1.5599751E+01  2.4347353E+01
 1.5611251E+01  2.4309628E+01
 1.5622751E+01  2.4264238E+01
 1.5634251E+01  2.4200962E+01
 1.5645751E+01  2.4186720E+01
 1.5657250E+01  2.4204231E+01
 1.5668751E+01  2.4226383E+01
 1.5680251E+01  2.4231741E+01
 1.5691751E+01  2.4260471E+01
 1.5703251E+01  2.4323551E+01
 1.5714751E+01  2.4356062E+01
 1.5726251E+01  2.4353216E+01
 1.5737751E+01  2.4314182E+01
 1.5749250E+01  2.4308359E+01
 1.5760751E+01  2.4332386E+01
 1.5772251E+01  2.4395620E+01
 1.5783751E+01  2.4365570E+01
 1.5795251E+01  2.4337908E+01
 1.5806751E+01  2.4317469E+01
 1.5818251E+01  2.4310600E+01
 1.5829751E+01  2.4273428E+01
 1.5841250E+01  2.4263498E+01
 1.5852751E+01  2.4363138E+01
 1.5864251E+01  2.4383276E+01
 1.5875751E+01  2.4379948E+01
 1.5887251E+01  2.4309534E+01
 1.5898750E+01  2.4277378E+01
 1.5910251E+01  2.4266523E+01
 1.5921751E+01  2.4288866E+01
 1.5933250E+01  2.4275198E+01
 1.5944751E+01  2.4235165E+01
 1.5956251E+01  2.4229492E+01
 1.5967751E+01  2.4298565E+01
 1.5979251E+01  2.4343096E+01
 1.5990750E+01  2.4413740E+01
 1.6002251E+01  2.4451925E+01
 1.6013750E+01  2.4469967E+01
 1.6025251E+01  2.4453119E+01
 1.6036751E+01  2.4446465E+01
 1.6048250E+01  2.4472977E+01
 1.6059752E+01  2.4518305E+01
 1.6071251E+01  2.4479864E+01
 1.6082750E+01  2.4470217E+01
 1.6094252E+01  2.4409122E+01
 1.6105751E+01  2.4441721E+01
 1.6117250E+01  2.4482996E+01
 1.6128750E+01  2.4493391E+01
 1.6140251E+01  2.4541367E+01
 1.6151751E+01  2.4501249E+01
 1.6163250E+01  2.4561253E+01
 1.6174751E+01  2.4578167E+01
 1.6186251E+01  2.4691734E+01
 1.6197750E+01  2.4610403E+01
 1.6209251E+01  2.4792686E+01
 1.6220751E+01  2.4776022E+01
 1.6232250E+01  2.5018356E+01
 1.6243752E+01  2.5046288E+01
 1.6255251E+01  2.5201002E+01
 1.6266750E+01  2.5340437E+01
 1.6278252E+01  2.5206629E+01
 1.6289751E+01  2.5306002E+01
 1.6301250E+01  2.4930384E+01
 1.6312750E+01  2.4964762E+01
 1.6324251E+01  2.4652784E+01
 1.6335751E+01  2.4686474E+01
 1.6347250E+01  2.4585493E+01
 1.6358751E+01  2.4541296E+01
 1.6370251E+01  2.4483547E+01
 1.6381750E+01  2.4422331E+01
 1.6393251E+01  2.4406742E+01
 1.6404751E+01  2.4440445E+01
 1.6416250E+01  2.4469423E+01
 1.6427752E+01  2.4444647E+01
 1.6439251E+01  2.4395319E+01
 1.6450750E+01  2.4410587E+01
 1.6462252E+01  2.4422922E+01
 1.6473751E+01  2.4421825E+01
 1.6485250E+01  2.4428413E+01
 1.6496750E+01  2.4454569E+01
 1.6508251E+01  2.4440214E+01
 1.6519751E+01  2.4424606E+01
 1.6531250E+01  2.4419125E+01
 1.6542751E+01  2.4420919E+01
 1.6554251E+01  2.4389238E+01
 1.6565750E+01  2.4394278E+01
 1.6577251E+01  2.4389420E+01
 1.6588751E+01  2.4420059E+01
 1.6600250E+01  2.4425781E+01
 1.6611752E+01  2.4438629E+01
 1.6623251E+01  2.4369385E+01
 1.6634750E+01  2.4342857E+01
 1.6646252E+01  2.4379772E+01
 1.6657751E+01  2.4413118E+01
 1.6669250E+01  2.4431973E+01
 1.6680750E+01  2.4398363E+01
 1.6692251E+01  2.4376848E+01
 1.6703751E+01  2.4313776E+01
 1.6715250E+01  2.4296396E+01
 1.6726751E+01  2.4287254E+01
 1.6738251E+01  2.4268036E+01
 1.6749750E+01  2.4284599E+01
 1.6761251E+01  2.4267981E+01
 1.6772751E+01  2.4302286E+01
 1.6784250E+01  2.4298473E+01
 1.6795752E+01  2.4251759E+01
 1.6807251E+01  2.4169910E+01
 1.6818750E+01  2.4135649E+01
 1.6830252E+01  2.4138708E+01
 1.6841751E+01  2.4167707E+01
 1.6853251E+01  2.4180819E+01
 1.6864750E+01  2.4196524E+01
 1.6876251E+01  2.4194925E+01
 1.6887751E+01  2.4172415E+01
 1.6899250E+01  2.4150251E+01
 1.6910751E+01  2.4113056E+01
 1.6922251E+01  2.4060137E+01
 1.6933750E+01  2.3994829E+01
 1.6945251E+01  2.3984848E+01
 1.6956751E+01  2.3987976E+01
 1.6968250E+01  2.3981850E+01
 1.6979752E+01  2.3949232E+01
 1.6991251E+01  2.3962156E+01
 1.7002750E+01  2.3936718E+01
 1.7014252E+01  2.3953026E+01
 1.7025751E+01  2.3994814E+01
 1.7037251E+01  2.4007982E+01
 1.7048750E+01  2.3953558E+01
 1.7060251E+01  2.3895678E+01
 1.7071751E+01  2.3879105E+01
 1.7083250E+01  2.3883541E+01
 1.7094751E+01  2.3872965E+01
 1.7106251E+01  2.3881321E+01
 1.7117750E+01  2.3807617E+01
 1.7129251E+01  2.3808195E+01
 1.7140751E+01  2.3769741E+01
 1.7152250E+01  2.3785414E+01
 1.7163752E+01  2.3761452E+01
 1.7175251E+01  2.3812952E+01
 1.7186750E+01  2.3838436E+01
 1.7198252E+01  2.3872868E+01
 1.7209751E+01  2.3866430E+01
 1.7221251E+01  2.3822781E+01
 1.7232750E+01  2.3785093E+01
 1.7244251E+01  2.3808027E+01
 1.7255751E+01  2.3803661E+01
 1.7267250E+01  2.3775412E+01
 1.7278751E+01  2.3695614E+01
 1.7290251E+01  2.3691065E+01
 1.7301750E+01  2.3714659E+01
 1.7313251E+01  2.3790941E+01
 1.7324751E+01  2.3859955E+01
 1.7336250E+01  2.3899672E+01
 1.7347752E+01  2.3884317E+01
 1.7359251E+01  2.3908827E+01
 1.7370750E+01  2.3829756E+01
 1.7382252E+01  2.3781931E+01
 1.7393751E+01  2.3722130E+01
 1.7405251E+01  2.3670498E+01
 1.7416750E+01  2.3625463E+01
 1.7428251E+01  2.3578608E+01
 1.7439751E+01  2.3597120E+01
 1.7451250E+01  2.3625925E+01
 1.7462751E+01  2.3663719E+01
 1.7474251E+01  2.3669706E+01
 1.7485750E+01  2.3681059E+01
 1.7497252E+01  2.3618208E+01
 1.7508751E+01  2.3556566E+01
 1.7520250E+01  2.3481775E+01
 1.7531752E+01  2.3497007E+01
 1.7543251E+01  2.3544617E+01
 1.7554750E+01  2.3558962E+01
 1.7566252E+01  2.3600557E+01
 1.7577751E+01  2.3584909E+01
 1.7589251E+01  2.3569130E+01
 1.7600750E+01  2.3573370E+01
 1.7612251E+01  2.3514671E+01
 1.7623751E+01  2.3507929E+01
 1.7635250E+01  2.3444099E+01
 1.7646751E+01  2.3434124E+01
 1.7658251E+01  2.3385302E+01
 1.7669750E+01  2.3371552E+01
 1.7681252E+01  2.3386786E+01
 1.7692751E+01  2.3420424E+01
 1.7704250E+01  2.3499451E+01
 1.7715752E+01  2.3549109E+01
 1.7727251E+01  2.3574312E+01
 1.7738750E+01  2.3588066E+01
 1.7750252E+01  2.3522663E+01
 1.7761751E+01  2.3525316E+01
 1.7773251E+01  2.3524811E+01
 1.7784750E+01  2.3561909E+01
 1.7796251E+01  2.3531883E+01
 1.7807751E+01  2.3477812E+01
 1.7819250E+01  2.3439718E+01
 1.7830751E+01  2.3361061E+01
 1.7842251E+01  2.3290455E+01
 1.7853750E+01  2.3210239E+01
 1.7865252E+01  2.3200779E+01
 1.7876751E+01  2.3201355E+01
 1.7888250E+01  2.3248463E+01
 1.7899752E+01  2.3313198E+01
 1.7911251E+01  2.3398680E+01
 1.7922750E+01  2.3431705E+01
 1.7934252E+01  2.3386068E+01
 1.7945751E+01  2.3384167E+01
 1.7957251E+01  2.3406088E+01
 1.7968750E+01  2.3420752E+01
 1.7980251E+01  2.3403793E+01
 1.7991751E+01  2.3388100E+01
 1.8003250E+01  2.3402334E+01
 1.8014751E+01  2.3431681E+01
 1.8026251E+01  2.3453131E+01
 1.8037750E+01  2.3477468E+01
 1.8049252E+01  2.3449524E+01
 1.8060751E+01  2.3443304E+01
 1.8072250E+01  2.3411745E+01
 1.8083752E+01  2.3443829E+01
 1.8095251E+01  2.3460323E+01
 1.8106750E+01  2.3507141E+01
 1.8118252E+01  2.3519405E+01
 1.8129751E+01  2.3508980E+01
 1.8141251E+01  2.3461040E+01
 1.8152750E+01  2.3354652E+01
 1.8164251E+01  2.3305513E+01
 1.8175751E+01  2.3250158E+01
 1.8187250E+01  2.3230572E+01
 1.8198751E+01  2.3212730E+01
 1.8210251E+01  2.3237013E+01
 1.8221750E+01  2.3259756E+01
 1.8233252E+01  2.3282446E+01
 1.8244751E+01  2.3314266E+01
 1.8256250E+01  2.3333307E+01
 1.8267752E+01  2.3311806E+01
 1.8279251E+01  2.3304205E+01
 1.8290751E+01  2.3269506E+01
 1.8302252E+01  2.3243649E+01
 1.8313751E+01  2.3248167E+01
 1.8325251E+01  2.3314085E+01
 1.8336750E+01  2.3345057E+01
 1.8348251E+01  2.3318384E+01
 1.8359751E+01  2.3316841E+01
 1.8371250E+01  2.3280775E+01
 1.8382751E+01  2.3248585E+01
 1.8394251E+01  2.3258154E+01
 1.8405750E+01  2.3258898E+01
 1.8417252E+01  2.3259678E+01
 1.8428751E+01  2.3230204E+01
 1.8440250E+01  2.3228857E+01
 1.8451752E+01  2.3176809E+01
 1.8463251E+01  2.3157845E+01
 1.8474751E+01  2.3174820E+01
 1.8486252E+01  2.3222551E+01
 1.8497751E+01  2.3266716E+01
 1.8509251E+01  2.3258593E+01
 1.8520750E+01  2.3226488E+01
 1.8532251E+01  2.3181265E+01
 1.8543751E+01  2.3141403E+01
 1.8555250E+01  2.3116581E+01
 1.8566751E+01  2.3111689E+01
 1.8578251E+01  2.3184311E+01
 1.8589750E+01  2.3249235E+01
 1.8601252E+01  2.3333881E+01
 1.8612751E+01  2.3292265E+01
 1.8624250E+01  2.3225134E+01
 1.8635752E+01  2.3170956E+01
 1.8647251E+01  2.3128532E+01
 1.8658751E+01  2.3161135E+01
 1.8670252E+01  2.3189533E+01
 1.8681751E+01  2.3264614E+01
 1.8693251E+01  2.3309946E+01
 1.8704750E+01  2.3276552E+01
 1.8716251E+01  2.3251019E+01
 1.8727751E+01  2.3195383E+01
 1.8739250E+01  2.3161898E+01
 1.8750751E+01  2.3166563E+01
 1.8762251E+01  2.3160553E+01
 1.8773750E+01  2.3187569E+01
 1.8785252E+01  2.3197235E+01
 1.8796751E+01  2.3268072E+01
 1.8808250E+01  2.3272301E+01
 1.8819752E+01  2.3290813E+01
 1.8831251E+01  2.3283913E+01
 1.8842751E+01  2.3271072E+01
 1.8854252E+01  2.3217352E+01
 1.8865751E+01  2.3173887E+01
 1.8877251E+01  2.3165510E+01
 1.8888750E+01  2.3146585E+01
 1.8900251E+01  2.3120468E+01
 1.8911751E+01  2.3136515E+01
 1.8923250E+01  2.3177755E+01
 1.8934752E+01  2.3262598E+01
 1.8946251E+01  2.3313234E+01
 1.8957750E+01  2.3286135E+01
 1.8969252E+01  2.3246618E+01
 1.8980751E+01  2.3216967E+01
 1.8992250E+01  2.3195724E+01
 1.9003752E+01  2.3145271E+01
 1.9015251E+01  2.3167820E+01
 1.9026751E+01  2.3264719E+01
 1.9038252E+01  2.3262915E+01
 1.9049751E+01  2.3228498E+01
 1.9061251E+01  2.3184273E+01
 1.9072750E+01  2.3194658E+01
 1.9084251E+01  2.3149780E+01
 1.9095751E+01  2.3129004E+01
 1.9107250E+01  2.3115105E+01
 1.9118752E+01  2.3104979E+01
 1.9130251E+01  2.3145437E+01
 1.9141750E+01  2.3149376E+01
 1.9153252E+01  2.3162754E+01
 1.9164751E+01  2.3092873E+01
 1.9176250E+01  2.3108484E+01
 1.9187752E+01  2.3114033E+01
 1.9199251E+01  2.3134464E+01
 1.9210751E+01  2.3175711E+01
 1.9222252E+01  2.3189966E+01
 1.9233751E+01  2.3177946E+01
 1.9245251E+01  2.3176247E+01
 1.9256750E+01  2.3214352E+01
 1.9268251E+01  2.3257238E+01
 1.9279751E+01  2.3253334E+01
 1.9291250E+01  2.3265217E+01
 1.9302752E+01  2.3250978E+01
 1.9314251E+01  2.3241461E+01
 1.9325750E+01  2.3211836E+01
 1.9337252E+01  2.3211533E+01
 1.9348751E+01  2.3205574E+01
 1.9360250E+01  2.3190857E+01
 1.9371752E+01  2.3201134E+01
 1.9383251E+01  2.3173635E+01
 1.9394751E+01  2.3191410E+01
 1.9406250E+01  2.3184072E+01
 1.9417751E+01  2.3242819E+01
 1.9429251E+01  2.3275965E+01
 1.9440750E+01  2.3263014E+01
 1.9452251E+01  2.3264261E+01
 1.9463751E+01  2.3272905E+01
 1.9475250E+01  2.3266117E+01
 1.9486752E+01  2.3262718E+01
 1.9498251E+01  2.3222322E+01
 1.9509750E+01  2.3213228E+01
 1.9521252E+01  2.3194822E+01
 1.9532751E+01  2.3196142E+01
 1.9544250E+01  2.3229565E+01
 1.9555752E+01  2.3195620E+01
 1.9567251E+01  2.3208511E+01
 1.9578751E+01  2.3241005E+01
 1.9590250E+01  2.3296789E+01
 1.9601751E+01  2.3324175E+01
 1.9613251E+01  2.3328632E+01
 1.9624750E+01  2.3310963E+01
 1.9636251E+01  2.3273651E+01
 1.9647751E+01  2.3260828E+01
 1.9659250E+01  2.3273829E+01
 1.9670752E+01  2.3302351E+01
 1.9682251E+01  2.3348907E+01
 1.9693750E+01  2.3453735E+01
 1.9705252E+01  2.3526979E+01
 1.9716751E+01  2.3571489E+01
 1.9728251E+01  2.3544432E+01
 1.9739752E+01  2.3532824E+01
 1.9751251E+01  2.3485136E+01
 1.9762751E+01  2.3480774E+01
 1.9774250E+01  2.3469313E+01
 1.9785751E+01  2.3507334E+01
 1.9797251E+01  2.3508917E+01
 1.9808750E+01  2.3541624E+01
 1.9820251E+01  2.3554888E+01
 1.9831751E+01  2.3634687E+01
 1.9843250E+01  2.3670692E+01
 1.9854752E+01  2.3726654E+01
 1.9866251E+01  2.3710133E+01
 1.9877750E+01  2.3700024E+01
 1.9889252E+01  2.3638107E+01
 1.9900751E+01  2.3585167E+01
 1.9912251E+01  2.3511574E+01
 1.9923752E+01  2.3428217E+01
 1.9935251E+01  2.3331871E+01
 1.9946751E+01  2.3287018E+01
 1.9958250E+01  2.3277100E+01
 1.9969751E+01  2.3322660E+01
 1.9981251E+01  2.3342190E+01
 1.9992750E+01  2.3389729E+01
 2.0004251E+01  2.3391111E+01
 2.0015751E+01  2.3376656E+01
 2.0027250E+01  2.3347803E+01
 2.0038752E+01  2.3345991E+01
 2.0050251E+01  2.3389277E+01
 2.0061750E+01  2.3360680E+01
 2.0073252E+01  2.3360598E+01
 2.0084751E+01  2.3349787E+01
 2.0096251E+01  2.3437546E+01
 2.0107752E+01  2.3450891E+01
 2.0119251E+01  2.3427507E+01
 2.0130751E+01  2.3368950E+01
 2.0142250E+01  2.3306585E+01
 2.0153751E+01  2.3259350E+01
 2.0165251E+01  2.3238007E+01
 2.0176750E+01  2.3277096E+01
 2.0188251E+01  2.3298027E+01
 2.0199751E+01  2.3295580E+01
 2.0211250E+01  2.3275799E+01
 2.0222752E+01  2.3309719E+01
 2.0234251E+01  2.3367838E+01
 2.0245750E+01  2.3414955E+01
 2.0257252E+01  2.3410559E+01
 2.0268751E+01  2.3350683E+01
 2.0280251E+01  2.3343124E+01
 2.0291752E+01  2.3325596E+01
 2.0303251E+01  2.3327875E+01
 2.0314751E+01  2.3351635E+01
 2.0326250E+01  2.3340897E+01
 2.0337751E+01  2.3356037E+01
 2.0349251E+01  2.3336973E+01
 2.0360750E+01  2.3375914E+01
 2.0372252E+01  2.3385820E+01
 2.0383751E+01  2.3356922E+01
 2.0395250E+01  2.3364382E+01
 2.0406752E+01  2.3340557E+01
 2.0418251E+01  2.3399040E+01
 2.0429750E+01  2.3355326E+01
 2.0441252E+01  2.3345343E+01
 2.0452751E+01  2.3331724E+01
 2.0464251E+01  2.3345440E+01
 2.0475752E+01  2.3303019E+01
 2.0487251E+01  2.3271908E+01
 2.0498751E+01  2.3286989E+01
 2.0510250E+01  2.3315140E+01
 2.0521751E+01  2.3315233E+01
 2.0533251E+01  2.3292358E+01
 2.0544750E+01  2.3305387E+01
 2.0556252E+01  2.3391651E+01
 2.0567751E+01  2.3447433E+01
 2.0579250E+01  2.3479855E+01
 2.0590752E+01  2.3511042E+01
 2.0602251E+01  2.3508892E+01
 2.0613750E+01  2.3511070E+01
 2.0625252E+01  2.3505749E+01
 2.0636751E+01  2.3513430E+01
 2.0648251E+01  2.3442234E+01
 2.0659752E+01  2.3393997E+01
 2.0671251E+01  2.3337652E+01
 2.0682751E+01  2.3403973E+01
 2.0694250E+01  2.3464594E+01
 2.0705751E+01  2.3581709E+01
 2.0717251E+01  2.3688133E+01
 2.0728750E+01  2.3772346E+01
 2.0740252E+01  2.3795467E+01
 2.0751751E+01  2.3820551E+01
 2.0763250E+01  2.3846685E+01
 2.0774752E+01  2.3827421E+01
 2.0786251E+01  2.3748346E+01
 2.0797750E+01  2.3649935E+01
 2.0809252E+01  2.3592785E+01
 2.0820751E+01  2.3518412E+01
 2.0832251E+01  2.3509844E+01
 2.0843752E+01  2.3527624E+01
 2.0855251E+01  2.3566099E+01
 2.0866751E+01  2.3602385E+01
 2.0878250E+01  2.3641613E+01
 2.0889751E+01  2.3651377E+01
 2.0901251E+01  2.3618805E+01
 2.0912750E+01  2.3587708E+01
 2.0924252E+01  2.3580755E+01
 2.0935751E+01  2.3584574E+01
 2.0947250E+01  2.3624868E+01
 2.0958752E+01  2.3614029E+01
 2.0970251E+01  2.3581221E+01
 2.0981750E+01  2.3537415E+01
 2.0993252E+01  2.3510462E+01
 2.1004751E+01  2.3493540E+01
 2.1016251E+01  2.3478806E+01
 2.1027752E+01  2.3489559E+01
 2.1039251E+01  2.3503584E+01
 2.1050751E+01  2.3499704E+01
 2.1062250E+01  2.3535793E+01
 2.1073751E+01  2.3523748E+01
 2.1085251E+01  2.3566555E+01
 2.1096750E+01  2.3575693E+01
 2.1108252E+01  2.3638109E+01
 2.1119751E+01  2.3634764E+01
 2.1131250E+01  2.3614674E+01
 2.1142752E+01  2.3557419E+01
 2.1154251E+01  2.3525892E+01
 2.1165751E+01  2.3542219E+01
 2.1177252E+01  2.3576530E+01
 2.1188751E+01  2.3610332E+01
 2.1200251E+01  2.3625204E+01
 2.1211752E+01  2.3607149E+01
 2.1223251E+01  2.3635118E+01
 2.1234751E+01  2.3634104E+01
 2.1246250E+01  2.3664762E+01
 2.1257751E+01  2.3673826E+01
 2.1269251E+01  2.3687613E+01
 2.1280750E+01  2.3656878E+01
 2.1292252E+01  2.3635885E+01
 2.1303751E+01  2.3595762E+01
 2.1315250E+01  2.3532394E+01
 2.1326752E+01  2.3535278E+01
 2.1338251E+01  2.3558016E+01
 2.1349751E+01  2.3498869E+01
 2.1361252E+01  2.3461945E+01
 2.1372751E+01  2.3520969E+01
 2.1384251E+01  2.3536316E+01
 2.1395752E+01  2.3568605E+01
 2.1407251E+01  2.3586576E+01
 2.1418751E+01  2.3620163E+01
 2.1430250E+01  2.3612257E+01
 2.1441751E+01  2.3568762E+01
 2.1453251E+01  2.3576859E+01
 2.1464750E+01  2.3622004E+01
 2.1476252E+01  2.3657806E+01
 2.1487751E+01  2.3672565E+01
 2.1499250E+01  2.3675142E+01
 2.1510752E+01  2.3657997E+01
 2.1522251E+01  2.3682007E+01
 2.1533751E+01  2.3666328E+01
 2.1545252E+01  2.3649584E+01
 2.1556751E+01  2.3606148E+01
 2.1568251E+01  2.3641159E+01
 2.1579752E+01  2.3682104E+01
 2.1591251E+01  2.3717369E+01
 2.1602751E+01  2.3763575E+01
 2.1614250E+01  2.3773010E+01
 2.1625751E+01  2.3777193E+01
 2.1637251E+01  2.3765638E+01
 2.1648750E+01  2.3747807E+01
 2.1660252E+01  2.3720907E+01
 2.1671751E+01  2.3691986E+01
 2.1683250E+01  2.3715622E+01
 2.1694752E+01  2.3727316E+01
 2.1706251E+01  2.3762381E+01
 2.1717751E+01  2.3742376E+01
 2.1729252E+01  2.3749674E+01
 2.1740751E+01  2.3763847E+01
 2.1752251E+01  2.3763374E+01
 2.1763752E+01  2.3769531E+01
 2.1775251E+01  2.3796198E+01
 2.1786751E+01  2.3816891E+01
 2.1798250E+01  2.3871672E+01
 2.1809752E+01  2.3903170E+01
 2.1821251E+01  2.3933960E+01
 2.1832750E+01  2.3846533E+01
 2.1844252E+01  2.3815060E+01
 2.1855751E+01  2.3821285E+01
 2.1867250E+01  2.3817183E+01
 2.1878752E+01  2.3831614E+01
 2.1890251E+01  2.3819082E+01
 2.1901751E+01  2.3869740E+01
 2.1913252E+01  2.3888092E+01
 2.1924751E+01  2.3896282E+01
 2.1936251E+01  2.3864559E+01
 2.1947752E+01  2.3805260E+01
 2.1959251E+01  2.3801527E+01
 2.1970751E+01  2.3819923E+01
 2.1982250E+01  2.3846905E+01
 2.1993752E+01  2.3847855E+01
 2.2005251E+01  2.3851681E+01
 2.2016750E+01  2.3862986E+01
 2.2028252E+01  2.3888136E+01
 2.2039751E+01  2.3898670E+01
 2.2051250E+01  2.3872950E+01
 2.2062752E+01  2.3804310E+01
 2.2074251E+01  2.3816475E+01
 2.2085751E+01  2.3837282E+01
 2.2097252E+01  2.3866411E+01
 2.2108751E+01  2.3852226E+01
 2.2120251E+01  2.3915178E+01
 2.2131752E+01  2.3962963E+01
 2.2143251E+01  2.3966951E+01
 2.2154751E+01  2.3942131E+01
 2.2166250E+01  2.3938852E+01
 2.2177752E+01  2.3937767E+01
 2.2189251E+01  2.3885092E+01
 2.2200750E+01  2.3873915E+01
 2.2212252E+01  2.3907476E+01
 2.2223751E+01  2.3994806E+01
 2.2235250E+01  2.4027731E+01
 2.2246752E+01  2.4076799E+01
 2.2258251E+01  2.4079437E+01
 2.2269751E+01  2.4071161E+01
 2.2281252E+01  2.4069494E+01
 2.2292751E+01  2.4126553E+01
 2.2304251E+01  2.4242846E+01
 2.2315752E+01  2.4290562E+01
 2.2327251E+01  2.4281301E+01
 2.2338751E+01  2.4228968E+01
 2.2350250E+01  2.4218367E+01
 2.2361752E+01  2.4232946E+01
 2.2373251E+01  2.4225374E+01
 2.2384750E+01  2.4188219E+01
 2.2396252E+01  2.4165958E+01
 2.2407751E+01  2.4109747E+01
 2.2419250E+01  2.4057905E+01
 2.2430752E+01  2.4072901E+01
 2.2442251E+01  2.4162590E+01
 2.2453751E+01  2.4240801E+01
 2.2465252E+01  2.4282883E+01
 2.2476751E+01  2.4265623E+01
 2.2488251E+01  2.4265299E+01
 2.2499752E+01  2.4301155E+01
 2.2511251E+01  2.4363558E+01
 2.2522751E+01  2.4478344E+01
 2.2534250E+01  2.4504230E+01
 2.2545752E+01  2.4496355E+01
 2.2557251E+01  2.4471376E+01
 2.2568750E+01  2.4469416E+01
 2.2580252E+01  2.4478302E+01
 2.2591751E+01  2.4520159E+01
 2.2603251E+01  2.4573214E+01
 2.2614752E+01  2.4620520E+01
 2.2626251E+01  2.4653303E+01
 2.2637751E+01  2.4704752E+01
 2.2649252E+01  2.4705889E+01
 2.2660751E+01  2.4765001E+01
 2.2672251E+01  2.4779762E+01
 2.2683752E+01  2.4824207E+01
 2.2695251E+01  2.4865116E+01
 2.2706751E+01  2.4856800E+01
 2.2718250E+01  2.4871571E+01
 2.2729752E+01  2.4843462E+01
 2.2741251E+01  2.4868599E+01
 2.2752750E+01  2.4886089E+01
 2.2764252E+01  2.4897957E+01
 2.2775751E+01  2.4920126E+01
 2.2787251E+01  2.4905909E+01
 2.2798752E+01  2.4941311E+01
 2.2810251E+01  2.4970814E+01
 2.2821751E+01  2.4992023E+01
 2.2833252E+01  2.5020840E+01
 2.2844751E+01  2.5069551E+01
 2.2856251E+01  2.5093601E+01
 2.2867750E+01  2.5148594E+01
 2.2879251E+01  2.5185919E+01
 2.2890751E+01  2.5239311E+01
 2.2902250E+01  2.5273886E+01
 2.2913752E+01  2.5316444E+01
 2.2925251E+01  2.5385153E+01
 2.2936750E+01  2.5400427E+01
 2.2948252E+01  2.5468719E+01
 2.2959751E+01  2.5500280E+01
 2.2971251E+01  2.5630196E+01
 2.2982752E+01  2.5646957E+01
 2.2994251E+01  2.5702389E+01
