F:\20151113_APS_34IDE\\Brian\Particle1\OCV\Data_0118.tif
2-Theta Angle (Degrees)
Intensity
       2000
 5.7500005E-03  0.0000000E+00
 1.7250001E-02  0.0000000E+00
 2.8750001E-02  0.0000000E+00
 4.0250003E-02  0.0000000E+00
 5.1750004E-02  0.0000000E+00
 6.3250005E-02  0.0000000E+00
 7.4750006E-02  0.0000000E+00
 8.6250007E-02  0.0000000E+00
 9.7750008E-02  0.0000000E+00
 1.0925001E-01  0.0000000E+00
 1.2075000E-01  0.0000000E+00
 1.3225001E-01  0.0000000E+00
 1.4375001E-01  0.0000000E+00
 1.5525001E-01  0.0000000E+00
 1.6675001E-01  0.0000000E+00
 1.7825001E-01  0.0000000E+00
 1.8975002E-01  0.0000000E+00
 2.0125002E-01  0.0000000E+00
 2.1275002E-01  0.0000000E+00
 2.2425000E-01  0.0000000E+00
 2.3575000E-01  0.0000000E+00
 2.4725001E-01  0.0000000E+00
 2.5875002E-01  0.0000000E+00
 2.7025002E-01  0.0000000E+00
 2.8175002E-01  0.0000000E+00
 2.9325002E-01  0.0000000E+00
 3.0475003E-01  0.0000000E+00
 3.1625003E-01  0.0000000E+00
 3.2775003E-01  0.0000000E+00
 3.3925003E-01  0.0000000E+00
 3.5075003E-01  0.0000000E+00
 3.6225003E-01  0.0000000E+00
 3.7375003E-01  0.0000000E+00
 3.8525003E-01  0.0000000E+00
 3.9675003E-01  0.0000000E+00
 4.0825003E-01  0.0000000E+00
 4.1975003E-01  0.0000000E+00
 4.3125004E-01  0.0000000E+00
 4.4275001E-01  0.0000000E+00
 4.5425001E-01  0.0000000E+00
 4.6575001E-01  0.0000000E+00
 4.7725001E-01  0.0000000E+00
 4.8875001E-01  0.0000000E+00
 5.0025004E-01  0.0000000E+00
 5.1175004E-01  0.0000000E+00
 5.2325004E-01  0.0000000E+00
 5.3475004E-01  0.0000000E+00
 5.4625005E-01  0.0000000E+00
 5.5775005E-01  0.0000000E+00
 5.6925005E-01  0.0000000E+00
 5.8075005E-01  0.0000000E+00
 5.9225005E-01  0.0000000E+00
 6.0375005E-01  0.0000000E+00
 6.1525005E-01  0.0000000E+00
 6.2675005E-01  0.0000000E+00
 6.3825005E-01  0.0000000E+00
 6.4975005E-01  0.0000000E+00
 6.6125005E-01  0.0000000E+00
 6.7275006E-01  0.0000000E+00
 6.8425006E-01  0.0000000E+00
 6.9575006E-01  0.0000000E+00
 7.0725006E-01  0.0000000E+00
 7.1875006E-01  0.0000000E+00
 7.3025006E-01  0.0000000E+00
 7.4175006E-01  0.0000000E+00
 7.5325006E-01  0.0000000E+00
 7.6475006E-01  0.0000000E+00
 7.7625006E-01  0.0000000E+00
 7.8775007E-01  0.0000000E+00
 7.9925007E-01  0.0000000E+00
 8.1075007E-01  0.0000000E+00
 8.2225007E-01  0.0000000E+00
 8.3375007E-01  0.0000000E+00
 8.4525007E-01  0.0000000E+00
 8.5675007E-01  0.0000000E+00
 8.6825007E-01  0.0000000E+00
 8.7975001E-01  0.0000000E+00
 8.9125001E-01  0.0000000E+00
 9.0275002E-01  0.0000000E+00
 9.1425002E-01  0.0000000E+00
 9.2575002E-01  0.0000000E+00
 9.3725002E-01  0.0000000E+00
 9.4875002E-01  0.0000000E+00
 9.6025002E-01  0.0000000E+00
 9.7175002E-01  0.0000000E+00
 9.8325002E-01  0.0000000E+00
 9.9475002E-01  0.0000000E+00
 1.0062500E+00  0.0000000E+00
 1.0177500E+00  0.0000000E+00
 1.0292500E+00  0.0000000E+00
 1.0407500E+00  0.0000000E+00
 1.0522500E+00  0.0000000E+00
 1.0637500E+00  0.0000000E+00
 1.0752500E+00  0.0000000E+00
 1.0867500E+00  0.0000000E+00
 1.0982500E+00  0.0000000E+00
 1.1097500E+00  0.0000000E+00
 1.1212500E+00  0.0000000E+00
 1.1327500E+00  0.0000000E+00
 1.1442500E+00  0.0000000E+00
 1.1557500E+00  0.0000000E+00
 1.1672500E+00  0.0000000E+00
 1.1787500E+00  0.0000000E+00
 1.1902500E+00  0.0000000E+00
 1.2017500E+00  0.0000000E+00
 1.2132500E+00  0.0000000E+00
 1.2247500E+00  0.0000000E+00
 1.2362500E+00  0.0000000E+00
 1.2477500E+00  0.0000000E+00
 1.2592500E+00  0.0000000E+00
 1.2707500E+00  0.0000000E+00
 1.2822500E+00  0.0000000E+00
 1.2937500E+00  0.0000000E+00
 1.3052500E+00  0.0000000E+00
 1.3167500E+00  0.0000000E+00
 1.3282501E+00  0.0000000E+00
 1.3397501E+00  0.0000000E+00
 1.3512501E+00  0.0000000E+00
 1.3627501E+00  0.0000000E+00
 1.3742501E+00  0.0000000E+00
 1.3857501E+00  0.0000000E+00
 1.3972501E+00  0.0000000E+00
 1.4087501E+00  0.0000000E+00
 1.4202501E+00  0.0000000E+00
 1.4317501E+00  0.0000000E+00
 1.4432501E+00  0.0000000E+00
 1.4547501E+00  0.0000000E+00
 1.4662501E+00  0.0000000E+00
 1.4777501E+00  0.0000000E+00
 1.4892501E+00  0.0000000E+00
 1.5007501E+00  0.0000000E+00
 1.5122501E+00  0.0000000E+00
 1.5237501E+00  0.0000000E+00
 1.5352501E+00  0.0000000E+00
 1.5467501E+00  0.0000000E+00
 1.5582501E+00  0.0000000E+00
 1.5697501E+00  0.0000000E+00
 1.5812501E+00  0.0000000E+00
 1.5927501E+00  0.0000000E+00
 1.6042501E+00  0.0000000E+00
 1.6157501E+00  0.0000000E+00
 1.6272501E+00  0.0000000E+00
 1.6387501E+00  0.0000000E+00
 1.6502501E+00  0.0000000E+00
 1.6617501E+00  0.0000000E+00
 1.6732501E+00  0.0000000E+00
 1.6847501E+00  0.0000000E+00
 1.6962501E+00  0.0000000E+00
 1.7077501E+00  0.0000000E+00
 1.7192501E+00  0.0000000E+00
 1.7307501E+00  0.0000000E+00
 1.7422501E+00  0.0000000E+00
 1.7537501E+00  0.0000000E+00
 1.7652501E+00  0.0000000E+00
 1.7767501E+00  0.0000000E+00
 1.7882501E+00  0.0000000E+00
 1.7997501E+00  0.0000000E+00
 1.8112501E+00  0.0000000E+00
 1.8227501E+00  0.0000000E+00
 1.8342501E+00  0.0000000E+00
 1.8457501E+00  0.0000000E+00
 1.8572501E+00  0.0000000E+00
 1.8687501E+00  0.0000000E+00
 1.8802501E+00  0.0000000E+00
 1.8917501E+00  0.0000000E+00
 1.9032501E+00  0.0000000E+00
 1.9147501E+00  0.0000000E+00
 1.9262501E+00  0.0000000E+00
 1.9377501E+00  0.0000000E+00
 1.9492501E+00  0.0000000E+00
 1.9607501E+00  0.0000000E+00
 1.9722501E+00  0.0000000E+00
 1.9837501E+00  0.0000000E+00
 1.9952501E+00  0.0000000E+00
 2.0067501E+00  0.0000000E+00
 2.0182500E+00  0.0000000E+00
 2.0297501E+00  0.0000000E+00
 2.0412500E+00  0.0000000E+00
 2.0527501E+00  0.0000000E+00
 2.0642500E+00  0.0000000E+00
 2.0757501E+00  0.0000000E+00
 2.0872500E+00  0.0000000E+00
 2.0987501E+00  0.0000000E+00
 2.1102500E+00  0.0000000E+00
 2.1217501E+00  0.0000000E+00
 2.1332500E+00  0.0000000E+00
 2.1447501E+00  0.0000000E+00
 2.1562500E+00  0.0000000E+00
 2.1677501E+00  0.0000000E+00
 2.1792500E+00  0.0000000E+00
 2.1907501E+00  0.0000000E+00
 2.2022500E+00  0.0000000E+00
 2.2137501E+00  0.0000000E+00
 2.2252500E+00  0.0000000E+00
 2.2367501E+00  0.0000000E+00
 2.2482500E+00  0.0000000E+00
 2.2597501E+00  0.0000000E+00
 2.2712500E+00  0.0000000E+00
 2.2827501E+00  0.0000000E+00
 2.2942500E+00  0.0000000E+00
 2.3057501E+00  0.0000000E+00
 2.3172500E+00  0.0000000E+00
 2.3287501E+00  0.0000000E+00
 2.3402500E+00  0.0000000E+00
 2.3517501E+00  0.0000000E+00
 2.3632500E+00  0.0000000E+00
 2.3747501E+00  0.0000000E+00
 2.3862500E+00  0.0000000E+00
 2.3977501E+00  0.0000000E+00
 2.4092500E+00  0.0000000E+00
 2.4207501E+00  0.0000000E+00
 2.4322500E+00  0.0000000E+00
 2.4437501E+00  0.0000000E+00
 2.4552500E+00  0.0000000E+00
 2.4667501E+00  0.0000000E+00
 2.4782500E+00  0.0000000E+00
 2.4897501E+00  0.0000000E+00
 2.5012500E+00  0.0000000E+00
 2.5127501E+00  0.0000000E+00
 2.5242500E+00  0.0000000E+00
 2.5357502E+00  0.0000000E+00
 2.5472500E+00  0.0000000E+00
 2.5587502E+00  0.0000000E+00
 2.5702500E+00  0.0000000E+00
 2.5817502E+00  0.0000000E+00
 2.5932500E+00  0.0000000E+00
 2.6047502E+00  0.0000000E+00
 2.6162500E+00  0.0000000E+00
 2.6277502E+00  0.0000000E+00
 2.6392500E+00  0.0000000E+00
 2.6507502E+00  0.0000000E+00
 2.6622500E+00  0.0000000E+00
 2.6737502E+00  0.0000000E+00
 2.6852500E+00  0.0000000E+00
 2.6967502E+00  0.0000000E+00
 2.7082500E+00  0.0000000E+00
 2.7197502E+00  0.0000000E+00
 2.7312500E+00  0.0000000E+00
 2.7427502E+00  0.0000000E+00
 2.7542500E+00  0.0000000E+00
 2.7657502E+00  0.0000000E+00
 2.7772501E+00  0.0000000E+00
 2.7887502E+00  0.0000000E+00
 2.8002501E+00  0.0000000E+00
 2.8117502E+00  0.0000000E+00
 2.8232501E+00  3.3474133E+01
 2.8347502E+00  3.2256527E+01
 2.8462501E+00  3.1575308E+01
 2.8577502E+00  3.2085922E+01
 2.8692501E+00  3.2658611E+01
 2.8807502E+00  3.3797058E+01
 2.8922501E+00  3.4355381E+01
 2.9037502E+00  3.4694298E+01
 2.9152501E+00  3.5032967E+01
 2.9267502E+00  3.5321526E+01
 2.9382501E+00  3.5481632E+01
 2.9497502E+00  3.5659172E+01
 2.9612501E+00  3.5558182E+01
 2.9727502E+00  3.5926918E+01
 2.9842501E+00  3.5749477E+01
 2.9957502E+00  3.6330994E+01
 3.0072501E+00  3.6162460E+01
 3.0187502E+00  3.6054424E+01
 3.0302501E+00  3.6029552E+01
 3.0417502E+00  3.6112469E+01
 3.0532501E+00  3.6409367E+01
 3.0647502E+00  3.6162010E+01
 3.0762501E+00  3.6136658E+01
 3.0877502E+00  3.5843445E+01
 3.0992501E+00  3.5549931E+01
 3.1107502E+00  3.4946507E+01
 3.1222501E+00  3.4524635E+01
 3.1337502E+00  3.4411369E+01
 3.1452501E+00  3.4715611E+01
 3.1567502E+00  3.4805347E+01
 3.1682501E+00  3.5049007E+01
 3.1797502E+00  3.4966713E+01
 3.1912501E+00  3.4835712E+01
 3.2027502E+00  3.4666832E+01
 3.2142501E+00  3.4307259E+01
 3.2257502E+00  3.4322552E+01
 3.2372501E+00  3.4164818E+01
 3.2487502E+00  3.4107784E+01
 3.2602501E+00  3.4212975E+01
 3.2717502E+00  3.4107731E+01
 3.2832501E+00  3.4299072E+01
 3.2947502E+00  3.3881096E+01
 3.3062501E+00  3.3967167E+01
 3.3177502E+00  3.3779423E+01
 3.3292501E+00  3.3939617E+01
 3.3407502E+00  3.4019466E+01
 3.3522501E+00  3.4231834E+01
 3.3637502E+00  3.4291679E+01
 3.3752501E+00  3.4496906E+01
 3.3867502E+00  3.4465168E+01
 3.3982501E+00  3.4357018E+01
 3.4097502E+00  3.4243862E+01
 3.4212501E+00  3.4084671E+01
 3.4327502E+00  3.4221237E+01
 3.4442501E+00  3.4119534E+01
 3.4557502E+00  3.4176922E+01
 3.4672501E+00  3.4292210E+01
 3.4787502E+00  3.4386547E+01
 3.4902501E+00  3.4473335E+01
 3.5017502E+00  3.4279980E+01
 3.5132501E+00  3.4025455E+01
 3.5247502E+00  3.3765381E+01
 3.5362501E+00  3.3506176E+01
 3.5477502E+00  3.3343639E+01
 3.5592501E+00  3.3279598E+01
 3.5707502E+00  3.3144424E+01
 3.5822501E+00  3.3005726E+01
 3.5937502E+00  3.2889244E+01
 3.6052501E+00  3.2857445E+01
 3.6167502E+00  3.3012581E+01
 3.6282501E+00  3.2912285E+01
 3.6397502E+00  3.2877888E+01
 3.6512501E+00  3.3100800E+01
 3.6627502E+00  3.3034489E+01
 3.6742501E+00  3.3297310E+01
 3.6857502E+00  3.3226326E+01
 3.6972501E+00  3.3128887E+01
 3.7087502E+00  3.2939018E+01
 3.7202501E+00  3.2801620E+01
 3.7317502E+00  3.2800682E+01
 3.7432501E+00  3.3091873E+01
 3.7547503E+00  3.3190849E+01
 3.7662501E+00  3.3317791E+01
 3.7777503E+00  3.3063713E+01
 3.7892501E+00  3.2752834E+01
 3.8007503E+00  3.2443760E+01
 3.8122501E+00  3.2321415E+01
 3.8237503E+00  3.2289886E+01
 3.8352501E+00  3.2149017E+01
 3.8467503E+00  3.2185318E+01
 3.8582501E+00  3.2173298E+01
 3.8697503E+00  3.2389046E+01
 3.8812501E+00  3.2441525E+01
 3.8927503E+00  3.2565361E+01
 3.9042501E+00  3.2651939E+01
 3.9157503E+00  3.2909668E+01
 3.9272501E+00  3.3045986E+01
 3.9387503E+00  3.3149532E+01
 3.9502501E+00  3.2912796E+01
 3.9617503E+00  3.2773022E+01
 3.9732502E+00  3.2678181E+01
 3.9847503E+00  3.2566071E+01
 3.9962502E+00  3.2515194E+01
 4.0077500E+00  3.2254246E+01
 4.0192504E+00  3.2177727E+01
 4.0307503E+00  3.2051914E+01
 4.0422502E+00  3.2049389E+01
 4.0537500E+00  3.2166267E+01
 4.0652504E+00  3.2187851E+01
 4.0767503E+00  3.2302464E+01
 4.0882502E+00  3.2192043E+01
 4.0997500E+00  3.2165337E+01
 4.1112504E+00  3.2054932E+01
 4.1227503E+00  3.1972408E+01
 4.1342502E+00  3.1922501E+01
 4.1457500E+00  3.1991169E+01
 4.1572504E+00  3.1947418E+01
 4.1687503E+00  3.2110439E+01
 4.1802502E+00  3.2063358E+01
 4.1917500E+00  3.2224644E+01
 4.2032504E+00  3.2267662E+01
 4.2147503E+00  3.2361893E+01
 4.2262502E+00  3.2422890E+01
 4.2377501E+00  3.2466385E+01
 4.2492504E+00  3.2315804E+01
 4.2607503E+00  3.2252483E+01
 4.2722502E+00  3.2048679E+01
 4.2837501E+00  3.1976282E+01
 4.2952504E+00  3.1832901E+01
 4.3067503E+00  3.1864721E+01
 4.3182502E+00  3.1915180E+01
 4.3297501E+00  3.1853685E+01
 4.3412504E+00  3.1810408E+01
 4.3527503E+00  3.1689665E+01
 4.3642502E+00  3.1680754E+01
 4.3757501E+00  3.1626419E+01
 4.3872504E+00  3.1627399E+01
 4.3987503E+00  3.1734884E+01
 4.4102502E+00  3.1810684E+01
 4.4217501E+00  3.1804758E+01
 4.4332504E+00  3.1846382E+01
 4.4447503E+00  3.1817841E+01
 4.4562502E+00  3.1897133E+01
 4.4677501E+00  3.1910360E+01
 4.4792504E+00  3.1934534E+01
 4.4907503E+00  3.1881159E+01
 4.5022502E+00  3.1925209E+01
 4.5137501E+00  3.1961739E+01
 4.5252504E+00  3.2169464E+01
 4.5367503E+00  3.2360199E+01
 4.5482502E+00  3.2467960E+01
 4.5597501E+00  3.2451633E+01
 4.5712504E+00  3.2342651E+01
 4.5827503E+00  3.2345463E+01
 4.5942502E+00  3.2360603E+01
 4.6057501E+00  3.2312241E+01
 4.6172504E+00  3.2433437E+01
 4.6287503E+00  3.2446777E+01
 4.6402502E+00  3.2768894E+01
 4.6517501E+00  3.2711132E+01
 4.6632504E+00  3.2879604E+01
 4.6747503E+00  3.2657246E+01
 4.6862502E+00  3.2733051E+01
 4.6977501E+00  3.2584454E+01
 4.7092505E+00  3.2604549E+01
 4.7207503E+00  3.2568527E+01
 4.7322502E+00  3.2396320E+01
 4.7437501E+00  3.2389252E+01
 4.7552505E+00  3.2225819E+01
 4.7667503E+00  3.2296009E+01
 4.7782502E+00  3.2247334E+01
 4.7897501E+00  3.2304573E+01
 4.8012505E+00  3.2249527E+01
 4.8127503E+00  3.2222343E+01
 4.8242502E+00  3.2195244E+01
 4.8357501E+00  3.2188690E+01
 4.8472505E+00  3.2212284E+01
 4.8587503E+00  3.2300800E+01
 4.8702502E+00  3.2270744E+01
 4.8817501E+00  3.2329388E+01
 4.8932505E+00  3.2318562E+01
 4.9047503E+00  3.2462639E+01
 4.9162502E+00  3.2548489E+01
 4.9277501E+00  3.2599751E+01
 4.9392505E+00  3.2643585E+01
 4.9507504E+00  3.2737030E+01
 4.9622502E+00  3.2646034E+01
 4.9737501E+00  3.2730057E+01
 4.9852505E+00  3.2684879E+01
 4.9967504E+00  3.2794083E+01
 5.0082502E+00  3.2886375E+01
 5.0197501E+00  3.3070286E+01
 5.0312505E+00  3.3202602E+01
 5.0427504E+00  3.3270641E+01
 5.0542502E+00  3.3289402E+01
 5.0657501E+00  3.3380890E+01
 5.0772505E+00  3.3415848E+01
 5.0887504E+00  3.3318298E+01
 5.1002502E+00  3.3283703E+01
 5.1117501E+00  3.3224285E+01
 5.1232505E+00  3.3326752E+01
 5.1347504E+00  3.3493511E+01
 5.1462502E+00  3.3677086E+01
 5.1577501E+00  3.3736607E+01
 5.1692505E+00  3.3767605E+01
 5.1807504E+00  3.3653095E+01
 5.1922503E+00  3.3770763E+01
 5.2037501E+00  3.3713039E+01
 5.2152505E+00  3.3735294E+01
 5.2267504E+00  3.3668644E+01
 5.2382503E+00  3.3749969E+01
 5.2497501E+00  3.3800755E+01
 5.2612505E+00  3.3794716E+01
 5.2727504E+00  3.3754761E+01
 5.2842503E+00  3.3759594E+01
 5.2957501E+00  3.3809753E+01
 5.3072500E+00  3.3776894E+01
 5.3187504E+00  3.3705994E+01
 5.3302503E+00  3.3690022E+01
 5.3417501E+00  3.3710663E+01
 5.3532500E+00  3.3749249E+01
 5.3647504E+00  3.3807568E+01
 5.3762503E+00  3.3972130E+01
 5.3877501E+00  3.4183426E+01
 5.3992500E+00  3.4206242E+01
 5.4107504E+00  3.4130131E+01
 5.4222503E+00  3.4017841E+01
 5.4337502E+00  3.4041054E+01
 5.4452500E+00  3.4118763E+01
 5.4567504E+00  3.4193214E+01
 5.4682503E+00  3.4291363E+01
 5.4797502E+00  3.4399994E+01
 5.4912500E+00  3.4399158E+01
 5.5027504E+00  3.4364151E+01
 5.5142503E+00  3.4185791E+01
 5.5257502E+00  3.4222973E+01
 5.5372500E+00  3.4125805E+01
 5.5487504E+00  3.4125244E+01
 5.5602503E+00  3.4090981E+01
 5.5717502E+00  3.4133091E+01
 5.5832500E+00  3.4121845E+01
 5.5947504E+00  3.4160599E+01
 5.6062503E+00  3.4169689E+01
 5.6177502E+00  3.4378361E+01
 5.6292500E+00  3.4447926E+01
 5.6407504E+00  3.4530357E+01
 5.6522503E+00  3.4559719E+01
 5.6637502E+00  3.4647621E+01
 5.6752501E+00  3.4695908E+01
 5.6867504E+00  3.4754387E+01
 5.6982503E+00  3.4750355E+01
 5.7097502E+00  3.4985947E+01
 5.7212501E+00  3.5123867E+01
 5.7327504E+00  3.5234768E+01
 5.7442503E+00  3.5199421E+01
 5.7557502E+00  3.5205902E+01
 5.7672501E+00  3.5147541E+01
 5.7787504E+00  3.5147118E+01
 5.7902503E+00  3.5208626E+01
 5.8017502E+00  3.5262634E+01
 5.8132501E+00  3.5270554E+01
 5.8247504E+00  3.5283287E+01
 5.8362503E+00  3.5315098E+01
 5.8477502E+00  3.5336979E+01
 5.8592501E+00  3.5226452E+01
 5.8707504E+00  3.5272308E+01
 5.8822503E+00  3.5362679E+01
 5.8937502E+00  3.5581932E+01
 5.9052501E+00  3.5819180E+01
 5.9167504E+00  3.6058689E+01
 5.9282503E+00  3.6612011E+01
 5.9397502E+00  3.7208462E+01
 5.9512501E+00  3.8627510E+01
 5.9627504E+00  3.9569187E+01
 5.9742503E+00  4.1033920E+01
 5.9857502E+00  4.1352501E+01
 5.9972501E+00  4.1775242E+01
 6.0087504E+00  4.0725769E+01
 6.0202503E+00  4.0044567E+01
 6.0317502E+00  3.8595482E+01
 6.0432501E+00  3.7929493E+01
 6.0547504E+00  3.6994358E+01
 6.0662503E+00  3.6727837E+01
 6.0777502E+00  3.6501434E+01
 6.0892501E+00  3.6429279E+01
 6.1007504E+00  3.6409962E+01
 6.1122503E+00  3.6401138E+01
 6.1237502E+00  3.6469868E+01
 6.1352501E+00  3.6404942E+01
 6.1467505E+00  3.6341808E+01
 6.1582503E+00  3.6339649E+01
 6.1697502E+00  3.6451790E+01
 6.1812501E+00  3.6562469E+01
 6.1927505E+00  3.6581802E+01
 6.2042503E+00  3.6601772E+01
 6.2157502E+00  3.6645039E+01
 6.2272501E+00  3.6741394E+01
 6.2387505E+00  3.6742626E+01
 6.2502503E+00  3.6861851E+01
 6.2617502E+00  3.6916611E+01
 6.2732501E+00  3.7056820E+01
 6.2847505E+00  3.7129276E+01
 6.2962503E+00  3.7121426E+01
 6.3077502E+00  3.7121071E+01
 6.3192501E+00  3.7100815E+01
 6.3307505E+00  3.7220028E+01
 6.3422503E+00  3.7420013E+01
 6.3537502E+00  3.7606255E+01
 6.3652501E+00  3.7771473E+01
 6.3767505E+00  3.7808552E+01
 6.3882504E+00  3.7875275E+01
 6.3997502E+00  3.7945431E+01
 6.4112501E+00  3.8018002E+01
 6.4227505E+00  3.8028622E+01
 6.4342504E+00  3.8115868E+01
 6.4457502E+00  3.8187824E+01
 6.4572501E+00  3.8240078E+01
 6.4687505E+00  3.8271526E+01
 6.4802504E+00  3.8222221E+01
 6.4917502E+00  3.8343540E+01
 6.5032501E+00  3.8399277E+01
 6.5147505E+00  3.8546280E+01
 6.5262504E+00  3.8543694E+01
 6.5377502E+00  3.8583984E+01
 6.5492501E+00  3.8632214E+01
 6.5607505E+00  3.8741207E+01
 6.5722504E+00  3.8777836E+01
 6.5837502E+00  3.8839672E+01
 6.5952501E+00  3.8774811E+01
 6.6067505E+00  3.8827171E+01
 6.6182504E+00  3.8785316E+01
 6.6297503E+00  3.8980656E+01
 6.6412501E+00  3.9086128E+01
 6.6527505E+00  3.9338821E+01
 6.6642504E+00  3.9447044E+01
 6.6757503E+00  3.9571632E+01
 6.6872501E+00  3.9588963E+01
 6.6987505E+00  3.9655750E+01
 6.7102504E+00  3.9728260E+01
 6.7217503E+00  3.9814774E+01
 6.7332501E+00  3.9843704E+01
 6.7447505E+00  3.9865688E+01
 6.7562504E+00  3.9994179E+01
 6.7677503E+00  4.0058071E+01
 6.7792501E+00  4.0155369E+01
 6.7907505E+00  4.0153744E+01
 6.8022504E+00  4.0324936E+01
 6.8137503E+00  4.0462612E+01
 6.8252501E+00  4.0629047E+01
 6.8367505E+00  4.0698605E+01
 6.8482504E+00  4.0769104E+01
 6.8597503E+00  4.0824364E+01
 6.8712502E+00  4.0868977E+01
 6.8827505E+00  4.0960598E+01
 6.8942504E+00  4.1026936E+01
 6.9057503E+00  4.1119633E+01
 6.9172502E+00  4.1183193E+01
 6.9287505E+00  4.1148041E+01
 6.9402504E+00  4.1199459E+01
 6.9517503E+00  4.1304955E+01
 6.9632502E+00  4.1467625E+01
 6.9747505E+00  4.1624905E+01
 6.9862504E+00  4.1722775E+01
 6.9977503E+00  4.1854858E+01
 7.0092502E+00  4.1956371E+01
 7.0207505E+00  4.1913998E+01
 7.0322504E+00  4.1964367E+01
 7.0437503E+00  4.1982891E+01
 7.0552502E+00  4.2043613E+01
 7.0667505E+00  4.2015842E+01
 7.0782504E+00  4.1983658E+01
 7.0897503E+00  4.2023369E+01
 7.1012502E+00  4.2181931E+01
 7.1127505E+00  4.2323887E+01
 7.1242504E+00  4.2518654E+01
 7.1357503E+00  4.2626610E+01
 7.1472502E+00  4.2716496E+01
 7.1587505E+00  4.2789803E+01
 7.1702504E+00  4.2895462E+01
 7.1817503E+00  4.2884754E+01
 7.1932502E+00  4.2922173E+01
 7.2047505E+00  4.3007977E+01
 7.2162504E+00  4.3056866E+01
 7.2277503E+00  4.3162437E+01
 7.2392502E+00  4.3093719E+01
 7.2507505E+00  4.3188580E+01
 7.2622504E+00  4.3214367E+01
 7.2737503E+00  4.3274651E+01
 7.2852502E+00  4.3280540E+01
 7.2967505E+00  4.3229691E+01
 7.3082504E+00  4.3227425E+01
 7.3197503E+00  4.3232540E+01
 7.3312502E+00  4.3265003E+01
 7.3427505E+00  4.3301521E+01
 7.3542504E+00  4.3386906E+01
 7.3657503E+00  4.3541409E+01
 7.3772502E+00  4.3639442E+01
 7.3887506E+00  4.3747105E+01
 7.4002504E+00  4.3786026E+01
 7.4117503E+00  4.3788193E+01
 7.4232502E+00  4.3800735E+01
 7.4347506E+00  4.3731926E+01
 7.4462504E+00  4.3760895E+01
 7.4577503E+00  4.3686172E+01
 7.4692502E+00  4.3636761E+01
 7.4807506E+00  4.3558220E+01
 7.4922504E+00  4.3625603E+01
 7.5037503E+00  4.3650368E+01
 7.5152502E+00  4.3688725E+01
 7.5267506E+00  4.3603745E+01
 7.5382504E+00  4.3518707E+01
 7.5497503E+00  4.3385765E+01
 7.5612502E+00  4.3349888E+01
 7.5727506E+00  4.3412746E+01
 7.5842505E+00  4.3467319E+01
 7.5957503E+00  4.3557838E+01
 7.6072502E+00  4.3595783E+01
 7.6187506E+00  4.3691315E+01
 7.6302505E+00  4.3709606E+01
 7.6417503E+00  4.3724308E+01
 7.6532502E+00  4.3771675E+01
 7.6647506E+00  4.3725399E+01
 7.6762505E+00  4.3750248E+01
 7.6877503E+00  4.3795143E+01
 7.6992502E+00  4.3852390E+01
 7.7107506E+00  4.3929886E+01
 7.7222505E+00  4.3988304E+01
 7.7337503E+00  4.4080917E+01
 7.7452502E+00  4.4138405E+01
 7.7567506E+00  4.4148457E+01
 7.7682505E+00  4.4110874E+01
 7.7797503E+00  4.3943481E+01
 7.7912502E+00  4.3877628E+01
 7.8027506E+00  4.3742172E+01
 7.8142505E+00  4.3732441E+01
 7.8257504E+00  4.3676044E+01
 7.8372502E+00  4.3733276E+01
 7.8487506E+00  4.3725746E+01
 7.8602505E+00  4.3647217E+01
 7.8717504E+00  4.3489861E+01
 7.8832502E+00  4.3372040E+01
 7.8947506E+00  4.3195549E+01
 7.9062505E+00  4.3085613E+01
 7.9177504E+00  4.2983265E+01
 7.9292502E+00  4.3008823E+01
 7.9407506E+00  4.2971523E+01
 7.9522505E+00  4.2914913E+01
 7.9637504E+00  4.2905499E+01
 7.9752502E+00  4.2871971E+01
 7.9867506E+00  4.2887547E+01
 7.9982505E+00  4.2813797E+01
 8.0097504E+00  4.2786301E+01
 8.0212507E+00  4.2730721E+01
 8.0327501E+00  4.2612595E+01
 8.0442505E+00  4.2550640E+01
 8.0557508E+00  4.2536652E+01
 8.0672503E+00  4.2540344E+01
 8.0787506E+00  4.2382874E+01
 8.0902500E+00  4.2301247E+01
 8.1017504E+00  4.2206718E+01
 8.1132507E+00  4.2149147E+01
 8.1247501E+00  4.1973000E+01
 8.1362505E+00  4.1849689E+01
 8.1477509E+00  4.1717766E+01
 8.1592503E+00  4.1674400E+01
 8.1707506E+00  4.1593662E+01
 8.1822500E+00  4.1503769E+01
 8.1937504E+00  4.1367290E+01
 8.2052507E+00  4.1176720E+01
 8.2167501E+00  4.1004902E+01
 8.2282505E+00  4.0881466E+01
 8.2397509E+00  4.0793568E+01
 8.2512503E+00  4.0800575E+01
 8.2627506E+00  4.0671921E+01
 8.2742500E+00  4.0541573E+01
 8.2857504E+00  4.0344257E+01
 8.2972507E+00  4.0260479E+01
 8.3087502E+00  4.0090149E+01
 8.3202505E+00  4.0033131E+01
 8.3317509E+00  3.9845634E+01
 8.3432503E+00  3.9755383E+01
 8.3547506E+00  3.9565109E+01
 8.3662500E+00  3.9505657E+01
 8.3777504E+00  3.9313194E+01
 8.3892508E+00  3.9221344E+01
 8.4007502E+00  3.9034035E+01
 8.4122505E+00  3.8966221E+01
 8.4237509E+00  3.8766403E+01
 8.4352503E+00  3.8521496E+01
 8.4467506E+00  3.8404503E+01
 8.4582500E+00  3.8183418E+01
 8.4697504E+00  3.8058258E+01
 8.4812508E+00  3.7831192E+01
 8.4927502E+00  3.7673897E+01
 8.5042505E+00  3.7487602E+01
 8.5157509E+00  3.7322296E+01
 8.5272503E+00  3.7138481E+01
 8.5387506E+00  3.7034580E+01
 8.5502501E+00  3.6823959E+01
 8.5617504E+00  3.6618710E+01
 8.5732508E+00  3.6377769E+01
 8.5847502E+00  3.6135487E+01
 8.5962505E+00  3.5886745E+01
 8.6077509E+00  3.5620796E+01
 8.6192503E+00  3.5442089E+01
 8.6307507E+00  3.5263287E+01
 8.6422501E+00  3.5143940E+01
 8.6537504E+00  3.4984032E+01
 8.6652508E+00  3.4838127E+01
 8.6767502E+00  3.4690884E+01
 8.6882505E+00  3.4601360E+01
 8.6997509E+00  3.4530052E+01
 8.7112503E+00  3.4341557E+01
 8.7227507E+00  3.4157120E+01
 8.7342501E+00  3.3918774E+01
 8.7457504E+00  3.3660641E+01
 8.7572508E+00  3.3446091E+01
 8.7687502E+00  3.3289909E+01
 8.7802505E+00  3.3172718E+01
 8.7917500E+00  3.2884769E+01
 8.8032503E+00  3.2602909E+01
 8.8147507E+00  3.2440517E+01
 8.8262501E+00  3.2300625E+01
 8.8377504E+00  3.2235638E+01
 8.8492508E+00  3.2131317E+01
 8.8607502E+00  3.2086536E+01
 8.8722506E+00  3.2015484E+01
 8.8837500E+00  3.1886089E+01
 8.8952503E+00  3.1738707E+01
 8.9067507E+00  3.1654810E+01
 8.9182501E+00  3.1514364E+01
 8.9297504E+00  3.1358131E+01
 8.9412508E+00  3.1203644E+01
 8.9527502E+00  3.1042070E+01
 8.9642506E+00  3.0943295E+01
 8.9757500E+00  3.0753433E+01
 8.9872503E+00  3.0545021E+01
 8.9987507E+00  3.0314484E+01
 9.0102501E+00  3.0061193E+01
 9.0217505E+00  2.9877497E+01
 9.0332508E+00  2.9715967E+01
 9.0447502E+00  2.9662251E+01
 9.0562506E+00  2.9527285E+01
 9.0677500E+00  2.9533575E+01
 9.0792503E+00  2.9308210E+01
 9.0907507E+00  2.9223627E+01
 9.1022501E+00  2.9002607E+01
 9.1137505E+00  2.8933058E+01
 9.1252508E+00  2.8852415E+01
 9.1367502E+00  2.8815941E+01
 9.1482506E+00  2.8701508E+01
 9.1597500E+00  2.8678209E+01
 9.1712503E+00  2.8540489E+01
 9.1827507E+00  2.8544598E+01
 9.1942501E+00  2.8441729E+01
 9.2057505E+00  2.8311699E+01
 9.2172508E+00  2.8214941E+01
 9.2287502E+00  2.8019421E+01
 9.2402506E+00  2.7949217E+01
 9.2517500E+00  2.7829313E+01
 9.2632504E+00  2.7807821E+01
 9.2747507E+00  2.7697197E+01
 9.2862501E+00  2.7595572E+01
 9.2977505E+00  2.7488613E+01
 9.3092508E+00  2.7398201E+01
 9.3207502E+00  2.7307606E+01
 9.3322506E+00  2.7259298E+01
 9.3437500E+00  2.7189079E+01
 9.3552504E+00  2.7083662E+01
 9.3667507E+00  2.6993664E+01
 9.3782501E+00  2.6919893E+01
 9.3897505E+00  2.6928257E+01
 9.4012508E+00  2.6879238E+01
 9.4127502E+00  2.6801186E+01
 9.4242506E+00  2.6686502E+01
 9.4357500E+00  2.6558931E+01
 9.4472504E+00  2.6500261E+01
 9.4587507E+00  2.6484522E+01
 9.4702501E+00  2.6440809E+01
 9.4817505E+00  2.6496899E+01
 9.4932508E+00  2.6432837E+01
 9.5047503E+00  2.6362829E+01
 9.5162506E+00  2.6151674E+01
 9.5277500E+00  2.5890657E+01
 9.5392504E+00  2.5726471E+01
 9.5507507E+00  2.5579618E+01
 9.5622501E+00  2.5551201E+01
 9.5737505E+00  2.5462667E+01
 9.5852509E+00  2.5374168E+01
 9.5967503E+00  2.5340714E+01
 9.6082506E+00  2.5290848E+01
 9.6197500E+00  2.5303123E+01
 9.6312504E+00  2.5221004E+01
 9.6427507E+00  2.5140959E+01
 9.6542501E+00  2.5078733E+01
 9.6657505E+00  2.5024652E+01
 9.6772509E+00  2.4980679E+01
 9.6887503E+00  2.4900761E+01
 9.7002506E+00  2.4874908E+01
 9.7117500E+00  2.4879011E+01
 9.7232504E+00  2.4908175E+01
 9.7347507E+00  2.4889008E+01
 9.7462502E+00  2.4837284E+01
 9.7577505E+00  2.4765127E+01
 9.7692509E+00  2.4708492E+01
 9.7807503E+00  2.4629751E+01
 9.7922506E+00  2.4589848E+01
 9.8037500E+00  2.4540724E+01
 9.8152504E+00  2.4497925E+01
 9.8267508E+00  2.4466682E+01
 9.8382502E+00  2.4492613E+01
 9.8497505E+00  2.4493549E+01
 9.8612509E+00  2.4502880E+01
 9.8727503E+00  2.4469707E+01
 9.8842506E+00  2.4478481E+01
 9.8957500E+00  2.4440233E+01
 9.9072504E+00  2.4375200E+01
 9.9187508E+00  2.4376389E+01
 9.9302502E+00  2.4343863E+01
 9.9417505E+00  2.4335527E+01
 9.9532509E+00  2.4291075E+01
 9.9647503E+00  2.4241650E+01
 9.9762506E+00  2.4257862E+01
 9.9877501E+00  2.4211382E+01
 9.9992504E+00  2.4188709E+01
 1.0010751E+01  2.4089870E+01
 1.0022250E+01  2.3991198E+01
 1.0033751E+01  2.3900568E+01
 1.0045251E+01  2.3854275E+01
 1.0056750E+01  2.3791533E+01
 1.0068251E+01  2.3785395E+01
 1.0079750E+01  2.3715925E+01
 1.0091250E+01  2.3670416E+01
 1.0102751E+01  2.3607996E+01
 1.0114250E+01  2.3526030E+01
 1.0125751E+01  2.3516979E+01
 1.0137251E+01  2.3480448E+01
 1.0148750E+01  2.3525898E+01
 1.0160251E+01  2.3530201E+01
 1.0171750E+01  2.3534651E+01
 1.0183250E+01  2.3476700E+01
 1.0194751E+01  2.3469147E+01
 1.0206250E+01  2.3443527E+01
 1.0217751E+01  2.3446276E+01
 1.0229251E+01  2.3375778E+01
 1.0240750E+01  2.3376614E+01
 1.0252251E+01  2.3320646E+01
 1.0263750E+01  2.3317091E+01
 1.0275250E+01  2.3253181E+01
 1.0286751E+01  2.3235863E+01
 1.0298250E+01  2.3220911E+01
 1.0309751E+01  2.3231485E+01
 1.0321251E+01  2.3165409E+01
 1.0332750E+01  2.3127905E+01
 1.0344251E+01  2.3043543E+01
 1.0355750E+01  2.3007700E+01
 1.0367250E+01  2.2944441E+01
 1.0378751E+01  2.2931341E+01
 1.0390250E+01  2.2967167E+01
 1.0401751E+01  2.3034523E+01
 1.0413251E+01  2.3085821E+01
 1.0424750E+01  2.3112993E+01
 1.0436251E+01  2.3053410E+01
 1.0447750E+01  2.2991367E+01
 1.0459250E+01  2.2927950E+01
 1.0470751E+01  2.2872015E+01
 1.0482250E+01  2.2817883E+01
 1.0493751E+01  2.2814011E+01
 1.0505251E+01  2.2818953E+01
 1.0516750E+01  2.2815292E+01
 1.0528251E+01  2.2750713E+01
 1.0539750E+01  2.2694674E+01
 1.0551250E+01  2.2689228E+01
 1.0562751E+01  2.2713604E+01
 1.0574250E+01  2.2699884E+01
 1.0585751E+01  2.2680820E+01
 1.0597251E+01  2.2686966E+01
 1.0608750E+01  2.2695143E+01
 1.0620251E+01  2.2753468E+01
 1.0631750E+01  2.2808168E+01
 1.0643250E+01  2.2868528E+01
 1.0654751E+01  2.2900919E+01
 1.0666250E+01  2.2835888E+01
 1.0677751E+01  2.2759302E+01
 1.0689251E+01  2.2697037E+01
 1.0700750E+01  2.2640051E+01
 1.0712251E+01  2.2638170E+01
 1.0723750E+01  2.2597818E+01
 1.0735250E+01  2.2532274E+01
 1.0746751E+01  2.2494669E+01
 1.0758250E+01  2.2370447E+01
 1.0769751E+01  2.2381626E+01
 1.0781251E+01  2.2367338E+01
 1.0792750E+01  2.2422729E+01
 1.0804251E+01  2.2468828E+01
 1.0815750E+01  2.2492767E+01
 1.0827250E+01  2.2548103E+01
 1.0838751E+01  2.2530855E+01
 1.0850250E+01  2.2512568E+01
 1.0861751E+01  2.2469851E+01
 1.0873251E+01  2.2479021E+01
 1.0884750E+01  2.2449568E+01
 1.0896251E+01  2.2445156E+01
 1.0907750E+01  2.2452890E+01
 1.0919250E+01  2.2508533E+01
 1.0930751E+01  2.2466507E+01
 1.0942250E+01  2.2412285E+01
 1.0953751E+01  2.2288828E+01
 1.0965251E+01  2.2253614E+01
 1.0976750E+01  2.2224731E+01
 1.0988251E+01  2.2248726E+01
 1.0999750E+01  2.2262041E+01
 1.1011250E+01  2.2237932E+01
 1.1022751E+01  2.2214342E+01
 1.1034250E+01  2.2238014E+01
 1.1045751E+01  2.2186253E+01
 1.1057251E+01  2.2124941E+01
 1.1068750E+01  2.2074345E+01
 1.1080251E+01  2.2114239E+01
 1.1091750E+01  2.2175650E+01
 1.1103251E+01  2.2160995E+01
 1.1114751E+01  2.2130949E+01
 1.1126250E+01  2.2064241E+01
 1.1137751E+01  2.2063246E+01
 1.1149251E+01  2.2096922E+01
 1.1160750E+01  2.2180201E+01
 1.1172251E+01  2.2154827E+01
 1.1183750E+01  2.2128798E+01
 1.1195251E+01  2.2097843E+01
 1.1206751E+01  2.2123127E+01
 1.1218250E+01  2.2141943E+01
 1.1229751E+01  2.2144657E+01
 1.1241251E+01  2.2147762E+01
 1.1252750E+01  2.2125298E+01
 1.1264251E+01  2.2090408E+01
 1.1275750E+01  2.2070370E+01
 1.1287251E+01  2.1986576E+01
 1.1298751E+01  2.1954580E+01
 1.1310250E+01  2.1933317E+01
 1.1321751E+01  2.1948177E+01
 1.1333251E+01  2.1926250E+01
 1.1344750E+01  2.1936531E+01
 1.1356251E+01  2.1927666E+01
 1.1367750E+01  2.2044394E+01
 1.1379251E+01  2.2058105E+01
 1.1390751E+01  2.2162996E+01
 1.1402250E+01  2.2251736E+01
 1.1413751E+01  2.2229483E+01
 1.1425251E+01  2.2232267E+01
 1.1436750E+01  2.2171705E+01
 1.1448251E+01  2.2258255E+01
 1.1459750E+01  2.2311476E+01
 1.1471251E+01  2.2332886E+01
 1.1482751E+01  2.2296991E+01
 1.1494250E+01  2.2250620E+01
 1.1505751E+01  2.2161493E+01
 1.1517251E+01  2.2201719E+01
 1.1528750E+01  2.2308847E+01
 1.1540251E+01  2.2513922E+01
 1.1551750E+01  2.2779636E+01
 1.1563251E+01  2.3068668E+01
 1.1574751E+01  2.3317719E+01
 1.1586250E+01  2.3488716E+01
 1.1597751E+01  2.3502468E+01
 1.1609251E+01  2.3454496E+01
 1.1620750E+01  2.3275177E+01
 1.1632251E+01  2.3040262E+01
 1.1643750E+01  2.2760145E+01
 1.1655251E+01  2.2503254E+01
 1.1666751E+01  2.2257904E+01
 1.1678250E+01  2.2118704E+01
 1.1689751E+01  2.2039064E+01
 1.1701251E+01  2.2038811E+01
 1.1712750E+01  2.2042002E+01
 1.1724251E+01  2.2030653E+01
 1.1735750E+01  2.1996798E+01
 1.1747251E+01  2.1951399E+01
 1.1758751E+01  2.1945915E+01
 1.1770250E+01  2.1981436E+01
 1.1781751E+01  2.2024780E+01
 1.1793251E+01  2.2029896E+01
 1.1804750E+01  2.2044758E+01
 1.1816251E+01  2.2043852E+01
 1.1827750E+01  2.1984035E+01
 1.1839251E+01  2.1956816E+01
 1.1850751E+01  2.1874014E+01
 1.1862250E+01  2.1961365E+01
 1.1873751E+01  2.1930189E+01
 1.1885251E+01  2.1970654E+01
 1.1896750E+01  2.2014566E+01
 1.1908251E+01  2.2072361E+01
 1.1919750E+01  2.2186255E+01
 1.1931251E+01  2.2229361E+01
 1.1942751E+01  2.2319923E+01
 1.1954250E+01  2.2360207E+01
 1.1965751E+01  2.2346592E+01
 1.1977251E+01  2.2315195E+01
 1.1988750E+01  2.2336576E+01
 1.2000251E+01  2.2319811E+01
 1.2011750E+01  2.2372093E+01
 1.2023251E+01  2.2346739E+01
 1.2034751E+01  2.2419584E+01
 1.2046250E+01  2.2386438E+01
 1.2057751E+01  2.2409647E+01
 1.2069251E+01  2.2384207E+01
 1.2080750E+01  2.2466515E+01
 1.2092251E+01  2.2454128E+01
 1.2103750E+01  2.2501301E+01
 1.2115251E+01  2.2407162E+01
 1.2126751E+01  2.2351254E+01
 1.2138250E+01  2.2233547E+01
 1.2149751E+01  2.2154202E+01
 1.2161251E+01  2.2161232E+01
 1.2172750E+01  2.2230566E+01
 1.2184251E+01  2.2396078E+01
 1.2195750E+01  2.2463768E+01
 1.2207251E+01  2.2435154E+01
 1.2218751E+01  2.2346640E+01
 1.2230250E+01  2.2253283E+01
 1.2241751E+01  2.2236668E+01
 1.2253251E+01  2.2184799E+01
 1.2264750E+01  2.2185390E+01
 1.2276251E+01  2.2132690E+01
 1.2287750E+01  2.2081551E+01
 1.2299251E+01  2.2076532E+01
 1.2310751E+01  2.2104870E+01
 1.2322250E+01  2.2150599E+01
 1.2333751E+01  2.2175999E+01
 1.2345250E+01  2.2130327E+01
 1.2356750E+01  2.2178596E+01
 1.2368251E+01  2.2146921E+01
 1.2379750E+01  2.2208883E+01
 1.2391251E+01  2.2214531E+01
 1.2402751E+01  2.2213213E+01
 1.2414250E+01  2.2208712E+01
 1.2425751E+01  2.2166029E+01
 1.2437250E+01  2.2172323E+01
 1.2448750E+01  2.2147312E+01
 1.2460251E+01  2.2175587E+01
 1.2471750E+01  2.2194212E+01
 1.2483251E+01  2.2255287E+01
 1.2494751E+01  2.2297667E+01
 1.2506250E+01  2.2279762E+01
 1.2517751E+01  2.2257483E+01
 1.2529250E+01  2.2283583E+01
 1.2540751E+01  2.2316534E+01
 1.2552251E+01  2.2370481E+01
 1.2563750E+01  2.2395868E+01
 1.2575251E+01  2.2437021E+01
 1.2586751E+01  2.2434040E+01
 1.2598250E+01  2.2392595E+01
 1.2609751E+01  2.2419132E+01
 1.2621250E+01  2.2443214E+01
 1.2632751E+01  2.2497627E+01
 1.2644251E+01  2.2419516E+01
 1.2655750E+01  2.2390760E+01
 1.2667251E+01  2.2357136E+01
 1.2678751E+01  2.2410229E+01
 1.2690250E+01  2.2401304E+01
 1.2701751E+01  2.2428902E+01
 1.2713250E+01  2.2446499E+01
 1.2724751E+01  2.2443121E+01
 1.2736251E+01  2.2414078E+01
 1.2747750E+01  2.2410549E+01
 1.2759251E+01  2.2420824E+01
 1.2770751E+01  2.2387390E+01
 1.2782250E+01  2.2484831E+01
 1.2793751E+01  2.2499367E+01
 1.2805250E+01  2.2584805E+01
 1.2816751E+01  2.2576891E+01
 1.2828251E+01  2.2649359E+01
 1.2839750E+01  2.2710720E+01
 1.2851251E+01  2.2755133E+01
 1.2862751E+01  2.2807005E+01
 1.2874250E+01  2.2893639E+01
 1.2885751E+01  2.2897078E+01
 1.2897250E+01  2.2939028E+01
 1.2908751E+01  2.2923038E+01
 1.2920251E+01  2.3013557E+01
 1.2931750E+01  2.3076853E+01
 1.2943251E+01  2.3142292E+01
 1.2954751E+01  2.3230627E+01
 1.2966250E+01  2.3349070E+01
 1.2977751E+01  2.3454136E+01
 1.2989250E+01  2.3437117E+01
 1.3000751E+01  2.3487345E+01
 1.3012251E+01  2.3535980E+01
 1.3023750E+01  2.3563641E+01
 1.3035251E+01  2.3614929E+01
 1.3046751E+01  2.3639740E+01
 1.3058250E+01  2.3784645E+01
 1.3069751E+01  2.3833616E+01
 1.3081250E+01  2.3939503E+01
 1.3092751E+01  2.4088614E+01
 1.3104251E+01  2.4255180E+01
 1.3115750E+01  2.4451426E+01
 1.3127251E+01  2.4541574E+01
 1.3138751E+01  2.4639473E+01
 1.3150250E+01  2.4705948E+01
 1.3161751E+01  2.4846344E+01
 1.3173250E+01  2.4947275E+01
 1.3184751E+01  2.5101080E+01
 1.3196251E+01  2.5189060E+01
 1.3207750E+01  2.5382113E+01
 1.3219251E+01  2.5497896E+01
 1.3230751E+01  2.5713049E+01
 1.3242250E+01  2.5818573E+01
 1.3253751E+01  2.5976313E+01
 1.3265250E+01  2.6043020E+01
 1.3276751E+01  2.6160412E+01
 1.3288251E+01  2.6296297E+01
 1.3299750E+01  2.6454914E+01
 1.3311251E+01  2.6566259E+01
 1.3322751E+01  2.6707169E+01
 1.3334250E+01  2.6843962E+01
 1.3345751E+01  2.6977102E+01
 1.3357250E+01  2.7121422E+01
 1.3368751E+01  2.7347609E+01
 1.3380251E+01  2.7540777E+01
 1.3391750E+01  2.7989138E+01
 1.3403251E+01  2.8520943E+01
 1.3414751E+01  2.8653681E+01
 1.3426250E+01  2.8461363E+01
 1.3437751E+01  2.8110085E+01
 1.3449250E+01  2.8196224E+01
 1.3460751E+01  2.8273569E+01
 1.3472251E+01  2.8396023E+01
 1.3483750E+01  2.8531082E+01
 1.3495251E+01  2.8608702E+01
 1.3506751E+01  2.8737957E+01
 1.3518250E+01  2.8812664E+01
 1.3529751E+01  2.8950106E+01
 1.3541250E+01  2.8994041E+01
 1.3552751E+01  2.9030874E+01
 1.3564251E+01  2.9016544E+01
 1.3575750E+01  2.9010298E+01
 1.3587251E+01  2.9016806E+01
 1.3598751E+01  2.9099821E+01
 1.3610250E+01  2.9106562E+01
 1.3621751E+01  2.9147224E+01
 1.3633250E+01  2.9075445E+01
 1.3644751E+01  2.9100872E+01
 1.3656251E+01  2.9092371E+01
 1.3667750E+01  2.9205269E+01
 1.3679251E+01  2.9216709E+01
 1.3690751E+01  2.9208160E+01
 1.3702250E+01  2.9153526E+01
 1.3713751E+01  2.9118992E+01
 1.3725250E+01  2.9094717E+01
 1.3736751E+01  2.9085468E+01
 1.3748251E+01  2.9072502E+01
 1.3759750E+01  2.9026154E+01
 1.3771251E+01  2.8952257E+01
 1.3782751E+01  2.8908833E+01
 1.3794250E+01  2.8851183E+01
 1.3805751E+01  2.8786528E+01
 1.3817250E+01  2.8700630E+01
 1.3828751E+01  2.8700623E+01
 1.3840251E+01  2.8691051E+01
 1.3851750E+01  2.8723299E+01
 1.3863251E+01  2.8822033E+01
 1.3874751E+01  2.8973715E+01
 1.3886250E+01  2.9239897E+01
 1.3897751E+01  2.9813927E+01
 1.3909250E+01  3.0246010E+01
 1.3920751E+01  3.1051020E+01
 1.3932251E+01  3.1615557E+01
 1.3943750E+01  3.2305862E+01
 1.3955251E+01  3.2708996E+01
 1.3966751E+01  3.2841213E+01
 1.3978251E+01  3.2756851E+01
 1.3989751E+01  3.2101246E+01
 1.4001250E+01  3.1370300E+01
 1.4012751E+01  3.0243160E+01
 1.4024251E+01  2.9221626E+01
 1.4035750E+01  2.8358595E+01
 1.4047251E+01  2.7874386E+01
 1.4058751E+01  2.7627481E+01
 1.4070251E+01  2.7384674E+01
 1.4081751E+01  2.7240644E+01
 1.4093250E+01  2.7052658E+01
 1.4104751E+01  2.6918734E+01
 1.4116251E+01  2.6835926E+01
 1.4127750E+01  2.6763018E+01
 1.4139251E+01  2.6730482E+01
 1.4150751E+01  2.6699043E+01
 1.4162251E+01  2.6674883E+01
 1.4173751E+01  2.6566101E+01
 1.4185250E+01  2.6458960E+01
 1.4196751E+01  2.6354454E+01
 1.4208251E+01  2.6288645E+01
 1.4219750E+01  2.6226587E+01
 1.4231251E+01  2.6160404E+01
 1.4242751E+01  2.6118240E+01
 1.4254251E+01  2.6061539E+01
 1.4265751E+01  2.6041420E+01
 1.4277250E+01  2.5973520E+01
 1.4288751E+01  2.5928240E+01
 1.4300251E+01  2.5867474E+01
 1.4311750E+01  2.5850155E+01
 1.4323251E+01  2.5792112E+01
 1.4334751E+01  2.5800507E+01
 1.4346251E+01  2.5818369E+01
 1.4357751E+01  2.5814814E+01
 1.4369250E+01  2.5787636E+01
 1.4380751E+01  2.5708862E+01
 1.4392251E+01  2.5669329E+01
 1.4403750E+01  2.5589085E+01
 1.4415251E+01  2.5553055E+01
 1.4426751E+01  2.5498741E+01
 1.4438251E+01  2.5468380E+01
 1.4449751E+01  2.5445240E+01
 1.4461250E+01  2.5354477E+01
 1.4472751E+01  2.5257330E+01
 1.4484251E+01  2.5148220E+01
 1.4495750E+01  2.5119589E+01
 1.4507251E+01  2.5107143E+01
 1.4518751E+01  2.5071920E+01
 1.4530251E+01  2.5083370E+01
 1.4541751E+01  2.5055065E+01
 1.4553250E+01  2.5126308E+01
 1.4564751E+01  2.5153275E+01
 1.4576251E+01  2.5140791E+01
 1.4587750E+01  2.5073671E+01
 1.4599251E+01  2.4975725E+01
 1.4610751E+01  2.4946274E+01
 1.4622251E+01  2.4911106E+01
 1.4633751E+01  2.4897314E+01
 1.4645250E+01  2.4850170E+01
 1.4656751E+01  2.4821489E+01
 1.4668251E+01  2.4766935E+01
 1.4679750E+01  2.4793676E+01
 1.4691251E+01  2.4776863E+01
 1.4702751E+01  2.4834753E+01
 1.4714251E+01  2.4777550E+01
 1.4725751E+01  2.4771036E+01
 1.4737250E+01  2.4693817E+01
 1.4748751E+01  2.4628311E+01
 1.4760251E+01  2.4588383E+01
 1.4771750E+01  2.4568138E+01
 1.4783251E+01  2.4572861E+01
 1.4794751E+01  2.4627666E+01
 1.4806251E+01  2.4658751E+01
 1.4817751E+01  2.4682695E+01
 1.4829250E+01  2.4647818E+01
 1.4840751E+01  2.4624100E+01
 1.4852251E+01  2.4614382E+01
 1.4863750E+01  2.4532017E+01
 1.4875251E+01  2.4500124E+01
 1.4886751E+01  2.4471386E+01
 1.4898251E+01  2.4500074E+01
 1.4909751E+01  2.4488222E+01
 1.4921250E+01  2.4429359E+01
 1.4932751E+01  2.4415260E+01
 1.4944251E+01  2.4410982E+01
 1.4955750E+01  2.4394331E+01
 1.4967251E+01  2.4376183E+01
 1.4978751E+01  2.4405695E+01
 1.4990251E+01  2.4430916E+01
 1.5001751E+01  2.4461447E+01
 1.5013250E+01  2.4508326E+01
 1.5024751E+01  2.4482075E+01
 1.5036251E+01  2.4384230E+01
 1.5047750E+01  2.4271168E+01
 1.5059251E+01  2.4226652E+01
 1.5070751E+01  2.4178284E+01
 1.5082251E+01  2.4192020E+01
 1.5093751E+01  2.4242634E+01
 1.5105250E+01  2.4279951E+01
 1.5116751E+01  2.4295692E+01
 1.5128251E+01  2.4315399E+01
 1.5139750E+01  2.4431675E+01
 1.5151251E+01  2.4545321E+01
 1.5162751E+01  2.4746647E+01
 1.5174251E+01  2.4936840E+01
 1.5185751E+01  2.5090481E+01
 1.5197250E+01  2.5111021E+01
 1.5208751E+01  2.5106947E+01
 1.5220251E+01  2.5050089E+01
 1.5231750E+01  2.4944256E+01
 1.5243251E+01  2.4775839E+01
 1.5254751E+01  2.4616484E+01
 1.5266251E+01  2.4477705E+01
 1.5277751E+01  2.4388535E+01
 1.5289250E+01  2.4284985E+01
 1.5300751E+01  2.4185892E+01
 1.5312251E+01  2.4142689E+01
 1.5323750E+01  2.4133293E+01
 1.5335251E+01  2.4183924E+01
 1.5346751E+01  2.4191570E+01
 1.5358251E+01  2.4247927E+01
 1.5369751E+01  2.4223619E+01
 1.5381250E+01  2.4173208E+01
 1.5392751E+01  2.4092375E+01
 1.5404251E+01  2.4049616E+01
 1.5415751E+01  2.3983168E+01
 1.5427251E+01  2.3965334E+01
 1.5438751E+01  2.3965897E+01
 1.5450251E+01  2.3996052E+01
 1.5461751E+01  2.3991154E+01
 1.5473250E+01  2.4034700E+01
 1.5484751E+01  2.4111187E+01
 1.5496251E+01  2.4163450E+01
 1.5507751E+01  2.4179609E+01
 1.5519251E+01  2.4133118E+01
 1.5530751E+01  2.4151896E+01
 1.5542251E+01  2.4152054E+01
 1.5553751E+01  2.4133289E+01
 1.5565250E+01  2.4131601E+01
 1.5576751E+01  2.4124352E+01
 1.5588251E+01  2.4137060E+01
 1.5599751E+01  2.4093946E+01
 1.5611251E+01  2.4026007E+01
 1.5622751E+01  2.3994919E+01
 1.5634251E+01  2.3991199E+01
 1.5645751E+01  2.4015528E+01
 1.5657250E+01  2.4020954E+01
 1.5668751E+01  2.4029272E+01
 1.5680251E+01  2.4080986E+01
 1.5691751E+01  2.4132313E+01
 1.5703251E+01  2.4140837E+01
 1.5714751E+01  2.4126236E+01
 1.5726251E+01  2.4150230E+01
 1.5737751E+01  2.4116608E+01
 1.5749250E+01  2.4077623E+01
 1.5760751E+01  2.4004082E+01
 1.5772251E+01  2.4055017E+01
 1.5783751E+01  2.4035652E+01
 1.5795251E+01  2.4085409E+01
 1.5806751E+01  2.4066534E+01
 1.5818251E+01  2.4069765E+01
 1.5829751E+01  2.4039251E+01
 1.5841250E+01  2.4039406E+01
 1.5852751E+01  2.4122059E+01
 1.5864251E+01  2.4102190E+01
 1.5875751E+01  2.4150087E+01
 1.5887251E+01  2.4175846E+01
 1.5898750E+01  2.4219881E+01
 1.5910251E+01  2.4209124E+01
 1.5921751E+01  2.4136503E+01
 1.5933250E+01  2.4131384E+01
 1.5944751E+01  2.4033945E+01
 1.5956251E+01  2.4036697E+01
 1.5967751E+01  2.4040474E+01
 1.5979251E+01  2.4101740E+01
 1.5990750E+01  2.4157402E+01
 1.6002251E+01  2.4161327E+01
 1.6013750E+01  2.4234612E+01
 1.6025251E+01  2.4242165E+01
 1.6036751E+01  2.4319426E+01
 1.6048250E+01  2.4348110E+01
 1.6059752E+01  2.4400322E+01
 1.6071251E+01  2.4395115E+01
 1.6082750E+01  2.4397173E+01
 1.6094252E+01  2.4397638E+01
 1.6105751E+01  2.4433712E+01
 1.6117250E+01  2.4458393E+01
 1.6128750E+01  2.4432510E+01
 1.6140251E+01  2.4436132E+01
 1.6151751E+01  2.4458221E+01
 1.6163250E+01  2.4526455E+01
 1.6174751E+01  2.4511204E+01
 1.6186251E+01  2.4618618E+01
 1.6197750E+01  2.4554590E+01
 1.6209251E+01  2.4753927E+01
 1.6220751E+01  2.4725361E+01
 1.6232250E+01  2.5033344E+01
 1.6243752E+01  2.5147701E+01
 1.6255251E+01  2.5284296E+01
 1.6266750E+01  2.5380825E+01
 1.6278252E+01  2.5174990E+01
 1.6289751E+01  2.5285879E+01
 1.6301250E+01  2.4857670E+01
 1.6312750E+01  2.4957457E+01
 1.6324251E+01  2.4579182E+01
 1.6335751E+01  2.4574499E+01
 1.6347250E+01  2.4356192E+01
 1.6358751E+01  2.4353489E+01
 1.6370251E+01  2.4300390E+01
 1.6381750E+01  2.4287182E+01
 1.6393251E+01  2.4325323E+01
 1.6404751E+01  2.4295702E+01
 1.6416250E+01  2.4338142E+01
 1.6427752E+01  2.4313965E+01
 1.6439251E+01  2.4383839E+01
 1.6450750E+01  2.4380613E+01
 1.6462252E+01  2.4349619E+01
 1.6473751E+01  2.4252943E+01
 1.6485250E+01  2.4204039E+01
 1.6496750E+01  2.4201595E+01
 1.6508251E+01  2.4191797E+01
 1.6519751E+01  2.4224463E+01
 1.6531250E+01  2.4243286E+01
 1.6542751E+01  2.4303297E+01
 1.6554251E+01  2.4312382E+01
 1.6565750E+01  2.4351999E+01
 1.6577251E+01  2.4368263E+01
 1.6588751E+01  2.4350624E+01
 1.6600250E+01  2.4335815E+01
 1.6611752E+01  2.4333490E+01
 1.6623251E+01  2.4307995E+01
 1.6634750E+01  2.4279018E+01
 1.6646252E+01  2.4271210E+01
 1.6657751E+01  2.4241493E+01
 1.6669250E+01  2.4236361E+01
 1.6680750E+01  2.4181242E+01
 1.6692251E+01  2.4210243E+01
 1.6703751E+01  2.4179564E+01
 1.6715250E+01  2.4135805E+01
 1.6726751E+01  2.4067383E+01
 1.6738251E+01  2.4049799E+01
 1.6749750E+01  2.4094336E+01
 1.6761251E+01  2.4110540E+01
 1.6772751E+01  2.4084213E+01
 1.6784250E+01  2.4076784E+01
 1.6795752E+01  2.4051191E+01
 1.6807251E+01  2.4102402E+01
 1.6818750E+01  2.4081806E+01
 1.6830252E+01  2.4136415E+01
 1.6841751E+01  2.4050198E+01
 1.6853251E+01  2.4007446E+01
 1.6864750E+01  2.3956303E+01
 1.6876251E+01  2.3978436E+01
 1.6887751E+01  2.4000450E+01
 1.6899250E+01  2.3997927E+01
 1.6910751E+01  2.3972601E+01
 1.6922251E+01  2.3970104E+01
 1.6933750E+01  2.3911594E+01
 1.6945251E+01  2.3956062E+01
 1.6956751E+01  2.3952757E+01
 1.6968250E+01  2.3973480E+01
 1.6979752E+01  2.3946800E+01
 1.6991251E+01  2.3930061E+01
 1.7002750E+01  2.3900665E+01
 1.7014252E+01  2.3867603E+01
 1.7025751E+01  2.3862745E+01
 1.7037251E+01  2.3818455E+01
 1.7048750E+01  2.3735493E+01
 1.7060251E+01  2.3694925E+01
 1.7071751E+01  2.3720058E+01
 1.7083250E+01  2.3764091E+01
 1.7094751E+01  2.3754606E+01
 1.7106251E+01  2.3754168E+01
 1.7117750E+01  2.3763254E+01
 1.7129251E+01  2.3792942E+01
 1.7140751E+01  2.3727236E+01
 1.7152250E+01  2.3656181E+01
 1.7163752E+01  2.3607784E+01
 1.7175251E+01  2.3602945E+01
 1.7186750E+01  2.3603441E+01
 1.7198252E+01  2.3576338E+01
 1.7209751E+01  2.3629951E+01
 1.7221251E+01  2.3633726E+01
 1.7232750E+01  2.3694801E+01
 1.7244251E+01  2.3718746E+01
 1.7255751E+01  2.3742180E+01
 1.7267250E+01  2.3752750E+01
 1.7278751E+01  2.3745758E+01
 1.7290251E+01  2.3787796E+01
 1.7301750E+01  2.3783106E+01
 1.7313251E+01  2.3733950E+01
 1.7324751E+01  2.3642427E+01
 1.7336250E+01  2.3513996E+01
 1.7347752E+01  2.3458996E+01
 1.7359251E+01  2.3480572E+01
 1.7370750E+01  2.3536198E+01
 1.7382252E+01  2.3535196E+01
 1.7393751E+01  2.3576797E+01
 1.7405251E+01  2.3569632E+01
 1.7416750E+01  2.3555153E+01
 1.7428251E+01  2.3500557E+01
 1.7439751E+01  2.3526159E+01
 1.7451250E+01  2.3510702E+01
 1.7462751E+01  2.3511675E+01
 1.7474251E+01  2.3481274E+01
 1.7485750E+01  2.3455450E+01
 1.7497252E+01  2.3387901E+01
 1.7508751E+01  2.3345501E+01
 1.7520250E+01  2.3350004E+01
 1.7531752E+01  2.3364296E+01
 1.7543251E+01  2.3393967E+01
 1.7554750E+01  2.3363413E+01
 1.7566252E+01  2.3366413E+01
 1.7577751E+01  2.3335644E+01
 1.7589251E+01  2.3373013E+01
 1.7600750E+01  2.3442778E+01
 1.7612251E+01  2.3514957E+01
 1.7623751E+01  2.3578674E+01
 1.7635250E+01  2.3504618E+01
 1.7646751E+01  2.3430742E+01
 1.7658251E+01  2.3327234E+01
 1.7669750E+01  2.3327908E+01
 1.7681252E+01  2.3350704E+01
 1.7692751E+01  2.3421707E+01
 1.7704250E+01  2.3511620E+01
 1.7715752E+01  2.3559576E+01
 1.7727251E+01  2.3538517E+01
 1.7738750E+01  2.3464161E+01
 1.7750252E+01  2.3421238E+01
 1.7761751E+01  2.3381870E+01
 1.7773251E+01  2.3372047E+01
 1.7784750E+01  2.3334433E+01
 1.7796251E+01  2.3367222E+01
 1.7807751E+01  2.3329412E+01
 1.7819250E+01  2.3317171E+01
 1.7830751E+01  2.3225328E+01
 1.7842251E+01  2.3205503E+01
 1.7853750E+01  2.3186333E+01
 1.7865252E+01  2.3215908E+01
 1.7876751E+01  2.3277689E+01
 1.7888250E+01  2.3263269E+01
 1.7899752E+01  2.3277363E+01
 1.7911251E+01  2.3263945E+01
 1.7922750E+01  2.3271336E+01
 1.7934252E+01  2.3245630E+01
 1.7945751E+01  2.3252996E+01
 1.7957251E+01  2.3346827E+01
 1.7968750E+01  2.3466797E+01
 1.7980251E+01  2.3543770E+01
 1.7991751E+01  2.3522705E+01
 1.8003250E+01  2.3484955E+01
 1.8014751E+01  2.3429451E+01
 1.8026251E+01  2.3440222E+01
 1.8037750E+01  2.3450552E+01
 1.8049252E+01  2.3525629E+01
 1.8060751E+01  2.3549269E+01
 1.8072250E+01  2.3548847E+01
 1.8083752E+01  2.3576942E+01
 1.8095251E+01  2.3590698E+01
 1.8106750E+01  2.3591093E+01
 1.8118252E+01  2.3589279E+01
 1.8129751E+01  2.3591282E+01
 1.8141251E+01  2.3518660E+01
 1.8152750E+01  2.3443762E+01
 1.8164251E+01  2.3327021E+01
 1.8175751E+01  2.3239429E+01
 1.8187250E+01  2.3163919E+01
 1.8198751E+01  2.3154505E+01
 1.8210251E+01  2.3195780E+01
 1.8221750E+01  2.3210068E+01
 1.8233252E+01  2.3206787E+01
 1.8244751E+01  2.3219654E+01
 1.8256250E+01  2.3222515E+01
 1.8267752E+01  2.3225100E+01
 1.8279251E+01  2.3212788E+01
 1.8290751E+01  2.3229538E+01
 1.8302252E+01  2.3265028E+01
 1.8313751E+01  2.3269133E+01
 1.8325251E+01  2.3257061E+01
 1.8336750E+01  2.3199736E+01
 1.8348251E+01  2.3156132E+01
 1.8359751E+01  2.3164488E+01
 1.8371250E+01  2.3188574E+01
 1.8382751E+01  2.3188013E+01
 1.8394251E+01  2.3204947E+01
 1.8405750E+01  2.3231171E+01
 1.8417252E+01  2.3198425E+01
 1.8428751E+01  2.3126740E+01
 1.8440250E+01  2.3124540E+01
 1.8451752E+01  2.3119738E+01
 1.8463251E+01  2.3104898E+01
 1.8474751E+01  2.3087114E+01
 1.8486252E+01  2.3091608E+01
 1.8497751E+01  2.3048777E+01
 1.8509251E+01  2.3006756E+01
 1.8520750E+01  2.3007963E+01
 1.8532251E+01  2.3017107E+01
 1.8543751E+01  2.2991650E+01
 1.8555250E+01  2.3004755E+01
 1.8566751E+01  2.3048725E+01
 1.8578251E+01  2.3096621E+01
 1.8589750E+01  2.3155382E+01
 1.8601252E+01  2.3183033E+01
 1.8612751E+01  2.3151876E+01
 1.8624250E+01  2.3075502E+01
 1.8635752E+01  2.3065517E+01
 1.8647251E+01  2.3039320E+01
 1.8658751E+01  2.3016657E+01
 1.8670252E+01  2.2985428E+01
 1.8681751E+01  2.3044106E+01
 1.8693251E+01  2.3079126E+01
 1.8704750E+01  2.3120037E+01
 1.8716251E+01  2.3111507E+01
 1.8727751E+01  2.3168377E+01
 1.8739250E+01  2.3151985E+01
 1.8750751E+01  2.3157011E+01
 1.8762251E+01  2.3125856E+01
 1.8773750E+01  2.3123442E+01
 1.8785252E+01  2.3090485E+01
 1.8796751E+01  2.3068874E+01
 1.8808250E+01  2.3077440E+01
 1.8819752E+01  2.3170860E+01
 1.8831251E+01  2.3149538E+01
 1.8842751E+01  2.3125530E+01
 1.8854252E+01  2.3049356E+01
 1.8865751E+01  2.3044458E+01
 1.8877251E+01  2.3083956E+01
 1.8888750E+01  2.3099205E+01
 1.8900251E+01  2.3143541E+01
 1.8911751E+01  2.3157707E+01
 1.8923250E+01  2.3214973E+01
 1.8934752E+01  2.3207167E+01
 1.8946251E+01  2.3204033E+01
 1.8957750E+01  2.3153500E+01
 1.8969252E+01  2.3094458E+01
 1.8980751E+01  2.3057915E+01
 1.8992250E+01  2.3058697E+01
 1.9003752E+01  2.3098516E+01
 1.9015251E+01  2.3144106E+01
 1.9026751E+01  2.3174999E+01
 1.9038252E+01  2.3188305E+01
 1.9049751E+01  2.3171606E+01
 1.9061251E+01  2.3197021E+01
 1.9072750E+01  2.3194227E+01
 1.9084251E+01  2.3195057E+01
 1.9095751E+01  2.3166807E+01
 1.9107250E+01  2.3150625E+01
 1.9118752E+01  2.3160809E+01
 1.9130251E+01  2.3216780E+01
 1.9141750E+01  2.3215393E+01
 1.9153252E+01  2.3225494E+01
 1.9164751E+01  2.3193399E+01
 1.9176250E+01  2.3225950E+01
 1.9187752E+01  2.3202639E+01
 1.9199251E+01  2.3195812E+01
 1.9210751E+01  2.3159779E+01
 1.9222252E+01  2.3098211E+01
 1.9233751E+01  2.3038143E+01
 1.9245251E+01  2.3026255E+01
 1.9256750E+01  2.3045460E+01
 1.9268251E+01  2.3090139E+01
 1.9279751E+01  2.3115583E+01
 1.9291250E+01  2.3118547E+01
 1.9302752E+01  2.3123316E+01
 1.9314251E+01  2.3154196E+01
 1.9325750E+01  2.3168259E+01
 1.9337252E+01  2.3170647E+01
 1.9348751E+01  2.3160139E+01
 1.9360250E+01  2.3145308E+01
 1.9371752E+01  2.3182802E+01
 1.9383251E+01  2.3167187E+01
 1.9394751E+01  2.3161993E+01
 1.9406250E+01  2.3115839E+01
 1.9417751E+01  2.3108362E+01
 1.9429251E+01  2.3100443E+01
 1.9440750E+01  2.3110132E+01
 1.9452251E+01  2.3101103E+01
 1.9463751E+01  2.3088734E+01
 1.9475250E+01  2.3112078E+01
 1.9486752E+01  2.3142912E+01
 1.9498251E+01  2.3151052E+01
 1.9509750E+01  2.3153746E+01
 1.9521252E+01  2.3189997E+01
 1.9532751E+01  2.3249807E+01
 1.9544250E+01  2.3271421E+01
 1.9555752E+01  2.3260323E+01
 1.9567251E+01  2.3224689E+01
 1.9578751E+01  2.3232368E+01
 1.9590250E+01  2.3277885E+01
 1.9601751E+01  2.3328775E+01
 1.9613251E+01  2.3365801E+01
 1.9624750E+01  2.3351728E+01
 1.9636251E+01  2.3386749E+01
 1.9647751E+01  2.3455046E+01
 1.9659250E+01  2.3581902E+01
 1.9670752E+01  2.3707518E+01
 1.9682251E+01  2.3840134E+01
 1.9693750E+01  2.4005421E+01
 1.9705252E+01  2.4169415E+01
 1.9716751E+01  2.4222076E+01
 1.9728251E+01  2.4197512E+01
 1.9739752E+01  2.4054602E+01
 1.9751251E+01  2.3891970E+01
 1.9762751E+01  2.3810364E+01
 1.9774250E+01  2.3757288E+01
 1.9785751E+01  2.3884615E+01
 1.9797251E+01  2.4015173E+01
 1.9808750E+01  2.4155373E+01
 1.9820251E+01  2.4377335E+01
 1.9831751E+01  2.4522852E+01
 1.9843250E+01  2.4621231E+01
 1.9854752E+01  2.4584766E+01
 1.9866251E+01  2.4495186E+01
 1.9877750E+01  2.4341099E+01
 1.9889252E+01  2.4128946E+01
 1.9900751E+01  2.3968037E+01
 1.9912251E+01  2.3724691E+01
 1.9923752E+01  2.3528372E+01
 1.9935251E+01  2.3375025E+01
 1.9946751E+01  2.3265985E+01
 1.9958250E+01  2.3218197E+01
 1.9969751E+01  2.3258917E+01
 1.9981251E+01  2.3226759E+01
 1.9992750E+01  2.3255526E+01
 2.0004251E+01  2.3226286E+01
 2.0015751E+01  2.3254324E+01
 2.0027250E+01  2.3204550E+01
 2.0038752E+01  2.3237394E+01
 2.0050251E+01  2.3288733E+01
 2.0061750E+01  2.3315714E+01
 2.0073252E+01  2.3323172E+01
 2.0084751E+01  2.3269220E+01
 2.0096251E+01  2.3266500E+01
 2.0107752E+01  2.3269056E+01
 2.0119251E+01  2.3313330E+01
 2.0130751E+01  2.3286581E+01
 2.0142250E+01  2.3268290E+01
 2.0153751E+01  2.3206501E+01
 2.0165251E+01  2.3192533E+01
 2.0176750E+01  2.3157312E+01
 2.0188251E+01  2.3157942E+01
 2.0199751E+01  2.3143627E+01
 2.0211250E+01  2.3191383E+01
 2.0222752E+01  2.3254128E+01
 2.0234251E+01  2.3249674E+01
 2.0245750E+01  2.3252428E+01
 2.0257252E+01  2.3223337E+01
 2.0268751E+01  2.3182129E+01
 2.0280251E+01  2.3210417E+01
 2.0291752E+01  2.3260345E+01
 2.0303251E+01  2.3265863E+01
 2.0314751E+01  2.3204481E+01
 2.0326250E+01  2.3207325E+01
 2.0337751E+01  2.3261206E+01
 2.0349251E+01  2.3233618E+01
 2.0360750E+01  2.3218040E+01
 2.0372252E+01  2.3199505E+01
 2.0383751E+01  2.3213291E+01
 2.0395250E+01  2.3210312E+01
 2.0406752E+01  2.3209015E+01
 2.0418251E+01  2.3256603E+01
 2.0429750E+01  2.3291405E+01
 2.0441252E+01  2.3297482E+01
 2.0452751E+01  2.3299864E+01
 2.0464251E+01  2.3321432E+01
 2.0475752E+01  2.3328659E+01
 2.0487251E+01  2.3330627E+01
 2.0498751E+01  2.3330225E+01
 2.0510250E+01  2.3309914E+01
 2.0521751E+01  2.3277731E+01
 2.0533251E+01  2.3238636E+01
 2.0544750E+01  2.3252306E+01
 2.0556252E+01  2.3302137E+01
 2.0567751E+01  2.3350695E+01
 2.0579250E+01  2.3336941E+01
 2.0590752E+01  2.3393772E+01
 2.0602251E+01  2.3439960E+01
 2.0613750E+01  2.3459457E+01
 2.0625252E+01  2.3427246E+01
 2.0636751E+01  2.3446283E+01
 2.0648251E+01  2.3461069E+01
 2.0659752E+01  2.3522688E+01
 2.0671251E+01  2.3512629E+01
 2.0682751E+01  2.3576891E+01
 2.0694250E+01  2.3637159E+01
 2.0705751E+01  2.3802496E+01
 2.0717251E+01  2.3945166E+01
 2.0728750E+01  2.4099855E+01
 2.0740252E+01  2.4228731E+01
 2.0751751E+01  2.4340975E+01
 2.0763250E+01  2.4354151E+01
 2.0774752E+01  2.4322426E+01
 2.0786251E+01  2.4187881E+01
 2.0797750E+01  2.4069244E+01
 2.0809252E+01  2.3912352E+01
 2.0820751E+01  2.3838846E+01
 2.0832251E+01  2.3753357E+01
 2.0843752E+01  2.3701754E+01
 2.0855251E+01  2.3633936E+01
 2.0866751E+01  2.3568186E+01
 2.0878250E+01  2.3491398E+01
 2.0889751E+01  2.3467068E+01
 2.0901251E+01  2.3512976E+01
 2.0912750E+01  2.3526297E+01
 2.0924252E+01  2.3479713E+01
 2.0935751E+01  2.3462517E+01
 2.0947250E+01  2.3462074E+01
 2.0958752E+01  2.3443573E+01
 2.0970251E+01  2.3413155E+01
 2.0981750E+01  2.3411049E+01
 2.0993252E+01  2.3412182E+01
 2.1004751E+01  2.3408001E+01
 2.1016251E+01  2.3396452E+01
 2.1027752E+01  2.3428263E+01
 2.1039251E+01  2.3425488E+01
 2.1050751E+01  2.3408016E+01
 2.1062250E+01  2.3417103E+01
 2.1073751E+01  2.3453346E+01
 2.1085251E+01  2.3426245E+01
 2.1096750E+01  2.3370186E+01
 2.1108252E+01  2.3376148E+01
 2.1119751E+01  2.3405582E+01
 2.1131250E+01  2.3434149E+01
 2.1142752E+01  2.3418198E+01
 2.1154251E+01  2.3375336E+01
 2.1165751E+01  2.3381828E+01
 2.1177252E+01  2.3455299E+01
 2.1188751E+01  2.3479065E+01
 2.1200251E+01  2.3492369E+01
 2.1211752E+01  2.3489489E+01
 2.1223251E+01  2.3417179E+01
 2.1234751E+01  2.3394196E+01
 2.1246250E+01  2.3414421E+01
 2.1257751E+01  2.3498312E+01
 2.1269251E+01  2.3479439E+01
 2.1280750E+01  2.3499460E+01
 2.1292252E+01  2.3516806E+01
 2.1303751E+01  2.3488024E+01
 2.1315250E+01  2.3427065E+01
 2.1326752E+01  2.3389032E+01
 2.1338251E+01  2.3457525E+01
 2.1349751E+01  2.3495152E+01
 2.1361252E+01  2.3521252E+01
 2.1372751E+01  2.3510336E+01
 2.1384251E+01  2.3456581E+01
 2.1395752E+01  2.3426249E+01
 2.1407251E+01  2.3398857E+01
 2.1418751E+01  2.3444021E+01
 2.1430250E+01  2.3474083E+01
 2.1441751E+01  2.3478979E+01
 2.1453251E+01  2.3506506E+01
 2.1464750E+01  2.3549154E+01
 2.1476252E+01  2.3558905E+01
 2.1487751E+01  2.3635874E+01
 2.1499250E+01  2.3683409E+01
 2.1510752E+01  2.3744095E+01
 2.1522251E+01  2.3915838E+01
 2.1533751E+01  2.3958014E+01
 2.1545252E+01  2.3927158E+01
 2.1556751E+01  2.3733944E+01
 2.1568251E+01  2.3734272E+01
 2.1579752E+01  2.3680613E+01
 2.1591251E+01  2.3662666E+01
 2.1602751E+01  2.3683769E+01
 2.1614250E+01  2.3639578E+01
 2.1625751E+01  2.3633282E+01
 2.1637251E+01  2.3633913E+01
 2.1648750E+01  2.3645931E+01
 2.1660252E+01  2.3614891E+01
 2.1671751E+01  2.3563160E+01
 2.1683250E+01  2.3530071E+01
 2.1694752E+01  2.3526613E+01
 2.1706251E+01  2.3605366E+01
 2.1717751E+01  2.3685349E+01
 2.1729252E+01  2.3812908E+01
 2.1740751E+01  2.3881111E+01
 2.1752251E+01  2.3886797E+01
 2.1763752E+01  2.3792187E+01
 2.1775251E+01  2.3738041E+01
 2.1786751E+01  2.3675240E+01
 2.1798250E+01  2.3697674E+01
 2.1809752E+01  2.3710817E+01
 2.1821251E+01  2.3681561E+01
 2.1832750E+01  2.3650908E+01
 2.1844252E+01  2.3645670E+01
 2.1855751E+01  2.3666504E+01
 2.1867250E+01  2.3658512E+01
 2.1878752E+01  2.3708826E+01
 2.1890251E+01  2.3697819E+01
 2.1901751E+01  2.3729404E+01
 2.1913252E+01  2.3710379E+01
 2.1924751E+01  2.3682739E+01
 2.1936251E+01  2.3687588E+01
 2.1947752E+01  2.3708143E+01
 2.1959251E+01  2.3722450E+01
 2.1970751E+01  2.3712465E+01
 2.1982250E+01  2.3715345E+01
 2.1993752E+01  2.3736790E+01
 2.2005251E+01  2.3785236E+01
 2.2016750E+01  2.3860863E+01
 2.2028252E+01  2.3881458E+01
 2.2039751E+01  2.3886768E+01
 2.2051250E+01  2.3893291E+01
 2.2062752E+01  2.3906147E+01
 2.2074251E+01  2.3941849E+01
 2.2085751E+01  2.3935865E+01
 2.2097252E+01  2.3928930E+01
 2.2108751E+01  2.3921490E+01
 2.2120251E+01  2.3970381E+01
 2.2131752E+01  2.3979153E+01
 2.2143251E+01  2.3998289E+01
 2.2154751E+01  2.3984262E+01
 2.2166250E+01  2.3970287E+01
 2.2177752E+01  2.3942520E+01
 2.2189251E+01  2.3949579E+01
 2.2200750E+01  2.3946562E+01
 2.2212252E+01  2.3929333E+01
 2.2223751E+01  2.3949844E+01
 2.2235250E+01  2.3986263E+01
 2.2246752E+01  2.4028000E+01
 2.2258251E+01  2.4053461E+01
 2.2269751E+01  2.4029194E+01
 2.2281252E+01  2.4104097E+01
 2.2292751E+01  2.4133150E+01
 2.2304251E+01  2.4162743E+01
 2.2315752E+01  2.4150908E+01
 2.2327251E+01  2.4133986E+01
 2.2338751E+01  2.4192642E+01
 2.2350250E+01  2.4188976E+01
 2.2361752E+01  2.4182329E+01
 2.2373251E+01  2.4072809E+01
 2.2384750E+01  2.4034710E+01
 2.2396252E+01  2.4027237E+01
 2.2407751E+01  2.4029902E+01
 2.2419250E+01  2.4076794E+01
 2.2430752E+01  2.4087412E+01
 2.2442251E+01  2.4128891E+01
 2.2453751E+01  2.4179010E+01
 2.2465252E+01  2.4186064E+01
 2.2476751E+01  2.4179308E+01
 2.2488251E+01  2.4234814E+01
 2.2499752E+01  2.4313234E+01
 2.2511251E+01  2.4315260E+01
 2.2522751E+01  2.4367960E+01
 2.2534250E+01  2.4382219E+01
 2.2545752E+01  2.4432184E+01
 2.2557251E+01  2.4446146E+01
 2.2568750E+01  2.4418369E+01
 2.2580252E+01  2.4387274E+01
 2.2591751E+01  2.4371641E+01
 2.2603251E+01  2.4372614E+01
 2.2614752E+01  2.4405348E+01
 2.2626251E+01  2.4463354E+01
 2.2637751E+01  2.4477705E+01
 2.2649252E+01  2.4446430E+01
 2.2660751E+01  2.4447542E+01
 2.2672251E+01  2.4475891E+01
 2.2683752E+01  2.4556761E+01
 2.2695251E+01  2.4641970E+01
 2.2706751E+01  2.4707340E+01
 2.2718250E+01  2.4743612E+01
 2.2729752E+01  2.4706305E+01
 2.2741251E+01  2.4668856E+01
 2.2752750E+01  2.4654575E+01
 2.2764252E+01  2.4686081E+01
 2.2775751E+01  2.4702721E+01
 2.2787251E+01  2.4670700E+01
 2.2798752E+01  2.4738197E+01
 2.2810251E+01  2.4794325E+01
 2.2821751E+01  2.4878077E+01
 2.2833252E+01  2.4927551E+01
 2.2844751E+01  2.5011204E+01
 2.2856251E+01  2.5026234E+01
 2.2867750E+01  2.5064743E+01
 2.2879251E+01  2.5091249E+01
 2.2890751E+01  2.5161888E+01
 2.2902250E+01  2.5150202E+01
 2.2913752E+01  2.5241467E+01
 2.2925251E+01  2.5322359E+01
 2.2936750E+01  2.5374300E+01
 2.2948252E+01  2.5406864E+01
 2.2959751E+01  2.5433950E+01
 2.2971251E+01  2.5551664E+01
 2.2982752E+01  2.5562389E+01
 2.2994251E+01  2.5606022E+01
