F:\20151113_APS_34IDE\\Brian\Particle1\OCV\Data_0133.tif
2-Theta Angle (Degrees)
Intensity
       2000
 5.7500005E-03  0.0000000E+00
 1.7250001E-02  0.0000000E+00
 2.8750001E-02  0.0000000E+00
 4.0250003E-02  0.0000000E+00
 5.1750004E-02  0.0000000E+00
 6.3250005E-02  0.0000000E+00
 7.4750006E-02  0.0000000E+00
 8.6250007E-02  0.0000000E+00
 9.7750008E-02  0.0000000E+00
 1.0925001E-01  0.0000000E+00
 1.2075000E-01  0.0000000E+00
 1.3225001E-01  0.0000000E+00
 1.4375001E-01  0.0000000E+00
 1.5525001E-01  0.0000000E+00
 1.6675001E-01  0.0000000E+00
 1.7825001E-01  0.0000000E+00
 1.8975002E-01  0.0000000E+00
 2.0125002E-01  0.0000000E+00
 2.1275002E-01  0.0000000E+00
 2.2425000E-01  0.0000000E+00
 2.3575000E-01  0.0000000E+00
 2.4725001E-01  0.0000000E+00
 2.5875002E-01  0.0000000E+00
 2.7025002E-01  0.0000000E+00
 2.8175002E-01  0.0000000E+00
 2.9325002E-01  0.0000000E+00
 3.0475003E-01  0.0000000E+00
 3.1625003E-01  0.0000000E+00
 3.2775003E-01  0.0000000E+00
 3.3925003E-01  0.0000000E+00
 3.5075003E-01  0.0000000E+00
 3.6225003E-01  0.0000000E+00
 3.7375003E-01  0.0000000E+00
 3.8525003E-01  0.0000000E+00
 3.9675003E-01  0.0000000E+00
 4.0825003E-01  0.0000000E+00
 4.1975003E-01  0.0000000E+00
 4.3125004E-01  0.0000000E+00
 4.4275001E-01  0.0000000E+00
 4.5425001E-01  0.0000000E+00
 4.6575001E-01  0.0000000E+00
 4.7725001E-01  0.0000000E+00
 4.8875001E-01  0.0000000E+00
 5.0025004E-01  0.0000000E+00
 5.1175004E-01  0.0000000E+00
 5.2325004E-01  0.0000000E+00
 5.3475004E-01  0.0000000E+00
 5.4625005E-01  0.0000000E+00
 5.5775005E-01  0.0000000E+00
 5.6925005E-01  0.0000000E+00
 5.8075005E-01  0.0000000E+00
 5.9225005E-01  0.0000000E+00
 6.0375005E-01  0.0000000E+00
 6.1525005E-01  0.0000000E+00
 6.2675005E-01  0.0000000E+00
 6.3825005E-01  0.0000000E+00
 6.4975005E-01  0.0000000E+00
 6.6125005E-01  0.0000000E+00
 6.7275006E-01  0.0000000E+00
 6.8425006E-01  0.0000000E+00
 6.9575006E-01  0.0000000E+00
 7.0725006E-01  0.0000000E+00
 7.1875006E-01  0.0000000E+00
 7.3025006E-01  0.0000000E+00
 7.4175006E-01  0.0000000E+00
 7.5325006E-01  0.0000000E+00
 7.6475006E-01  0.0000000E+00
 7.7625006E-01  0.0000000E+00
 7.8775007E-01  0.0000000E+00
 7.9925007E-01  0.0000000E+00
 8.1075007E-01  0.0000000E+00
 8.2225007E-01  0.0000000E+00
 8.3375007E-01  0.0000000E+00
 8.4525007E-01  0.0000000E+00
 8.5675007E-01  0.0000000E+00
 8.6825007E-01  0.0000000E+00
 8.7975001E-01  0.0000000E+00
 8.9125001E-01  0.0000000E+00
 9.0275002E-01  0.0000000E+00
 9.1425002E-01  0.0000000E+00
 9.2575002E-01  0.0000000E+00
 9.3725002E-01  0.0000000E+00
 9.4875002E-01  0.0000000E+00
 9.6025002E-01  0.0000000E+00
 9.7175002E-01  0.0000000E+00
 9.8325002E-01  0.0000000E+00
 9.9475002E-01  0.0000000E+00
 1.0062500E+00  0.0000000E+00
 1.0177500E+00  0.0000000E+00
 1.0292500E+00  0.0000000E+00
 1.0407500E+00  0.0000000E+00
 1.0522500E+00  0.0000000E+00
 1.0637500E+00  0.0000000E+00
 1.0752500E+00  0.0000000E+00
 1.0867500E+00  0.0000000E+00
 1.0982500E+00  0.0000000E+00
 1.1097500E+00  0.0000000E+00
 1.1212500E+00  0.0000000E+00
 1.1327500E+00  0.0000000E+00
 1.1442500E+00  0.0000000E+00
 1.1557500E+00  0.0000000E+00
 1.1672500E+00  0.0000000E+00
 1.1787500E+00  0.0000000E+00
 1.1902500E+00  0.0000000E+00
 1.2017500E+00  0.0000000E+00
 1.2132500E+00  0.0000000E+00
 1.2247500E+00  0.0000000E+00
 1.2362500E+00  0.0000000E+00
 1.2477500E+00  0.0000000E+00
 1.2592500E+00  0.0000000E+00
 1.2707500E+00  0.0000000E+00
 1.2822500E+00  0.0000000E+00
 1.2937500E+00  0.0000000E+00
 1.3052500E+00  0.0000000E+00
 1.3167500E+00  0.0000000E+00
 1.3282501E+00  0.0000000E+00
 1.3397501E+00  0.0000000E+00
 1.3512501E+00  0.0000000E+00
 1.3627501E+00  0.0000000E+00
 1.3742501E+00  0.0000000E+00
 1.3857501E+00  0.0000000E+00
 1.3972501E+00  0.0000000E+00
 1.4087501E+00  0.0000000E+00
 1.4202501E+00  0.0000000E+00
 1.4317501E+00  0.0000000E+00
 1.4432501E+00  0.0000000E+00
 1.4547501E+00  0.0000000E+00
 1.4662501E+00  0.0000000E+00
 1.4777501E+00  0.0000000E+00
 1.4892501E+00  0.0000000E+00
 1.5007501E+00  0.0000000E+00
 1.5122501E+00  0.0000000E+00
 1.5237501E+00  0.0000000E+00
 1.5352501E+00  0.0000000E+00
 1.5467501E+00  0.0000000E+00
 1.5582501E+00  0.0000000E+00
 1.5697501E+00  0.0000000E+00
 1.5812501E+00  0.0000000E+00
 1.5927501E+00  0.0000000E+00
 1.6042501E+00  0.0000000E+00
 1.6157501E+00  0.0000000E+00
 1.6272501E+00  0.0000000E+00
 1.6387501E+00  0.0000000E+00
 1.6502501E+00  0.0000000E+00
 1.6617501E+00  0.0000000E+00
 1.6732501E+00  0.0000000E+00
 1.6847501E+00  0.0000000E+00
 1.6962501E+00  0.0000000E+00
 1.7077501E+00  0.0000000E+00
 1.7192501E+00  0.0000000E+00
 1.7307501E+00  0.0000000E+00
 1.7422501E+00  0.0000000E+00
 1.7537501E+00  0.0000000E+00
 1.7652501E+00  0.0000000E+00
 1.7767501E+00  0.0000000E+00
 1.7882501E+00  0.0000000E+00
 1.7997501E+00  0.0000000E+00
 1.8112501E+00  0.0000000E+00
 1.8227501E+00  0.0000000E+00
 1.8342501E+00  0.0000000E+00
 1.8457501E+00  0.0000000E+00
 1.8572501E+00  0.0000000E+00
 1.8687501E+00  0.0000000E+00
 1.8802501E+00  0.0000000E+00
 1.8917501E+00  0.0000000E+00
 1.9032501E+00  0.0000000E+00
 1.9147501E+00  0.0000000E+00
 1.9262501E+00  0.0000000E+00
 1.9377501E+00  0.0000000E+00
 1.9492501E+00  0.0000000E+00
 1.9607501E+00  0.0000000E+00
 1.9722501E+00  0.0000000E+00
 1.9837501E+00  0.0000000E+00
 1.9952501E+00  0.0000000E+00
 2.0067501E+00  0.0000000E+00
 2.0182500E+00  0.0000000E+00
 2.0297501E+00  0.0000000E+00
 2.0412500E+00  0.0000000E+00
 2.0527501E+00  0.0000000E+00
 2.0642500E+00  0.0000000E+00
 2.0757501E+00  0.0000000E+00
 2.0872500E+00  0.0000000E+00
 2.0987501E+00  0.0000000E+00
 2.1102500E+00  0.0000000E+00
 2.1217501E+00  0.0000000E+00
 2.1332500E+00  0.0000000E+00
 2.1447501E+00  0.0000000E+00
 2.1562500E+00  0.0000000E+00
 2.1677501E+00  0.0000000E+00
 2.1792500E+00  0.0000000E+00
 2.1907501E+00  0.0000000E+00
 2.2022500E+00  0.0000000E+00
 2.2137501E+00  0.0000000E+00
 2.2252500E+00  0.0000000E+00
 2.2367501E+00  0.0000000E+00
 2.2482500E+00  0.0000000E+00
 2.2597501E+00  0.0000000E+00
 2.2712500E+00  0.0000000E+00
 2.2827501E+00  0.0000000E+00
 2.2942500E+00  0.0000000E+00
 2.3057501E+00  0.0000000E+00
 2.3172500E+00  0.0000000E+00
 2.3287501E+00  0.0000000E+00
 2.3402500E+00  0.0000000E+00
 2.3517501E+00  0.0000000E+00
 2.3632500E+00  0.0000000E+00
 2.3747501E+00  0.0000000E+00
 2.3862500E+00  0.0000000E+00
 2.3977501E+00  0.0000000E+00
 2.4092500E+00  0.0000000E+00
 2.4207501E+00  0.0000000E+00
 2.4322500E+00  0.0000000E+00
 2.4437501E+00  0.0000000E+00
 2.4552500E+00  0.0000000E+00
 2.4667501E+00  0.0000000E+00
 2.4782500E+00  0.0000000E+00
 2.4897501E+00  0.0000000E+00
 2.5012500E+00  0.0000000E+00
 2.5127501E+00  0.0000000E+00
 2.5242500E+00  0.0000000E+00
 2.5357502E+00  0.0000000E+00
 2.5472500E+00  0.0000000E+00
 2.5587502E+00  0.0000000E+00
 2.5702500E+00  0.0000000E+00
 2.5817502E+00  0.0000000E+00
 2.5932500E+00  0.0000000E+00
 2.6047502E+00  0.0000000E+00
 2.6162500E+00  0.0000000E+00
 2.6277502E+00  0.0000000E+00
 2.6392500E+00  0.0000000E+00
 2.6507502E+00  0.0000000E+00
 2.6622500E+00  0.0000000E+00
 2.6737502E+00  0.0000000E+00
 2.6852500E+00  0.0000000E+00
 2.6967502E+00  0.0000000E+00
 2.7082500E+00  0.0000000E+00
 2.7197502E+00  0.0000000E+00
 2.7312500E+00  0.0000000E+00
 2.7427502E+00  0.0000000E+00
 2.7542500E+00  0.0000000E+00
 2.7657502E+00  0.0000000E+00
 2.7772501E+00  0.0000000E+00
 2.7887502E+00  0.0000000E+00
 2.8002501E+00  0.0000000E+00
 2.8117502E+00  0.0000000E+00
 2.8232501E+00  3.1087553E+01
 2.8347502E+00  3.2584373E+01
 2.8462501E+00  3.2846760E+01
 2.8577502E+00  3.3006084E+01
 2.8692501E+00  3.3010643E+01
 2.8807502E+00  3.3482845E+01
 2.8922501E+00  3.3833992E+01
 2.9037502E+00  3.4434593E+01
 2.9152501E+00  3.4686310E+01
 2.9267502E+00  3.4839695E+01
 2.9382501E+00  3.4970436E+01
 2.9497502E+00  3.5009655E+01
 2.9612501E+00  3.5034531E+01
 2.9727502E+00  3.5534088E+01
 2.9842501E+00  3.5733105E+01
 2.9957502E+00  3.6314163E+01
 3.0072501E+00  3.6235531E+01
 3.0187502E+00  3.6326458E+01
 3.0302501E+00  3.5827030E+01
 3.0417502E+00  3.5495480E+01
 3.0532501E+00  3.5115013E+01
 3.0647502E+00  3.5132717E+01
 3.0762501E+00  3.5683224E+01
 3.0877502E+00  3.6017990E+01
 3.0992501E+00  3.6464275E+01
 3.1107502E+00  3.5776192E+01
 3.1222501E+00  3.5677452E+01
 3.1337502E+00  3.5493935E+01
 3.1452501E+00  3.5714031E+01
 3.1567502E+00  3.5924870E+01
 3.1682501E+00  3.5837730E+01
 3.1797502E+00  3.6011795E+01
 3.1912501E+00  3.5786751E+01
 3.2027502E+00  3.5761677E+01
 3.2142501E+00  3.5731426E+01
 3.2257502E+00  3.5839828E+01
 3.2372501E+00  3.5876701E+01
 3.2487502E+00  3.5855682E+01
 3.2602501E+00  3.5775951E+01
 3.2717502E+00  3.5788715E+01
 3.2832501E+00  3.6009380E+01
 3.2947502E+00  3.6119736E+01
 3.3062501E+00  3.6084530E+01
 3.3177502E+00  3.5889229E+01
 3.3292501E+00  3.5812607E+01
 3.3407502E+00  3.5690968E+01
 3.3522501E+00  3.5568741E+01
 3.3637502E+00  3.5321518E+01
 3.3752501E+00  3.5090565E+01
 3.3867502E+00  3.5014637E+01
 3.3982501E+00  3.4876476E+01
 3.4097502E+00  3.5135563E+01
 3.4212501E+00  3.5165207E+01
 3.4327502E+00  3.5258377E+01
 3.4442501E+00  3.5241150E+01
 3.4557502E+00  3.5052689E+01
 3.4672501E+00  3.5096355E+01
 3.4787502E+00  3.5021042E+01
 3.4902501E+00  3.5118801E+01
 3.5017502E+00  3.4975403E+01
 3.5132501E+00  3.4830051E+01
 3.5247502E+00  3.4681374E+01
 3.5362501E+00  3.4578098E+01
 3.5477502E+00  3.4574539E+01
 3.5592501E+00  3.4586548E+01
 3.5707502E+00  3.4351418E+01
 3.5822501E+00  3.4151936E+01
 3.5937502E+00  3.3943249E+01
 3.6052501E+00  3.3807884E+01
 3.6167502E+00  3.3606052E+01
 3.6282501E+00  3.3399609E+01
 3.6397502E+00  3.3323685E+01
 3.6512501E+00  3.3446911E+01
 3.6627502E+00  3.3628643E+01
 3.6742501E+00  3.3805313E+01
 3.6857502E+00  3.3762619E+01
 3.6972501E+00  3.3740005E+01
 3.7087502E+00  3.3549431E+01
 3.7202501E+00  3.3278488E+01
 3.7317502E+00  3.3112679E+01
 3.7432501E+00  3.3168221E+01
 3.7547503E+00  3.3375443E+01
 3.7662501E+00  3.3456024E+01
 3.7777503E+00  3.3341507E+01
 3.7892501E+00  3.3176472E+01
 3.8007503E+00  3.2962563E+01
 3.8122501E+00  3.2858131E+01
 3.8237503E+00  3.3019733E+01
 3.8352501E+00  3.3061146E+01
 3.8467503E+00  3.3201733E+01
 3.8582501E+00  3.3195118E+01
 3.8697503E+00  3.3259567E+01
 3.8812501E+00  3.3142635E+01
 3.8927503E+00  3.2987961E+01
 3.9042501E+00  3.2865841E+01
 3.9157503E+00  3.2842819E+01
 3.9272501E+00  3.2748482E+01
 3.9387503E+00  3.2749683E+01
 3.9502501E+00  3.2791008E+01
 3.9617503E+00  3.2886257E+01
 3.9732502E+00  3.3006123E+01
 3.9847503E+00  3.3065235E+01
 3.9962502E+00  3.3141640E+01
 4.0077500E+00  3.3192108E+01
 4.0192504E+00  3.3092846E+01
 4.0307503E+00  3.3114292E+01
 4.0422502E+00  3.3005856E+01
 4.0537500E+00  3.3022839E+01
 4.0652504E+00  3.2866287E+01
 4.0767503E+00  3.2807850E+01
 4.0882502E+00  3.2720909E+01
 4.0997500E+00  3.2748798E+01
 4.1112504E+00  3.2863892E+01
 4.1227503E+00  3.2697571E+01
 4.1342502E+00  3.2647976E+01
 4.1457500E+00  3.2456451E+01
 4.1572504E+00  3.2389568E+01
 4.1687503E+00  3.2337883E+01
 4.1802502E+00  3.2147377E+01
 4.1917500E+00  3.2265511E+01
 4.2032504E+00  3.2263226E+01
 4.2147503E+00  3.2331913E+01
 4.2262502E+00  3.2346561E+01
 4.2377501E+00  3.2159416E+01
 4.2492504E+00  3.2010075E+01
 4.2607503E+00  3.1934654E+01
 4.2722502E+00  3.1968187E+01
 4.2837501E+00  3.2139797E+01
 4.2952504E+00  3.2168236E+01
 4.3067503E+00  3.2341610E+01
 4.3182502E+00  3.2536263E+01
 4.3297501E+00  3.2643532E+01
 4.3412504E+00  3.2699062E+01
 4.3527503E+00  3.2519485E+01
 4.3642502E+00  3.2458519E+01
 4.3757501E+00  3.2411453E+01
 4.3872504E+00  3.2474842E+01
 4.3987503E+00  3.2515598E+01
 4.4102502E+00  3.2489483E+01
 4.4217501E+00  3.2463226E+01
 4.4332504E+00  3.2420959E+01
 4.4447503E+00  3.2466698E+01
 4.4562502E+00  3.2526054E+01
 4.4677501E+00  3.2595257E+01
 4.4792504E+00  3.2625854E+01
 4.4907503E+00  3.2481606E+01
 4.5022502E+00  3.2544987E+01
 4.5137501E+00  3.2563503E+01
 4.5252504E+00  3.2694675E+01
 4.5367503E+00  3.2716969E+01
 4.5482502E+00  3.2664589E+01
 4.5597501E+00  3.2651218E+01
 4.5712504E+00  3.2612354E+01
 4.5827503E+00  3.2602123E+01
 4.5942502E+00  3.2754444E+01
 4.6057501E+00  3.2783283E+01
 4.6172504E+00  3.2839203E+01
 4.6287503E+00  3.2751080E+01
 4.6402502E+00  3.2723721E+01
 4.6517501E+00  3.2875084E+01
 4.6632504E+00  3.2983212E+01
 4.6747503E+00  3.3059143E+01
 4.6862502E+00  3.3010723E+01
 4.6977501E+00  3.3008911E+01
 4.7092505E+00  3.2921619E+01
 4.7207503E+00  3.2889820E+01
 4.7322502E+00  3.2972462E+01
 4.7437501E+00  3.3145443E+01
 4.7552505E+00  3.3272091E+01
 4.7667503E+00  3.3190563E+01
 4.7782502E+00  3.2978191E+01
 4.7897501E+00  3.2881962E+01
 4.8012505E+00  3.2679497E+01
 4.8127503E+00  3.2662910E+01
 4.8242502E+00  3.2666550E+01
 4.8357501E+00  3.2772137E+01
 4.8472505E+00  3.2901478E+01
 4.8587503E+00  3.3065590E+01
 4.8702502E+00  3.3138416E+01
 4.8817501E+00  3.3228947E+01
 4.8932505E+00  3.3233910E+01
 4.9047503E+00  3.3242943E+01
 4.9162502E+00  3.3167847E+01
 4.9277501E+00  3.3035194E+01
 4.9392505E+00  3.2944450E+01
 4.9507504E+00  3.2940468E+01
 4.9622502E+00  3.2923645E+01
 4.9737501E+00  3.2891689E+01
 4.9852505E+00  3.3014820E+01
 4.9967504E+00  3.3017666E+01
 5.0082502E+00  3.3067665E+01
 5.0197501E+00  3.3093098E+01
 5.0312505E+00  3.3242458E+01
 5.0427504E+00  3.3395401E+01
 5.0542502E+00  3.3424549E+01
 5.0657501E+00  3.3444965E+01
 5.0772505E+00  3.3536781E+01
 5.0887504E+00  3.3615028E+01
 5.1002502E+00  3.3623886E+01
 5.1117501E+00  3.3564854E+01
 5.1232505E+00  3.3598278E+01
 5.1347504E+00  3.3702396E+01
 5.1462502E+00  3.3718487E+01
 5.1577501E+00  3.3781139E+01
 5.1692505E+00  3.3859711E+01
 5.1807504E+00  3.3960232E+01
 5.1922503E+00  3.4086094E+01
 5.2037501E+00  3.4132397E+01
 5.2152505E+00  3.4242935E+01
 5.2267504E+00  3.4200012E+01
 5.2382503E+00  3.4162746E+01
 5.2497501E+00  3.4022198E+01
 5.2612505E+00  3.3965408E+01
 5.2727504E+00  3.3895164E+01
 5.2842503E+00  3.3889626E+01
 5.2957501E+00  3.3937386E+01
 5.3072500E+00  3.3914276E+01
 5.3187504E+00  3.4123451E+01
 5.3302503E+00  3.4192181E+01
 5.3417501E+00  3.4418545E+01
 5.3532500E+00  3.4446152E+01
 5.3647504E+00  3.4557835E+01
 5.3762503E+00  3.4572895E+01
 5.3877501E+00  3.4783195E+01
 5.3992500E+00  3.4680614E+01
 5.4107504E+00  3.4648144E+01
 5.4222503E+00  3.4469292E+01
 5.4337502E+00  3.4468746E+01
 5.4452500E+00  3.4511887E+01
 5.4567504E+00  3.4634087E+01
 5.4682503E+00  3.4846302E+01
 5.4797502E+00  3.5050312E+01
 5.4912500E+00  3.5104023E+01
 5.5027504E+00  3.5231918E+01
 5.5142503E+00  3.5276024E+01
 5.5257502E+00  3.5183002E+01
 5.5372500E+00  3.5003933E+01
 5.5487504E+00  3.4953484E+01
 5.5602503E+00  3.5029747E+01
 5.5717502E+00  3.5044117E+01
 5.5832500E+00  3.5021984E+01
 5.5947504E+00  3.5110783E+01
 5.6062503E+00  3.5120869E+01
 5.6177502E+00  3.5185902E+01
 5.6292500E+00  3.5242134E+01
 5.6407504E+00  3.5339909E+01
 5.6522503E+00  3.5346989E+01
 5.6637502E+00  3.5294258E+01
 5.6752501E+00  3.5218914E+01
 5.6867504E+00  3.5334682E+01
 5.6982503E+00  3.5256550E+01
 5.7097502E+00  3.5376026E+01
 5.7212501E+00  3.5360779E+01
 5.7327504E+00  3.5430405E+01
 5.7442503E+00  3.5465992E+01
 5.7557502E+00  3.5405533E+01
 5.7672501E+00  3.5424484E+01
 5.7787504E+00  3.5387566E+01
 5.7902503E+00  3.5524239E+01
 5.8017502E+00  3.5627228E+01
 5.8132501E+00  3.5854477E+01
 5.8247504E+00  3.5945061E+01
 5.8362503E+00  3.6050018E+01
 5.8477502E+00  3.6004780E+01
 5.8592501E+00  3.5811638E+01
 5.8707504E+00  3.5774490E+01
 5.8822503E+00  3.5755287E+01
 5.8937502E+00  3.5882244E+01
 5.9052501E+00  3.6094799E+01
 5.9167504E+00  3.6284863E+01
 5.9282503E+00  3.6533394E+01
 5.9397502E+00  3.6998161E+01
 5.9512501E+00  3.7787407E+01
 5.9627504E+00  3.8442547E+01
 5.9742503E+00  3.9298008E+01
 5.9857502E+00  3.9740765E+01
 5.9972501E+00  3.9859177E+01
 6.0087504E+00  3.9848446E+01
 6.0202503E+00  3.9122326E+01
 6.0317502E+00  3.8784046E+01
 6.0432501E+00  3.7892387E+01
 6.0547504E+00  3.7338127E+01
 6.0662503E+00  3.7107494E+01
 6.0777502E+00  3.6994705E+01
 6.0892501E+00  3.7014881E+01
 6.1007504E+00  3.6913532E+01
 6.1122503E+00  3.6922459E+01
 6.1237502E+00  3.6939095E+01
 6.1352501E+00  3.6982918E+01
 6.1467505E+00  3.6897385E+01
 6.1582503E+00  3.6873672E+01
 6.1697502E+00  3.6762585E+01
 6.1812501E+00  3.6858387E+01
 6.1927505E+00  3.6846443E+01
 6.2042503E+00  3.6908802E+01
 6.2157502E+00  3.7001129E+01
 6.2272501E+00  3.7218441E+01
 6.2387505E+00  3.7357338E+01
 6.2502503E+00  3.7463936E+01
 6.2617502E+00  3.7480778E+01
 6.2732501E+00  3.7636318E+01
 6.2847505E+00  3.7707001E+01
 6.2962503E+00  3.7765953E+01
 6.3077502E+00  3.7712696E+01
 6.3192501E+00  3.7765812E+01
 6.3307505E+00  3.7759346E+01
 6.3422503E+00  3.7891537E+01
 6.3537502E+00  3.7943707E+01
 6.3652501E+00  3.8135967E+01
 6.3767505E+00  3.8340031E+01
 6.3882504E+00  3.8423199E+01
 6.3997502E+00  3.8428478E+01
 6.4112501E+00  3.8396286E+01
 6.4227505E+00  3.8399803E+01
 6.4342504E+00  3.8459404E+01
 6.4457502E+00  3.8521030E+01
 6.4572501E+00  3.8555466E+01
 6.4687505E+00  3.8666462E+01
 6.4802504E+00  3.8751686E+01
 6.4917502E+00  3.8949520E+01
 6.5032501E+00  3.9196198E+01
 6.5147505E+00  3.9440228E+01
 6.5262504E+00  3.9561039E+01
 6.5377502E+00  3.9588734E+01
 6.5492501E+00  3.9526382E+01
 6.5607505E+00  3.9596649E+01
 6.5722504E+00  3.9625515E+01
 6.5837502E+00  3.9772430E+01
 6.5952501E+00  3.9806667E+01
 6.6067505E+00  3.9991405E+01
 6.6182504E+00  4.0031612E+01
 6.6297503E+00  4.0183193E+01
 6.6412501E+00  4.0209557E+01
 6.6527505E+00  4.0286224E+01
 6.6642504E+00  4.0396492E+01
 6.6757503E+00  4.0431149E+01
 6.6872501E+00  4.0479450E+01
 6.6987505E+00  4.0453339E+01
 6.7102504E+00  4.0568493E+01
 6.7217503E+00  4.0687759E+01
 6.7332501E+00  4.0874115E+01
 6.7447505E+00  4.1000607E+01
 6.7562504E+00  4.1085861E+01
 6.7677503E+00  4.1142479E+01
 6.7792501E+00  4.1143326E+01
 6.7907505E+00  4.1123165E+01
 6.8022504E+00  4.1094429E+01
 6.8137503E+00  4.1165970E+01
 6.8252501E+00  4.1211033E+01
 6.8367505E+00  4.1400776E+01
 6.8482504E+00  4.1506130E+01
 6.8597503E+00  4.1658020E+01
 6.8712502E+00  4.1677914E+01
 6.8827505E+00  4.1780991E+01
 6.8942504E+00  4.1843830E+01
 6.9057503E+00  4.2031467E+01
 6.9172502E+00  4.2005619E+01
 6.9287505E+00  4.2070572E+01
 6.9402504E+00  4.2139542E+01
 6.9517503E+00  4.2277054E+01
 6.9632502E+00  4.2349842E+01
 6.9747505E+00  4.2341633E+01
 6.9862504E+00  4.2401920E+01
 6.9977503E+00  4.2458061E+01
 7.0092502E+00  4.2513195E+01
 7.0207505E+00  4.2528671E+01
 7.0322504E+00  4.2580421E+01
 7.0437503E+00  4.2555729E+01
 7.0552502E+00  4.2568378E+01
 7.0667505E+00  4.2590809E+01
 7.0782504E+00  4.2667961E+01
 7.0897503E+00  4.2712437E+01
 7.1012502E+00  4.2780014E+01
 7.1127505E+00  4.2943005E+01
 7.1242504E+00  4.3058578E+01
 7.1357503E+00  4.3292397E+01
 7.1472502E+00  4.3415920E+01
 7.1587505E+00  4.3666668E+01
 7.1702504E+00  4.3680099E+01
 7.1817503E+00  4.3594967E+01
 7.1932502E+00  4.3551178E+01
 7.2047505E+00  4.3446644E+01
 7.2162504E+00  4.3456974E+01
 7.2277503E+00  4.3475998E+01
 7.2392502E+00  4.3579174E+01
 7.2507505E+00  4.3784664E+01
 7.2622504E+00  4.3890606E+01
 7.2737503E+00  4.3956779E+01
 7.2852502E+00  4.3988422E+01
 7.2967505E+00  4.3949272E+01
 7.3082504E+00  4.3959263E+01
 7.3197503E+00  4.3930103E+01
 7.3312502E+00  4.3973652E+01
 7.3427505E+00  4.3990761E+01
 7.3542504E+00  4.4107536E+01
 7.3657503E+00  4.4141941E+01
 7.3772502E+00  4.4274303E+01
 7.3887506E+00  4.4353016E+01
 7.4002504E+00  4.4412846E+01
 7.4117503E+00  4.4443043E+01
 7.4232502E+00  4.4440723E+01
 7.4347506E+00  4.4407532E+01
 7.4462504E+00  4.4593700E+01
 7.4577503E+00  4.4714340E+01
 7.4692502E+00  4.4890282E+01
 7.4807506E+00  4.4901764E+01
 7.4922504E+00  4.4820271E+01
 7.5037503E+00  4.4794022E+01
 7.5152502E+00  4.4704124E+01
 7.5267506E+00  4.4628948E+01
 7.5382504E+00  4.4568390E+01
 7.5497503E+00  4.4500431E+01
 7.5612502E+00  4.4576801E+01
 7.5727506E+00  4.4595776E+01
 7.5842505E+00  4.4710579E+01
 7.5957503E+00  4.4691864E+01
 7.6072502E+00  4.4756172E+01
 7.6187506E+00  4.4714958E+01
 7.6302505E+00  4.4685421E+01
 7.6417503E+00  4.4664299E+01
 7.6532502E+00  4.4574837E+01
 7.6647506E+00  4.4521896E+01
 7.6762505E+00  4.4438103E+01
 7.6877503E+00  4.4531342E+01
 7.6992502E+00  4.4633579E+01
 7.7107506E+00  4.4803833E+01
 7.7222505E+00  4.4754105E+01
 7.7337503E+00  4.4788773E+01
 7.7452502E+00  4.4697254E+01
 7.7567506E+00  4.4615482E+01
 7.7682505E+00  4.4545662E+01
 7.7797503E+00  4.4431084E+01
 7.7912502E+00  4.4448566E+01
 7.8027506E+00  4.4367924E+01
 7.8142505E+00  4.4344154E+01
 7.8257504E+00  4.4301098E+01
 7.8372502E+00  4.4360374E+01
 7.8487506E+00  4.4329971E+01
 7.8602505E+00  4.4274998E+01
 7.8717504E+00  4.4091431E+01
 7.8832502E+00  4.3979965E+01
 7.8947506E+00  4.3887188E+01
 7.9062505E+00  4.3902084E+01
 7.9177504E+00  4.3960052E+01
 7.9292502E+00  4.4099552E+01
 7.9407506E+00  4.4266502E+01
 7.9522505E+00  4.4241177E+01
 7.9637504E+00  4.4139938E+01
 7.9752502E+00  4.3836216E+01
 7.9867506E+00  4.3723495E+01
 7.9982505E+00  4.3620327E+01
 8.0097504E+00  4.3605942E+01
 8.0212507E+00  4.3479256E+01
 8.0327501E+00  4.3390759E+01
 8.0442505E+00  4.3298752E+01
 8.0557508E+00  4.3295128E+01
 8.0672503E+00  4.3286472E+01
 8.0787506E+00  4.3338215E+01
 8.0902500E+00  4.3425800E+01
 8.1017504E+00  4.3416306E+01
 8.1132507E+00  4.3319996E+01
 8.1247501E+00  4.3140568E+01
 8.1362505E+00  4.2996021E+01
 8.1477509E+00  4.2809208E+01
 8.1592503E+00  4.2678844E+01
 8.1707506E+00  4.2609962E+01
 8.1822500E+00  4.2488892E+01
 8.1937504E+00  4.2357121E+01
 8.2052507E+00  4.2110802E+01
 8.2167501E+00  4.1937984E+01
 8.2282505E+00  4.1778938E+01
 8.2397509E+00  4.1670082E+01
 8.2512503E+00  4.1552139E+01
 8.2627506E+00  4.1451046E+01
 8.2742500E+00  4.1319660E+01
 8.2857504E+00  4.1170265E+01
 8.2972507E+00  4.0934029E+01
 8.3087502E+00  4.0736794E+01
 8.3202505E+00  4.0522629E+01
 8.3317509E+00  4.0364048E+01
 8.3432503E+00  4.0212341E+01
 8.3547506E+00  4.0092888E+01
 8.3662500E+00  3.9999214E+01
 8.3777504E+00  3.9830616E+01
 8.3892508E+00  3.9649784E+01
 8.4007502E+00  3.9439896E+01
 8.4122505E+00  3.9319656E+01
 8.4237509E+00  3.9191921E+01
 8.4352503E+00  3.9032333E+01
 8.4467506E+00  3.8855247E+01
 8.4582500E+00  3.8666611E+01
 8.4697504E+00  3.8565372E+01
 8.4812508E+00  3.8346676E+01
 8.4927502E+00  3.8208843E+01
 8.5042505E+00  3.7958538E+01
 8.5157509E+00  3.7786701E+01
 8.5272503E+00  3.7538677E+01
 8.5387506E+00  3.7366150E+01
 8.5502501E+00  3.7170219E+01
 8.5617504E+00  3.7032654E+01
 8.5732508E+00  3.6911739E+01
 8.5847502E+00  3.6751888E+01
 8.5962505E+00  3.6573689E+01
 8.6077509E+00  3.6408558E+01
 8.6192503E+00  3.6265858E+01
 8.6307507E+00  3.6134720E+01
 8.6422501E+00  3.6014477E+01
 8.6537504E+00  3.5794632E+01
 8.6652508E+00  3.5686863E+01
 8.6767502E+00  3.5420059E+01
 8.6882505E+00  3.5323715E+01
 8.6997509E+00  3.5126499E+01
 8.7112503E+00  3.4959064E+01
 8.7227507E+00  3.4704365E+01
 8.7342501E+00  3.4540192E+01
 8.7457504E+00  3.4372593E+01
 8.7572508E+00  3.4284195E+01
 8.7687502E+00  3.4116249E+01
 8.7802505E+00  3.3972713E+01
 8.7917500E+00  3.3741024E+01
 8.8032503E+00  3.3522858E+01
 8.8147507E+00  3.3332565E+01
 8.8262501E+00  3.3101250E+01
 8.8377504E+00  3.2999084E+01
 8.8492508E+00  3.2844738E+01
 8.8607502E+00  3.2847694E+01
 8.8722506E+00  3.2730156E+01
 8.8837500E+00  3.2568821E+01
 8.8952503E+00  3.2357826E+01
 8.9067507E+00  3.2182453E+01
 8.9182501E+00  3.1994904E+01
 8.9297504E+00  3.1861332E+01
 8.9412508E+00  3.1710913E+01
 8.9527502E+00  3.1632895E+01
 8.9642506E+00  3.1533087E+01
 8.9757500E+00  3.1327871E+01
 8.9872503E+00  3.1189184E+01
 8.9987507E+00  3.0970037E+01
 9.0102501E+00  3.0887762E+01
 9.0217505E+00  3.0710909E+01
 9.0332508E+00  3.0561188E+01
 9.0447502E+00  3.0374542E+01
 9.0562506E+00  3.0258121E+01
 9.0677500E+00  3.0130379E+01
 9.0792503E+00  3.0105160E+01
 9.0907507E+00  2.9945814E+01
 9.1022501E+00  2.9809900E+01
 9.1137505E+00  2.9603113E+01
 9.1252508E+00  2.9487793E+01
 9.1367502E+00  2.9367298E+01
 9.1482506E+00  2.9311010E+01
 9.1597500E+00  2.9289423E+01
 9.1712503E+00  2.9245623E+01
 9.1827507E+00  2.9170328E+01
 9.1942501E+00  2.9062029E+01
 9.2057505E+00  2.8890497E+01
 9.2172508E+00  2.8776358E+01
 9.2287502E+00  2.8536142E+01
 9.2402506E+00  2.8415537E+01
 9.2517500E+00  2.8234879E+01
 9.2632504E+00  2.8171356E+01
 9.2747507E+00  2.8131493E+01
 9.2862501E+00  2.8079790E+01
 9.2977505E+00  2.7922825E+01
 9.3092508E+00  2.7852833E+01
 9.3207502E+00  2.7680460E+01
 9.3322506E+00  2.7626471E+01
 9.3437500E+00  2.7495560E+01
 9.3552504E+00  2.7471151E+01
 9.3667507E+00  2.7387537E+01
 9.3782501E+00  2.7369678E+01
 9.3897505E+00  2.7256046E+01
 9.4012508E+00  2.7183475E+01
 9.4127502E+00  2.7020641E+01
 9.4242506E+00  2.6958260E+01
 9.4357500E+00  2.6920042E+01
 9.4472504E+00  2.6844828E+01
 9.4587507E+00  2.6792345E+01
 9.4702501E+00  2.6747253E+01
 9.4817505E+00  2.6744370E+01
 9.4932508E+00  2.6690033E+01
 9.5047503E+00  2.6610577E+01
 9.5162506E+00  2.6534674E+01
 9.5277500E+00  2.6446066E+01
 9.5392504E+00  2.6368929E+01
 9.5507507E+00  2.6350115E+01
 9.5622501E+00  2.6323423E+01
 9.5737505E+00  2.6239256E+01
 9.5852509E+00  2.6033632E+01
 9.5967503E+00  2.5935728E+01
 9.6082506E+00  2.5793112E+01
 9.6197500E+00  2.5716475E+01
 9.6312504E+00  2.5542896E+01
 9.6427507E+00  2.5512081E+01
 9.6542501E+00  2.5512304E+01
 9.6657505E+00  2.5469007E+01
 9.6772509E+00  2.5398439E+01
 9.6887503E+00  2.5334970E+01
 9.7002506E+00  2.5350115E+01
 9.7117500E+00  2.5380930E+01
 9.7232504E+00  2.5378736E+01
 9.7347507E+00  2.5339926E+01
 9.7462502E+00  2.5346563E+01
 9.7577505E+00  2.5299128E+01
 9.7692509E+00  2.5320959E+01
 9.7807503E+00  2.5252371E+01
 9.7922506E+00  2.5174374E+01
 9.8037500E+00  2.5119833E+01
 9.8152504E+00  2.5038435E+01
 9.8267508E+00  2.4975801E+01
 9.8382502E+00  2.4934917E+01
 9.8497505E+00  2.4907257E+01
 9.8612509E+00  2.4894403E+01
 9.8727503E+00  2.4814362E+01
 9.8842506E+00  2.4749403E+01
 9.8957500E+00  2.4744995E+01
 9.9072504E+00  2.4752804E+01
 9.9187508E+00  2.4748434E+01
 9.9302502E+00  2.4739359E+01
 9.9417505E+00  2.4689625E+01
 9.9532509E+00  2.4631931E+01
 9.9647503E+00  2.4524271E+01
 9.9762506E+00  2.4520725E+01
 9.9877501E+00  2.4435373E+01
 9.9992504E+00  2.4465801E+01
 1.0010751E+01  2.4336918E+01
 1.0022250E+01  2.4337921E+01
 1.0033751E+01  2.4295675E+01
 1.0045251E+01  2.4313608E+01
 1.0056750E+01  2.4309135E+01
 1.0068251E+01  2.4222271E+01
 1.0079750E+01  2.4171539E+01
 1.0091250E+01  2.4078459E+01
 1.0102751E+01  2.4090361E+01
 1.0114250E+01  2.4096004E+01
 1.0125751E+01  2.4137531E+01
 1.0137251E+01  2.4110117E+01
 1.0148750E+01  2.4061434E+01
 1.0160251E+01  2.3994425E+01
 1.0171750E+01  2.3932951E+01
 1.0183250E+01  2.3883211E+01
 1.0194751E+01  2.3853184E+01
 1.0206250E+01  2.3810287E+01
 1.0217751E+01  2.3822258E+01
 1.0229251E+01  2.3768894E+01
 1.0240750E+01  2.3746481E+01
 1.0252251E+01  2.3663275E+01
 1.0263750E+01  2.3637297E+01
 1.0275250E+01  2.3653339E+01
 1.0286751E+01  2.3623165E+01
 1.0298250E+01  2.3622419E+01
 1.0309751E+01  2.3588043E+01
 1.0321251E+01  2.3576473E+01
 1.0332750E+01  2.3582216E+01
 1.0344251E+01  2.3524261E+01
 1.0355750E+01  2.3488512E+01
 1.0367250E+01  2.3389183E+01
 1.0378751E+01  2.3341890E+01
 1.0390250E+01  2.3367340E+01
 1.0401751E+01  2.3441055E+01
 1.0413251E+01  2.3463367E+01
 1.0424750E+01  2.3414070E+01
 1.0436251E+01  2.3310383E+01
 1.0447750E+01  2.3263315E+01
 1.0459250E+01  2.3259859E+01
 1.0470751E+01  2.3278933E+01
 1.0482250E+01  2.3293470E+01
 1.0493751E+01  2.3297993E+01
 1.0505251E+01  2.3340565E+01
 1.0516750E+01  2.3345890E+01
 1.0528251E+01  2.3295895E+01
 1.0539750E+01  2.3199141E+01
 1.0551250E+01  2.3143486E+01
 1.0562751E+01  2.3182444E+01
 1.0574250E+01  2.3196064E+01
 1.0585751E+01  2.3200850E+01
 1.0597251E+01  2.3139168E+01
 1.0608750E+01  2.3121767E+01
 1.0620251E+01  2.3086065E+01
 1.0631750E+01  2.3042486E+01
 1.0643250E+01  2.2969931E+01
 1.0654751E+01  2.2958466E+01
 1.0666250E+01  2.2949554E+01
 1.0677751E+01  2.2950638E+01
 1.0689251E+01  2.2910980E+01
 1.0700750E+01  2.2858738E+01
 1.0712251E+01  2.2856565E+01
 1.0723750E+01  2.2835049E+01
 1.0735250E+01  2.2852694E+01
 1.0746751E+01  2.2869242E+01
 1.0758250E+01  2.2888155E+01
 1.0769751E+01  2.2932501E+01
 1.0781251E+01  2.2868542E+01
 1.0792750E+01  2.2858715E+01
 1.0804251E+01  2.2772461E+01
 1.0815750E+01  2.2770615E+01
 1.0827250E+01  2.2716118E+01
 1.0838751E+01  2.2697454E+01
 1.0850250E+01  2.2710381E+01
 1.0861751E+01  2.2677402E+01
 1.0873251E+01  2.2676878E+01
 1.0884750E+01  2.2608837E+01
 1.0896251E+01  2.2611834E+01
 1.0907750E+01  2.2663544E+01
 1.0919250E+01  2.2731136E+01
 1.0930751E+01  2.2748919E+01
 1.0942250E+01  2.2677179E+01
 1.0953751E+01  2.2662048E+01
 1.0965251E+01  2.2671469E+01
 1.0976750E+01  2.2677982E+01
 1.0988251E+01  2.2595598E+01
 1.0999750E+01  2.2547180E+01
 1.1011250E+01  2.2485472E+01
 1.1022751E+01  2.2455847E+01
 1.1034250E+01  2.2427481E+01
 1.1045751E+01  2.2461678E+01
 1.1057251E+01  2.2472729E+01
 1.1068750E+01  2.2530811E+01
 1.1080251E+01  2.2571484E+01
 1.1091750E+01  2.2622713E+01
 1.1103251E+01  2.2593271E+01
 1.1114751E+01  2.2601162E+01
 1.1126250E+01  2.2592031E+01
 1.1137751E+01  2.2576067E+01
 1.1149251E+01  2.2565067E+01
 1.1160750E+01  2.2560690E+01
 1.1172251E+01  2.2610067E+01
 1.1183750E+01  2.2585094E+01
 1.1195251E+01  2.2573320E+01
 1.1206751E+01  2.2513849E+01
 1.1218250E+01  2.2427132E+01
 1.1229751E+01  2.2356739E+01
 1.1241251E+01  2.2382923E+01
 1.1252750E+01  2.2431688E+01
 1.1264251E+01  2.2502499E+01
 1.1275750E+01  2.2490675E+01
 1.1287251E+01  2.2457933E+01
 1.1298751E+01  2.2392439E+01
 1.1310250E+01  2.2357477E+01
 1.1321751E+01  2.2328705E+01
 1.1333251E+01  2.2314133E+01
 1.1344750E+01  2.2281752E+01
 1.1356251E+01  2.2321737E+01
 1.1367750E+01  2.2314152E+01
 1.1379251E+01  2.2357830E+01
 1.1390751E+01  2.2356510E+01
 1.1402250E+01  2.2476633E+01
 1.1413751E+01  2.2519079E+01
 1.1425251E+01  2.2560078E+01
 1.1436750E+01  2.2520657E+01
 1.1448251E+01  2.2471035E+01
 1.1459750E+01  2.2421804E+01
 1.1471251E+01  2.2402020E+01
 1.1482751E+01  2.2371153E+01
 1.1494250E+01  2.2393238E+01
 1.1505751E+01  2.2363909E+01
 1.1517251E+01  2.2357542E+01
 1.1528750E+01  2.2428219E+01
 1.1540251E+01  2.2522648E+01
 1.1551750E+01  2.2696697E+01
 1.1563251E+01  2.2873949E+01
 1.1574751E+01  2.3030691E+01
 1.1586250E+01  2.3223560E+01
 1.1597751E+01  2.3214769E+01
 1.1609251E+01  2.3128279E+01
 1.1620750E+01  2.2968369E+01
 1.1632251E+01  2.2796705E+01
 1.1643750E+01  2.2655584E+01
 1.1655251E+01  2.2539127E+01
 1.1666751E+01  2.2496529E+01
 1.1678250E+01  2.2455990E+01
 1.1689751E+01  2.2389904E+01
 1.1701251E+01  2.2340029E+01
 1.1712750E+01  2.2304867E+01
 1.1724251E+01  2.2295103E+01
 1.1735750E+01  2.2298277E+01
 1.1747251E+01  2.2391779E+01
 1.1758751E+01  2.2414988E+01
 1.1770250E+01  2.2431492E+01
 1.1781751E+01  2.2457296E+01
 1.1793251E+01  2.2438627E+01
 1.1804750E+01  2.2474426E+01
 1.1816251E+01  2.2437712E+01
 1.1827750E+01  2.2388975E+01
 1.1839251E+01  2.2320646E+01
 1.1850751E+01  2.2250021E+01
 1.1862250E+01  2.2242188E+01
 1.1873751E+01  2.2250710E+01
 1.1885251E+01  2.2300323E+01
 1.1896750E+01  2.2419060E+01
 1.1908251E+01  2.2483738E+01
 1.1919750E+01  2.2546261E+01
 1.1931251E+01  2.2551304E+01
 1.1942751E+01  2.2599743E+01
 1.1954250E+01  2.2627558E+01
 1.1965751E+01  2.2671198E+01
 1.1977251E+01  2.2694271E+01
 1.1988750E+01  2.2724409E+01
 1.2000251E+01  2.2709341E+01
 1.2011750E+01  2.2691250E+01
 1.2023251E+01  2.2687490E+01
 1.2034751E+01  2.2693705E+01
 1.2046250E+01  2.2677517E+01
 1.2057751E+01  2.2690472E+01
 1.2069251E+01  2.2766994E+01
 1.2080750E+01  2.2846146E+01
 1.2092251E+01  2.2841211E+01
 1.2103750E+01  2.2850697E+01
 1.2115251E+01  2.2787941E+01
 1.2126751E+01  2.2761478E+01
 1.2138250E+01  2.2709135E+01
 1.2149751E+01  2.2676941E+01
 1.2161251E+01  2.2607405E+01
 1.2172750E+01  2.2488989E+01
 1.2184251E+01  2.2446585E+01
 1.2195750E+01  2.2425056E+01
 1.2207251E+01  2.2406479E+01
 1.2218751E+01  2.2389837E+01
 1.2230250E+01  2.2372356E+01
 1.2241751E+01  2.2395554E+01
 1.2253251E+01  2.2390005E+01
 1.2264750E+01  2.2389431E+01
 1.2276251E+01  2.2446302E+01
 1.2287750E+01  2.2547512E+01
 1.2299251E+01  2.2629440E+01
 1.2310751E+01  2.2985798E+01
 1.2322250E+01  2.3005053E+01
 1.2333751E+01  2.3023960E+01
 1.2345250E+01  2.2713804E+01
 1.2356750E+01  2.2712496E+01
 1.2368251E+01  2.2723066E+01
 1.2379750E+01  2.2716537E+01
 1.2391251E+01  2.2711857E+01
 1.2402751E+01  2.2664047E+01
 1.2414250E+01  2.2582125E+01
 1.2425751E+01  2.2507410E+01
 1.2437250E+01  2.2478148E+01
 1.2448750E+01  2.2476721E+01
 1.2460251E+01  2.2504728E+01
 1.2471750E+01  2.2512089E+01
 1.2483251E+01  2.2598986E+01
 1.2494751E+01  2.2620398E+01
 1.2506250E+01  2.2700209E+01
 1.2517751E+01  2.2672701E+01
 1.2529250E+01  2.2708120E+01
 1.2540751E+01  2.2731339E+01
 1.2552251E+01  2.2788040E+01
 1.2563750E+01  2.2758162E+01
 1.2575251E+01  2.2728189E+01
 1.2586751E+01  2.2674324E+01
 1.2598250E+01  2.2680323E+01
 1.2609751E+01  2.2711132E+01
 1.2621250E+01  2.2757805E+01
 1.2632751E+01  2.2824083E+01
 1.2644251E+01  2.2823303E+01
 1.2655750E+01  2.2857920E+01
 1.2667251E+01  2.2837559E+01
 1.2678751E+01  2.2859873E+01
 1.2690250E+01  2.2821989E+01
 1.2701751E+01  2.2839268E+01
 1.2713250E+01  2.2893827E+01
 1.2724751E+01  2.2932913E+01
 1.2736251E+01  2.3011713E+01
 1.2747750E+01  2.2976936E+01
 1.2759251E+01  2.3057060E+01
 1.2770751E+01  2.3031311E+01
 1.2782250E+01  2.3053127E+01
 1.2793751E+01  2.3021206E+01
 1.2805250E+01  2.2998917E+01
 1.2816751E+01  2.3019577E+01
 1.2828251E+01  2.2994547E+01
 1.2839750E+01  2.3017498E+01
 1.2851251E+01  2.3060127E+01
 1.2862751E+01  2.3158697E+01
 1.2874250E+01  2.3212446E+01
 1.2885751E+01  2.3226191E+01
 1.2897250E+01  2.3274220E+01
 1.2908751E+01  2.3359730E+01
 1.2920251E+01  2.3463848E+01
 1.2931750E+01  2.3564575E+01
 1.2943251E+01  2.3644182E+01
 1.2954751E+01  2.3709795E+01
 1.2966250E+01  2.3793280E+01
 1.2977751E+01  2.3891724E+01
 1.2989250E+01  2.3948105E+01
 1.3000751E+01  2.3990467E+01
 1.3012251E+01  2.4036409E+01
 1.3023750E+01  2.4124683E+01
 1.3035251E+01  2.4213978E+01
 1.3046751E+01  2.4350399E+01
 1.3058250E+01  2.4474861E+01
 1.3069751E+01  2.4589066E+01
 1.3081250E+01  2.4676340E+01
 1.3092751E+01  2.4780571E+01
 1.3104251E+01  2.4878189E+01
 1.3115750E+01  2.4981964E+01
 1.3127251E+01  2.5071692E+01
 1.3138751E+01  2.5139395E+01
 1.3150250E+01  2.5256874E+01
 1.3161751E+01  2.5337587E+01
 1.3173250E+01  2.5498953E+01
 1.3184751E+01  2.5638836E+01
 1.3196251E+01  2.5812443E+01
 1.3207750E+01  2.5950598E+01
 1.3219251E+01  2.6081095E+01
 1.3230751E+01  2.6267815E+01
 1.3242250E+01  2.6458473E+01
 1.3253751E+01  2.6583832E+01
 1.3265250E+01  2.6703104E+01
 1.3276751E+01  2.6772629E+01
 1.3288251E+01  2.6875034E+01
 1.3299750E+01  2.6940516E+01
 1.3311251E+01  2.6978985E+01
 1.3322751E+01  2.7087820E+01
 1.3334250E+01  2.7243732E+01
 1.3345751E+01  2.7414749E+01
 1.3357250E+01  2.7567619E+01
 1.3368751E+01  2.7704405E+01
 1.3380251E+01  2.7938478E+01
 1.3391750E+01  2.8132513E+01
 1.3403251E+01  2.8334408E+01
 1.3414751E+01  2.8429573E+01
 1.3426250E+01  2.8532055E+01
 1.3437751E+01  2.8638329E+01
 1.3449250E+01  2.8782721E+01
 1.3460751E+01  2.8874201E+01
 1.3472251E+01  2.9011032E+01
 1.3483750E+01  2.9140728E+01
 1.3495251E+01  2.9290895E+01
 1.3506751E+01  2.9332115E+01
 1.3518250E+01  2.9378824E+01
 1.3529751E+01  2.9408712E+01
 1.3541250E+01  2.9499594E+01
 1.3552751E+01  2.9591778E+01
 1.3564251E+01  2.9679947E+01
 1.3575750E+01  2.9764759E+01
 1.3587251E+01  2.9819107E+01
 1.3598751E+01  2.9852573E+01
 1.3610250E+01  2.9833895E+01
 1.3621751E+01  2.9776281E+01
 1.3633250E+01  2.9740925E+01
 1.3644751E+01  2.9686312E+01
 1.3656251E+01  2.9692638E+01
 1.3667750E+01  2.9660858E+01
 1.3679251E+01  2.9660881E+01
 1.3690751E+01  2.9605270E+01
 1.3702250E+01  2.9558081E+01
 1.3713751E+01  2.9462214E+01
 1.3725250E+01  2.9369862E+01
 1.3736751E+01  2.9325417E+01
 1.3748251E+01  2.9243317E+01
 1.3759750E+01  2.9162722E+01
 1.3771251E+01  2.9093382E+01
 1.3782751E+01  2.9078754E+01
 1.3794250E+01  2.9073694E+01
 1.3805751E+01  2.9035063E+01
 1.3817250E+01  2.9004478E+01
 1.3828751E+01  2.8952473E+01
 1.3840251E+01  2.8872534E+01
 1.3851750E+01  2.8788065E+01
 1.3863251E+01  2.8702801E+01
 1.3874751E+01  2.8650940E+01
 1.3886250E+01  2.8612818E+01
 1.3897751E+01  2.8688652E+01
 1.3909250E+01  2.8705820E+01
 1.3920751E+01  2.8781727E+01
 1.3932251E+01  2.8854252E+01
 1.3943750E+01  2.8963789E+01
 1.3955251E+01  2.8972387E+01
 1.3966751E+01  2.8927507E+01
 1.3978251E+01  2.8760422E+01
 1.3989751E+01  2.8572060E+01
 1.4001250E+01  2.8282957E+01
 1.4012751E+01  2.8098822E+01
 1.4024251E+01  2.7839970E+01
 1.4035750E+01  2.7627707E+01
 1.4047251E+01  2.7449524E+01
 1.4058751E+01  2.7358757E+01
 1.4070251E+01  2.7326853E+01
 1.4081751E+01  2.7224703E+01
 1.4093250E+01  2.7180140E+01
 1.4104751E+01  2.7155334E+01
 1.4116251E+01  2.7127808E+01
 1.4127750E+01  2.7107544E+01
 1.4139251E+01  2.7006933E+01
 1.4150751E+01  2.6936865E+01
 1.4162251E+01  2.6848850E+01
 1.4173751E+01  2.6754644E+01
 1.4185250E+01  2.6670979E+01
 1.4196751E+01  2.6571011E+01
 1.4208251E+01  2.6510973E+01
 1.4219750E+01  2.6504053E+01
 1.4231251E+01  2.6495142E+01
 1.4242751E+01  2.6487413E+01
 1.4254251E+01  2.6393669E+01
 1.4265751E+01  2.6307083E+01
 1.4277250E+01  2.6172928E+01
 1.4288751E+01  2.6113617E+01
 1.4300251E+01  2.6067614E+01
 1.4311750E+01  2.6089861E+01
 1.4323251E+01  2.6062458E+01
 1.4334751E+01  2.6065866E+01
 1.4346251E+01  2.6061031E+01
 1.4357751E+01  2.6066212E+01
 1.4369250E+01  2.5998720E+01
 1.4380751E+01  2.5937944E+01
 1.4392251E+01  2.5883896E+01
 1.4403750E+01  2.5847336E+01
 1.4415251E+01  2.5851284E+01
 1.4426751E+01  2.5773542E+01
 1.4438251E+01  2.5792610E+01
 1.4449751E+01  2.5742962E+01
 1.4461250E+01  2.5755974E+01
 1.4472751E+01  2.5674322E+01
 1.4484251E+01  2.5654249E+01
 1.4495750E+01  2.5630720E+01
 1.4507251E+01  2.5589756E+01
 1.4518751E+01  2.5518530E+01
 1.4530251E+01  2.5497499E+01
 1.4541751E+01  2.5517714E+01
 1.4553250E+01  2.5483904E+01
 1.4564751E+01  2.5471813E+01
 1.4576251E+01  2.5375582E+01
 1.4587750E+01  2.5290468E+01
 1.4599251E+01  2.5160852E+01
 1.4610751E+01  2.5110992E+01
 1.4622251E+01  2.5121937E+01
 1.4633751E+01  2.5121992E+01
 1.4645250E+01  2.5173944E+01
 1.4656751E+01  2.5180817E+01
 1.4668251E+01  2.5189960E+01
 1.4679750E+01  2.5164770E+01
 1.4691251E+01  2.5141197E+01
 1.4702751E+01  2.5126736E+01
 1.4714251E+01  2.5131353E+01
 1.4725751E+01  2.5206196E+01
 1.4737250E+01  2.5207003E+01
 1.4748751E+01  2.5447090E+01
 1.4760251E+01  2.5437309E+01
 1.4771750E+01  2.5660143E+01
 1.4783251E+01  2.5505959E+01
 1.4794751E+01  2.5566441E+01
 1.4806251E+01  2.5519394E+01
 1.4817751E+01  2.5509962E+01
 1.4829250E+01  2.5591988E+01
 1.4840751E+01  2.5449907E+01
 1.4852251E+01  2.5428022E+01
 1.4863750E+01  2.5119406E+01
 1.4875251E+01  2.4972198E+01
 1.4886751E+01  2.4809505E+01
 1.4898251E+01  2.4780230E+01
 1.4909751E+01  2.4787445E+01
 1.4921250E+01  2.4756483E+01
 1.4932751E+01  2.4736921E+01
 1.4944251E+01  2.4685743E+01
 1.4955750E+01  2.4669104E+01
 1.4967251E+01  2.4657557E+01
 1.4978751E+01  2.4676346E+01
 1.4990251E+01  2.4678255E+01
 1.5001751E+01  2.4682165E+01
 1.5013250E+01  2.4698492E+01
 1.5024751E+01  2.4726236E+01
 1.5036251E+01  2.4707556E+01
 1.5047750E+01  2.4707924E+01
 1.5059251E+01  2.4714573E+01
 1.5070751E+01  2.4763021E+01
 1.5082251E+01  2.4729439E+01
 1.5093751E+01  2.4688026E+01
 1.5105250E+01  2.4631071E+01
 1.5116751E+01  2.4611744E+01
 1.5128251E+01  2.4603397E+01
 1.5139750E+01  2.4640070E+01
 1.5151251E+01  2.4714590E+01
 1.5162751E+01  2.4780293E+01
 1.5174251E+01  2.4813688E+01
 1.5185751E+01  2.4798964E+01
 1.5197250E+01  2.4762627E+01
 1.5208751E+01  2.4705675E+01
 1.5220251E+01  2.4676569E+01
 1.5231750E+01  2.4631208E+01
 1.5243251E+01  2.4635578E+01
 1.5254751E+01  2.4608242E+01
 1.5266251E+01  2.4592062E+01
 1.5277751E+01  2.4544720E+01
 1.5289250E+01  2.4489725E+01
 1.5300751E+01  2.4469139E+01
 1.5312251E+01  2.4450045E+01
 1.5323750E+01  2.4468962E+01
 1.5335251E+01  2.4477989E+01
 1.5346751E+01  2.4448158E+01
 1.5358251E+01  2.4453745E+01
 1.5369751E+01  2.4412636E+01
 1.5381250E+01  2.4416962E+01
 1.5392751E+01  2.4344019E+01
 1.5404251E+01  2.4329916E+01
 1.5415751E+01  2.4286848E+01
 1.5427251E+01  2.4312679E+01
 1.5438751E+01  2.4390009E+01
 1.5450251E+01  2.4492916E+01
 1.5461751E+01  2.4534298E+01
 1.5473250E+01  2.4531700E+01
 1.5484751E+01  2.4470455E+01
 1.5496251E+01  2.4455374E+01
 1.5507751E+01  2.4442366E+01
 1.5519251E+01  2.4433062E+01
 1.5530751E+01  2.4406128E+01
 1.5542251E+01  2.4342079E+01
 1.5553751E+01  2.4298548E+01
 1.5565250E+01  2.4289146E+01
 1.5576751E+01  2.4293638E+01
 1.5588251E+01  2.4321146E+01
 1.5599751E+01  2.4336966E+01
 1.5611251E+01  2.4385744E+01
 1.5622751E+01  2.4404783E+01
 1.5634251E+01  2.4390369E+01
 1.5645751E+01  2.4364315E+01
 1.5657250E+01  2.4356791E+01
 1.5668751E+01  2.4374239E+01
 1.5680251E+01  2.4427031E+01
 1.5691751E+01  2.4447277E+01
 1.5703251E+01  2.4487574E+01
 1.5714751E+01  2.4472494E+01
 1.5726251E+01  2.4471245E+01
 1.5737751E+01  2.4385290E+01
 1.5749250E+01  2.4374361E+01
 1.5760751E+01  2.4384928E+01
 1.5772251E+01  2.4505482E+01
 1.5783751E+01  2.4543917E+01
 1.5795251E+01  2.4611038E+01
 1.5806751E+01  2.4580061E+01
 1.5818251E+01  2.4599398E+01
 1.5829751E+01  2.4580530E+01
 1.5841250E+01  2.4547077E+01
 1.5852751E+01  2.4531487E+01
 1.5864251E+01  2.4477568E+01
 1.5875751E+01  2.4480146E+01
 1.5887251E+01  2.4435772E+01
 1.5898750E+01  2.4429918E+01
 1.5910251E+01  2.4428680E+01
 1.5921751E+01  2.4398548E+01
 1.5933250E+01  2.4422483E+01
 1.5944751E+01  2.4416126E+01
 1.5956251E+01  2.4477364E+01
 1.5967751E+01  2.4484030E+01
 1.5979251E+01  2.4531351E+01
 1.5990750E+01  2.4580791E+01
 1.6002251E+01  2.4616138E+01
 1.6013750E+01  2.4642830E+01
 1.6025251E+01  2.4656244E+01
 1.6036751E+01  2.4680647E+01
 1.6048250E+01  2.4708841E+01
 1.6059752E+01  2.4781076E+01
 1.6071251E+01  2.4766014E+01
 1.6082750E+01  2.4787254E+01
 1.6094252E+01  2.4650932E+01
 1.6105751E+01  2.4730915E+01
 1.6117250E+01  2.4664547E+01
 1.6128750E+01  2.4750740E+01
 1.6140251E+01  2.4764841E+01
 1.6151751E+01  2.4813309E+01
 1.6163250E+01  2.4964193E+01
 1.6174751E+01  2.4906212E+01
 1.6186251E+01  2.5423588E+01
 1.6197750E+01  2.5367693E+01
 1.6209251E+01  2.6842749E+01
 1.6220751E+01  2.7190010E+01
 1.6232250E+01  2.9228617E+01
 1.6243752E+01  2.9815895E+01
 1.6255251E+01  3.0611414E+01
 1.6266750E+01  3.0388916E+01
 1.6278252E+01  2.8918028E+01
 1.6289751E+01  2.8234976E+01
 1.6301250E+01  2.6319651E+01
 1.6312750E+01  2.6146456E+01
 1.6324251E+01  2.5176819E+01
 1.6335751E+01  2.5213905E+01
 1.6347250E+01  2.4835855E+01
 1.6358751E+01  2.4744682E+01
 1.6370251E+01  2.4587931E+01
 1.6381750E+01  2.4564072E+01
 1.6393251E+01  2.4612120E+01
 1.6404751E+01  2.4616144E+01
 1.6416250E+01  2.4689856E+01
 1.6427752E+01  2.4617283E+01
 1.6439251E+01  2.4668652E+01
 1.6450750E+01  2.4609512E+01
 1.6462252E+01  2.4631847E+01
 1.6473751E+01  2.4582422E+01
 1.6485250E+01  2.4623272E+01
 1.6496750E+01  2.4657728E+01
 1.6508251E+01  2.4627722E+01
 1.6519751E+01  2.4606800E+01
 1.6531250E+01  2.4541010E+01
 1.6542751E+01  2.4579636E+01
 1.6554251E+01  2.4574572E+01
 1.6565750E+01  2.4582474E+01
 1.6577251E+01  2.4567455E+01
 1.6588751E+01  2.4561373E+01
 1.6600250E+01  2.4568262E+01
 1.6611752E+01  2.4517799E+01
 1.6623251E+01  2.4434095E+01
 1.6634750E+01  2.4392769E+01
 1.6646252E+01  2.4353439E+01
 1.6657751E+01  2.4388441E+01
 1.6669250E+01  2.4396967E+01
 1.6680750E+01  2.4379980E+01
 1.6692251E+01  2.4357088E+01
 1.6703751E+01  2.4346262E+01
 1.6715250E+01  2.4390772E+01
 1.6726751E+01  2.4410099E+01
 1.6738251E+01  2.4414454E+01
 1.6749750E+01  2.4383770E+01
 1.6761251E+01  2.4255894E+01
 1.6772751E+01  2.4225859E+01
 1.6784250E+01  2.4231670E+01
 1.6795752E+01  2.4319256E+01
 1.6807251E+01  2.4328787E+01
 1.6818750E+01  2.4344988E+01
 1.6830252E+01  2.4325712E+01
 1.6841751E+01  2.4273085E+01
 1.6853251E+01  2.4254721E+01
 1.6864750E+01  2.4304508E+01
 1.6876251E+01  2.4429880E+01
 1.6887751E+01  2.4439041E+01
 1.6899250E+01  2.4390713E+01
 1.6910751E+01  2.4346249E+01
 1.6922251E+01  2.4306128E+01
 1.6933750E+01  2.4282078E+01
 1.6945251E+01  2.4237228E+01
 1.6956751E+01  2.4242615E+01
 1.6968250E+01  2.4207949E+01
 1.6979752E+01  2.4232655E+01
 1.6991251E+01  2.4274750E+01
 1.7002750E+01  2.4311352E+01
 1.7014252E+01  2.4310059E+01
 1.7025751E+01  2.4330963E+01
 1.7037251E+01  2.4311808E+01
 1.7048750E+01  2.4289721E+01
 1.7060251E+01  2.4247080E+01
 1.7071751E+01  2.4289036E+01
 1.7083250E+01  2.4259409E+01
 1.7094751E+01  2.4268599E+01
 1.7106251E+01  2.4240843E+01
 1.7117750E+01  2.4221596E+01
 1.7129251E+01  2.4243176E+01
 1.7140751E+01  2.4249828E+01
 1.7152250E+01  2.4262625E+01
 1.7163752E+01  2.4266533E+01
 1.7175251E+01  2.4276846E+01
 1.7186750E+01  2.4278196E+01
 1.7198252E+01  2.4253483E+01
 1.7209751E+01  2.4255026E+01
 1.7221251E+01  2.4228115E+01
 1.7232750E+01  2.4177414E+01
 1.7244251E+01  2.4117109E+01
 1.7255751E+01  2.4050259E+01
 1.7267250E+01  2.4040201E+01
 1.7278751E+01  2.4042864E+01
 1.7290251E+01  2.4071629E+01
 1.7301750E+01  2.4135464E+01
 1.7313251E+01  2.4133099E+01
 1.7324751E+01  2.4141497E+01
 1.7336250E+01  2.4037525E+01
 1.7347752E+01  2.4006041E+01
 1.7359251E+01  2.3970654E+01
 1.7370750E+01  2.3957039E+01
 1.7382252E+01  2.3931309E+01
 1.7393751E+01  2.3915026E+01
 1.7405251E+01  2.3873650E+01
 1.7416750E+01  2.3863159E+01
 1.7428251E+01  2.3810200E+01
 1.7439751E+01  2.3823452E+01
 1.7451250E+01  2.3866535E+01
 1.7462751E+01  2.3927912E+01
 1.7474251E+01  2.3937517E+01
 1.7485750E+01  2.3882559E+01
 1.7497252E+01  2.3826092E+01
 1.7508751E+01  2.3738420E+01
 1.7520250E+01  2.3711645E+01
 1.7531752E+01  2.3663208E+01
 1.7543251E+01  2.3697784E+01
 1.7554750E+01  2.3657232E+01
 1.7566252E+01  2.3676050E+01
 1.7577751E+01  2.3627657E+01
 1.7589251E+01  2.3609562E+01
 1.7600750E+01  2.3626312E+01
 1.7612251E+01  2.3664230E+01
 1.7623751E+01  2.3715380E+01
 1.7635250E+01  2.3653635E+01
 1.7646751E+01  2.3614035E+01
 1.7658251E+01  2.3583364E+01
 1.7669750E+01  2.3635136E+01
 1.7681252E+01  2.3696840E+01
 1.7692751E+01  2.3719131E+01
 1.7704250E+01  2.3705692E+01
 1.7715752E+01  2.3637018E+01
 1.7727251E+01  2.3612234E+01
 1.7738750E+01  2.3568926E+01
 1.7750252E+01  2.3572090E+01
 1.7761751E+01  2.3566959E+01
 1.7773251E+01  2.3582071E+01
 1.7784750E+01  2.3611925E+01
 1.7796251E+01  2.3599228E+01
 1.7807751E+01  2.3598913E+01
 1.7819250E+01  2.3574854E+01
 1.7830751E+01  2.3573812E+01
 1.7842251E+01  2.3578434E+01
 1.7853750E+01  2.3584810E+01
 1.7865252E+01  2.3569889E+01
 1.7876751E+01  2.3559341E+01
 1.7888250E+01  2.3504959E+01
 1.7899752E+01  2.3521097E+01
 1.7911251E+01  2.3578001E+01
 1.7922750E+01  2.3647345E+01
 1.7934252E+01  2.3659075E+01
 1.7945751E+01  2.3648460E+01
 1.7957251E+01  2.3615437E+01
 1.7968750E+01  2.3562227E+01
 1.7980251E+01  2.3549896E+01
 1.7991751E+01  2.3562149E+01
 1.8003250E+01  2.3634424E+01
 1.8014751E+01  2.3612146E+01
 1.8026251E+01  2.3611609E+01
 1.8037750E+01  2.3588547E+01
 1.8049252E+01  2.3620848E+01
 1.8060751E+01  2.3673477E+01
 1.8072250E+01  2.3703903E+01
 1.8083752E+01  2.3783112E+01
 1.8095251E+01  2.3820669E+01
 1.8106750E+01  2.3847244E+01
 1.8118252E+01  2.3876692E+01
 1.8129751E+01  2.3873674E+01
 1.8141251E+01  2.3821291E+01
 1.8152750E+01  2.3696297E+01
 1.8164251E+01  2.3623384E+01
 1.8175751E+01  2.3535097E+01
 1.8187250E+01  2.3473927E+01
 1.8198751E+01  2.3443058E+01
 1.8210251E+01  2.3455036E+01
 1.8221750E+01  2.3433304E+01
 1.8233252E+01  2.3415113E+01
 1.8244751E+01  2.3410250E+01
 1.8256250E+01  2.3429762E+01
 1.8267752E+01  2.3471874E+01
 1.8279251E+01  2.3525532E+01
 1.8290751E+01  2.3570826E+01
 1.8302252E+01  2.3546844E+01
 1.8313751E+01  2.3517359E+01
 1.8325251E+01  2.3479918E+01
 1.8336750E+01  2.3500053E+01
 1.8348251E+01  2.3474899E+01
 1.8359751E+01  2.3501228E+01
 1.8371250E+01  2.3535086E+01
 1.8382751E+01  2.3572359E+01
 1.8394251E+01  2.3582083E+01
 1.8405750E+01  2.3569641E+01
 1.8417252E+01  2.3533764E+01
 1.8428751E+01  2.3470383E+01
 1.8440250E+01  2.3396132E+01
 1.8451752E+01  2.3344608E+01
 1.8463251E+01  2.3319859E+01
 1.8474751E+01  2.3325264E+01
 1.8486252E+01  2.3322475E+01
 1.8497751E+01  2.3356653E+01
 1.8509251E+01  2.3387579E+01
 1.8520750E+01  2.3412445E+01
 1.8532251E+01  2.3384911E+01
 1.8543751E+01  2.3337469E+01
 1.8555250E+01  2.3357201E+01
 1.8566751E+01  2.3397675E+01
 1.8578251E+01  2.3444225E+01
 1.8589750E+01  2.3442850E+01
 1.8601252E+01  2.3439163E+01
 1.8612751E+01  2.3420555E+01
 1.8624250E+01  2.3375940E+01
 1.8635752E+01  2.3385607E+01
 1.8647251E+01  2.3368874E+01
 1.8658751E+01  2.3359997E+01
 1.8670252E+01  2.3363127E+01
 1.8681751E+01  2.3374557E+01
 1.8693251E+01  2.3380159E+01
 1.8704750E+01  2.3359926E+01
 1.8716251E+01  2.3358521E+01
 1.8727751E+01  2.3330200E+01
 1.8739250E+01  2.3340042E+01
 1.8750751E+01  2.3343815E+01
 1.8762251E+01  2.3351219E+01
 1.8773750E+01  2.3349798E+01
 1.8785252E+01  2.3333790E+01
 1.8796751E+01  2.3356005E+01
 1.8808250E+01  2.3306677E+01
 1.8819752E+01  2.3323221E+01
 1.8831251E+01  2.3273321E+01
 1.8842751E+01  2.3258383E+01
 1.8854252E+01  2.3191738E+01
 1.8865751E+01  2.3172604E+01
 1.8877251E+01  2.3214413E+01
 1.8888750E+01  2.3225559E+01
 1.8900251E+01  2.3274363E+01
 1.8911751E+01  2.3325928E+01
 1.8923250E+01  2.3438896E+01
 1.8934752E+01  2.3484810E+01
 1.8946251E+01  2.3483591E+01
 1.8957750E+01  2.3457478E+01
 1.8969252E+01  2.3424370E+01
 1.8980751E+01  2.3392122E+01
 1.8992250E+01  2.3382370E+01
 1.9003752E+01  2.3388508E+01
 1.9015251E+01  2.3399418E+01
 1.9026751E+01  2.3407005E+01
 1.9038252E+01  2.3433605E+01
 1.9049751E+01  2.3434929E+01
 1.9061251E+01  2.3461926E+01
 1.9072750E+01  2.3463701E+01
 1.9084251E+01  2.3444424E+01
 1.9095751E+01  2.3367514E+01
 1.9107250E+01  2.3333811E+01
 1.9118752E+01  2.3313406E+01
 1.9130251E+01  2.3344501E+01
 1.9141750E+01  2.3354395E+01
 1.9153252E+01  2.3403591E+01
 1.9164751E+01  2.3433401E+01
 1.9176250E+01  2.3460611E+01
 1.9187752E+01  2.3507458E+01
 1.9199251E+01  2.3575827E+01
 1.9210751E+01  2.3662167E+01
 1.9222252E+01  2.3572714E+01
 1.9233751E+01  2.3478880E+01
 1.9245251E+01  2.3352633E+01
 1.9256750E+01  2.3335108E+01
 1.9268251E+01  2.3298098E+01
 1.9279751E+01  2.3281284E+01
 1.9291250E+01  2.3256641E+01
 1.9302752E+01  2.3306349E+01
 1.9314251E+01  2.3349722E+01
 1.9325750E+01  2.3385977E+01
 1.9337252E+01  2.3431063E+01
 1.9348751E+01  2.3423241E+01
 1.9360250E+01  2.3370775E+01
 1.9371752E+01  2.3368225E+01
 1.9383251E+01  2.3418322E+01
 1.9394751E+01  2.3512835E+01
 1.9406250E+01  2.3680630E+01
 1.9417751E+01  2.3700722E+01
 1.9429251E+01  2.3653147E+01
 1.9440750E+01  2.3489977E+01
 1.9452251E+01  2.3458242E+01
 1.9463751E+01  2.3404509E+01
 1.9475250E+01  2.3464674E+01
 1.9486752E+01  2.3484404E+01
 1.9498251E+01  2.3513668E+01
 1.9509750E+01  2.3519344E+01
 1.9521252E+01  2.3504694E+01
 1.9532751E+01  2.3517502E+01
 1.9544250E+01  2.3524937E+01
 1.9555752E+01  2.3554777E+01
 1.9567251E+01  2.3503780E+01
 1.9578751E+01  2.3505306E+01
 1.9590250E+01  2.3492577E+01
 1.9601751E+01  2.3516716E+01
 1.9613251E+01  2.3518497E+01
 1.9624750E+01  2.3533365E+01
 1.9636251E+01  2.3580242E+01
 1.9647751E+01  2.3621849E+01
 1.9659250E+01  2.3680672E+01
 1.9670752E+01  2.3729702E+01
 1.9682251E+01  2.3793982E+01
 1.9693750E+01  2.3872133E+01
 1.9705252E+01  2.3927343E+01
 1.9716751E+01  2.3972475E+01
 1.9728251E+01  2.3948830E+01
 1.9739752E+01  2.3908710E+01
 1.9751251E+01  2.3869982E+01
 1.9762751E+01  2.3791813E+01
 1.9774250E+01  2.3790709E+01
 1.9785751E+01  2.3750343E+01
 1.9797251E+01  2.3800945E+01
 1.9808750E+01  2.3801170E+01
 1.9820251E+01  2.3864857E+01
 1.9831751E+01  2.3947853E+01
 1.9843250E+01  2.3995113E+01
 1.9854752E+01  2.4032425E+01
 1.9866251E+01  2.4029287E+01
 1.9877750E+01  2.4030075E+01
 1.9889252E+01  2.3933023E+01
 1.9900751E+01  2.3852125E+01
 1.9912251E+01  2.3779810E+01
 1.9923752E+01  2.3698277E+01
 1.9935251E+01  2.3581188E+01
 1.9946751E+01  2.3529621E+01
 1.9958250E+01  2.3564852E+01
 1.9969751E+01  2.3590385E+01
 1.9981251E+01  2.3589701E+01
 1.9992750E+01  2.3590918E+01
 2.0004251E+01  2.3586189E+01
 2.0015751E+01  2.3602800E+01
 2.0027250E+01  2.3574097E+01
 2.0038752E+01  2.3579811E+01
 2.0050251E+01  2.3546072E+01
 2.0061750E+01  2.3522833E+01
 2.0073252E+01  2.3500658E+01
 2.0084751E+01  2.3512043E+01
 2.0096251E+01  2.3525822E+01
 2.0107752E+01  2.3553064E+01
 2.0119251E+01  2.3555305E+01
 2.0130751E+01  2.3536625E+01
 2.0142250E+01  2.3511591E+01
 2.0153751E+01  2.3502325E+01
 2.0165251E+01  2.3523916E+01
 2.0176750E+01  2.3528883E+01
 2.0188251E+01  2.3507584E+01
 2.0199751E+01  2.3508198E+01
 2.0211250E+01  2.3490913E+01
 2.0222752E+01  2.3533264E+01
 2.0234251E+01  2.3564569E+01
 2.0245750E+01  2.3628864E+01
 2.0257252E+01  2.3585039E+01
 2.0268751E+01  2.3549553E+01
 2.0280251E+01  2.3487747E+01
 2.0291752E+01  2.3520880E+01
 2.0303251E+01  2.3514275E+01
 2.0314751E+01  2.3512947E+01
 2.0326250E+01  2.3506121E+01
 2.0337751E+01  2.3517679E+01
 2.0349251E+01  2.3539524E+01
 2.0360750E+01  2.3540497E+01
 2.0372252E+01  2.3520294E+01
 2.0383751E+01  2.3433949E+01
 2.0395250E+01  2.3426250E+01
 2.0406752E+01  2.3476444E+01
 2.0418251E+01  2.3542124E+01
 2.0429750E+01  2.3578802E+01
 2.0441252E+01  2.3564980E+01
 2.0452751E+01  2.3604231E+01
 2.0464251E+01  2.3616064E+01
 2.0475752E+01  2.3635141E+01
 2.0487251E+01  2.3606853E+01
 2.0498751E+01  2.3609245E+01
 2.0510250E+01  2.3554251E+01
 2.0521751E+01  2.3581947E+01
 2.0533251E+01  2.3577688E+01
 2.0544750E+01  2.3590326E+01
 2.0556252E+01  2.3627470E+01
 2.0567751E+01  2.3654417E+01
 2.0579250E+01  2.3659817E+01
 2.0590752E+01  2.3645033E+01
 2.0602251E+01  2.3693087E+01
 2.0613750E+01  2.3704416E+01
 2.0625252E+01  2.3762325E+01
 2.0636751E+01  2.3777828E+01
 2.0648251E+01  2.3756136E+01
 2.0659752E+01  2.3720493E+01
 2.0671251E+01  2.3736099E+01
 2.0682751E+01  2.3748127E+01
 2.0694250E+01  2.3756186E+01
 2.0705751E+01  2.3826790E+01
 2.0717251E+01  2.3886217E+01
 2.0728750E+01  2.3945456E+01
 2.0740252E+01  2.4008039E+01
 2.0751751E+01  2.4117552E+01
 2.0763250E+01  2.4173977E+01
 2.0774752E+01  2.4148600E+01
 2.0786251E+01  2.4084263E+01
 2.0797750E+01  2.4011452E+01
 2.0809252E+01  2.3924654E+01
 2.0820751E+01  2.3839428E+01
 2.0832251E+01  2.3810507E+01
 2.0843752E+01  2.3755705E+01
 2.0855251E+01  2.3768553E+01
 2.0866751E+01  2.3790417E+01
 2.0878250E+01  2.3786194E+01
 2.0889751E+01  2.3748926E+01
 2.0901251E+01  2.3715727E+01
 2.0912750E+01  2.3725531E+01
 2.0924252E+01  2.3733013E+01
 2.0935751E+01  2.3769753E+01
 2.0947250E+01  2.3832966E+01
 2.0958752E+01  2.3822645E+01
 2.0970251E+01  2.3814642E+01
 2.0981750E+01  2.3767570E+01
 2.0993252E+01  2.3742273E+01
 2.1004751E+01  2.3713228E+01
 2.1016251E+01  2.3670206E+01
 2.1027752E+01  2.3675060E+01
 2.1039251E+01  2.3662983E+01
 2.1050751E+01  2.3715887E+01
 2.1062250E+01  2.3752113E+01
 2.1073751E+01  2.3832077E+01
 2.1085251E+01  2.3790651E+01
 2.1096750E+01  2.3711016E+01
 2.1108252E+01  2.3690737E+01
 2.1119751E+01  2.3739557E+01
 2.1131250E+01  2.3779968E+01
 2.1142752E+01  2.3788937E+01
 2.1154251E+01  2.3754148E+01
 2.1165751E+01  2.3751991E+01
 2.1177252E+01  2.3711815E+01
 2.1188751E+01  2.3678200E+01
 2.1200251E+01  2.3648643E+01
 2.1211752E+01  2.3661858E+01
 2.1223251E+01  2.3674988E+01
 2.1234751E+01  2.3660324E+01
 2.1246250E+01  2.3720303E+01
 2.1257751E+01  2.3783484E+01
 2.1269251E+01  2.3845335E+01
 2.1280750E+01  2.3859713E+01
 2.1292252E+01  2.3830719E+01
 2.1303751E+01  2.3776052E+01
 2.1315250E+01  2.3708967E+01
 2.1326752E+01  2.3731709E+01
 2.1338251E+01  2.3759657E+01
 2.1349751E+01  2.3807922E+01
 2.1361252E+01  2.3842083E+01
 2.1372751E+01  2.3885674E+01
 2.1384251E+01  2.3845850E+01
 2.1395752E+01  2.3875114E+01
 2.1407251E+01  2.3831308E+01
 2.1418751E+01  2.3899364E+01
 2.1430250E+01  2.3867350E+01
 2.1441751E+01  2.3840689E+01
 2.1453251E+01  2.3805822E+01
 2.1464750E+01  2.3868416E+01
 2.1476252E+01  2.3918516E+01
 2.1487751E+01  2.3926704E+01
 2.1499250E+01  2.3954481E+01
 2.1510752E+01  2.3886829E+01
 2.1522251E+01  2.3890121E+01
 2.1533751E+01  2.3915434E+01
 2.1545252E+01  2.3957445E+01
 2.1556751E+01  2.3970980E+01
 2.1568251E+01  2.4022263E+01
 2.1579752E+01  2.4018320E+01
 2.1591251E+01  2.3959297E+01
 2.1602751E+01  2.3945829E+01
 2.1614250E+01  2.3907755E+01
 2.1625751E+01  2.3916563E+01
 2.1637251E+01  2.3888767E+01
 2.1648750E+01  2.3970139E+01
 2.1660252E+01  2.4018452E+01
 2.1671751E+01  2.4056574E+01
 2.1683250E+01  2.4057138E+01
 2.1694752E+01  2.4016842E+01
 2.1706251E+01  2.3988567E+01
 2.1717751E+01  2.3962572E+01
 2.1729252E+01  2.3987411E+01
 2.1740751E+01  2.3967072E+01
 2.1752251E+01  2.3950464E+01
 2.1763752E+01  2.3910799E+01
 2.1775251E+01  2.3910599E+01
 2.1786751E+01  2.3932268E+01
 2.1798250E+01  2.3988443E+01
 2.1809752E+01  2.4067596E+01
 2.1821251E+01  2.4102119E+01
 2.1832750E+01  2.4074987E+01
 2.1844252E+01  2.4038700E+01
 2.1855751E+01  2.4059473E+01
 2.1867250E+01  2.4088205E+01
 2.1878752E+01  2.4100992E+01
 2.1890251E+01  2.4063978E+01
 2.1901751E+01  2.4028698E+01
 2.1913252E+01  2.3996246E+01
 2.1924751E+01  2.3972548E+01
 2.1936251E+01  2.3997351E+01
 2.1947752E+01  2.4030685E+01
 2.1959251E+01  2.4050772E+01
 2.1970751E+01  2.4078465E+01
 2.1982250E+01  2.4088024E+01
 2.1993752E+01  2.4083918E+01
 2.2005251E+01  2.4068274E+01
 2.2016750E+01  2.4065691E+01
 2.2028252E+01  2.4092102E+01
 2.2039751E+01  2.4123562E+01
 2.2051250E+01  2.4136929E+01
 2.2062752E+01  2.4141870E+01
 2.2074251E+01  2.4156328E+01
 2.2085751E+01  2.4148664E+01
 2.2097252E+01  2.4152061E+01
 2.2108751E+01  2.4134853E+01
 2.2120251E+01  2.4195293E+01
 2.2131752E+01  2.4219444E+01
 2.2143251E+01  2.4222857E+01
 2.2154751E+01  2.4201859E+01
 2.2166250E+01  2.4164742E+01
 2.2177752E+01  2.4145889E+01
 2.2189251E+01  2.4161316E+01
 2.2200750E+01  2.4232609E+01
 2.2212252E+01  2.4365688E+01
 2.2223751E+01  2.4563625E+01
 2.2235250E+01  2.4668882E+01
 2.2246752E+01  2.4652573E+01
 2.2258251E+01  2.4357260E+01
 2.2269751E+01  2.4273653E+01
 2.2281252E+01  2.4195438E+01
 2.2292751E+01  2.4238489E+01
 2.2304251E+01  2.4305706E+01
 2.2315752E+01  2.4391621E+01
 2.2327251E+01  2.4413910E+01
 2.2338751E+01  2.4396458E+01
 2.2350250E+01  2.4405769E+01
 2.2361752E+01  2.4404287E+01
 2.2373251E+01  2.4395782E+01
 2.2384750E+01  2.4373747E+01
 2.2396252E+01  2.4371849E+01
 2.2407751E+01  2.4415722E+01
 2.2419250E+01  2.4444296E+01
 2.2430752E+01  2.4528528E+01
 2.2442251E+01  2.4538336E+01
 2.2453751E+01  2.4585718E+01
 2.2465252E+01  2.4591122E+01
 2.2476751E+01  2.4589922E+01
 2.2488251E+01  2.4562468E+01
 2.2499752E+01  2.4589178E+01
 2.2511251E+01  2.4666241E+01
 2.2522751E+01  2.4771835E+01
 2.2534250E+01  2.4800529E+01
 2.2545752E+01  2.4836937E+01
 2.2557251E+01  2.4851603E+01
 2.2568750E+01  2.4800943E+01
 2.2580252E+01  2.4778133E+01
 2.2591751E+01  2.4764950E+01
 2.2603251E+01  2.4769850E+01
 2.2614752E+01  2.4815475E+01
 2.2626251E+01  2.4848322E+01
 2.2637751E+01  2.4825541E+01
 2.2649252E+01  2.4808792E+01
 2.2660751E+01  2.4784616E+01
 2.2672251E+01  2.4820818E+01
 2.2683752E+01  2.4847448E+01
 2.2695251E+01  2.4935591E+01
 2.2706751E+01  2.4950336E+01
 2.2718250E+01  2.4973400E+01
 2.2729752E+01  2.5021481E+01
 2.2741251E+01  2.5099712E+01
 2.2752750E+01  2.5155743E+01
 2.2764252E+01  2.5154116E+01
 2.2775751E+01  2.5140074E+01
 2.2787251E+01  2.5106522E+01
 2.2798752E+01  2.5102163E+01
 2.2810251E+01  2.5155306E+01
 2.2821751E+01  2.5236387E+01
 2.2833252E+01  2.5338312E+01
 2.2844751E+01  2.5382711E+01
 2.2856251E+01  2.5385517E+01
 2.2867750E+01  2.5419552E+01
 2.2879251E+01  2.5428310E+01
 2.2890751E+01  2.5471268E+01
 2.2902250E+01  2.5481287E+01
 2.2913752E+01  2.5586521E+01
 2.2925251E+01  2.5624985E+01
 2.2936750E+01  2.5673353E+01
 2.2948252E+01  2.5708401E+01
 2.2959751E+01  2.5738106E+01
 2.2971251E+01  2.5775778E+01
 2.2982752E+01  2.5852142E+01
 2.2994251E+01  2.5939209E+01
