F:\20151113_APS_34IDE\\Brian\Particle1\OCV\Data_0127.tif
2-Theta Angle (Degrees)
Intensity
       2000
 5.7500005E-03  0.0000000E+00
 1.7250001E-02  0.0000000E+00
 2.8750001E-02  0.0000000E+00
 4.0250003E-02  0.0000000E+00
 5.1750004E-02  0.0000000E+00
 6.3250005E-02  0.0000000E+00
 7.4750006E-02  0.0000000E+00
 8.6250007E-02  0.0000000E+00
 9.7750008E-02  0.0000000E+00
 1.0925001E-01  0.0000000E+00
 1.2075000E-01  0.0000000E+00
 1.3225001E-01  0.0000000E+00
 1.4375001E-01  0.0000000E+00
 1.5525001E-01  0.0000000E+00
 1.6675001E-01  0.0000000E+00
 1.7825001E-01  0.0000000E+00
 1.8975002E-01  0.0000000E+00
 2.0125002E-01  0.0000000E+00
 2.1275002E-01  0.0000000E+00
 2.2425000E-01  0.0000000E+00
 2.3575000E-01  0.0000000E+00
 2.4725001E-01  0.0000000E+00
 2.5875002E-01  0.0000000E+00
 2.7025002E-01  0.0000000E+00
 2.8175002E-01  0.0000000E+00
 2.9325002E-01  0.0000000E+00
 3.0475003E-01  0.0000000E+00
 3.1625003E-01  0.0000000E+00
 3.2775003E-01  0.0000000E+00
 3.3925003E-01  0.0000000E+00
 3.5075003E-01  0.0000000E+00
 3.6225003E-01  0.0000000E+00
 3.7375003E-01  0.0000000E+00
 3.8525003E-01  0.0000000E+00
 3.9675003E-01  0.0000000E+00
 4.0825003E-01  0.0000000E+00
 4.1975003E-01  0.0000000E+00
 4.3125004E-01  0.0000000E+00
 4.4275001E-01  0.0000000E+00
 4.5425001E-01  0.0000000E+00
 4.6575001E-01  0.0000000E+00
 4.7725001E-01  0.0000000E+00
 4.8875001E-01  0.0000000E+00
 5.0025004E-01  0.0000000E+00
 5.1175004E-01  0.0000000E+00
 5.2325004E-01  0.0000000E+00
 5.3475004E-01  0.0000000E+00
 5.4625005E-01  0.0000000E+00
 5.5775005E-01  0.0000000E+00
 5.6925005E-01  0.0000000E+00
 5.8075005E-01  0.0000000E+00
 5.9225005E-01  0.0000000E+00
 6.0375005E-01  0.0000000E+00
 6.1525005E-01  0.0000000E+00
 6.2675005E-01  0.0000000E+00
 6.3825005E-01  0.0000000E+00
 6.4975005E-01  0.0000000E+00
 6.6125005E-01  0.0000000E+00
 6.7275006E-01  0.0000000E+00
 6.8425006E-01  0.0000000E+00
 6.9575006E-01  0.0000000E+00
 7.0725006E-01  0.0000000E+00
 7.1875006E-01  0.0000000E+00
 7.3025006E-01  0.0000000E+00
 7.4175006E-01  0.0000000E+00
 7.5325006E-01  0.0000000E+00
 7.6475006E-01  0.0000000E+00
 7.7625006E-01  0.0000000E+00
 7.8775007E-01  0.0000000E+00
 7.9925007E-01  0.0000000E+00
 8.1075007E-01  0.0000000E+00
 8.2225007E-01  0.0000000E+00
 8.3375007E-01  0.0000000E+00
 8.4525007E-01  0.0000000E+00
 8.5675007E-01  0.0000000E+00
 8.6825007E-01  0.0000000E+00
 8.7975001E-01  0.0000000E+00
 8.9125001E-01  0.0000000E+00
 9.0275002E-01  0.0000000E+00
 9.1425002E-01  0.0000000E+00
 9.2575002E-01  0.0000000E+00
 9.3725002E-01  0.0000000E+00
 9.4875002E-01  0.0000000E+00
 9.6025002E-01  0.0000000E+00
 9.7175002E-01  0.0000000E+00
 9.8325002E-01  0.0000000E+00
 9.9475002E-01  0.0000000E+00
 1.0062500E+00  0.0000000E+00
 1.0177500E+00  0.0000000E+00
 1.0292500E+00  0.0000000E+00
 1.0407500E+00  0.0000000E+00
 1.0522500E+00  0.0000000E+00
 1.0637500E+00  0.0000000E+00
 1.0752500E+00  0.0000000E+00
 1.0867500E+00  0.0000000E+00
 1.0982500E+00  0.0000000E+00
 1.1097500E+00  0.0000000E+00
 1.1212500E+00  0.0000000E+00
 1.1327500E+00  0.0000000E+00
 1.1442500E+00  0.0000000E+00
 1.1557500E+00  0.0000000E+00
 1.1672500E+00  0.0000000E+00
 1.1787500E+00  0.0000000E+00
 1.1902500E+00  0.0000000E+00
 1.2017500E+00  0.0000000E+00
 1.2132500E+00  0.0000000E+00
 1.2247500E+00  0.0000000E+00
 1.2362500E+00  0.0000000E+00
 1.2477500E+00  0.0000000E+00
 1.2592500E+00  0.0000000E+00
 1.2707500E+00  0.0000000E+00
 1.2822500E+00  0.0000000E+00
 1.2937500E+00  0.0000000E+00
 1.3052500E+00  0.0000000E+00
 1.3167500E+00  0.0000000E+00
 1.3282501E+00  0.0000000E+00
 1.3397501E+00  0.0000000E+00
 1.3512501E+00  0.0000000E+00
 1.3627501E+00  0.0000000E+00
 1.3742501E+00  0.0000000E+00
 1.3857501E+00  0.0000000E+00
 1.3972501E+00  0.0000000E+00
 1.4087501E+00  0.0000000E+00
 1.4202501E+00  0.0000000E+00
 1.4317501E+00  0.0000000E+00
 1.4432501E+00  0.0000000E+00
 1.4547501E+00  0.0000000E+00
 1.4662501E+00  0.0000000E+00
 1.4777501E+00  0.0000000E+00
 1.4892501E+00  0.0000000E+00
 1.5007501E+00  0.0000000E+00
 1.5122501E+00  0.0000000E+00
 1.5237501E+00  0.0000000E+00
 1.5352501E+00  0.0000000E+00
 1.5467501E+00  0.0000000E+00
 1.5582501E+00  0.0000000E+00
 1.5697501E+00  0.0000000E+00
 1.5812501E+00  0.0000000E+00
 1.5927501E+00  0.0000000E+00
 1.6042501E+00  0.0000000E+00
 1.6157501E+00  0.0000000E+00
 1.6272501E+00  0.0000000E+00
 1.6387501E+00  0.0000000E+00
 1.6502501E+00  0.0000000E+00
 1.6617501E+00  0.0000000E+00
 1.6732501E+00  0.0000000E+00
 1.6847501E+00  0.0000000E+00
 1.6962501E+00  0.0000000E+00
 1.7077501E+00  0.0000000E+00
 1.7192501E+00  0.0000000E+00
 1.7307501E+00  0.0000000E+00
 1.7422501E+00  0.0000000E+00
 1.7537501E+00  0.0000000E+00
 1.7652501E+00  0.0000000E+00
 1.7767501E+00  0.0000000E+00
 1.7882501E+00  0.0000000E+00
 1.7997501E+00  0.0000000E+00
 1.8112501E+00  0.0000000E+00
 1.8227501E+00  0.0000000E+00
 1.8342501E+00  0.0000000E+00
 1.8457501E+00  0.0000000E+00
 1.8572501E+00  0.0000000E+00
 1.8687501E+00  0.0000000E+00
 1.8802501E+00  0.0000000E+00
 1.8917501E+00  0.0000000E+00
 1.9032501E+00  0.0000000E+00
 1.9147501E+00  0.0000000E+00
 1.9262501E+00  0.0000000E+00
 1.9377501E+00  0.0000000E+00
 1.9492501E+00  0.0000000E+00
 1.9607501E+00  0.0000000E+00
 1.9722501E+00  0.0000000E+00
 1.9837501E+00  0.0000000E+00
 1.9952501E+00  0.0000000E+00
 2.0067501E+00  0.0000000E+00
 2.0182500E+00  0.0000000E+00
 2.0297501E+00  0.0000000E+00
 2.0412500E+00  0.0000000E+00
 2.0527501E+00  0.0000000E+00
 2.0642500E+00  0.0000000E+00
 2.0757501E+00  0.0000000E+00
 2.0872500E+00  0.0000000E+00
 2.0987501E+00  0.0000000E+00
 2.1102500E+00  0.0000000E+00
 2.1217501E+00  0.0000000E+00
 2.1332500E+00  0.0000000E+00
 2.1447501E+00  0.0000000E+00
 2.1562500E+00  0.0000000E+00
 2.1677501E+00  0.0000000E+00
 2.1792500E+00  0.0000000E+00
 2.1907501E+00  0.0000000E+00
 2.2022500E+00  0.0000000E+00
 2.2137501E+00  0.0000000E+00
 2.2252500E+00  0.0000000E+00
 2.2367501E+00  0.0000000E+00
 2.2482500E+00  0.0000000E+00
 2.2597501E+00  0.0000000E+00
 2.2712500E+00  0.0000000E+00
 2.2827501E+00  0.0000000E+00
 2.2942500E+00  0.0000000E+00
 2.3057501E+00  0.0000000E+00
 2.3172500E+00  0.0000000E+00
 2.3287501E+00  0.0000000E+00
 2.3402500E+00  0.0000000E+00
 2.3517501E+00  0.0000000E+00
 2.3632500E+00  0.0000000E+00
 2.3747501E+00  0.0000000E+00
 2.3862500E+00  0.0000000E+00
 2.3977501E+00  0.0000000E+00
 2.4092500E+00  0.0000000E+00
 2.4207501E+00  0.0000000E+00
 2.4322500E+00  0.0000000E+00
 2.4437501E+00  0.0000000E+00
 2.4552500E+00  0.0000000E+00
 2.4667501E+00  0.0000000E+00
 2.4782500E+00  0.0000000E+00
 2.4897501E+00  0.0000000E+00
 2.5012500E+00  0.0000000E+00
 2.5127501E+00  0.0000000E+00
 2.5242500E+00  0.0000000E+00
 2.5357502E+00  0.0000000E+00
 2.5472500E+00  0.0000000E+00
 2.5587502E+00  0.0000000E+00
 2.5702500E+00  0.0000000E+00
 2.5817502E+00  0.0000000E+00
 2.5932500E+00  0.0000000E+00
 2.6047502E+00  0.0000000E+00
 2.6162500E+00  0.0000000E+00
 2.6277502E+00  0.0000000E+00
 2.6392500E+00  0.0000000E+00
 2.6507502E+00  0.0000000E+00
 2.6622500E+00  0.0000000E+00
 2.6737502E+00  0.0000000E+00
 2.6852500E+00  0.0000000E+00
 2.6967502E+00  0.0000000E+00
 2.7082500E+00  0.0000000E+00
 2.7197502E+00  0.0000000E+00
 2.7312500E+00  0.0000000E+00
 2.7427502E+00  0.0000000E+00
 2.7542500E+00  0.0000000E+00
 2.7657502E+00  0.0000000E+00
 2.7772501E+00  0.0000000E+00
 2.7887502E+00  0.0000000E+00
 2.8002501E+00  0.0000000E+00
 2.8117502E+00  0.0000000E+00
 2.8232501E+00  3.6343903E+01
 2.8347502E+00  3.4207481E+01
 2.8462501E+00  3.4248020E+01
 2.8577502E+00  3.4107048E+01
 2.8692501E+00  3.4462494E+01
 2.8807502E+00  3.4506351E+01
 2.8922501E+00  3.4948742E+01
 2.9037502E+00  3.5223339E+01
 2.9152501E+00  3.5477203E+01
 2.9267502E+00  3.5350338E+01
 2.9382501E+00  3.5250095E+01
 2.9497502E+00  3.5045082E+01
 2.9612501E+00  3.4833176E+01
 2.9727502E+00  3.4712543E+01
 2.9842501E+00  3.4654221E+01
 2.9957502E+00  3.5258701E+01
 3.0072501E+00  3.5583439E+01
 3.0187502E+00  3.5735695E+01
 3.0302501E+00  3.5572014E+01
 3.0417502E+00  3.5319218E+01
 3.0532501E+00  3.5364006E+01
 3.0647502E+00  3.5166519E+01
 3.0762501E+00  3.5013649E+01
 3.0877502E+00  3.5168964E+01
 3.0992501E+00  3.5150448E+01
 3.1107502E+00  3.4997604E+01
 3.1222501E+00  3.4838627E+01
 3.1337502E+00  3.4904366E+01
 3.1452501E+00  3.5267845E+01
 3.1567502E+00  3.5419758E+01
 3.1682501E+00  3.5566914E+01
 3.1797502E+00  3.5704338E+01
 3.1912501E+00  3.5451561E+01
 3.2027502E+00  3.5624943E+01
 3.2142501E+00  3.5624905E+01
 3.2257502E+00  3.5790028E+01
 3.2372501E+00  3.5478565E+01
 3.2487502E+00  3.5393806E+01
 3.2602501E+00  3.5298042E+01
 3.2717502E+00  3.5259956E+01
 3.2832501E+00  3.5110149E+01
 3.2947502E+00  3.4988377E+01
 3.3062501E+00  3.5237164E+01
 3.3177502E+00  3.5181129E+01
 3.3292501E+00  3.5028919E+01
 3.3407502E+00  3.4726620E+01
 3.3522501E+00  3.4300465E+01
 3.3637502E+00  3.4352669E+01
 3.3752501E+00  3.4192204E+01
 3.3867502E+00  3.4061607E+01
 3.3982501E+00  3.4042507E+01
 3.4097502E+00  3.3767525E+01
 3.4212501E+00  3.4142197E+01
 3.4327502E+00  3.4022007E+01
 3.4442501E+00  3.4201241E+01
 3.4557502E+00  3.4246399E+01
 3.4672501E+00  3.4306820E+01
 3.4787502E+00  3.4272438E+01
 3.4902501E+00  3.4117027E+01
 3.5017502E+00  3.3918373E+01
 3.5132501E+00  3.3866817E+01
 3.5247502E+00  3.3622288E+01
 3.5362501E+00  3.3415092E+01
 3.5477502E+00  3.3388428E+01
 3.5592501E+00  3.3475967E+01
 3.5707502E+00  3.3278767E+01
 3.5822501E+00  3.3317032E+01
 3.5937502E+00  3.3151630E+01
 3.6052501E+00  3.3269432E+01
 3.6167502E+00  3.3282799E+01
 3.6282501E+00  3.3483101E+01
 3.6397502E+00  3.3622337E+01
 3.6512501E+00  3.3559547E+01
 3.6627502E+00  3.3378395E+01
 3.6742501E+00  3.3089508E+01
 3.6857502E+00  3.2946144E+01
 3.6972501E+00  3.2911831E+01
 3.7087502E+00  3.2899300E+01
 3.7202501E+00  3.2738644E+01
 3.7317502E+00  3.2708935E+01
 3.7432501E+00  3.2672432E+01
 3.7547503E+00  3.2753307E+01
 3.7662501E+00  3.2692261E+01
 3.7777503E+00  3.2750381E+01
 3.7892501E+00  3.2591892E+01
 3.8007503E+00  3.2573635E+01
 3.8122501E+00  3.2532417E+01
 3.8237503E+00  3.2780983E+01
 3.8352501E+00  3.2779434E+01
 3.8467503E+00  3.2597878E+01
 3.8582501E+00  3.2595264E+01
 3.8697503E+00  3.2459915E+01
 3.8812501E+00  3.2514763E+01
 3.8927503E+00  3.2204098E+01
 3.9042501E+00  3.2101475E+01
 3.9157503E+00  3.1964712E+01
 3.9272501E+00  3.1990524E+01
 3.9387503E+00  3.2031868E+01
 3.9502501E+00  3.2231647E+01
 3.9617503E+00  3.2417530E+01
 3.9732502E+00  3.2422474E+01
 3.9847503E+00  3.2436771E+01
 3.9962502E+00  3.2309738E+01
 4.0077500E+00  3.2262451E+01
 4.0192504E+00  3.2075874E+01
 4.0307503E+00  3.2018742E+01
 4.0422502E+00  3.2064911E+01
 4.0537500E+00  3.2027035E+01
 4.0652504E+00  3.2141998E+01
 4.0767503E+00  3.2044861E+01
 4.0882502E+00  3.2174580E+01
 4.0997500E+00  3.2173695E+01
 4.1112504E+00  3.2175331E+01
 4.1227503E+00  3.2149010E+01
 4.1342502E+00  3.2040573E+01
 4.1457500E+00  3.2023914E+01
 4.1572504E+00  3.1848806E+01
 4.1687503E+00  3.1625141E+01
 4.1802502E+00  3.1585251E+01
 4.1917500E+00  3.1751928E+01
 4.2032504E+00  3.1957998E+01
 4.2147503E+00  3.2082611E+01
 4.2262502E+00  3.2041733E+01
 4.2377501E+00  3.2037090E+01
 4.2492504E+00  3.1961374E+01
 4.2607503E+00  3.2030560E+01
 4.2722502E+00  3.1990381E+01
 4.2837501E+00  3.2041454E+01
 4.2952504E+00  3.1947063E+01
 4.3067503E+00  3.1949697E+01
 4.3182502E+00  3.1853703E+01
 4.3297501E+00  3.1810495E+01
 4.3412504E+00  3.1670946E+01
 4.3527503E+00  3.1636669E+01
 4.3642502E+00  3.1573313E+01
 4.3757501E+00  3.1619522E+01
 4.3872504E+00  3.1824821E+01
 4.3987503E+00  3.2026409E+01
 4.4102502E+00  3.2210796E+01
 4.4217501E+00  3.2309292E+01
 4.4332504E+00  3.2386162E+01
 4.4447503E+00  3.2446434E+01
 4.4562502E+00  3.2380363E+01
 4.4677501E+00  3.2428139E+01
 4.4792504E+00  3.2459122E+01
 4.4907503E+00  3.2461987E+01
 4.5022502E+00  3.2452080E+01
 4.5137501E+00  3.2455021E+01
 4.5252504E+00  3.2541252E+01
 4.5367503E+00  3.2577808E+01
 4.5482502E+00  3.2546349E+01
 4.5597501E+00  3.2514912E+01
 4.5712504E+00  3.2456253E+01
 4.5827503E+00  3.2395584E+01
 4.5942502E+00  3.2473392E+01
 4.6057501E+00  3.2513889E+01
 4.6172504E+00  3.2598076E+01
 4.6287503E+00  3.2640945E+01
 4.6402502E+00  3.2746777E+01
 4.6517501E+00  3.2970299E+01
 4.6632504E+00  3.3110794E+01
 4.6747503E+00  3.3164696E+01
 4.6862502E+00  3.3181366E+01
 4.6977501E+00  3.3067467E+01
 4.7092505E+00  3.2898205E+01
 4.7207503E+00  3.2734177E+01
 4.7322502E+00  3.2571815E+01
 4.7437501E+00  3.2656300E+01
 4.7552505E+00  3.2597816E+01
 4.7667503E+00  3.2623711E+01
 4.7782502E+00  3.2469975E+01
 4.7897501E+00  3.2403343E+01
 4.8012505E+00  3.2430099E+01
 4.8127503E+00  3.2441280E+01
 4.8242502E+00  3.2486324E+01
 4.8357501E+00  3.2405720E+01
 4.8472505E+00  3.2336346E+01
 4.8587503E+00  3.2488014E+01
 4.8702502E+00  3.2492420E+01
 4.8817501E+00  3.2643677E+01
 4.8932505E+00  3.2621052E+01
 4.9047503E+00  3.2700840E+01
 4.9162502E+00  3.2802635E+01
 4.9277501E+00  3.2721527E+01
 4.9392505E+00  3.2720352E+01
 4.9507504E+00  3.2708466E+01
 4.9622502E+00  3.2677673E+01
 4.9737501E+00  3.2816151E+01
 4.9852505E+00  3.2807945E+01
 4.9967504E+00  3.2910332E+01
 5.0082502E+00  3.3055275E+01
 5.0197501E+00  3.3172161E+01
 5.0312505E+00  3.3357487E+01
 5.0427504E+00  3.3431839E+01
 5.0542502E+00  3.3445889E+01
 5.0657501E+00  3.3439159E+01
 5.0772505E+00  3.3449242E+01
 5.0887504E+00  3.3486050E+01
 5.1002502E+00  3.3646309E+01
 5.1117501E+00  3.3631248E+01
 5.1232505E+00  3.3607811E+01
 5.1347504E+00  3.3672810E+01
 5.1462502E+00  3.3714417E+01
 5.1577501E+00  3.3939175E+01
 5.1692505E+00  3.3978333E+01
 5.1807504E+00  3.4046234E+01
 5.1922503E+00  3.4062962E+01
 5.2037501E+00  3.3962959E+01
 5.2152505E+00  3.3725842E+01
 5.2267504E+00  3.3568069E+01
 5.2382503E+00  3.3491310E+01
 5.2497501E+00  3.3663853E+01
 5.2612505E+00  3.3801868E+01
 5.2727504E+00  3.3953312E+01
 5.2842503E+00  3.3957584E+01
 5.2957501E+00  3.4099586E+01
 5.3072500E+00  3.4099590E+01
 5.3187504E+00  3.4102562E+01
 5.3302503E+00  3.3986614E+01
 5.3417501E+00  3.3933552E+01
 5.3532500E+00  3.3949429E+01
 5.3647504E+00  3.3928833E+01
 5.3762503E+00  3.4067635E+01
 5.3877501E+00  3.4230465E+01
 5.3992500E+00  3.4475983E+01
 5.4107504E+00  3.4616711E+01
 5.4222503E+00  3.4599548E+01
 5.4337502E+00  3.4562984E+01
 5.4452500E+00  3.4515987E+01
 5.4567504E+00  3.4455475E+01
 5.4682503E+00  3.4493927E+01
 5.4797502E+00  3.4408787E+01
 5.4912500E+00  3.4351917E+01
 5.5027504E+00  3.4452999E+01
 5.5142503E+00  3.4575459E+01
 5.5257502E+00  3.4821632E+01
 5.5372500E+00  3.4848087E+01
 5.5487504E+00  3.4885010E+01
 5.5602503E+00  3.4958572E+01
 5.5717502E+00  3.5037354E+01
 5.5832500E+00  3.5116531E+01
 5.5947504E+00  3.5152782E+01
 5.6062503E+00  3.5090450E+01
 5.6177502E+00  3.5062477E+01
 5.6292500E+00  3.4936718E+01
 5.6407504E+00  3.4970390E+01
 5.6522503E+00  3.4989861E+01
 5.6637502E+00  3.5125053E+01
 5.6752501E+00  3.5378372E+01
 5.6867504E+00  3.5383553E+01
 5.6982503E+00  3.5444530E+01
 5.7097502E+00  3.5274445E+01
 5.7212501E+00  3.5338303E+01
 5.7327504E+00  3.5313869E+01
 5.7442503E+00  3.5328396E+01
 5.7557502E+00  3.5299355E+01
 5.7672501E+00  3.5246796E+01
 5.7787504E+00  3.5295609E+01
 5.7902503E+00  3.5311642E+01
 5.8017502E+00  3.5398655E+01
 5.8132501E+00  3.5446953E+01
 5.8247504E+00  3.5482594E+01
 5.8362503E+00  3.5593872E+01
 5.8477502E+00  3.5717335E+01
 5.8592501E+00  3.5758911E+01
 5.8707504E+00  3.5897057E+01
 5.8822503E+00  3.5849937E+01
 5.8937502E+00  3.6048199E+01
 5.9052501E+00  3.6200283E+01
 5.9167504E+00  3.6502625E+01
 5.9282503E+00  3.6889713E+01
 5.9397502E+00  3.7535824E+01
 5.9512501E+00  3.8595501E+01
 5.9627504E+00  3.9304569E+01
 5.9742503E+00  3.9687061E+01
 5.9857502E+00  4.0242386E+01
 5.9972501E+00  4.0380486E+01
 6.0087504E+00  4.0120129E+01
 6.0202503E+00  3.9168915E+01
 6.0317502E+00  3.8166267E+01
 6.0432501E+00  3.7646084E+01
 6.0547504E+00  3.7039597E+01
 6.0662503E+00  3.6786770E+01
 6.0777502E+00  3.6671024E+01
 6.0892501E+00  3.6573418E+01
 6.1007504E+00  3.6640594E+01
 6.1122503E+00  3.6597450E+01
 6.1237502E+00  3.6579266E+01
 6.1352501E+00  3.6465954E+01
 6.1467505E+00  3.6343822E+01
 6.1582503E+00  3.6362133E+01
 6.1697502E+00  3.6377396E+01
 6.1812501E+00  3.6509068E+01
 6.1927505E+00  3.6598194E+01
 6.2042503E+00  3.6655479E+01
 6.2157502E+00  3.6890366E+01
 6.2272501E+00  3.6955856E+01
 6.2387505E+00  3.7123070E+01
 6.2502503E+00  3.7165180E+01
 6.2617502E+00  3.7221649E+01
 6.2732501E+00  3.7365894E+01
 6.2847505E+00  3.7501629E+01
 6.2962503E+00  3.7575817E+01
 6.3077502E+00  3.7625668E+01
 6.3192501E+00  3.7534897E+01
 6.3307505E+00  3.7656986E+01
 6.3422503E+00  3.7710476E+01
 6.3537502E+00  3.7777145E+01
 6.3652501E+00  3.7891235E+01
 6.3767505E+00  3.8012234E+01
 6.3882504E+00  3.8207436E+01
 6.3997502E+00  3.8446369E+01
 6.4112501E+00  3.8660660E+01
 6.4227505E+00  3.8976994E+01
 6.4342504E+00  3.9263920E+01
 6.4457502E+00  3.9851135E+01
 6.4572501E+00  4.0496658E+01
 6.4687505E+00  4.1140965E+01
 6.4802504E+00  4.1154953E+01
 6.4917502E+00  4.0854454E+01
 6.5032501E+00  4.0237999E+01
 6.5147505E+00  3.9742722E+01
 6.5262504E+00  3.9376785E+01
 6.5377502E+00  3.9235485E+01
 6.5492501E+00  3.9237251E+01
 6.5607505E+00  3.9328709E+01
 6.5722504E+00  3.9503876E+01
 6.5837502E+00  3.9673382E+01
 6.5952501E+00  3.9753826E+01
 6.6067505E+00  3.9779545E+01
 6.6182504E+00  3.9852310E+01
 6.6297503E+00  3.9835686E+01
 6.6412501E+00  3.9826073E+01
 6.6527505E+00  3.9785168E+01
 6.6642504E+00  3.9820576E+01
 6.6757503E+00  3.9916344E+01
 6.6872501E+00  3.9934574E+01
 6.6987505E+00  4.0019150E+01
 6.7102504E+00  4.0123318E+01
 6.7217503E+00  4.0207657E+01
 6.7332501E+00  4.0265072E+01
 6.7447505E+00  4.0278591E+01
 6.7562504E+00  4.0438419E+01
 6.7677503E+00  4.0614338E+01
 6.7792501E+00  4.0713554E+01
 6.7907505E+00  4.0823982E+01
 6.8022504E+00  4.0933563E+01
 6.8137503E+00  4.1091957E+01
 6.8252501E+00  4.1236778E+01
 6.8367505E+00  4.1238300E+01
 6.8482504E+00  4.1279003E+01
 6.8597503E+00  4.1213196E+01
 6.8712502E+00  4.1234093E+01
 6.8827505E+00  4.1388489E+01
 6.8942504E+00  4.1518753E+01
 6.9057503E+00  4.1645363E+01
 6.9172502E+00  4.1689911E+01
 6.9287505E+00  4.1815289E+01
 6.9402504E+00  4.1895969E+01
 6.9517503E+00  4.2008347E+01
 6.9632502E+00  4.2088871E+01
 6.9747505E+00  4.2303299E+01
 6.9862504E+00  4.2311203E+01
 6.9977503E+00  4.2290951E+01
 7.0092502E+00  4.2252850E+01
 7.0207505E+00  4.2345070E+01
 7.0322504E+00  4.2449978E+01
 7.0437503E+00  4.2552296E+01
 7.0552502E+00  4.2592468E+01
 7.0667505E+00  4.2715721E+01
 7.0782504E+00  4.2746841E+01
 7.0897503E+00  4.2766903E+01
 7.1012502E+00  4.2752132E+01
 7.1127505E+00  4.2877789E+01
 7.1242504E+00  4.2922134E+01
 7.1357503E+00  4.3010067E+01
 7.1472502E+00  4.2964970E+01
 7.1587505E+00  4.2919556E+01
 7.1702504E+00  4.2985401E+01
 7.1817503E+00  4.3022861E+01
 7.1932502E+00  4.3208572E+01
 7.2047505E+00  4.3257210E+01
 7.2162504E+00  4.3330410E+01
 7.2277503E+00  4.3371262E+01
 7.2392502E+00  4.3410069E+01
 7.2507505E+00  4.3434174E+01
 7.2622504E+00  4.3481823E+01
 7.2737503E+00  4.3420742E+01
 7.2852502E+00  4.3346230E+01
 7.2967505E+00  4.3316589E+01
 7.3082504E+00  4.3353386E+01
 7.3197503E+00  4.3462742E+01
 7.3312502E+00  4.3531086E+01
 7.3427505E+00  4.3645893E+01
 7.3542504E+00  4.3660786E+01
 7.3657503E+00  4.3728790E+01
 7.3772502E+00  4.3777660E+01
 7.3887506E+00  4.3851616E+01
 7.4002504E+00  4.3913616E+01
 7.4117503E+00  4.3951580E+01
 7.4232502E+00  4.3993053E+01
 7.4347506E+00  4.3990685E+01
 7.4462504E+00  4.3953133E+01
 7.4577503E+00  4.3951160E+01
 7.4692502E+00  4.3928310E+01
 7.4807506E+00  4.4010307E+01
 7.4922504E+00  4.3974743E+01
 7.5037503E+00  4.3958202E+01
 7.5152502E+00  4.3939213E+01
 7.5267506E+00  4.3881676E+01
 7.5382504E+00  4.3980431E+01
 7.5497503E+00  4.3927559E+01
 7.5612502E+00  4.4029415E+01
 7.5727506E+00  4.4050728E+01
 7.5842505E+00  4.4036880E+01
 7.5957503E+00  4.4066910E+01
 7.6072502E+00  4.4071896E+01
 7.6187506E+00  4.4118290E+01
 7.6302505E+00  4.4072346E+01
 7.6417503E+00  4.4028637E+01
 7.6532502E+00  4.3929325E+01
 7.6647506E+00  4.3993664E+01
 7.6762505E+00  4.3980202E+01
 7.6877503E+00  4.4044132E+01
 7.6992502E+00  4.4093632E+01
 7.7107506E+00  4.4065269E+01
 7.7222505E+00  4.4065620E+01
 7.7337503E+00  4.3970379E+01
 7.7452502E+00  4.3982021E+01
 7.7567506E+00  4.4016182E+01
 7.7682505E+00  4.4005844E+01
 7.7797503E+00  4.4025661E+01
 7.7912502E+00  4.4048386E+01
 7.8027506E+00  4.4065174E+01
 7.8142505E+00  4.4033627E+01
 7.8257504E+00  4.4005791E+01
 7.8372502E+00  4.4036015E+01
 7.8487506E+00  4.3938358E+01
 7.8602505E+00  4.3895775E+01
 7.8717504E+00  4.3771103E+01
 7.8832502E+00  4.3725235E+01
 7.8947506E+00  4.3630032E+01
 7.9062505E+00  4.3598434E+01
 7.9177504E+00  4.3614574E+01
 7.9292502E+00  4.3552879E+01
 7.9407506E+00  4.3477108E+01
 7.9522505E+00  4.3417713E+01
 7.9637504E+00  4.3336540E+01
 7.9752502E+00  4.3293819E+01
 7.9867506E+00  4.3227730E+01
 7.9982505E+00  4.3277493E+01
 8.0097504E+00  4.3180634E+01
 8.0212507E+00  4.3146534E+01
 8.0327501E+00  4.3030247E+01
 8.0442505E+00  4.3011780E+01
 8.0557508E+00  4.2938885E+01
 8.0672503E+00  4.2954182E+01
 8.0787506E+00  4.2896347E+01
 8.0902500E+00  4.2890972E+01
 8.1017504E+00  4.2779690E+01
 8.1132507E+00  4.2769615E+01
 8.1247501E+00  4.2648682E+01
 8.1362505E+00  4.2515228E+01
 8.1477509E+00  4.2354126E+01
 8.1592503E+00  4.2195847E+01
 8.1707506E+00  4.2107601E+01
 8.1822500E+00  4.1959282E+01
 8.1937504E+00  4.1960869E+01
 8.2052507E+00  4.1902344E+01
 8.2167501E+00  4.1823975E+01
 8.2282505E+00  4.1711601E+01
 8.2397509E+00  4.1613617E+01
 8.2512503E+00  4.1495422E+01
 8.2627506E+00  4.1256752E+01
 8.2742500E+00  4.1004196E+01
 8.2857504E+00  4.0786945E+01
 8.2972507E+00  4.0621330E+01
 8.3087502E+00  4.0498886E+01
 8.3202505E+00  4.0409966E+01
 8.3317509E+00  4.0312435E+01
 8.3432503E+00  4.0193172E+01
 8.3547506E+00  4.0131878E+01
 8.3662500E+00  4.0009941E+01
 8.3777504E+00  3.9780689E+01
 8.3892508E+00  3.9545189E+01
 8.4007502E+00  3.9341686E+01
 8.4122505E+00  3.9178169E+01
 8.4237509E+00  3.9029873E+01
 8.4352503E+00  3.8839508E+01
 8.4467506E+00  3.8763557E+01
 8.4582500E+00  3.8581219E+01
 8.4697504E+00  3.8413105E+01
 8.4812508E+00  3.8235645E+01
 8.4927502E+00  3.8065739E+01
 8.5042505E+00  3.7958206E+01
 8.5157509E+00  3.7858562E+01
 8.5272503E+00  3.7659306E+01
 8.5387506E+00  3.7505119E+01
 8.5502501E+00  3.7147724E+01
 8.5617504E+00  3.6972012E+01
 8.5732508E+00  3.6765881E+01
 8.5847502E+00  3.6659161E+01
 8.5962505E+00  3.6533272E+01
 8.6077509E+00  3.6430893E+01
 8.6192503E+00  3.6269821E+01
 8.6307507E+00  3.6073143E+01
 8.6422501E+00  3.5881207E+01
 8.6537504E+00  3.5704285E+01
 8.6652508E+00  3.5512005E+01
 8.6767502E+00  3.5217777E+01
 8.6882505E+00  3.5045757E+01
 8.6997509E+00  3.4871292E+01
 8.7112503E+00  3.4749573E+01
 8.7227507E+00  3.4595024E+01
 8.7342501E+00  3.4434315E+01
 8.7457504E+00  3.4275005E+01
 8.7572508E+00  3.4135990E+01
 8.7687502E+00  3.4021641E+01
 8.7802505E+00  3.3842220E+01
 8.7917500E+00  3.3621395E+01
 8.8032503E+00  3.3451099E+01
 8.8147507E+00  3.3259857E+01
 8.8262501E+00  3.3016609E+01
 8.8377504E+00  3.2731419E+01
 8.8492508E+00  3.2536121E+01
 8.8607502E+00  3.2403419E+01
 8.8722506E+00  3.2340946E+01
 8.8837500E+00  3.2238518E+01
 8.8952503E+00  3.2175915E+01
 8.9067507E+00  3.2014374E+01
 8.9182501E+00  3.1885757E+01
 8.9297504E+00  3.1676914E+01
 8.9412508E+00  3.1517035E+01
 8.9527502E+00  3.1393957E+01
 8.9642506E+00  3.1288790E+01
 8.9757500E+00  3.1169331E+01
 8.9872503E+00  3.1011480E+01
 8.9987507E+00  3.0803310E+01
 9.0102501E+00  3.0627813E+01
 9.0217505E+00  3.0483747E+01
 9.0332508E+00  3.0407045E+01
 9.0447502E+00  3.0308783E+01
 9.0562506E+00  3.0164906E+01
 9.0677500E+00  3.0059034E+01
 9.0792503E+00  2.9916750E+01
 9.0907507E+00  2.9788471E+01
 9.1022501E+00  2.9600737E+01
 9.1137505E+00  2.9485067E+01
 9.1252508E+00  2.9368746E+01
 9.1367502E+00  2.9246353E+01
 9.1482506E+00  2.9156637E+01
 9.1597500E+00  2.9084124E+01
 9.1712503E+00  2.8951248E+01
 9.1827507E+00  2.8844561E+01
 9.1942501E+00  2.8697203E+01
 9.2057505E+00  2.8579882E+01
 9.2172508E+00  2.8437881E+01
 9.2287502E+00  2.8208088E+01
 9.2402506E+00  2.8071390E+01
 9.2517500E+00  2.7952101E+01
 9.2632504E+00  2.7911655E+01
 9.2747507E+00  2.7789692E+01
 9.2862501E+00  2.7769764E+01
 9.2977505E+00  2.7660830E+01
 9.3092508E+00  2.7657652E+01
 9.3207502E+00  2.7438028E+01
 9.3322506E+00  2.7350559E+01
 9.3437500E+00  2.7200361E+01
 9.3552504E+00  2.7173735E+01
 9.3667507E+00  2.7091047E+01
 9.3782501E+00  2.7036602E+01
 9.3897505E+00  2.6942286E+01
 9.4012508E+00  2.6868973E+01
 9.4127502E+00  2.6797386E+01
 9.4242506E+00  2.6695131E+01
 9.4357500E+00  2.6635681E+01
 9.4472504E+00  2.6566013E+01
 9.4587507E+00  2.6499249E+01
 9.4702501E+00  2.6416822E+01
 9.4817505E+00  2.6374260E+01
 9.4932508E+00  2.6331062E+01
 9.5047503E+00  2.6287882E+01
 9.5162506E+00  2.6201574E+01
 9.5277500E+00  2.6159513E+01
 9.5392504E+00  2.6133314E+01
 9.5507507E+00  2.6029400E+01
 9.5622501E+00  2.5915398E+01
 9.5737505E+00  2.5789793E+01
 9.5852509E+00  2.5678282E+01
 9.5967503E+00  2.5612930E+01
 9.6082506E+00  2.5562330E+01
 9.6197500E+00  2.5552626E+01
 9.6312504E+00  2.5510883E+01
 9.6427507E+00  2.5537149E+01
 9.6542501E+00  2.5529678E+01
 9.6657505E+00  2.5455046E+01
 9.6772509E+00  2.5320459E+01
 9.6887503E+00  2.5224947E+01
 9.7002506E+00  2.5103189E+01
 9.7117500E+00  2.5120678E+01
 9.7232504E+00  2.5113804E+01
 9.7347507E+00  2.5167696E+01
 9.7462502E+00  2.5121206E+01
 9.7577505E+00  2.4999149E+01
 9.7692509E+00  2.4980284E+01
 9.7807503E+00  2.4849806E+01
 9.7922506E+00  2.4774240E+01
 9.8037500E+00  2.4753716E+01
 9.8152504E+00  2.4725916E+01
 9.8267508E+00  2.4719368E+01
 9.8382502E+00  2.4636913E+01
 9.8497505E+00  2.4595783E+01
 9.8612509E+00  2.4529669E+01
 9.8727503E+00  2.4431252E+01
 9.8842506E+00  2.4330811E+01
 9.8957500E+00  2.4347431E+01
 9.9072504E+00  2.4377394E+01
 9.9187508E+00  2.4474764E+01
 9.9302502E+00  2.4484871E+01
 9.9417505E+00  2.4463274E+01
 9.9532509E+00  2.4414349E+01
 9.9647503E+00  2.4373056E+01
 9.9762506E+00  2.4352638E+01
 9.9877501E+00  2.4274256E+01
 9.9992504E+00  2.4258766E+01
 1.0010751E+01  2.4204844E+01
 1.0022250E+01  2.4220860E+01
 1.0033751E+01  2.4210541E+01
 1.0045251E+01  2.4201143E+01
 1.0056750E+01  2.4158752E+01
 1.0068251E+01  2.4077570E+01
 1.0079750E+01  2.4044147E+01
 1.0091250E+01  2.3998003E+01
 1.0102751E+01  2.3995123E+01
 1.0114250E+01  2.3996124E+01
 1.0125751E+01  2.3987930E+01
 1.0137251E+01  2.3921967E+01
 1.0148750E+01  2.3809032E+01
 1.0160251E+01  2.3747540E+01
 1.0171750E+01  2.3685944E+01
 1.0183250E+01  2.3623064E+01
 1.0194751E+01  2.3548285E+01
 1.0206250E+01  2.3489862E+01
 1.0217751E+01  2.3506838E+01
 1.0229251E+01  2.3537901E+01
 1.0240750E+01  2.3535151E+01
 1.0252251E+01  2.3481760E+01
 1.0263750E+01  2.3411961E+01
 1.0275250E+01  2.3424639E+01
 1.0286751E+01  2.3417919E+01
 1.0298250E+01  2.3408970E+01
 1.0309751E+01  2.3321512E+01
 1.0321251E+01  2.3291567E+01
 1.0332750E+01  2.3212244E+01
 1.0344251E+01  2.3238958E+01
 1.0355750E+01  2.3187567E+01
 1.0367250E+01  2.3198946E+01
 1.0378751E+01  2.3183123E+01
 1.0390250E+01  2.3232904E+01
 1.0401751E+01  2.3228037E+01
 1.0413251E+01  2.3211720E+01
 1.0424750E+01  2.3137886E+01
 1.0436251E+01  2.3082640E+01
 1.0447750E+01  2.2977303E+01
 1.0459250E+01  2.2934917E+01
 1.0470751E+01  2.2899824E+01
 1.0482250E+01  2.2908354E+01
 1.0493751E+01  2.2924595E+01
 1.0505251E+01  2.2916746E+01
 1.0516750E+01  2.2962425E+01
 1.0528251E+01  2.2922453E+01
 1.0539750E+01  2.2924318E+01
 1.0551250E+01  2.2890097E+01
 1.0562751E+01  2.2965366E+01
 1.0574250E+01  2.2961790E+01
 1.0585751E+01  2.2940462E+01
 1.0597251E+01  2.2859669E+01
 1.0608750E+01  2.2867386E+01
 1.0620251E+01  2.2888933E+01
 1.0631750E+01  2.2897102E+01
 1.0643250E+01  2.2896616E+01
 1.0654751E+01  2.2905128E+01
 1.0666250E+01  2.2897114E+01
 1.0677751E+01  2.2872873E+01
 1.0689251E+01  2.2832685E+01
 1.0700750E+01  2.2810457E+01
 1.0712251E+01  2.2806370E+01
 1.0723750E+01  2.2746826E+01
 1.0735250E+01  2.2661161E+01
 1.0746751E+01  2.2646727E+01
 1.0758250E+01  2.2611994E+01
 1.0769751E+01  2.2649044E+01
 1.0781251E+01  2.2639162E+01
 1.0792750E+01  2.2693399E+01
 1.0804251E+01  2.2719454E+01
 1.0815750E+01  2.2713135E+01
 1.0827250E+01  2.2713085E+01
 1.0838751E+01  2.2682716E+01
 1.0850250E+01  2.2659075E+01
 1.0861751E+01  2.2637524E+01
 1.0873251E+01  2.2619165E+01
 1.0884750E+01  2.2568340E+01
 1.0896251E+01  2.2552565E+01
 1.0907750E+01  2.2588587E+01
 1.0919250E+01  2.2602325E+01
 1.0930751E+01  2.2713724E+01
 1.0942250E+01  2.2706892E+01
 1.0953751E+01  2.2776686E+01
 1.0965251E+01  2.2740463E+01
 1.0976750E+01  2.2699505E+01
 1.0988251E+01  2.2625940E+01
 1.0999750E+01  2.2534254E+01
 1.1011250E+01  2.2554989E+01
 1.1022751E+01  2.2531990E+01
 1.1034250E+01  2.2484365E+01
 1.1045751E+01  2.2429440E+01
 1.1057251E+01  2.2397926E+01
 1.1068750E+01  2.2421885E+01
 1.1080251E+01  2.2429518E+01
 1.1091750E+01  2.2419212E+01
 1.1103251E+01  2.2365337E+01
 1.1114751E+01  2.2330687E+01
 1.1126250E+01  2.2352392E+01
 1.1137751E+01  2.2350824E+01
 1.1149251E+01  2.2367037E+01
 1.1160750E+01  2.2349361E+01
 1.1172251E+01  2.2352800E+01
 1.1183750E+01  2.2331835E+01
 1.1195251E+01  2.2321749E+01
 1.1206751E+01  2.2334318E+01
 1.1218250E+01  2.2288490E+01
 1.1229751E+01  2.2257187E+01
 1.1241251E+01  2.2262251E+01
 1.1252750E+01  2.2288980E+01
 1.1264251E+01  2.2348017E+01
 1.1275750E+01  2.2328587E+01
 1.1287251E+01  2.2343523E+01
 1.1298751E+01  2.2313814E+01
 1.1310250E+01  2.2317484E+01
 1.1321751E+01  2.2290787E+01
 1.1333251E+01  2.2295855E+01
 1.1344750E+01  2.2332056E+01
 1.1356251E+01  2.2375849E+01
 1.1367750E+01  2.2434626E+01
 1.1379251E+01  2.2460787E+01
 1.1390751E+01  2.2493425E+01
 1.1402250E+01  2.2559216E+01
 1.1413751E+01  2.2565010E+01
 1.1425251E+01  2.2556862E+01
 1.1436750E+01  2.2502132E+01
 1.1448251E+01  2.2529764E+01
 1.1459750E+01  2.2600018E+01
 1.1471251E+01  2.2624081E+01
 1.1482751E+01  2.2574545E+01
 1.1494250E+01  2.2567499E+01
 1.1505751E+01  2.2702652E+01
 1.1517251E+01  2.2844067E+01
 1.1528750E+01  2.3227350E+01
 1.1540251E+01  2.3551523E+01
 1.1551750E+01  2.3835575E+01
 1.1563251E+01  2.4254343E+01
 1.1574751E+01  2.4369539E+01
 1.1586250E+01  2.4590759E+01
 1.1597751E+01  2.4411528E+01
 1.1609251E+01  2.4257219E+01
 1.1620750E+01  2.4006521E+01
 1.1632251E+01  2.3578842E+01
 1.1643750E+01  2.3213285E+01
 1.1655251E+01  2.2904339E+01
 1.1666751E+01  2.2645842E+01
 1.1678250E+01  2.2556086E+01
 1.1689751E+01  2.2456949E+01
 1.1701251E+01  2.2392344E+01
 1.1712750E+01  2.2331551E+01
 1.1724251E+01  2.2241724E+01
 1.1735750E+01  2.2256638E+01
 1.1747251E+01  2.2299784E+01
 1.1758751E+01  2.2340927E+01
 1.1770250E+01  2.2351200E+01
 1.1781751E+01  2.2320997E+01
 1.1793251E+01  2.2334919E+01
 1.1804750E+01  2.2344650E+01
 1.1816251E+01  2.2364027E+01
 1.1827750E+01  2.2378996E+01
 1.1839251E+01  2.2382622E+01
 1.1850751E+01  2.2317135E+01
 1.1862250E+01  2.2321783E+01
 1.1873751E+01  2.2313868E+01
 1.1885251E+01  2.2354782E+01
 1.1896750E+01  2.2338312E+01
 1.1908251E+01  2.2342258E+01
 1.1919750E+01  2.2377062E+01
 1.1931251E+01  2.2483871E+01
 1.1942751E+01  2.2642054E+01
 1.1954250E+01  2.2905031E+01
 1.1965751E+01  2.3036459E+01
 1.1977251E+01  2.3206284E+01
 1.1988750E+01  2.3290628E+01
 1.2000251E+01  2.3360167E+01
 1.2011750E+01  2.3280741E+01
 1.2023251E+01  2.3160852E+01
 1.2034751E+01  2.3060226E+01
 1.2046250E+01  2.3049852E+01
 1.2057751E+01  2.3064243E+01
 1.2069251E+01  2.3182613E+01
 1.2080750E+01  2.3347944E+01
 1.2092251E+01  2.3474405E+01
 1.2103750E+01  2.3515659E+01
 1.2115251E+01  2.3344090E+01
 1.2126751E+01  2.3168867E+01
 1.2138250E+01  2.2919031E+01
 1.2149751E+01  2.2734604E+01
 1.2161251E+01  2.2546137E+01
 1.2172750E+01  2.2445002E+01
 1.2184251E+01  2.2415878E+01
 1.2195750E+01  2.2455256E+01
 1.2207251E+01  2.2468147E+01
 1.2218751E+01  2.2483568E+01
 1.2230250E+01  2.2449455E+01
 1.2241751E+01  2.2444336E+01
 1.2253251E+01  2.2422190E+01
 1.2264750E+01  2.2414385E+01
 1.2276251E+01  2.2321722E+01
 1.2287750E+01  2.2306908E+01
 1.2299251E+01  2.2251736E+01
 1.2310751E+01  2.2368567E+01
 1.2322250E+01  2.2409227E+01
 1.2333751E+01  2.2494616E+01
 1.2345250E+01  2.2429688E+01
 1.2356750E+01  2.2432756E+01
 1.2368251E+01  2.2407257E+01
 1.2379750E+01  2.2461357E+01
 1.2391251E+01  2.2403629E+01
 1.2402751E+01  2.2343571E+01
 1.2414250E+01  2.2333454E+01
 1.2425751E+01  2.2339186E+01
 1.2437250E+01  2.2439228E+01
 1.2448750E+01  2.2466892E+01
 1.2460251E+01  2.2489607E+01
 1.2471750E+01  2.2505138E+01
 1.2483251E+01  2.2551985E+01
 1.2494751E+01  2.2563848E+01
 1.2506250E+01  2.2566395E+01
 1.2517751E+01  2.2545418E+01
 1.2529250E+01  2.2646408E+01
 1.2540751E+01  2.2611263E+01
 1.2552251E+01  2.2617449E+01
 1.2563750E+01  2.2561150E+01
 1.2575251E+01  2.2556751E+01
 1.2586751E+01  2.2532238E+01
 1.2598250E+01  2.2498253E+01
 1.2609751E+01  2.2506008E+01
 1.2621250E+01  2.2615433E+01
 1.2632751E+01  2.2689905E+01
 1.2644251E+01  2.2734173E+01
 1.2655750E+01  2.2725735E+01
 1.2667251E+01  2.2743288E+01
 1.2678751E+01  2.2768167E+01
 1.2690250E+01  2.2751738E+01
 1.2701751E+01  2.2693113E+01
 1.2713250E+01  2.2700441E+01
 1.2724751E+01  2.2634302E+01
 1.2736251E+01  2.2661167E+01
 1.2747750E+01  2.2682674E+01
 1.2759251E+01  2.2820030E+01
 1.2770751E+01  2.2864290E+01
 1.2782250E+01  2.2968365E+01
 1.2793751E+01  2.2967764E+01
 1.2805250E+01  2.3098358E+01
 1.2816751E+01  2.3080132E+01
 1.2828251E+01  2.3192652E+01
 1.2839750E+01  2.3251581E+01
 1.2851251E+01  2.3338770E+01
 1.2862751E+01  2.3352119E+01
 1.2874250E+01  2.3375788E+01
 1.2885751E+01  2.3382448E+01
 1.2897250E+01  2.3341015E+01
 1.2908751E+01  2.3350290E+01
 1.2920251E+01  2.3337446E+01
 1.2931750E+01  2.3428320E+01
 1.2943251E+01  2.3438589E+01
 1.2954751E+01  2.3490555E+01
 1.2966250E+01  2.3483133E+01
 1.2977751E+01  2.3543131E+01
 1.2989250E+01  2.3595942E+01
 1.3000751E+01  2.3697229E+01
 1.3012251E+01  2.3757710E+01
 1.3023750E+01  2.3849749E+01
 1.3035251E+01  2.3975296E+01
 1.3046751E+01  2.4039768E+01
 1.3058250E+01  2.4172876E+01
 1.3069751E+01  2.4204887E+01
 1.3081250E+01  2.4324038E+01
 1.3092751E+01  2.4414726E+01
 1.3104251E+01  2.4582752E+01
 1.3115750E+01  2.4720722E+01
 1.3127251E+01  2.4859377E+01
 1.3138751E+01  2.4945829E+01
 1.3150250E+01  2.5023481E+01
 1.3161751E+01  2.5086773E+01
 1.3173250E+01  2.5194199E+01
 1.3184751E+01  2.5306849E+01
 1.3196251E+01  2.5379429E+01
 1.3207750E+01  2.5510199E+01
 1.3219251E+01  2.5615578E+01
 1.3230751E+01  2.5759542E+01
 1.3242250E+01  2.5915119E+01
 1.3253751E+01  2.6094839E+01
 1.3265250E+01  2.6243841E+01
 1.3276751E+01  2.6372747E+01
 1.3288251E+01  2.6505529E+01
 1.3299750E+01  2.6692698E+01
 1.3311251E+01  2.6763971E+01
 1.3322751E+01  2.6871689E+01
 1.3334250E+01  2.7015631E+01
 1.3345751E+01  2.7161543E+01
 1.3357250E+01  2.7341614E+01
 1.3368751E+01  2.7426685E+01
 1.3380251E+01  2.7619184E+01
 1.3391750E+01  2.7715384E+01
 1.3403251E+01  2.7873068E+01
 1.3414751E+01  2.8021187E+01
 1.3426250E+01  2.8228224E+01
 1.3437751E+01  2.8410568E+01
 1.3449250E+01  2.8494974E+01
 1.3460751E+01  2.8618761E+01
 1.3472251E+01  2.8761784E+01
 1.3483750E+01  2.8935703E+01
 1.3495251E+01  2.9059505E+01
 1.3506751E+01  2.9157455E+01
 1.3518250E+01  2.9242195E+01
 1.3529751E+01  2.9264381E+01
 1.3541250E+01  2.9248640E+01
 1.3552751E+01  2.9253410E+01
 1.3564251E+01  2.9271675E+01
 1.3575750E+01  2.9262381E+01
 1.3587251E+01  2.9302605E+01
 1.3598751E+01  2.9361013E+01
 1.3610250E+01  2.9390192E+01
 1.3621751E+01  2.9402771E+01
 1.3633250E+01  2.9415833E+01
 1.3644751E+01  2.9470165E+01
 1.3656251E+01  2.9454138E+01
 1.3667750E+01  2.9450266E+01
 1.3679251E+01  2.9393892E+01
 1.3690751E+01  2.9377789E+01
 1.3702250E+01  2.9314249E+01
 1.3713751E+01  2.9272612E+01
 1.3725250E+01  2.9236265E+01
 1.3736751E+01  2.9206320E+01
 1.3748251E+01  2.9194931E+01
 1.3759750E+01  2.9227596E+01
 1.3771251E+01  2.9254030E+01
 1.3782751E+01  2.9245785E+01
 1.3794250E+01  2.9139725E+01
 1.3805751E+01  2.9047934E+01
 1.3817250E+01  2.8985476E+01
 1.3828751E+01  2.8977795E+01
 1.3840251E+01  2.9009935E+01
 1.3851750E+01  2.9078951E+01
 1.3863251E+01  2.9165831E+01
 1.3874751E+01  2.9327816E+01
 1.3886250E+01  2.9583027E+01
 1.3897751E+01  3.0212229E+01
 1.3909250E+01  3.0746429E+01
 1.3920751E+01  3.1515827E+01
 1.3932251E+01  3.2036987E+01
 1.3943750E+01  3.2341354E+01
 1.3955251E+01  3.2422150E+01
 1.3966751E+01  3.2107105E+01
 1.3978251E+01  3.1663580E+01
 1.3989751E+01  3.0807838E+01
 1.4001250E+01  3.0075993E+01
 1.4012751E+01  2.9311161E+01
 1.4024251E+01  2.8576408E+01
 1.4035750E+01  2.8022173E+01
 1.4047251E+01  2.7670488E+01
 1.4058751E+01  2.7498478E+01
 1.4070251E+01  2.7386452E+01
 1.4081751E+01  2.7284941E+01
 1.4093250E+01  2.7220884E+01
 1.4104751E+01  2.7120913E+01
 1.4116251E+01  2.7063469E+01
 1.4127750E+01  2.7010391E+01
 1.4139251E+01  2.6932341E+01
 1.4150751E+01  2.6815266E+01
 1.4162251E+01  2.6725542E+01
 1.4173751E+01  2.6689882E+01
 1.4185250E+01  2.6702076E+01
 1.4196751E+01  2.6714424E+01
 1.4208251E+01  2.6687542E+01
 1.4219750E+01  2.6602844E+01
 1.4231251E+01  2.6524401E+01
 1.4242751E+01  2.6458689E+01
 1.4254251E+01  2.6401007E+01
 1.4265751E+01  2.6329409E+01
 1.4277250E+01  2.6227312E+01
 1.4288751E+01  2.6121563E+01
 1.4300251E+01  2.6061825E+01
 1.4311750E+01  2.6052118E+01
 1.4323251E+01  2.6005527E+01
 1.4334751E+01  2.5955997E+01
 1.4346251E+01  2.5875696E+01
 1.4357751E+01  2.5852119E+01
 1.4369250E+01  2.5806995E+01
 1.4380751E+01  2.5792160E+01
 1.4392251E+01  2.5784409E+01
 1.4403750E+01  2.5768475E+01
 1.4415251E+01  2.5749332E+01
 1.4426751E+01  2.5708012E+01
 1.4438251E+01  2.5653811E+01
 1.4449751E+01  2.5626226E+01
 1.4461250E+01  2.5574480E+01
 1.4472751E+01  2.5533644E+01
 1.4484251E+01  2.5430635E+01
 1.4495750E+01  2.5355360E+01
 1.4507251E+01  2.5274906E+01
 1.4518751E+01  2.5223974E+01
 1.4530251E+01  2.5183693E+01
 1.4541751E+01  2.5197865E+01
 1.4553250E+01  2.5221111E+01
 1.4564751E+01  2.5263142E+01
 1.4576251E+01  2.5262764E+01
 1.4587750E+01  2.5289362E+01
 1.4599251E+01  2.5227926E+01
 1.4610751E+01  2.5218019E+01
 1.4622251E+01  2.5186134E+01
 1.4633751E+01  2.5150747E+01
 1.4645250E+01  2.5118156E+01
 1.4656751E+01  2.5067852E+01
 1.4668251E+01  2.5081913E+01
 1.4679750E+01  2.5069258E+01
 1.4691251E+01  2.5088139E+01
 1.4702751E+01  2.5068764E+01
 1.4714251E+01  2.5073702E+01
 1.4725751E+01  2.5077080E+01
 1.4737250E+01  2.5046438E+01
 1.4748751E+01  2.5017212E+01
 1.4760251E+01  2.4985731E+01
 1.4771750E+01  2.5030846E+01
 1.4783251E+01  2.4965345E+01
 1.4794751E+01  2.4951796E+01
 1.4806251E+01  2.4915964E+01
 1.4817751E+01  2.4898746E+01
 1.4829250E+01  2.4845928E+01
 1.4840751E+01  2.4812677E+01
 1.4852251E+01  2.4805592E+01
 1.4863750E+01  2.4756449E+01
 1.4875251E+01  2.4697983E+01
 1.4886751E+01  2.4649336E+01
 1.4898251E+01  2.4719452E+01
 1.4909751E+01  2.4758493E+01
 1.4921250E+01  2.4809065E+01
 1.4932751E+01  2.4765234E+01
 1.4944251E+01  2.4720510E+01
 1.4955750E+01  2.4667473E+01
 1.4967251E+01  2.4644518E+01
 1.4978751E+01  2.4681173E+01
 1.4990251E+01  2.4692799E+01
 1.5001751E+01  2.4678478E+01
 1.5013250E+01  2.4697817E+01
 1.5024751E+01  2.4721865E+01
 1.5036251E+01  2.4697771E+01
 1.5047750E+01  2.4668274E+01
 1.5059251E+01  2.4683352E+01
 1.5070751E+01  2.4695423E+01
 1.5082251E+01  2.4643877E+01
 1.5093751E+01  2.4583012E+01
 1.5105250E+01  2.4644173E+01
 1.5116751E+01  2.4732279E+01
 1.5128251E+01  2.4885933E+01
 1.5139750E+01  2.5095173E+01
 1.5151251E+01  2.5365116E+01
 1.5162751E+01  2.5515291E+01
 1.5174251E+01  2.5572241E+01
 1.5185751E+01  2.5519547E+01
 1.5197250E+01  2.5427654E+01
 1.5208751E+01  2.5272802E+01
 1.5220251E+01  2.5172668E+01
 1.5231750E+01  2.5031872E+01
 1.5243251E+01  2.4931215E+01
 1.5254751E+01  2.4814941E+01
 1.5266251E+01  2.4734108E+01
 1.5277751E+01  2.4645464E+01
 1.5289250E+01  2.4595770E+01
 1.5300751E+01  2.4566309E+01
 1.5312251E+01  2.4487724E+01
 1.5323750E+01  2.4432894E+01
 1.5335251E+01  2.4400600E+01
 1.5346751E+01  2.4400097E+01
 1.5358251E+01  2.4326580E+01
 1.5369751E+01  2.4304712E+01
 1.5381250E+01  2.4228687E+01
 1.5392751E+01  2.4230543E+01
 1.5404251E+01  2.4227219E+01
 1.5415751E+01  2.4297813E+01
 1.5427251E+01  2.4319662E+01
 1.5438751E+01  2.4325804E+01
 1.5450251E+01  2.4299490E+01
 1.5461751E+01  2.4317480E+01
 1.5473250E+01  2.4331205E+01
 1.5484751E+01  2.4324440E+01
 1.5496251E+01  2.4299908E+01
 1.5507751E+01  2.4299919E+01
 1.5519251E+01  2.4316204E+01
 1.5530751E+01  2.4328884E+01
 1.5542251E+01  2.4290991E+01
 1.5553751E+01  2.4254951E+01
 1.5565250E+01  2.4216026E+01
 1.5576751E+01  2.4251852E+01
 1.5588251E+01  2.4270676E+01
 1.5599751E+01  2.4299225E+01
 1.5611251E+01  2.4273069E+01
 1.5622751E+01  2.4265665E+01
 1.5634251E+01  2.4280653E+01
 1.5645751E+01  2.4357937E+01
 1.5657250E+01  2.4421589E+01
 1.5668751E+01  2.4465326E+01
 1.5680251E+01  2.4415438E+01
 1.5691751E+01  2.4395010E+01
 1.5703251E+01  2.4384489E+01
 1.5714751E+01  2.4378605E+01
 1.5726251E+01  2.4367687E+01
 1.5737751E+01  2.4311869E+01
 1.5749250E+01  2.4352564E+01
 1.5760751E+01  2.4381096E+01
 1.5772251E+01  2.4438374E+01
 1.5783751E+01  2.4435009E+01
 1.5795251E+01  2.4438644E+01
 1.5806751E+01  2.4424603E+01
 1.5818251E+01  2.4409149E+01
 1.5829751E+01  2.4364151E+01
 1.5841250E+01  2.4348356E+01
 1.5852751E+01  2.4367300E+01
 1.5864251E+01  2.4377409E+01
 1.5875751E+01  2.4442482E+01
 1.5887251E+01  2.4441647E+01
 1.5898750E+01  2.4453331E+01
 1.5910251E+01  2.4416100E+01
 1.5921751E+01  2.4359272E+01
 1.5933250E+01  2.4362762E+01
 1.5944751E+01  2.4331131E+01
 1.5956251E+01  2.4377531E+01
 1.5967751E+01  2.4373882E+01
 1.5979251E+01  2.4407673E+01
 1.5990750E+01  2.4452452E+01
 1.6002251E+01  2.4421139E+01
 1.6013750E+01  2.4391670E+01
 1.6025251E+01  2.4392586E+01
 1.6036751E+01  2.4453020E+01
 1.6048250E+01  2.4528271E+01
 1.6059752E+01  2.4567652E+01
 1.6071251E+01  2.4600199E+01
 1.6082750E+01  2.4627842E+01
 1.6094252E+01  2.4607935E+01
 1.6105751E+01  2.4634394E+01
 1.6117250E+01  2.4629883E+01
 1.6128750E+01  2.4588835E+01
 1.6140251E+01  2.4603918E+01
 1.6151751E+01  2.4574007E+01
 1.6163250E+01  2.4680334E+01
 1.6174751E+01  2.4670794E+01
 1.6186251E+01  2.4864414E+01
 1.6197750E+01  2.4806208E+01
 1.6209251E+01  2.5134489E+01
 1.6220751E+01  2.5121119E+01
 1.6232250E+01  2.5565756E+01
 1.6243752E+01  2.5692219E+01
 1.6255251E+01  2.5922077E+01
 1.6266750E+01  2.6003435E+01
 1.6278252E+01  2.5686554E+01
 1.6289751E+01  2.5677641E+01
 1.6301250E+01  2.5068594E+01
 1.6312750E+01  2.5156261E+01
 1.6324251E+01  2.4768827E+01
 1.6335751E+01  2.4845652E+01
 1.6347250E+01  2.4630661E+01
 1.6358751E+01  2.4585238E+01
 1.6370251E+01  2.4461166E+01
 1.6381750E+01  2.4404470E+01
 1.6393251E+01  2.4426203E+01
 1.6404751E+01  2.4445755E+01
 1.6416250E+01  2.4491043E+01
 1.6427752E+01  2.4446104E+01
 1.6439251E+01  2.4437971E+01
 1.6450750E+01  2.4458344E+01
 1.6462252E+01  2.4474489E+01
 1.6473751E+01  2.4469826E+01
 1.6485250E+01  2.4460869E+01
 1.6496750E+01  2.4478035E+01
 1.6508251E+01  2.4456579E+01
 1.6519751E+01  2.4471495E+01
 1.6531250E+01  2.4415432E+01
 1.6542751E+01  2.4429033E+01
 1.6554251E+01  2.4356531E+01
 1.6565750E+01  2.4364698E+01
 1.6577251E+01  2.4337946E+01
 1.6588751E+01  2.4367094E+01
 1.6600250E+01  2.4378151E+01
 1.6611752E+01  2.4425177E+01
 1.6623251E+01  2.4383974E+01
 1.6634750E+01  2.4393253E+01
 1.6646252E+01  2.4365282E+01
 1.6657751E+01  2.4401442E+01
 1.6669250E+01  2.4406376E+01
 1.6680750E+01  2.4391209E+01
 1.6692251E+01  2.4403894E+01
 1.6703751E+01  2.4321268E+01
 1.6715250E+01  2.4317904E+01
 1.6726751E+01  2.4259104E+01
 1.6738251E+01  2.4301655E+01
 1.6749750E+01  2.4328028E+01
 1.6761251E+01  2.4334795E+01
 1.6772751E+01  2.4347383E+01
 1.6784250E+01  2.4289923E+01
 1.6795752E+01  2.4284336E+01
 1.6807251E+01  2.4234535E+01
 1.6818750E+01  2.4212135E+01
 1.6830252E+01  2.4165710E+01
 1.6841751E+01  2.4193483E+01
 1.6853251E+01  2.4213261E+01
 1.6864750E+01  2.4236755E+01
 1.6876251E+01  2.4221962E+01
 1.6887751E+01  2.4166286E+01
 1.6899250E+01  2.4113699E+01
 1.6910751E+01  2.4088396E+01
 1.6922251E+01  2.4103899E+01
 1.6933750E+01  2.4130667E+01
 1.6945251E+01  2.4134441E+01
 1.6956751E+01  2.4096487E+01
 1.6968250E+01  2.4011696E+01
 1.6979752E+01  2.3970987E+01
 1.6991251E+01  2.3995127E+01
 1.7002750E+01  2.4026434E+01
 1.7014252E+01  2.4067116E+01
 1.7025751E+01  2.4077429E+01
 1.7037251E+01  2.4081833E+01
 1.7048750E+01  2.4042967E+01
 1.7060251E+01  2.4017853E+01
 1.7071751E+01  2.4037981E+01
 1.7083250E+01  2.4074780E+01
 1.7094751E+01  2.4067385E+01
 1.7106251E+01  2.4077347E+01
 1.7117750E+01  2.4049528E+01
 1.7129251E+01  2.4075489E+01
 1.7140751E+01  2.4025759E+01
 1.7152250E+01  2.3996073E+01
 1.7163752E+01  2.3968149E+01
 1.7175251E+01  2.3966911E+01
 1.7186750E+01  2.3974512E+01
 1.7198252E+01  2.3938320E+01
 1.7209751E+01  2.3934107E+01
 1.7221251E+01  2.3903460E+01
 1.7232750E+01  2.3873489E+01
 1.7244251E+01  2.3791151E+01
 1.7255751E+01  2.3719479E+01
 1.7267250E+01  2.3728409E+01
 1.7278751E+01  2.3754370E+01
 1.7290251E+01  2.3779797E+01
 1.7301750E+01  2.3819433E+01
 1.7313251E+01  2.3878326E+01
 1.7324751E+01  2.3941818E+01
 1.7336250E+01  2.3913101E+01
 1.7347752E+01  2.3887119E+01
 1.7359251E+01  2.3866877E+01
 1.7370750E+01  2.3828350E+01
 1.7382252E+01  2.3754868E+01
 1.7393751E+01  2.3683657E+01
 1.7405251E+01  2.3633818E+01
 1.7416750E+01  2.3671499E+01
 1.7428251E+01  2.3645554E+01
 1.7439751E+01  2.3680288E+01
 1.7451250E+01  2.3651419E+01
 1.7462751E+01  2.3682247E+01
 1.7474251E+01  2.3719086E+01
 1.7485750E+01  2.3759165E+01
 1.7497252E+01  2.3783951E+01
 1.7508751E+01  2.3750246E+01
 1.7520250E+01  2.3743801E+01
 1.7531752E+01  2.3698893E+01
 1.7543251E+01  2.3754684E+01
 1.7554750E+01  2.3758495E+01
 1.7566252E+01  2.3760208E+01
 1.7577751E+01  2.3701635E+01
 1.7589251E+01  2.3669884E+01
 1.7600750E+01  2.3657452E+01
 1.7612251E+01  2.3630407E+01
 1.7623751E+01  2.3622278E+01
 1.7635250E+01  2.3562037E+01
 1.7646751E+01  2.3528692E+01
 1.7658251E+01  2.3530308E+01
 1.7669750E+01  2.3599298E+01
 1.7681252E+01  2.3622894E+01
 1.7692751E+01  2.3641657E+01
 1.7704250E+01  2.3661976E+01
 1.7715752E+01  2.3676672E+01
 1.7727251E+01  2.3646740E+01
 1.7738750E+01  2.3637365E+01
 1.7750252E+01  2.3591000E+01
 1.7761751E+01  2.3623262E+01
 1.7773251E+01  2.3592964E+01
 1.7784750E+01  2.3666376E+01
 1.7796251E+01  2.3674496E+01
 1.7807751E+01  2.3692917E+01
 1.7819250E+01  2.3704666E+01
 1.7830751E+01  2.3660408E+01
 1.7842251E+01  2.3668713E+01
 1.7853750E+01  2.3601715E+01
 1.7865252E+01  2.3612970E+01
 1.7876751E+01  2.3554190E+01
 1.7888250E+01  2.3536674E+01
 1.7899752E+01  2.3532307E+01
 1.7911251E+01  2.3617973E+01
 1.7922750E+01  2.3691935E+01
 1.7934252E+01  2.3654882E+01
 1.7945751E+01  2.3586937E+01
 1.7957251E+01  2.3551649E+01
 1.7968750E+01  2.3523561E+01
 1.7980251E+01  2.3528255E+01
 1.7991751E+01  2.3525549E+01
 1.8003250E+01  2.3645967E+01
 1.8014751E+01  2.3675365E+01
 1.8026251E+01  2.3734629E+01
 1.8037750E+01  2.3769573E+01
 1.8049252E+01  2.3855536E+01
 1.8060751E+01  2.3955177E+01
 1.8072250E+01  2.4044451E+01
 1.8083752E+01  2.4199783E+01
 1.8095251E+01  2.4289150E+01
 1.8106750E+01  2.4401680E+01
 1.8118252E+01  2.4335733E+01
 1.8129751E+01  2.4274757E+01
 1.8141251E+01  2.4097570E+01
 1.8152750E+01  2.3981176E+01
 1.8164251E+01  2.3813501E+01
 1.8175751E+01  2.3720713E+01
 1.8187250E+01  2.3584286E+01
 1.8198751E+01  2.3530954E+01
 1.8210251E+01  2.3468487E+01
 1.8221750E+01  2.3461649E+01
 1.8233252E+01  2.3425104E+01
 1.8244751E+01  2.3444498E+01
 1.8256250E+01  2.3461834E+01
 1.8267752E+01  2.3450117E+01
 1.8279251E+01  2.3444811E+01
 1.8290751E+01  2.3430029E+01
 1.8302252E+01  2.3401432E+01
 1.8313751E+01  2.3391323E+01
 1.8325251E+01  2.3384064E+01
 1.8336750E+01  2.3439968E+01
 1.8348251E+01  2.3438313E+01
 1.8359751E+01  2.3464779E+01
 1.8371250E+01  2.3446558E+01
 1.8382751E+01  2.3462807E+01
 1.8394251E+01  2.3480307E+01
 1.8405750E+01  2.3524279E+01
 1.8417252E+01  2.3524849E+01
 1.8428751E+01  2.3462675E+01
 1.8440250E+01  2.3406593E+01
 1.8451752E+01  2.3330452E+01
 1.8463251E+01  2.3318478E+01
 1.8474751E+01  2.3310228E+01
 1.8486252E+01  2.3333599E+01
 1.8497751E+01  2.3330107E+01
 1.8509251E+01  2.3336840E+01
 1.8520750E+01  2.3291969E+01
 1.8532251E+01  2.3301201E+01
 1.8543751E+01  2.3240892E+01
 1.8555250E+01  2.3261574E+01
 1.8566751E+01  2.3216616E+01
 1.8578251E+01  2.3246065E+01
 1.8589750E+01  2.3281328E+01
 1.8601252E+01  2.3296154E+01
 1.8612751E+01  2.3299330E+01
 1.8624250E+01  2.3222427E+01
 1.8635752E+01  2.3211872E+01
 1.8647251E+01  2.3115459E+01
 1.8658751E+01  2.3093906E+01
 1.8670252E+01  2.3077963E+01
 1.8681751E+01  2.3125685E+01
 1.8693251E+01  2.3190216E+01
 1.8704750E+01  2.3218935E+01
 1.8716251E+01  2.3246403E+01
 1.8727751E+01  2.3263874E+01
 1.8739250E+01  2.3231840E+01
 1.8750751E+01  2.3201492E+01
 1.8762251E+01  2.3186867E+01
 1.8773750E+01  2.3214062E+01
 1.8785252E+01  2.3227163E+01
 1.8796751E+01  2.3256424E+01
 1.8808250E+01  2.3260939E+01
 1.8819752E+01  2.3285286E+01
 1.8831251E+01  2.3223581E+01
 1.8842751E+01  2.3224180E+01
 1.8854252E+01  2.3189722E+01
 1.8865751E+01  2.3224182E+01
 1.8877251E+01  2.3201696E+01
 1.8888750E+01  2.3216654E+01
 1.8900251E+01  2.3231861E+01
 1.8911751E+01  2.3262556E+01
 1.8923250E+01  2.3277473E+01
 1.8934752E+01  2.3310942E+01
 1.8946251E+01  2.3316420E+01
 1.8957750E+01  2.3301252E+01
 1.8969252E+01  2.3227791E+01
 1.8980751E+01  2.3182182E+01
 1.8992250E+01  2.3119438E+01
 1.9003752E+01  2.3146746E+01
 1.9015251E+01  2.3204399E+01
 1.9026751E+01  2.3302319E+01
 1.9038252E+01  2.3331961E+01
 1.9049751E+01  2.3348530E+01
 1.9061251E+01  2.3422817E+01
 1.9072750E+01  2.3424576E+01
 1.9084251E+01  2.3394775E+01
 1.9095751E+01  2.3323074E+01
 1.9107250E+01  2.3309862E+01
 1.9118752E+01  2.3297213E+01
 1.9130251E+01  2.3304949E+01
 1.9141750E+01  2.3271872E+01
 1.9153252E+01  2.3286932E+01
 1.9164751E+01  2.3257355E+01
 1.9176250E+01  2.3246054E+01
 1.9187752E+01  2.3221739E+01
 1.9199251E+01  2.3233070E+01
 1.9210751E+01  2.3329189E+01
 1.9222252E+01  2.3331068E+01
 1.9233751E+01  2.3344681E+01
 1.9245251E+01  2.3299673E+01
 1.9256750E+01  2.3346651E+01
 1.9268251E+01  2.3337402E+01
 1.9279751E+01  2.3319624E+01
 1.9291250E+01  2.3302502E+01
 1.9302752E+01  2.3313276E+01
 1.9314251E+01  2.3358433E+01
 1.9325750E+01  2.3369049E+01
 1.9337252E+01  2.3378681E+01
 1.9348751E+01  2.3359924E+01
 1.9360250E+01  2.3313980E+01
 1.9371752E+01  2.3326099E+01
 1.9383251E+01  2.3310139E+01
 1.9394751E+01  2.3331314E+01
 1.9406250E+01  2.3337221E+01
 1.9417751E+01  2.3339827E+01
 1.9429251E+01  2.3302814E+01
 1.9440750E+01  2.3260584E+01
 1.9452251E+01  2.3260006E+01
 1.9463751E+01  2.3296637E+01
 1.9475250E+01  2.3332771E+01
 1.9486752E+01  2.3345520E+01
 1.9498251E+01  2.3299318E+01
 1.9509750E+01  2.3300734E+01
 1.9521252E+01  2.3316879E+01
 1.9532751E+01  2.3354765E+01
 1.9544250E+01  2.3409534E+01
 1.9555752E+01  2.3444593E+01
 1.9567251E+01  2.3434755E+01
 1.9578751E+01  2.3442383E+01
 1.9590250E+01  2.3420815E+01
 1.9601751E+01  2.3470770E+01
 1.9613251E+01  2.3527851E+01
 1.9624750E+01  2.3604696E+01
 1.9636251E+01  2.3662403E+01
 1.9647751E+01  2.3737946E+01
 1.9659250E+01  2.3934258E+01
 1.9670752E+01  2.4096584E+01
 1.9682251E+01  2.4348257E+01
 1.9693750E+01  2.4579649E+01
 1.9705252E+01  2.4794153E+01
 1.9716751E+01  2.4868713E+01
 1.9728251E+01  2.4814739E+01
 1.9739752E+01  2.4685682E+01
 1.9751251E+01  2.4566216E+01
 1.9762751E+01  2.4482862E+01
 1.9774250E+01  2.4411339E+01
 1.9785751E+01  2.4350172E+01
 1.9797251E+01  2.4394527E+01
 1.9808750E+01  2.4479584E+01
 1.9820251E+01  2.4728151E+01
 1.9831751E+01  2.4942001E+01
 1.9843250E+01  2.5028639E+01
 1.9854752E+01  2.5002798E+01
 1.9866251E+01  2.4882141E+01
 1.9877750E+01  2.4685171E+01
 1.9889252E+01  2.4498489E+01
 1.9900751E+01  2.4369371E+01
 1.9912251E+01  2.4187595E+01
 1.9923752E+01  2.3978273E+01
 1.9935251E+01  2.3805918E+01
 1.9946751E+01  2.3708118E+01
 1.9958250E+01  2.3601376E+01
 1.9969751E+01  2.3553509E+01
 1.9981251E+01  2.3484945E+01
 1.9992750E+01  2.3514780E+01
 2.0004251E+01  2.3468494E+01
 2.0015751E+01  2.3442884E+01
 2.0027250E+01  2.3408356E+01
 2.0038752E+01  2.3402512E+01
 2.0050251E+01  2.3404068E+01
 2.0061750E+01  2.3355116E+01
 2.0073252E+01  2.3351007E+01
 2.0084751E+01  2.3341965E+01
 2.0096251E+01  2.3422516E+01
 2.0107752E+01  2.3466898E+01
 2.0119251E+01  2.3539890E+01
 2.0130751E+01  2.3536192E+01
 2.0142250E+01  2.3530308E+01
 2.0153751E+01  2.3532190E+01
 2.0165251E+01  2.3536613E+01
 2.0176750E+01  2.3531420E+01
 2.0188251E+01  2.3516180E+01
 2.0199751E+01  2.3482866E+01
 2.0211250E+01  2.3478415E+01
 2.0222752E+01  2.3468433E+01
 2.0234251E+01  2.3440716E+01
 2.0245750E+01  2.3434763E+01
 2.0257252E+01  2.3445250E+01
 2.0268751E+01  2.3442677E+01
 2.0280251E+01  2.3445440E+01
 2.0291752E+01  2.3463043E+01
 2.0303251E+01  2.3480417E+01
 2.0314751E+01  2.3421703E+01
 2.0326250E+01  2.3420172E+01
 2.0337751E+01  2.3440140E+01
 2.0349251E+01  2.3485626E+01
 2.0360750E+01  2.3507090E+01
 2.0372252E+01  2.3531313E+01
 2.0383751E+01  2.3493614E+01
 2.0395250E+01  2.3562658E+01
 2.0406752E+01  2.3590546E+01
 2.0418251E+01  2.3631702E+01
 2.0429750E+01  2.3667635E+01
 2.0441252E+01  2.3691467E+01
 2.0452751E+01  2.3696257E+01
 2.0464251E+01  2.3635990E+01
 2.0475752E+01  2.3610954E+01
 2.0487251E+01  2.3546860E+01
 2.0498751E+01  2.3531876E+01
 2.0510250E+01  2.3502974E+01
 2.0521751E+01  2.3449104E+01
 2.0533251E+01  2.3394791E+01
 2.0544750E+01  2.3443586E+01
 2.0556252E+01  2.3527435E+01
 2.0567751E+01  2.3579123E+01
 2.0579250E+01  2.3588196E+01
 2.0590752E+01  2.3620817E+01
 2.0602251E+01  2.3629915E+01
 2.0613750E+01  2.3595930E+01
 2.0625252E+01  2.3614428E+01
 2.0636751E+01  2.3635942E+01
 2.0648251E+01  2.3636227E+01
 2.0659752E+01  2.3623655E+01
 2.0671251E+01  2.3655993E+01
 2.0682751E+01  2.3759079E+01
 2.0694250E+01  2.3863955E+01
 2.0705751E+01  2.4015585E+01
 2.0717251E+01  2.4220413E+01
 2.0728750E+01  2.4375330E+01
 2.0740252E+01  2.4489746E+01
 2.0751751E+01  2.4524715E+01
 2.0763250E+01  2.4559954E+01
 2.0774752E+01  2.4507629E+01
 2.0786251E+01  2.4427437E+01
 2.0797750E+01  2.4276121E+01
 2.0809252E+01  2.4100113E+01
 2.0820751E+01  2.3938375E+01
 2.0832251E+01  2.3836246E+01
 2.0843752E+01  2.3753170E+01
 2.0855251E+01  2.3714401E+01
 2.0866751E+01  2.3717060E+01
 2.0878250E+01  2.3728081E+01
 2.0889751E+01  2.3728374E+01
 2.0901251E+01  2.3750170E+01
 2.0912750E+01  2.3804520E+01
 2.0924252E+01  2.3782427E+01
 2.0935751E+01  2.3798962E+01
 2.0947250E+01  2.3771833E+01
 2.0958752E+01  2.3768595E+01
 2.0970251E+01  2.3730923E+01
 2.0981750E+01  2.3726595E+01
 2.0993252E+01  2.3723251E+01
 2.1004751E+01  2.3753550E+01
 2.1016251E+01  2.3747663E+01
 2.1027752E+01  2.3721804E+01
 2.1039251E+01  2.3712065E+01
 2.1050751E+01  2.3672417E+01
 2.1062250E+01  2.3679667E+01
 2.1073751E+01  2.3712032E+01
 2.1085251E+01  2.3705950E+01
 2.1096750E+01  2.3677845E+01
 2.1108252E+01  2.3658121E+01
 2.1119751E+01  2.3742373E+01
 2.1131250E+01  2.3750616E+01
 2.1142752E+01  2.3698925E+01
 2.1154251E+01  2.3647346E+01
 2.1165751E+01  2.3642893E+01
 2.1177252E+01  2.3668694E+01
 2.1188751E+01  2.3653433E+01
 2.1200251E+01  2.3631096E+01
 2.1211752E+01  2.3632469E+01
 2.1223251E+01  2.3595192E+01
 2.1234751E+01  2.3618746E+01
 2.1246250E+01  2.3662464E+01
 2.1257751E+01  2.3688700E+01
 2.1269251E+01  2.3709520E+01
 2.1280750E+01  2.3716612E+01
 2.1292252E+01  2.3727226E+01
 2.1303751E+01  2.3711773E+01
 2.1315250E+01  2.3717613E+01
 2.1326752E+01  2.3739401E+01
 2.1338251E+01  2.3708488E+01
 2.1349751E+01  2.3724979E+01
 2.1361252E+01  2.3752304E+01
 2.1372751E+01  2.3776340E+01
 2.1384251E+01  2.3676531E+01
 2.1395752E+01  2.3656166E+01
 2.1407251E+01  2.3615622E+01
 2.1418751E+01  2.3620781E+01
 2.1430250E+01  2.3625942E+01
 2.1441751E+01  2.3637188E+01
 2.1453251E+01  2.3635834E+01
 2.1464750E+01  2.3623314E+01
 2.1476252E+01  2.3625767E+01
 2.1487751E+01  2.3694519E+01
 2.1499250E+01  2.3679539E+01
 2.1510752E+01  2.3707748E+01
 2.1522251E+01  2.3725241E+01
 2.1533751E+01  2.3773243E+01
 2.1545252E+01  2.3796833E+01
 2.1556751E+01  2.3815086E+01
 2.1568251E+01  2.3779301E+01
 2.1579752E+01  2.3787441E+01
 2.1591251E+01  2.3828262E+01
 2.1602751E+01  2.3848177E+01
 2.1614250E+01  2.3808989E+01
 2.1625751E+01  2.3829723E+01
 2.1637251E+01  2.3888294E+01
 2.1648750E+01  2.3909046E+01
 2.1660252E+01  2.3924646E+01
 2.1671751E+01  2.3912704E+01
 2.1683250E+01  2.3894377E+01
 2.1694752E+01  2.3866369E+01
 2.1706251E+01  2.3880171E+01
 2.1717751E+01  2.3888653E+01
 2.1729252E+01  2.3892363E+01
 2.1740751E+01  2.3843523E+01
 2.1752251E+01  2.3831568E+01
 2.1763752E+01  2.3853325E+01
 2.1775251E+01  2.3909019E+01
 2.1786751E+01  2.3925980E+01
 2.1798250E+01  2.3938585E+01
 2.1809752E+01  2.3966770E+01
 2.1821251E+01  2.3930126E+01
 2.1832750E+01  2.3912609E+01
 2.1844252E+01  2.3871210E+01
 2.1855751E+01  2.3894211E+01
 2.1867250E+01  2.3970095E+01
 2.1878752E+01  2.4147772E+01
 2.1890251E+01  2.4553869E+01
 2.1901751E+01  2.4622375E+01
 2.1913252E+01  2.4453711E+01
 2.1924751E+01  2.4141371E+01
 2.1936251E+01  2.4029093E+01
 2.1947752E+01  2.3957369E+01
 2.1959251E+01  2.3954597E+01
 2.1970751E+01  2.3909975E+01
 2.1982250E+01  2.3905798E+01
 2.1993752E+01  2.3898235E+01
 2.2005251E+01  2.3895903E+01
 2.2016750E+01  2.3935692E+01
 2.2028252E+01  2.3930483E+01
 2.2039751E+01  2.3944639E+01
 2.2051250E+01  2.3947483E+01
 2.2062752E+01  2.3956028E+01
 2.2074251E+01  2.3958570E+01
 2.2085751E+01  2.3956806E+01
 2.2097252E+01  2.3957163E+01
 2.2108751E+01  2.3926920E+01
 2.2120251E+01  2.4013210E+01
 2.2131752E+01  2.4027496E+01
 2.2143251E+01  2.4102907E+01
 2.2154751E+01  2.4083193E+01
 2.2166250E+01  2.4125956E+01
 2.2177752E+01  2.4111246E+01
 2.2189251E+01  2.4131121E+01
 2.2200750E+01  2.4126524E+01
 2.2212252E+01  2.4106115E+01
 2.2223751E+01  2.4102264E+01
 2.2235250E+01  2.4126198E+01
 2.2246752E+01  2.4155773E+01
 2.2258251E+01  2.4178591E+01
 2.2269751E+01  2.4153267E+01
 2.2281252E+01  2.4167454E+01
 2.2292751E+01  2.4164053E+01
 2.2304251E+01  2.4238146E+01
 2.2315752E+01  2.4220224E+01
 2.2327251E+01  2.4239407E+01
 2.2338751E+01  2.4244301E+01
 2.2350250E+01  2.4284407E+01
 2.2361752E+01  2.4331686E+01
 2.2373251E+01  2.4383698E+01
 2.2384750E+01  2.4419855E+01
 2.2396252E+01  2.4445536E+01
 2.2407751E+01  2.4423702E+01
 2.2419250E+01  2.4433125E+01
 2.2430752E+01  2.4490343E+01
 2.2442251E+01  2.4521990E+01
 2.2453751E+01  2.4511297E+01
 2.2465252E+01  2.4528578E+01
 2.2476751E+01  2.4500509E+01
 2.2488251E+01  2.4477644E+01
 2.2499752E+01  2.4419641E+01
 2.2511251E+01  2.4425970E+01
 2.2522751E+01  2.4448479E+01
 2.2534250E+01  2.4441801E+01
 2.2545752E+01  2.4460400E+01
 2.2557251E+01  2.4469976E+01
 2.2568750E+01  2.4502878E+01
 2.2580252E+01  2.4462355E+01
 2.2591751E+01  2.4480022E+01
 2.2603251E+01  2.4490971E+01
 2.2614752E+01  2.4578302E+01
 2.2626251E+01  2.4628599E+01
 2.2637751E+01  2.4644053E+01
 2.2649252E+01  2.4584730E+01
 2.2660751E+01  2.4550920E+01
 2.2672251E+01  2.4618710E+01
 2.2683752E+01  2.4714975E+01
 2.2695251E+01  2.4816133E+01
 2.2706751E+01  2.4822578E+01
 2.2718250E+01  2.4827282E+01
 2.2729752E+01  2.4835371E+01
 2.2741251E+01  2.4900869E+01
 2.2752750E+01  2.4940697E+01
 2.2764252E+01  2.4988234E+01
 2.2775751E+01  2.5014097E+01
 2.2787251E+01  2.5029860E+01
 2.2798752E+01  2.5057489E+01
 2.2810251E+01  2.5095837E+01
 2.2821751E+01  2.5100512E+01
 2.2833252E+01  2.5135584E+01
 2.2844751E+01  2.5138676E+01
 2.2856251E+01  2.5176239E+01
 2.2867750E+01  2.5239218E+01
 2.2879251E+01  2.5305851E+01
 2.2890751E+01  2.5407452E+01
 2.2902250E+01  2.5462442E+01
 2.2913752E+01  2.5545845E+01
 2.2925251E+01  2.5593300E+01
 2.2936750E+01  2.5630789E+01
 2.2948252E+01  2.5698626E+01
 2.2959751E+01  2.5798012E+01
 2.2971251E+01  2.5953285E+01
 2.2982752E+01  2.5994240E+01
 2.2994251E+01  2.6039524E+01
