F:\20151113_APS_34IDE\\Brian\Particle1\OCV\Data_0038.tif
2-Theta Angle (Degrees)
Intensity
       2000
 5.7500005E-03  0.0000000E+00
 1.7250001E-02  0.0000000E+00
 2.8750001E-02  0.0000000E+00
 4.0250003E-02  0.0000000E+00
 5.1750004E-02  0.0000000E+00
 6.3250005E-02  0.0000000E+00
 7.4750006E-02  0.0000000E+00
 8.6250007E-02  0.0000000E+00
 9.7750008E-02  0.0000000E+00
 1.0925001E-01  0.0000000E+00
 1.2075000E-01  0.0000000E+00
 1.3225001E-01  0.0000000E+00
 1.4375001E-01  0.0000000E+00
 1.5525001E-01  0.0000000E+00
 1.6675001E-01  0.0000000E+00
 1.7825001E-01  0.0000000E+00
 1.8975002E-01  0.0000000E+00
 2.0125002E-01  0.0000000E+00
 2.1275002E-01  0.0000000E+00
 2.2425000E-01  0.0000000E+00
 2.3575000E-01  0.0000000E+00
 2.4725001E-01  0.0000000E+00
 2.5875002E-01  0.0000000E+00
 2.7025002E-01  0.0000000E+00
 2.8175002E-01  0.0000000E+00
 2.9325002E-01  0.0000000E+00
 3.0475003E-01  0.0000000E+00
 3.1625003E-01  0.0000000E+00
 3.2775003E-01  0.0000000E+00
 3.3925003E-01  0.0000000E+00
 3.5075003E-01  0.0000000E+00
 3.6225003E-01  0.0000000E+00
 3.7375003E-01  0.0000000E+00
 3.8525003E-01  0.0000000E+00
 3.9675003E-01  0.0000000E+00
 4.0825003E-01  0.0000000E+00
 4.1975003E-01  0.0000000E+00
 4.3125004E-01  0.0000000E+00
 4.4275001E-01  0.0000000E+00
 4.5425001E-01  0.0000000E+00
 4.6575001E-01  0.0000000E+00
 4.7725001E-01  0.0000000E+00
 4.8875001E-01  0.0000000E+00
 5.0025004E-01  0.0000000E+00
 5.1175004E-01  0.0000000E+00
 5.2325004E-01  0.0000000E+00
 5.3475004E-01  0.0000000E+00
 5.4625005E-01  0.0000000E+00
 5.5775005E-01  0.0000000E+00
 5.6925005E-01  0.0000000E+00
 5.8075005E-01  0.0000000E+00
 5.9225005E-01  0.0000000E+00
 6.0375005E-01  0.0000000E+00
 6.1525005E-01  0.0000000E+00
 6.2675005E-01  0.0000000E+00
 6.3825005E-01  0.0000000E+00
 6.4975005E-01  0.0000000E+00
 6.6125005E-01  0.0000000E+00
 6.7275006E-01  0.0000000E+00
 6.8425006E-01  0.0000000E+00
 6.9575006E-01  0.0000000E+00
 7.0725006E-01  0.0000000E+00
 7.1875006E-01  0.0000000E+00
 7.3025006E-01  0.0000000E+00
 7.4175006E-01  0.0000000E+00
 7.5325006E-01  0.0000000E+00
 7.6475006E-01  0.0000000E+00
 7.7625006E-01  0.0000000E+00
 7.8775007E-01  0.0000000E+00
 7.9925007E-01  0.0000000E+00
 8.1075007E-01  0.0000000E+00
 8.2225007E-01  0.0000000E+00
 8.3375007E-01  0.0000000E+00
 8.4525007E-01  0.0000000E+00
 8.5675007E-01  0.0000000E+00
 8.6825007E-01  0.0000000E+00
 8.7975001E-01  0.0000000E+00
 8.9125001E-01  0.0000000E+00
 9.0275002E-01  0.0000000E+00
 9.1425002E-01  0.0000000E+00
 9.2575002E-01  0.0000000E+00
 9.3725002E-01  0.0000000E+00
 9.4875002E-01  0.0000000E+00
 9.6025002E-01  0.0000000E+00
 9.7175002E-01  0.0000000E+00
 9.8325002E-01  0.0000000E+00
 9.9475002E-01  0.0000000E+00
 1.0062500E+00  0.0000000E+00
 1.0177500E+00  0.0000000E+00
 1.0292500E+00  0.0000000E+00
 1.0407500E+00  0.0000000E+00
 1.0522500E+00  0.0000000E+00
 1.0637500E+00  0.0000000E+00
 1.0752500E+00  0.0000000E+00
 1.0867500E+00  0.0000000E+00
 1.0982500E+00  0.0000000E+00
 1.1097500E+00  0.0000000E+00
 1.1212500E+00  0.0000000E+00
 1.1327500E+00  0.0000000E+00
 1.1442500E+00  0.0000000E+00
 1.1557500E+00  0.0000000E+00
 1.1672500E+00  0.0000000E+00
 1.1787500E+00  0.0000000E+00
 1.1902500E+00  0.0000000E+00
 1.2017500E+00  0.0000000E+00
 1.2132500E+00  0.0000000E+00
 1.2247500E+00  0.0000000E+00
 1.2362500E+00  0.0000000E+00
 1.2477500E+00  0.0000000E+00
 1.2592500E+00  0.0000000E+00
 1.2707500E+00  0.0000000E+00
 1.2822500E+00  0.0000000E+00
 1.2937500E+00  0.0000000E+00
 1.3052500E+00  0.0000000E+00
 1.3167500E+00  0.0000000E+00
 1.3282501E+00  0.0000000E+00
 1.3397501E+00  0.0000000E+00
 1.3512501E+00  0.0000000E+00
 1.3627501E+00  0.0000000E+00
 1.3742501E+00  0.0000000E+00
 1.3857501E+00  0.0000000E+00
 1.3972501E+00  0.0000000E+00
 1.4087501E+00  0.0000000E+00
 1.4202501E+00  0.0000000E+00
 1.4317501E+00  0.0000000E+00
 1.4432501E+00  0.0000000E+00
 1.4547501E+00  0.0000000E+00
 1.4662501E+00  0.0000000E+00
 1.4777501E+00  0.0000000E+00
 1.4892501E+00  0.0000000E+00
 1.5007501E+00  0.0000000E+00
 1.5122501E+00  0.0000000E+00
 1.5237501E+00  0.0000000E+00
 1.5352501E+00  0.0000000E+00
 1.5467501E+00  0.0000000E+00
 1.5582501E+00  0.0000000E+00
 1.5697501E+00  0.0000000E+00
 1.5812501E+00  0.0000000E+00
 1.5927501E+00  0.0000000E+00
 1.6042501E+00  0.0000000E+00
 1.6157501E+00  0.0000000E+00
 1.6272501E+00  0.0000000E+00
 1.6387501E+00  0.0000000E+00
 1.6502501E+00  0.0000000E+00
 1.6617501E+00  0.0000000E+00
 1.6732501E+00  0.0000000E+00
 1.6847501E+00  0.0000000E+00
 1.6962501E+00  0.0000000E+00
 1.7077501E+00  0.0000000E+00
 1.7192501E+00  0.0000000E+00
 1.7307501E+00  0.0000000E+00
 1.7422501E+00  0.0000000E+00
 1.7537501E+00  0.0000000E+00
 1.7652501E+00  0.0000000E+00
 1.7767501E+00  0.0000000E+00
 1.7882501E+00  0.0000000E+00
 1.7997501E+00  0.0000000E+00
 1.8112501E+00  0.0000000E+00
 1.8227501E+00  0.0000000E+00
 1.8342501E+00  0.0000000E+00
 1.8457501E+00  0.0000000E+00
 1.8572501E+00  0.0000000E+00
 1.8687501E+00  0.0000000E+00
 1.8802501E+00  0.0000000E+00
 1.8917501E+00  0.0000000E+00
 1.9032501E+00  0.0000000E+00
 1.9147501E+00  0.0000000E+00
 1.9262501E+00  0.0000000E+00
 1.9377501E+00  0.0000000E+00
 1.9492501E+00  0.0000000E+00
 1.9607501E+00  0.0000000E+00
 1.9722501E+00  0.0000000E+00
 1.9837501E+00  0.0000000E+00
 1.9952501E+00  0.0000000E+00
 2.0067501E+00  0.0000000E+00
 2.0182500E+00  0.0000000E+00
 2.0297501E+00  0.0000000E+00
 2.0412500E+00  0.0000000E+00
 2.0527501E+00  0.0000000E+00
 2.0642500E+00  0.0000000E+00
 2.0757501E+00  0.0000000E+00
 2.0872500E+00  0.0000000E+00
 2.0987501E+00  0.0000000E+00
 2.1102500E+00  0.0000000E+00
 2.1217501E+00  0.0000000E+00
 2.1332500E+00  0.0000000E+00
 2.1447501E+00  0.0000000E+00
 2.1562500E+00  0.0000000E+00
 2.1677501E+00  0.0000000E+00
 2.1792500E+00  0.0000000E+00
 2.1907501E+00  0.0000000E+00
 2.2022500E+00  0.0000000E+00
 2.2137501E+00  0.0000000E+00
 2.2252500E+00  0.0000000E+00
 2.2367501E+00  0.0000000E+00
 2.2482500E+00  0.0000000E+00
 2.2597501E+00  0.0000000E+00
 2.2712500E+00  0.0000000E+00
 2.2827501E+00  0.0000000E+00
 2.2942500E+00  0.0000000E+00
 2.3057501E+00  0.0000000E+00
 2.3172500E+00  0.0000000E+00
 2.3287501E+00  0.0000000E+00
 2.3402500E+00  0.0000000E+00
 2.3517501E+00  0.0000000E+00
 2.3632500E+00  0.0000000E+00
 2.3747501E+00  0.0000000E+00
 2.3862500E+00  0.0000000E+00
 2.3977501E+00  0.0000000E+00
 2.4092500E+00  0.0000000E+00
 2.4207501E+00  0.0000000E+00
 2.4322500E+00  0.0000000E+00
 2.4437501E+00  0.0000000E+00
 2.4552500E+00  0.0000000E+00
 2.4667501E+00  0.0000000E+00
 2.4782500E+00  0.0000000E+00
 2.4897501E+00  0.0000000E+00
 2.5012500E+00  0.0000000E+00
 2.5127501E+00  0.0000000E+00
 2.5242500E+00  0.0000000E+00
 2.5357502E+00  0.0000000E+00
 2.5472500E+00  0.0000000E+00
 2.5587502E+00  0.0000000E+00
 2.5702500E+00  0.0000000E+00
 2.5817502E+00  0.0000000E+00
 2.5932500E+00  0.0000000E+00
 2.6047502E+00  0.0000000E+00
 2.6162500E+00  0.0000000E+00
 2.6277502E+00  0.0000000E+00
 2.6392500E+00  0.0000000E+00
 2.6507502E+00  0.0000000E+00
 2.6622500E+00  0.0000000E+00
 2.6737502E+00  0.0000000E+00
 2.6852500E+00  0.0000000E+00
 2.6967502E+00  0.0000000E+00
 2.7082500E+00  0.0000000E+00
 2.7197502E+00  0.0000000E+00
 2.7312500E+00  0.0000000E+00
 2.7427502E+00  0.0000000E+00
 2.7542500E+00  0.0000000E+00
 2.7657502E+00  0.0000000E+00
 2.7772501E+00  0.0000000E+00
 2.7887502E+00  0.0000000E+00
 2.8002501E+00  0.0000000E+00
 2.8117502E+00  0.0000000E+00
 2.8232501E+00  3.5508904E+01
 2.8347502E+00  3.4924980E+01
 2.8462501E+00  3.5097488E+01
 2.8577502E+00  3.4822807E+01
 2.8692501E+00  3.4245018E+01
 2.8807502E+00  3.3824024E+01
 2.8922501E+00  3.3738480E+01
 2.9037502E+00  3.4079941E+01
 2.9152501E+00  3.4780823E+01
 2.9267502E+00  3.5421082E+01
 2.9382501E+00  3.5478226E+01
 2.9497502E+00  3.5419800E+01
 2.9612501E+00  3.5174301E+01
 2.9727502E+00  3.5219994E+01
 2.9842501E+00  3.5511047E+01
 2.9957502E+00  3.5625858E+01
 3.0072501E+00  3.6051411E+01
 3.0187502E+00  3.6159092E+01
 3.0302501E+00  3.6188721E+01
 3.0417502E+00  3.6191257E+01
 3.0532501E+00  3.5809086E+01
 3.0647502E+00  3.5422447E+01
 3.0762501E+00  3.4954399E+01
 3.0877502E+00  3.5065529E+01
 3.0992501E+00  3.5179703E+01
 3.1107502E+00  3.5320526E+01
 3.1222501E+00  3.5334560E+01
 3.1337502E+00  3.5329994E+01
 3.1452501E+00  3.5390915E+01
 3.1567502E+00  3.5169853E+01
 3.1682501E+00  3.5279938E+01
 3.1797502E+00  3.5509987E+01
 3.1912501E+00  3.5705261E+01
 3.2027502E+00  3.6137287E+01
 3.2142501E+00  3.6158501E+01
 3.2257502E+00  3.6218105E+01
 3.2372501E+00  3.5942757E+01
 3.2487502E+00  3.5711056E+01
 3.2602501E+00  3.5660427E+01
 3.2717502E+00  3.5252209E+01
 3.2832501E+00  3.5040821E+01
 3.2947502E+00  3.4624935E+01
 3.3062501E+00  3.4320351E+01
 3.3177502E+00  3.4133545E+01
 3.3292501E+00  3.4073292E+01
 3.3407502E+00  3.4296909E+01
 3.3522501E+00  3.3934296E+01
 3.3637502E+00  3.3835522E+01
 3.3752501E+00  3.3440666E+01
 3.3867502E+00  3.3577217E+01
 3.3982501E+00  3.3760532E+01
 3.4097502E+00  3.3818558E+01
 3.4212501E+00  3.3938660E+01
 3.4327502E+00  3.3700085E+01
 3.4442501E+00  3.3583618E+01
 3.4557502E+00  3.3610020E+01
 3.4672501E+00  3.3584270E+01
 3.4787502E+00  3.3898380E+01
 3.4902501E+00  3.4164196E+01
 3.5017502E+00  3.4344952E+01
 3.5132501E+00  3.4453140E+01
 3.5247502E+00  3.4420132E+01
 3.5362501E+00  3.4368912E+01
 3.5477502E+00  3.4224224E+01
 3.5592501E+00  3.3850468E+01
 3.5707502E+00  3.3783901E+01
 3.5822501E+00  3.3630371E+01
 3.5937502E+00  3.3492260E+01
 3.6052501E+00  3.3450378E+01
 3.6167502E+00  3.3472012E+01
 3.6282501E+00  3.3473114E+01
 3.6397502E+00  3.3193378E+01
 3.6512501E+00  3.2859051E+01
 3.6627502E+00  3.2757641E+01
 3.6742501E+00  3.2554340E+01
 3.6857502E+00  3.2601482E+01
 3.6972501E+00  3.2518414E+01
 3.7087502E+00  3.2584492E+01
 3.7202501E+00  3.2426155E+01
 3.7317502E+00  3.2242695E+01
 3.7432501E+00  3.2423244E+01
 3.7547503E+00  3.2648212E+01
 3.7662501E+00  3.2854992E+01
 3.7777503E+00  3.3060692E+01
 3.7892501E+00  3.2971767E+01
 3.8007503E+00  3.2870228E+01
 3.8122501E+00  3.2799419E+01
 3.8237503E+00  3.2698242E+01
 3.8352501E+00  3.2629200E+01
 3.8467503E+00  3.2408768E+01
 3.8582501E+00  3.2389275E+01
 3.8697503E+00  3.2582821E+01
 3.8812501E+00  3.2513226E+01
 3.8927503E+00  3.2357380E+01
 3.9042501E+00  3.2107395E+01
 3.9157503E+00  3.1929081E+01
 3.9272501E+00  3.2007442E+01
 3.9387503E+00  3.2135105E+01
 3.9502501E+00  3.2402325E+01
 3.9617503E+00  3.2481392E+01
 3.9732502E+00  3.2497009E+01
 3.9847503E+00  3.2543034E+01
 3.9962502E+00  3.2627472E+01
 4.0077500E+00  3.2817242E+01
 4.0192504E+00  3.2717781E+01
 4.0307503E+00  3.2586906E+01
 4.0422502E+00  3.2393711E+01
 4.0537500E+00  3.2266464E+01
 4.0652504E+00  3.2190517E+01
 4.0767503E+00  3.2223495E+01
 4.0882502E+00  3.2340809E+01
 4.0997500E+00  3.2323387E+01
 4.1112504E+00  3.2262569E+01
 4.1227503E+00  3.2162098E+01
 4.1342502E+00  3.2128681E+01
 4.1457500E+00  3.2243755E+01
 4.1572504E+00  3.2067894E+01
 4.1687503E+00  3.2072445E+01
 4.1802502E+00  3.1916161E+01
 4.1917500E+00  3.2046181E+01
 4.2032504E+00  3.2093307E+01
 4.2147503E+00  3.2061714E+01
 4.2262502E+00  3.2118061E+01
 4.2377501E+00  3.2194668E+01
 4.2492504E+00  3.2305500E+01
 4.2607503E+00  3.2449898E+01
 4.2722502E+00  3.2473141E+01
 4.2837501E+00  3.2492104E+01
 4.2952504E+00  3.2489285E+01
 4.3067503E+00  3.2464504E+01
 4.3182502E+00  3.2348202E+01
 4.3297501E+00  3.2081154E+01
 4.3412504E+00  3.2124912E+01
 4.3527503E+00  3.2040924E+01
 4.3642502E+00  3.2019089E+01
 4.3757501E+00  3.1868420E+01
 4.3872504E+00  3.1842590E+01
 4.3987503E+00  3.1935532E+01
 4.4102502E+00  3.1959562E+01
 4.4217501E+00  3.2016743E+01
 4.4332504E+00  3.2036842E+01
 4.4447503E+00  3.2085880E+01
 4.4562502E+00  3.2261723E+01
 4.4677501E+00  3.2392532E+01
 4.4792504E+00  3.2529694E+01
 4.4907503E+00  3.2561134E+01
 4.5022502E+00  3.2643749E+01
 4.5137501E+00  3.2655388E+01
 4.5252504E+00  3.2642319E+01
 4.5367503E+00  3.2615898E+01
 4.5482502E+00  3.2600632E+01
 4.5597501E+00  3.2547367E+01
 4.5712504E+00  3.2590408E+01
 4.5827503E+00  3.2610931E+01
 4.5942502E+00  3.2614864E+01
 4.6057501E+00  3.2454300E+01
 4.6172504E+00  3.2372578E+01
 4.6287503E+00  3.2352234E+01
 4.6402502E+00  3.2516697E+01
 4.6517501E+00  3.2599438E+01
 4.6632504E+00  3.2606739E+01
 4.6747503E+00  3.2657253E+01
 4.6862502E+00  3.2526291E+01
 4.6977501E+00  3.2507343E+01
 4.7092505E+00  3.2428658E+01
 4.7207503E+00  3.2341431E+01
 4.7322502E+00  3.2230930E+01
 4.7437501E+00  3.1997580E+01
 4.7552505E+00  3.2010208E+01
 4.7667503E+00  3.2099312E+01
 4.7782502E+00  3.2198769E+01
 4.7897501E+00  3.2141644E+01
 4.8012505E+00  3.2165813E+01
 4.8127503E+00  3.2204662E+01
 4.8242502E+00  3.2311443E+01
 4.8357501E+00  3.2309441E+01
 4.8472505E+00  3.2488388E+01
 4.8587503E+00  3.2578568E+01
 4.8702502E+00  3.2539051E+01
 4.8817501E+00  3.2470619E+01
 4.8932505E+00  3.2469082E+01
 4.9047503E+00  3.2552399E+01
 4.9162502E+00  3.2544140E+01
 4.9277501E+00  3.2395950E+01
 4.9392505E+00  3.2475128E+01
 4.9507504E+00  3.2489670E+01
 4.9622502E+00  3.2659790E+01
 4.9737501E+00  3.2792168E+01
 4.9852505E+00  3.2760735E+01
 4.9967504E+00  3.2780102E+01
 5.0082502E+00  3.2703079E+01
 5.0197501E+00  3.2704826E+01
 5.0312505E+00  3.2781273E+01
 5.0427504E+00  3.2831097E+01
 5.0542502E+00  3.2954189E+01
 5.0657501E+00  3.3052307E+01
 5.0772505E+00  3.3064484E+01
 5.0887504E+00  3.3075016E+01
 5.1002502E+00  3.3128742E+01
 5.1117501E+00  3.3132656E+01
 5.1232505E+00  3.3171879E+01
 5.1347504E+00  3.3201881E+01
 5.1462502E+00  3.3248165E+01
 5.1577501E+00  3.3267498E+01
 5.1692505E+00  3.3310852E+01
 5.1807504E+00  3.3288811E+01
 5.1922503E+00  3.3349907E+01
 5.2037501E+00  3.3323822E+01
 5.2152505E+00  3.3474274E+01
 5.2267504E+00  3.3519947E+01
 5.2382503E+00  3.3695534E+01
 5.2497501E+00  3.3775875E+01
 5.2612505E+00  3.3873482E+01
 5.2727504E+00  3.3890892E+01
 5.2842503E+00  3.3871281E+01
 5.2957501E+00  3.3881561E+01
 5.3072500E+00  3.3799477E+01
 5.3187504E+00  3.3828270E+01
 5.3302503E+00  3.3805584E+01
 5.3417501E+00  3.3952351E+01
 5.3532500E+00  3.3998291E+01
 5.3647504E+00  3.4167690E+01
 5.3762503E+00  3.4329479E+01
 5.3877501E+00  3.4394688E+01
 5.3992500E+00  3.4410374E+01
 5.4107504E+00  3.4289059E+01
 5.4222503E+00  3.4274982E+01
 5.4337502E+00  3.4218750E+01
 5.4452500E+00  3.4289906E+01
 5.4567504E+00  3.4325043E+01
 5.4682503E+00  3.4390865E+01
 5.4797502E+00  3.4453182E+01
 5.4912500E+00  3.4399014E+01
 5.5027504E+00  3.4422230E+01
 5.5142503E+00  3.4340240E+01
 5.5257502E+00  3.4296711E+01
 5.5372500E+00  3.4314777E+01
 5.5487504E+00  3.4438702E+01
 5.5602503E+00  3.4672001E+01
 5.5717502E+00  3.4849449E+01
 5.5832500E+00  3.5083782E+01
 5.5947504E+00  3.5160255E+01
 5.6062503E+00  3.5317223E+01
 5.6177502E+00  3.5279148E+01
 5.6292500E+00  3.5386406E+01
 5.6407504E+00  3.5336540E+01
 5.6522503E+00  3.5417599E+01
 5.6637502E+00  3.5367363E+01
 5.6752501E+00  3.5357647E+01
 5.6867504E+00  3.5334641E+01
 5.6982503E+00  3.5489674E+01
 5.7097502E+00  3.5614616E+01
 5.7212501E+00  3.5737984E+01
 5.7327504E+00  3.5697346E+01
 5.7442503E+00  3.5726025E+01
 5.7557502E+00  3.5828564E+01
 5.7672501E+00  3.5932632E+01
 5.7787504E+00  3.6105751E+01
 5.7902503E+00  3.6274250E+01
 5.8017502E+00  3.6360912E+01
 5.8132501E+00  3.6460426E+01
 5.8247504E+00  3.6530796E+01
 5.8362503E+00  3.6676262E+01
 5.8477502E+00  3.6939175E+01
 5.8592501E+00  3.7119770E+01
 5.8707504E+00  3.7586182E+01
 5.8822503E+00  3.8126617E+01
 5.8937502E+00  3.9430267E+01
 5.9052501E+00  4.0568520E+01
 5.9167504E+00  4.3632320E+01
 5.9282503E+00  4.8231102E+01
 5.9397502E+00  5.3611790E+01
 5.9512501E+00  6.2019993E+01
 5.9627504E+00  7.0758606E+01
 5.9742503E+00  7.7267708E+01
 5.9857502E+00  8.5621429E+01
 5.9972501E+00  8.1228737E+01
 6.0087504E+00  7.7530182E+01
 6.0202503E+00  6.3446545E+01
 6.0317502E+00  5.4784683E+01
 6.0432501E+00  4.8332726E+01
 6.0547504E+00  4.3157230E+01
 6.0662503E+00  4.1040157E+01
 6.0777502E+00  3.9302689E+01
 6.0892501E+00  3.8464367E+01
 6.1007504E+00  3.8093544E+01
 6.1122503E+00  3.7768333E+01
 6.1237502E+00  3.7610680E+01
 6.1352501E+00  3.7533031E+01
 6.1467505E+00  3.7468567E+01
 6.1582503E+00  3.7563656E+01
 6.1697502E+00  3.7542709E+01
 6.1812501E+00  3.7638832E+01
 6.1927505E+00  3.7652515E+01
 6.2042503E+00  3.7635830E+01
 6.2157502E+00  3.7487835E+01
 6.2272501E+00  3.7530094E+01
 6.2387505E+00  3.7538586E+01
 6.2502503E+00  3.7631229E+01
 6.2617502E+00  3.7605564E+01
 6.2732501E+00  3.7700787E+01
 6.2847505E+00  3.7764217E+01
 6.2962503E+00  3.7776726E+01
 6.3077502E+00  3.7690159E+01
 6.3192501E+00  3.7740528E+01
 6.3307505E+00  3.7756516E+01
 6.3422503E+00  3.7849083E+01
 6.3537502E+00  3.7946167E+01
 6.3652501E+00  3.8123165E+01
 6.3767505E+00  3.8183384E+01
 6.3882504E+00  3.8169617E+01
 6.3997502E+00  3.8147690E+01
 6.4112501E+00  3.8196415E+01
 6.4227505E+00  3.8238491E+01
 6.4342504E+00  3.8252674E+01
 6.4457502E+00  3.8361244E+01
 6.4572501E+00  3.8409504E+01
 6.4687505E+00  3.8569157E+01
 6.4802504E+00  3.8557686E+01
 6.4917502E+00  3.8645729E+01
 6.5032501E+00  3.8783585E+01
 6.5147505E+00  3.8911877E+01
 6.5262504E+00  3.8923019E+01
 6.5377502E+00  3.8916931E+01
 6.5492501E+00  3.8984570E+01
 6.5607505E+00  3.9066299E+01
 6.5722504E+00  3.9139954E+01
 6.5837502E+00  3.9190155E+01
 6.5952501E+00  3.9323277E+01
 6.6067505E+00  3.9521416E+01
 6.6182504E+00  3.9610279E+01
 6.6297503E+00  3.9853596E+01
 6.6412501E+00  3.9886181E+01
 6.6527505E+00  4.0021713E+01
 6.6642504E+00  4.0037140E+01
 6.6757503E+00  4.0081158E+01
 6.6872501E+00  4.0115990E+01
 6.6987505E+00  4.0227825E+01
 6.7102504E+00  4.0304443E+01
 6.7217503E+00  4.0402977E+01
 6.7332501E+00  4.0434181E+01
 6.7447505E+00  4.0436928E+01
 6.7562504E+00  4.0553539E+01
 6.7677503E+00  4.0533604E+01
 6.7792501E+00  4.0661301E+01
 6.7907505E+00  4.0669846E+01
 6.8022504E+00  4.0814060E+01
 6.8137503E+00  4.0883957E+01
 6.8252501E+00  4.0979542E+01
 6.8367505E+00  4.1091206E+01
 6.8482504E+00  4.1224735E+01
 6.8597503E+00  4.1386055E+01
 6.8712502E+00  4.1484344E+01
 6.8827505E+00  4.1603970E+01
 6.8942504E+00  4.1566624E+01
 6.9057503E+00  4.1566799E+01
 6.9172502E+00  4.1573097E+01
 6.9287505E+00  4.1679382E+01
 6.9402504E+00  4.1861820E+01
 6.9517503E+00  4.2000965E+01
 6.9632502E+00  4.2173500E+01
 6.9747505E+00  4.2286110E+01
 6.9862504E+00  4.2284569E+01
 6.9977503E+00  4.2260403E+01
 7.0092502E+00  4.2170116E+01
 7.0207505E+00  4.2197994E+01
 7.0322504E+00  4.2213997E+01
 7.0437503E+00  4.2273003E+01
 7.0552502E+00  4.2337280E+01
 7.0667505E+00  4.2448582E+01
 7.0782504E+00  4.2502464E+01
 7.0897503E+00  4.2666183E+01
 7.1012502E+00  4.2731617E+01
 7.1127505E+00  4.2845242E+01
 7.1242504E+00  4.2797829E+01
 7.1357503E+00  4.2782036E+01
 7.1472502E+00  4.2757263E+01
 7.1587505E+00  4.2788578E+01
 7.1702504E+00  4.2875755E+01
 7.1817503E+00  4.3055550E+01
 7.1932502E+00  4.3277126E+01
 7.2047505E+00  4.3446484E+01
 7.2162504E+00  4.3449467E+01
 7.2277503E+00  4.3415115E+01
 7.2392502E+00  4.3343716E+01
 7.2507505E+00  4.3378563E+01
 7.2622504E+00  4.3312477E+01
 7.2737503E+00  4.3307518E+01
 7.2852502E+00  4.3274471E+01
 7.2967505E+00  4.3329716E+01
 7.3082504E+00  4.3378407E+01
 7.3197503E+00  4.3483883E+01
 7.3312502E+00  4.3559052E+01
 7.3427505E+00  4.3635262E+01
 7.3542504E+00  4.3697647E+01
 7.3657503E+00  4.3699104E+01
 7.3772502E+00  4.3723194E+01
 7.3887506E+00  4.3717392E+01
 7.4002504E+00  4.3781246E+01
 7.4117503E+00  4.3850899E+01
 7.4232502E+00  4.3839031E+01
 7.4347506E+00  4.3810474E+01
 7.4462504E+00  4.3860859E+01
 7.4577503E+00  4.3861153E+01
 7.4692502E+00  4.3841358E+01
 7.4807506E+00  4.3828236E+01
 7.4922504E+00  4.3937244E+01
 7.5037503E+00  4.4096252E+01
 7.5152502E+00  4.4216213E+01
 7.5267506E+00  4.4194328E+01
 7.5382504E+00  4.4203606E+01
 7.5497503E+00  4.4025272E+01
 7.5612502E+00  4.4049900E+01
 7.5727506E+00  4.4004162E+01
 7.5842505E+00  4.4090611E+01
 7.5957503E+00  4.4178925E+01
 7.6072502E+00  4.4252010E+01
 7.6187506E+00  4.4252201E+01
 7.6302505E+00  4.4187881E+01
 7.6417503E+00  4.4133881E+01
 7.6532502E+00  4.4120033E+01
 7.6647506E+00  4.4064644E+01
 7.6762505E+00  4.4094780E+01
 7.6877503E+00  4.4108292E+01
 7.6992502E+00  4.4180023E+01
 7.7107506E+00  4.4234581E+01
 7.7222505E+00  4.4364437E+01
 7.7337503E+00  4.4306889E+01
 7.7452502E+00  4.4240292E+01
 7.7567506E+00  4.4027428E+01
 7.7682505E+00  4.3965740E+01
 7.7797503E+00  4.3931885E+01
 7.7912502E+00  4.3944138E+01
 7.8027506E+00  4.3797623E+01
 7.8142505E+00  4.3684334E+01
 7.8257504E+00  4.3610535E+01
 7.8372502E+00  4.3746399E+01
 7.8487506E+00  4.3774605E+01
 7.8602505E+00  4.3809273E+01
 7.8717504E+00  4.3741665E+01
 7.8832502E+00  4.3679417E+01
 7.8947506E+00  4.3597248E+01
 7.9062505E+00  4.3536751E+01
 7.9177504E+00  4.3568451E+01
 7.9292502E+00  4.3516361E+01
 7.9407506E+00  4.3545403E+01
 7.9522505E+00  4.3381130E+01
 7.9637504E+00  4.3242470E+01
 7.9752502E+00  4.3147968E+01
 7.9867506E+00  4.3159534E+01
 7.9982505E+00  4.3269497E+01
 8.0097504E+00  4.3248043E+01
 8.0212507E+00  4.3202301E+01
 8.0327501E+00  4.3131237E+01
 8.0442505E+00  4.3150951E+01
 8.0557508E+00  4.2965492E+01
 8.0672503E+00  4.2873440E+01
 8.0787506E+00  4.2655281E+01
 8.0902500E+00  4.2732464E+01
 8.1017504E+00  4.2573082E+01
 8.1132507E+00  4.2568275E+01
 8.1247501E+00  4.2432468E+01
 8.1362505E+00  4.2413097E+01
 8.1477509E+00  4.2307556E+01
 8.1592503E+00  4.2214279E+01
 8.1707506E+00  4.2145279E+01
 8.1822500E+00  4.1971397E+01
 8.1937504E+00  4.1888371E+01
 8.2052507E+00  4.1733990E+01
 8.2167501E+00  4.1632053E+01
 8.2282505E+00  4.1507511E+01
 8.2397509E+00  4.1447273E+01
 8.2512503E+00  4.1330746E+01
 8.2627506E+00  4.1235367E+01
 8.2742500E+00  4.1061821E+01
 8.2857504E+00  4.0936687E+01
 8.2972507E+00  4.0691895E+01
 8.3087502E+00  4.0462170E+01
 8.3202505E+00  4.0296566E+01
 8.3317509E+00  4.0057655E+01
 8.3432503E+00  3.9955059E+01
 8.3547506E+00  3.9787628E+01
 8.3662500E+00  3.9831665E+01
 8.3777504E+00  3.9683128E+01
 8.3892508E+00  3.9584061E+01
 8.4007502E+00  3.9398174E+01
 8.4122505E+00  3.9263599E+01
 8.4237509E+00  3.9100655E+01
 8.4352503E+00  3.8811066E+01
 8.4467506E+00  3.8654835E+01
 8.4582500E+00  3.8435410E+01
 8.4697504E+00  3.8403755E+01
 8.4812508E+00  3.8192177E+01
 8.4927502E+00  3.8110630E+01
 8.5042505E+00  3.7849556E+01
 8.5157509E+00  3.7759903E+01
 8.5272503E+00  3.7613289E+01
 8.5387506E+00  3.7570019E+01
 8.5502501E+00  3.7304836E+01
 8.5617504E+00  3.7043289E+01
 8.5732508E+00  3.6770000E+01
 8.5847502E+00  3.6559456E+01
 8.5962505E+00  3.6411343E+01
 8.6077509E+00  3.6161980E+01
 8.6192503E+00  3.6059105E+01
 8.6307507E+00  3.5872089E+01
 8.6422501E+00  3.5701103E+01
 8.6537504E+00  3.5431095E+01
 8.6652508E+00  3.5179253E+01
 8.6767502E+00  3.5042873E+01
 8.6882505E+00  3.4993332E+01
 8.6997509E+00  3.4942963E+01
 8.7112503E+00  3.4844673E+01
 8.7227507E+00  3.4707844E+01
 8.7342501E+00  3.4490238E+01
 8.7457504E+00  3.4228271E+01
 8.7572508E+00  3.3966625E+01
 8.7687502E+00  3.3779083E+01
 8.7802505E+00  3.3678635E+01
 8.7917500E+00  3.3581360E+01
 8.8032503E+00  3.3509117E+01
 8.8147507E+00  3.3411957E+01
 8.8262501E+00  3.3293812E+01
 8.8377504E+00  3.3111794E+01
 8.8492508E+00  3.2933483E+01
 8.8607502E+00  3.2752293E+01
 8.8722506E+00  3.2547718E+01
 8.8837500E+00  3.2309978E+01
 8.8952503E+00  3.2068645E+01
 8.9067507E+00  3.1899979E+01
 8.9182501E+00  3.1734463E+01
 8.9297504E+00  3.1606087E+01
 8.9412508E+00  3.1416540E+01
 8.9527502E+00  3.1282755E+01
 8.9642506E+00  3.1121626E+01
 8.9757500E+00  3.1054544E+01
 8.9872503E+00  3.0985727E+01
 8.9987507E+00  3.0848555E+01
 9.0102501E+00  3.0630220E+01
 9.0217505E+00  3.0465168E+01
 9.0332508E+00  3.0413031E+01
 9.0447502E+00  3.0385582E+01
 9.0562506E+00  3.0237680E+01
 9.0677500E+00  3.0134073E+01
 9.0792503E+00  2.9993111E+01
 9.0907507E+00  2.9893091E+01
 9.1022501E+00  2.9779972E+01
 9.1137505E+00  2.9722830E+01
 9.1252508E+00  2.9630251E+01
 9.1367502E+00  2.9536999E+01
 9.1482506E+00  2.9428360E+01
 9.1597500E+00  2.9315628E+01
 9.1712503E+00  2.9226254E+01
 9.1827507E+00  2.9094358E+01
 9.1942501E+00  2.8931799E+01
 9.2057505E+00  2.8698500E+01
 9.2172508E+00  2.8591806E+01
 9.2287502E+00  2.8429472E+01
 9.2402506E+00  2.8309271E+01
 9.2517500E+00  2.8136412E+01
 9.2632504E+00  2.8084707E+01
 9.2747507E+00  2.7974527E+01
 9.2862501E+00  2.7870628E+01
 9.2977505E+00  2.7818991E+01
 9.3092508E+00  2.7847002E+01
 9.3207502E+00  2.7782808E+01
 9.3322506E+00  2.7721111E+01
 9.3437500E+00  2.7574678E+01
 9.3552504E+00  2.7505842E+01
 9.3667507E+00  2.7384459E+01
 9.3782501E+00  2.7332525E+01
 9.3897505E+00  2.7257196E+01
 9.4012508E+00  2.7205143E+01
 9.4127502E+00  2.7087185E+01
 9.4242506E+00  2.7008928E+01
 9.4357500E+00  2.6881929E+01
 9.4472504E+00  2.6820705E+01
 9.4587507E+00  2.6730709E+01
 9.4702501E+00  2.6674959E+01
 9.4817505E+00  2.6692261E+01
 9.4932508E+00  2.6591946E+01
 9.5047503E+00  2.6527498E+01
 9.5162506E+00  2.6399483E+01
 9.5277500E+00  2.6321770E+01
 9.5392504E+00  2.6299601E+01
 9.5507507E+00  2.6250067E+01
 9.5622501E+00  2.6248451E+01
 9.5737505E+00  2.6156252E+01
 9.5852509E+00  2.6030499E+01
 9.5967503E+00  2.5974607E+01
 9.6082506E+00  2.5894506E+01
 9.6197500E+00  2.5901031E+01
 9.6312504E+00  2.5869150E+01
 9.6427507E+00  2.5803875E+01
 9.6542501E+00  2.5735920E+01
 9.6657505E+00  2.5677027E+01
 9.6772509E+00  2.5633024E+01
 9.6887503E+00  2.5589851E+01
 9.7002506E+00  2.5488592E+01
 9.7117500E+00  2.5475227E+01
 9.7232504E+00  2.5432371E+01
 9.7347507E+00  2.5368240E+01
 9.7462502E+00  2.5302322E+01
 9.7577505E+00  2.5191877E+01
 9.7692509E+00  2.5172682E+01
 9.7807503E+00  2.5080219E+01
 9.7922506E+00  2.5041487E+01
 9.8037500E+00  2.5019823E+01
 9.8152504E+00  2.5019480E+01
 9.8267508E+00  2.4994852E+01
 9.8382502E+00  2.4937529E+01
 9.8497505E+00  2.4879866E+01
 9.8612509E+00  2.4831053E+01
 9.8727503E+00  2.4728163E+01
 9.8842506E+00  2.4661249E+01
 9.8957500E+00  2.4602777E+01
 9.9072504E+00  2.4598722E+01
 9.9187508E+00  2.4661734E+01
 9.9302502E+00  2.4689039E+01
 9.9417505E+00  2.4726313E+01
 9.9532509E+00  2.4651249E+01
 9.9647503E+00  2.4585735E+01
 9.9762506E+00  2.4523319E+01
 9.9877501E+00  2.4507013E+01
 9.9992504E+00  2.4492971E+01
 1.0010751E+01  2.4466352E+01
 1.0022250E+01  2.4437426E+01
 1.0033751E+01  2.4433199E+01
 1.0045251E+01  2.4396650E+01
 1.0056750E+01  2.4374170E+01
 1.0068251E+01  2.4321428E+01
 1.0079750E+01  2.4288315E+01
 1.0091250E+01  2.4188299E+01
 1.0102751E+01  2.4113647E+01
 1.0114250E+01  2.4054893E+01
 1.0125751E+01  2.4024218E+01
 1.0137251E+01  2.3986826E+01
 1.0148750E+01  2.4009800E+01
 1.0160251E+01  2.3991192E+01
 1.0171750E+01  2.3997189E+01
 1.0183250E+01  2.3919353E+01
 1.0194751E+01  2.3884249E+01
 1.0206250E+01  2.3855812E+01
 1.0217751E+01  2.3842922E+01
 1.0229251E+01  2.3827251E+01
 1.0240750E+01  2.3822716E+01
 1.0252251E+01  2.3804356E+01
 1.0263750E+01  2.3772791E+01
 1.0275250E+01  2.3762051E+01
 1.0286751E+01  2.3778004E+01
 1.0298250E+01  2.3804674E+01
 1.0309751E+01  2.3764301E+01
 1.0321251E+01  2.3692024E+01
 1.0332750E+01  2.3651218E+01
 1.0344251E+01  2.3603971E+01
 1.0355750E+01  2.3595943E+01
 1.0367250E+01  2.3589371E+01
 1.0378751E+01  2.3598909E+01
 1.0390250E+01  2.3668882E+01
 1.0401751E+01  2.3670898E+01
 1.0413251E+01  2.3681971E+01
 1.0424750E+01  2.3636566E+01
 1.0436251E+01  2.3654642E+01
 1.0447750E+01  2.3644791E+01
 1.0459250E+01  2.3564543E+01
 1.0470751E+01  2.3467541E+01
 1.0482250E+01  2.3418070E+01
 1.0493751E+01  2.3430464E+01
 1.0505251E+01  2.3413010E+01
 1.0516750E+01  2.3418762E+01
 1.0528251E+01  2.3365240E+01
 1.0539750E+01  2.3348337E+01
 1.0551250E+01  2.3250446E+01
 1.0562751E+01  2.3214748E+01
 1.0574250E+01  2.3141914E+01
 1.0585751E+01  2.3106112E+01
 1.0597251E+01  2.3076057E+01
 1.0608750E+01  2.3088732E+01
 1.0620251E+01  2.3131983E+01
 1.0631750E+01  2.3183950E+01
 1.0643250E+01  2.3244240E+01
 1.0654751E+01  2.3262569E+01
 1.0666250E+01  2.3267340E+01
 1.0677751E+01  2.3205366E+01
 1.0689251E+01  2.3141628E+01
 1.0700750E+01  2.3153099E+01
 1.0712251E+01  2.3147610E+01
 1.0723750E+01  2.3229126E+01
 1.0735250E+01  2.3147717E+01
 1.0746751E+01  2.3141397E+01
 1.0758250E+01  2.3060501E+01
 1.0769751E+01  2.3037767E+01
 1.0781251E+01  2.3010141E+01
 1.0792750E+01  2.2961674E+01
 1.0804251E+01  2.2950840E+01
 1.0815750E+01  2.2924829E+01
 1.0827250E+01  2.2967495E+01
 1.0838751E+01  2.2932112E+01
 1.0850250E+01  2.2961956E+01
 1.0861751E+01  2.2924759E+01
 1.0873251E+01  2.2969122E+01
 1.0884750E+01  2.2959312E+01
 1.0896251E+01  2.2955009E+01
 1.0907750E+01  2.2975946E+01
 1.0919250E+01  2.2978771E+01
 1.0930751E+01  2.2950825E+01
 1.0942250E+01  2.2906157E+01
 1.0953751E+01  2.2842337E+01
 1.0965251E+01  2.2838306E+01
 1.0976750E+01  2.2826487E+01
 1.0988251E+01  2.2820166E+01
 1.0999750E+01  2.2814463E+01
 1.1011250E+01  2.2793232E+01
 1.1022751E+01  2.2772642E+01
 1.1034250E+01  2.2728170E+01
 1.1045751E+01  2.2641701E+01
 1.1057251E+01  2.2612688E+01
 1.1068750E+01  2.2591614E+01
 1.1080251E+01  2.2635313E+01
 1.1091750E+01  2.2697033E+01
 1.1103251E+01  2.2763126E+01
 1.1114751E+01  2.2834478E+01
 1.1126250E+01  2.2834471E+01
 1.1137751E+01  2.2775761E+01
 1.1149251E+01  2.2726980E+01
 1.1160750E+01  2.2679321E+01
 1.1172251E+01  2.2655491E+01
 1.1183750E+01  2.2623569E+01
 1.1195251E+01  2.2595770E+01
 1.1206751E+01  2.2568939E+01
 1.1218250E+01  2.2587866E+01
 1.1229751E+01  2.2601742E+01
 1.1241251E+01  2.2660324E+01
 1.1252750E+01  2.2625549E+01
 1.1264251E+01  2.2618793E+01
 1.1275750E+01  2.2632072E+01
 1.1287251E+01  2.2629173E+01
 1.1298751E+01  2.2665377E+01
 1.1310250E+01  2.2685429E+01
 1.1321751E+01  2.2728792E+01
 1.1333251E+01  2.2810720E+01
 1.1344750E+01  2.2789516E+01
 1.1356251E+01  2.2863293E+01
 1.1367750E+01  2.2854261E+01
 1.1379251E+01  2.2949375E+01
 1.1390751E+01  2.2968382E+01
 1.1402250E+01  2.3127617E+01
 1.1413751E+01  2.3179195E+01
 1.1425251E+01  2.3239941E+01
 1.1436750E+01  2.3181005E+01
 1.1448251E+01  2.3221678E+01
 1.1459750E+01  2.3203407E+01
 1.1471251E+01  2.3300827E+01
 1.1482751E+01  2.3350368E+01
 1.1494250E+01  2.3556442E+01
 1.1505751E+01  2.3797657E+01
 1.1517251E+01  2.4286121E+01
 1.1528750E+01  2.5117664E+01
 1.1540251E+01  2.6558310E+01
 1.1551750E+01  2.8769464E+01
 1.1563251E+01  3.0842552E+01
 1.1574751E+01  3.4257099E+01
 1.1586250E+01  3.5009975E+01
 1.1597751E+01  3.6487583E+01
 1.1609251E+01  3.3787861E+01
 1.1620750E+01  3.2427311E+01
 1.1632251E+01  2.9029570E+01
 1.1643750E+01  2.7315033E+01
 1.1655251E+01  2.5603918E+01
 1.1666751E+01  2.4576475E+01
 1.1678250E+01  2.3820112E+01
 1.1689751E+01  2.3418377E+01
 1.1701251E+01  2.3212791E+01
 1.1712750E+01  2.3169184E+01
 1.1724251E+01  2.3089125E+01
 1.1735750E+01  2.3032520E+01
 1.1747251E+01  2.2956476E+01
 1.1758751E+01  2.2884115E+01
 1.1770250E+01  2.2883385E+01
 1.1781751E+01  2.2917007E+01
 1.1793251E+01  2.2929581E+01
 1.1804750E+01  2.2918827E+01
 1.1816251E+01  2.2871994E+01
 1.1827750E+01  2.2808002E+01
 1.1839251E+01  2.2736435E+01
 1.1850751E+01  2.2627890E+01
 1.1862250E+01  2.2605326E+01
 1.1873751E+01  2.2631393E+01
 1.1885251E+01  2.2700253E+01
 1.1896750E+01  2.2782917E+01
 1.1908251E+01  2.2826712E+01
 1.1919750E+01  2.2928923E+01
 1.1931251E+01  2.3121796E+01
 1.1942751E+01  2.3398575E+01
 1.1954250E+01  2.3841946E+01
 1.1965751E+01  2.4177956E+01
 1.1977251E+01  2.4551048E+01
 1.1988750E+01  2.4653572E+01
 1.2000251E+01  2.4795099E+01
 1.2011750E+01  2.4579695E+01
 1.2023251E+01  2.4322962E+01
 1.2034751E+01  2.3981728E+01
 1.2046250E+01  2.3842184E+01
 1.2057751E+01  2.3864929E+01
 1.2069251E+01  2.4076128E+01
 1.2080750E+01  2.4545546E+01
 1.2092251E+01  2.4917583E+01
 1.2103750E+01  2.5198734E+01
 1.2115251E+01  2.5212423E+01
 1.2126751E+01  2.5040501E+01
 1.2138250E+01  2.4602663E+01
 1.2149751E+01  2.4161053E+01
 1.2161251E+01  2.3728518E+01
 1.2172750E+01  2.3455946E+01
 1.2184251E+01  2.3147364E+01
 1.2195750E+01  2.3017687E+01
 1.2207251E+01  2.2841572E+01
 1.2218751E+01  2.2743744E+01
 1.2230250E+01  2.2645304E+01
 1.2241751E+01  2.2614733E+01
 1.2253251E+01  2.2594559E+01
 1.2264750E+01  2.2567535E+01
 1.2276251E+01  2.2539337E+01
 1.2287750E+01  2.2563265E+01
 1.2299251E+01  2.2615784E+01
 1.2310751E+01  2.2667641E+01
 1.2322250E+01  2.2652124E+01
 1.2333751E+01  2.2669241E+01
 1.2345250E+01  2.2704878E+01
 1.2356750E+01  2.2750021E+01
 1.2368251E+01  2.2740042E+01
 1.2379750E+01  2.2738098E+01
 1.2391251E+01  2.2691301E+01
 1.2402751E+01  2.2669456E+01
 1.2414250E+01  2.2636866E+01
 1.2425751E+01  2.2651295E+01
 1.2437250E+01  2.2667439E+01
 1.2448750E+01  2.2728165E+01
 1.2460251E+01  2.2742086E+01
 1.2471750E+01  2.2803881E+01
 1.2483251E+01  2.2806843E+01
 1.2494751E+01  2.2867975E+01
 1.2506250E+01  2.2849783E+01
 1.2517751E+01  2.2863232E+01
 1.2529250E+01  2.2875147E+01
 1.2540751E+01  2.2902683E+01
 1.2552251E+01  2.2922064E+01
 1.2563750E+01  2.2893782E+01
 1.2575251E+01  2.2855423E+01
 1.2586751E+01  2.2840672E+01
 1.2598250E+01  2.2874952E+01
 1.2609751E+01  2.2888247E+01
 1.2621250E+01  2.2910732E+01
 1.2632751E+01  2.2956968E+01
 1.2644251E+01  2.2952723E+01
 1.2655750E+01  2.2925510E+01
 1.2667251E+01  2.2888376E+01
 1.2678751E+01  2.2887547E+01
 1.2690250E+01  2.2948549E+01
 1.2701751E+01  2.2992674E+01
 1.2713250E+01  2.3117847E+01
 1.2724751E+01  2.3130163E+01
 1.2736251E+01  2.3149696E+01
 1.2747750E+01  2.3158030E+01
 1.2759251E+01  2.3175821E+01
 1.2770751E+01  2.3139029E+01
 1.2782250E+01  2.3148861E+01
 1.2793751E+01  2.3117682E+01
 1.2805250E+01  2.3199207E+01
 1.2816751E+01  2.3229816E+01
 1.2828251E+01  2.3367790E+01
 1.2839750E+01  2.3427067E+01
 1.2851251E+01  2.3499964E+01
 1.2862751E+01  2.3566853E+01
 1.2874250E+01  2.3674564E+01
 1.2885751E+01  2.3776247E+01
 1.2897250E+01  2.3826057E+01
 1.2908751E+01  2.3847723E+01
 1.2920251E+01  2.3826916E+01
 1.2931750E+01  2.3860451E+01
 1.2943251E+01  2.3858097E+01
 1.2954751E+01  2.3922945E+01
 1.2966250E+01  2.3984941E+01
 1.2977751E+01  2.4144938E+01
 1.2989250E+01  2.4199558E+01
 1.3000751E+01  2.4241678E+01
 1.3012251E+01  2.4228489E+01
 1.3023750E+01  2.4296074E+01
 1.3035251E+01  2.4344889E+01
 1.3046751E+01  2.4436970E+01
 1.3058250E+01  2.4513613E+01
 1.3069751E+01  2.4622917E+01
 1.3081250E+01  2.4733137E+01
 1.3092751E+01  2.4816566E+01
 1.3104251E+01  2.4943371E+01
 1.3115750E+01  2.5015902E+01
 1.3127251E+01  2.5109436E+01
 1.3138751E+01  2.5175865E+01
 1.3150250E+01  2.5255590E+01
 1.3161751E+01  2.5335585E+01
 1.3173250E+01  2.5460993E+01
 1.3184751E+01  2.5563313E+01
 1.3196251E+01  2.5678692E+01
 1.3207750E+01  2.5807692E+01
 1.3219251E+01  2.5973116E+01
 1.3230751E+01  2.6213411E+01
 1.3242250E+01  2.6401947E+01
 1.3253751E+01  2.6583900E+01
 1.3265250E+01  2.6765173E+01
 1.3276751E+01  2.6907940E+01
 1.3288251E+01  2.7032854E+01
 1.3299750E+01  2.7095434E+01
 1.3311251E+01  2.7134470E+01
 1.3322751E+01  2.7240368E+01
 1.3334250E+01  2.7387327E+01
 1.3345751E+01  2.7592531E+01
 1.3357250E+01  2.7772457E+01
 1.3368751E+01  2.7864639E+01
 1.3380251E+01  2.7991741E+01
 1.3391750E+01  2.8081730E+01
 1.3403251E+01  2.8313616E+01
 1.3414751E+01  2.8472391E+01
 1.3426250E+01  2.8643314E+01
 1.3437751E+01  2.8736172E+01
 1.3449250E+01  2.8811865E+01
 1.3460751E+01  2.8850431E+01
 1.3472251E+01  2.8933121E+01
 1.3483750E+01  2.9085915E+01
 1.3495251E+01  2.9228575E+01
 1.3506751E+01  2.9329657E+01
 1.3518250E+01  2.9440516E+01
 1.3529751E+01  2.9541542E+01
 1.3541250E+01  2.9637026E+01
 1.3552751E+01  2.9689709E+01
 1.3564251E+01  2.9730835E+01
 1.3575750E+01  2.9764294E+01
 1.3587251E+01  2.9813696E+01
 1.3598751E+01  2.9890265E+01
 1.3610250E+01  2.9912060E+01
 1.3621751E+01  2.9943468E+01
 1.3633250E+01  2.9969564E+01
 1.3644751E+01  2.9932156E+01
 1.3656251E+01  2.9873926E+01
 1.3667750E+01  2.9884018E+01
 1.3679251E+01  2.9918596E+01
 1.3690751E+01  2.9929846E+01
 1.3702250E+01  2.9927031E+01
 1.3713751E+01  2.9965513E+01
 1.3725250E+01  3.0025402E+01
 1.3736751E+01  3.0055519E+01
 1.3748251E+01  3.0107681E+01
 1.3759750E+01  3.0100225E+01
 1.3771251E+01  3.0109957E+01
 1.3782751E+01  3.0118259E+01
 1.3794250E+01  3.0173599E+01
 1.3805751E+01  3.0278620E+01
 1.3817250E+01  3.0486506E+01
 1.3828751E+01  3.0722286E+01
 1.3840251E+01  3.1017942E+01
 1.3851750E+01  3.1480818E+01
 1.3863251E+01  3.2085999E+01
 1.3874751E+01  3.3539341E+01
 1.3886250E+01  3.5839573E+01
 1.3897751E+01  3.9293411E+01
 1.3909250E+01  4.5698105E+01
 1.3920751E+01  5.2510437E+01
 1.3932251E+01  6.0068718E+01
 1.3943750E+01  6.6541389E+01
 1.3955251E+01  6.9697098E+01
 1.3966751E+01  7.0843407E+01
 1.3978251E+01  6.6467339E+01
 1.3989751E+01  6.0832939E+01
 1.4001250E+01  5.3417625E+01
 1.4012751E+01  4.5167473E+01
 1.4024251E+01  3.9434113E+01
 1.4035750E+01  3.4659103E+01
 1.4047251E+01  3.2489212E+01
 1.4058751E+01  3.0942802E+01
 1.4070251E+01  3.0198685E+01
 1.4081751E+01  2.9600782E+01
 1.4093250E+01  2.9217903E+01
 1.4104751E+01  2.8834435E+01
 1.4116251E+01  2.8580973E+01
 1.4127750E+01  2.8301075E+01
 1.4139251E+01  2.8061766E+01
 1.4150751E+01  2.7858263E+01
 1.4162251E+01  2.7719917E+01
 1.4173751E+01  2.7603020E+01
 1.4185250E+01  2.7470783E+01
 1.4196751E+01  2.7372234E+01
 1.4208251E+01  2.7255243E+01
 1.4219750E+01  2.7114088E+01
 1.4231251E+01  2.6965107E+01
 1.4242751E+01  2.6898752E+01
 1.4254251E+01  2.6837116E+01
 1.4265751E+01  2.6777557E+01
 1.4277250E+01  2.6670109E+01
 1.4288751E+01  2.6613579E+01
 1.4300251E+01  2.6580654E+01
 1.4311750E+01  2.6603081E+01
 1.4323251E+01  2.6617859E+01
 1.4334751E+01  2.6616365E+01
 1.4346251E+01  2.6678926E+01
 1.4357751E+01  2.6695560E+01
 1.4369250E+01  2.6714968E+01
 1.4380751E+01  2.6541214E+01
 1.4392251E+01  2.6367247E+01
 1.4403750E+01  2.6188303E+01
 1.4415251E+01  2.6063931E+01
 1.4426751E+01  2.6000898E+01
 1.4438251E+01  2.5967325E+01
 1.4449751E+01  2.5924490E+01
 1.4461250E+01  2.5901781E+01
 1.4472751E+01  2.5891350E+01
 1.4484251E+01  2.5910776E+01
 1.4495750E+01  2.5882418E+01
 1.4507251E+01  2.5855131E+01
 1.4518751E+01  2.5825680E+01
 1.4530251E+01  2.5845255E+01
 1.4541751E+01  2.5812126E+01
 1.4553250E+01  2.5810122E+01
 1.4564751E+01  2.5721394E+01
 1.4576251E+01  2.5629257E+01
 1.4587750E+01  2.5560213E+01
 1.4599251E+01  2.5493023E+01
 1.4610751E+01  2.5559397E+01
 1.4622251E+01  2.5575939E+01
 1.4633751E+01  2.5573481E+01
 1.4645250E+01  2.5504755E+01
 1.4656751E+01  2.5404705E+01
 1.4668251E+01  2.5332857E+01
 1.4679750E+01  2.5328424E+01
 1.4691251E+01  2.5383066E+01
 1.4702751E+01  2.5450298E+01
 1.4714251E+01  2.5447599E+01
 1.4725751E+01  2.5379400E+01
 1.4737250E+01  2.5307085E+01
 1.4748751E+01  2.5248142E+01
 1.4760251E+01  2.5194916E+01
 1.4771750E+01  2.5197844E+01
 1.4783251E+01  2.5183279E+01
 1.4794751E+01  2.5251722E+01
 1.4806251E+01  2.5215096E+01
 1.4817751E+01  2.5170427E+01
 1.4829250E+01  2.5085619E+01
 1.4840751E+01  2.5063025E+01
 1.4852251E+01  2.5048002E+01
 1.4863750E+01  2.4984474E+01
 1.4875251E+01  2.4934156E+01
 1.4886751E+01  2.4920216E+01
 1.4898251E+01  2.4991720E+01
 1.4909751E+01  2.5032288E+01
 1.4921250E+01  2.5000830E+01
 1.4932751E+01  2.4964083E+01
 1.4944251E+01  2.4941587E+01
 1.4955750E+01  2.4972944E+01
 1.4967251E+01  2.4988480E+01
 1.4978751E+01  2.5005062E+01
 1.4990251E+01  2.4991158E+01
 1.5001751E+01  2.4967146E+01
 1.5013250E+01  2.4996481E+01
 1.5024751E+01  2.5053251E+01
 1.5036251E+01  2.5070328E+01
 1.5047750E+01  2.5098185E+01
 1.5059251E+01  2.5098936E+01
 1.5070751E+01  2.5103378E+01
 1.5082251E+01  2.5127062E+01
 1.5093751E+01  2.5183962E+01
 1.5105250E+01  2.5334417E+01
 1.5116751E+01  2.5485651E+01
 1.5128251E+01  2.5796309E+01
 1.5139750E+01  2.6251900E+01
 1.5151251E+01  2.6957930E+01
 1.5162751E+01  2.7568012E+01
 1.5174251E+01  2.8493612E+01
 1.5185751E+01  2.8765856E+01
 1.5197250E+01  2.9194773E+01
 1.5208751E+01  2.8719738E+01
 1.5220251E+01  2.8297630E+01
 1.5231750E+01  2.7442205E+01
 1.5243251E+01  2.6720409E+01
 1.5254751E+01  2.6197512E+01
 1.5266251E+01  2.5590904E+01
 1.5277751E+01  2.5322460E+01
 1.5289250E+01  2.5102589E+01
 1.5300751E+01  2.5060627E+01
 1.5312251E+01  2.5014904E+01
 1.5323750E+01  2.4958977E+01
 1.5335251E+01  2.4897894E+01
 1.5346751E+01  2.4810080E+01
 1.5358251E+01  2.4803728E+01
 1.5369751E+01  2.4792467E+01
 1.5381250E+01  2.4849546E+01
 1.5392751E+01  2.4857866E+01
 1.5404251E+01  2.4855072E+01
 1.5415751E+01  2.4771345E+01
 1.5427251E+01  2.4698479E+01
 1.5438751E+01  2.4662821E+01
 1.5450251E+01  2.4661932E+01
 1.5461751E+01  2.4685595E+01
 1.5473250E+01  2.4710636E+01
 1.5484751E+01  2.4750637E+01
 1.5496251E+01  2.4752251E+01
 1.5507751E+01  2.4757132E+01
 1.5519251E+01  2.4743412E+01
 1.5530751E+01  2.4723017E+01
 1.5542251E+01  2.4674427E+01
 1.5553751E+01  2.4684246E+01
 1.5565250E+01  2.4737955E+01
 1.5576751E+01  2.4746494E+01
 1.5588251E+01  2.4731356E+01
 1.5599751E+01  2.4705568E+01
 1.5611251E+01  2.4696552E+01
 1.5622751E+01  2.4667883E+01
 1.5634251E+01  2.4625093E+01
 1.5645751E+01  2.4611609E+01
 1.5657250E+01  2.4594168E+01
 1.5668751E+01  2.4619329E+01
 1.5680251E+01  2.4648739E+01
 1.5691751E+01  2.4678638E+01
 1.5703251E+01  2.4738302E+01
 1.5714751E+01  2.4741100E+01
 1.5726251E+01  2.4703384E+01
 1.5737751E+01  2.4645479E+01
 1.5749250E+01  2.4654398E+01
 1.5760751E+01  2.4714520E+01
 1.5772251E+01  2.4771898E+01
 1.5783751E+01  2.4747623E+01
 1.5795251E+01  2.4765987E+01
 1.5806751E+01  2.4768251E+01
 1.5818251E+01  2.4824936E+01
 1.5829751E+01  2.4806799E+01
 1.5841250E+01  2.4803041E+01
 1.5852751E+01  2.4771008E+01
 1.5864251E+01  2.4707386E+01
 1.5875751E+01  2.4725126E+01
 1.5887251E+01  2.4761454E+01
 1.5898750E+01  2.4807943E+01
 1.5910251E+01  2.4807104E+01
 1.5921751E+01  2.4771500E+01
 1.5933250E+01  2.4785952E+01
 1.5944751E+01  2.4697426E+01
 1.5956251E+01  2.4720772E+01
 1.5967751E+01  2.4731358E+01
 1.5979251E+01  2.4788687E+01
 1.5990750E+01  2.4854681E+01
 1.6002251E+01  2.4845274E+01
 1.6013750E+01  2.4828712E+01
 1.6025251E+01  2.4744694E+01
 1.6036751E+01  2.4742619E+01
 1.6048250E+01  2.4714861E+01
 1.6059752E+01  2.4736429E+01
 1.6071251E+01  2.4740957E+01
 1.6082750E+01  2.4829193E+01
 1.6094252E+01  2.4849092E+01
 1.6105751E+01  2.4969589E+01
 1.6117250E+01  2.4968187E+01
 1.6128750E+01  2.4950609E+01
 1.6140251E+01  2.4915510E+01
 1.6151751E+01  2.4875046E+01
 1.6163250E+01  2.4939497E+01
 1.6174751E+01  2.4851233E+01
 1.6186251E+01  2.5084267E+01
 1.6197750E+01  2.4991304E+01
 1.6209251E+01  2.5424742E+01
 1.6220751E+01  2.5411329E+01
 1.6232250E+01  2.5846390E+01
 1.6243752E+01  2.5945452E+01
 1.6255251E+01  2.6224340E+01
 1.6266750E+01  2.6460699E+01
 1.6278252E+01  2.6182791E+01
 1.6289751E+01  2.6228477E+01
 1.6301250E+01  2.5510809E+01
 1.6312750E+01  2.5536749E+01
 1.6324251E+01  2.4996222E+01
 1.6335751E+01  2.5042366E+01
 1.6347250E+01  2.4798420E+01
 1.6358751E+01  2.4778023E+01
 1.6370251E+01  2.4679333E+01
 1.6381750E+01  2.4677584E+01
 1.6393251E+01  2.4676914E+01
 1.6404751E+01  2.4679958E+01
 1.6416250E+01  2.4706114E+01
 1.6427752E+01  2.4712896E+01
 1.6439251E+01  2.4753021E+01
 1.6450750E+01  2.4806313E+01
 1.6462252E+01  2.4868650E+01
 1.6473751E+01  2.4858812E+01
 1.6485250E+01  2.4812281E+01
 1.6496750E+01  2.4762123E+01
 1.6508251E+01  2.4725479E+01
 1.6519751E+01  2.4682056E+01
 1.6531250E+01  2.4710310E+01
 1.6542751E+01  2.4783478E+01
 1.6554251E+01  2.4831676E+01
 1.6565750E+01  2.4843262E+01
 1.6577251E+01  2.4763315E+01
 1.6588751E+01  2.4711149E+01
 1.6600250E+01  2.4633232E+01
 1.6611752E+01  2.4653513E+01
 1.6623251E+01  2.4649843E+01
 1.6634750E+01  2.4692417E+01
 1.6646252E+01  2.4700548E+01
 1.6657751E+01  2.4723736E+01
 1.6669250E+01  2.4705345E+01
 1.6680750E+01  2.4671640E+01
 1.6692251E+01  2.4654341E+01
 1.6703751E+01  2.4611019E+01
 1.6715250E+01  2.4611431E+01
 1.6726751E+01  2.4601950E+01
 1.6738251E+01  2.4652571E+01
 1.6749750E+01  2.4679714E+01
 1.6761251E+01  2.4651257E+01
 1.6772751E+01  2.4648426E+01
 1.6784250E+01  2.4611973E+01
 1.6795752E+01  2.4587801E+01
 1.6807251E+01  2.4492275E+01
 1.6818750E+01  2.4432142E+01
 1.6830252E+01  2.4405886E+01
 1.6841751E+01  2.4389885E+01
 1.6853251E+01  2.4414061E+01
 1.6864750E+01  2.4394756E+01
 1.6876251E+01  2.4458618E+01
 1.6887751E+01  2.4417307E+01
 1.6899250E+01  2.4450254E+01
 1.6910751E+01  2.4434511E+01
 1.6922251E+01  2.4490995E+01
 1.6933750E+01  2.4496258E+01
 1.6945251E+01  2.4492786E+01
 1.6956751E+01  2.4435652E+01
 1.6968250E+01  2.4378279E+01
 1.6979752E+01  2.4336994E+01
 1.6991251E+01  2.4325808E+01
 1.7002750E+01  2.4288239E+01
 1.7014252E+01  2.4313892E+01
 1.7025751E+01  2.4312141E+01
 1.7037251E+01  2.4353823E+01
 1.7048750E+01  2.4288486E+01
 1.7060251E+01  2.4252523E+01
 1.7071751E+01  2.4183908E+01
 1.7083250E+01  2.4211351E+01
 1.7094751E+01  2.4219763E+01
 1.7106251E+01  2.4254101E+01
 1.7117750E+01  2.4219820E+01
 1.7129251E+01  2.4266165E+01
 1.7140751E+01  2.4286873E+01
 1.7152250E+01  2.4283707E+01
 1.7163752E+01  2.4255783E+01
 1.7175251E+01  2.4241585E+01
 1.7186750E+01  2.4248293E+01
 1.7198252E+01  2.4233450E+01
 1.7209751E+01  2.4261883E+01
 1.7221251E+01  2.4258442E+01
 1.7232750E+01  2.4249451E+01
 1.7244251E+01  2.4181768E+01
 1.7255751E+01  2.4098387E+01
 1.7267250E+01  2.4071558E+01
 1.7278751E+01  2.4109560E+01
 1.7290251E+01  2.4144941E+01
 1.7301750E+01  2.4167126E+01
 1.7313251E+01  2.4165270E+01
 1.7324751E+01  2.4226280E+01
 1.7336250E+01  2.4249998E+01
 1.7347752E+01  2.4295540E+01
 1.7359251E+01  2.4286955E+01
 1.7370750E+01  2.4243093E+01
 1.7382252E+01  2.4166397E+01
 1.7393751E+01  2.4099991E+01
 1.7405251E+01  2.4085730E+01
 1.7416750E+01  2.4049660E+01
 1.7428251E+01  2.4055161E+01
 1.7439751E+01  2.4020262E+01
 1.7451250E+01  2.4046585E+01
 1.7462751E+01  2.4041025E+01
 1.7474251E+01  2.4036821E+01
 1.7485750E+01  2.4024342E+01
 1.7497252E+01  2.4042131E+01
 1.7508751E+01  2.4024710E+01
 1.7520250E+01  2.4002930E+01
 1.7531752E+01  2.3995901E+01
 1.7543251E+01  2.4047844E+01
 1.7554750E+01  2.4046005E+01
 1.7566252E+01  2.4009972E+01
 1.7577751E+01  2.4015455E+01
 1.7589251E+01  2.4012842E+01
 1.7600750E+01  2.4065128E+01
 1.7612251E+01  2.4072001E+01
 1.7623751E+01  2.4088430E+01
 1.7635250E+01  2.4033607E+01
 1.7646751E+01  2.3991358E+01
 1.7658251E+01  2.3948618E+01
 1.7669750E+01  2.3975098E+01
 1.7681252E+01  2.3983564E+01
 1.7692751E+01  2.4072954E+01
 1.7704250E+01  2.4073946E+01
 1.7715752E+01  2.4074963E+01
 1.7727251E+01  2.3997114E+01
 1.7738750E+01  2.4010578E+01
 1.7750252E+01  2.3989971E+01
 1.7761751E+01  2.4008139E+01
 1.7773251E+01  2.4006636E+01
 1.7784750E+01  2.4022669E+01
 1.7796251E+01  2.4028030E+01
 1.7807751E+01  2.4034018E+01
 1.7819250E+01  2.3952261E+01
 1.7830751E+01  2.3919331E+01
 1.7842251E+01  2.3928232E+01
 1.7853750E+01  2.3969641E+01
 1.7865252E+01  2.4004641E+01
 1.7876751E+01  2.4061342E+01
 1.7888250E+01  2.4103678E+01
 1.7899752E+01  2.4074188E+01
 1.7911251E+01  2.4109079E+01
 1.7922750E+01  2.4099407E+01
 1.7934252E+01  2.4130775E+01
 1.7945751E+01  2.4162703E+01
 1.7957251E+01  2.4224426E+01
 1.7968750E+01  2.4293697E+01
 1.7980251E+01  2.4398624E+01
 1.7991751E+01  2.4680515E+01
 1.8003250E+01  2.4946882E+01
 1.8014751E+01  2.5253662E+01
 1.8026251E+01  2.5666582E+01
 1.8037750E+01  2.5978064E+01
 1.8049252E+01  2.6175051E+01
 1.8060751E+01  2.6553251E+01
 1.8072250E+01  2.6821354E+01
 1.8083752E+01  2.7553343E+01
 1.8095251E+01  2.7880579E+01
 1.8106750E+01  2.8292198E+01
 1.8118252E+01  2.8136522E+01
 1.8129751E+01  2.7450140E+01
 1.8141251E+01  2.6895033E+01
 1.8152750E+01  2.5921829E+01
 1.8164251E+01  2.5452703E+01
 1.8175751E+01  2.4889013E+01
 1.8187250E+01  2.4575249E+01
 1.8198751E+01  2.4408001E+01
 1.8210251E+01  2.4279762E+01
 1.8221750E+01  2.4178791E+01
 1.8233252E+01  2.4021347E+01
 1.8244751E+01  2.3929176E+01
 1.8256250E+01  2.3881927E+01
 1.8267752E+01  2.3872711E+01
 1.8279251E+01  2.3826134E+01
 1.8290751E+01  2.3815763E+01
 1.8302252E+01  2.3834396E+01
 1.8313751E+01  2.3828003E+01
 1.8325251E+01  2.3814293E+01
 1.8336750E+01  2.3795856E+01
 1.8348251E+01  2.3821201E+01
 1.8359751E+01  2.3833149E+01
 1.8371250E+01  2.3767044E+01
 1.8382751E+01  2.3764170E+01
 1.8394251E+01  2.3712572E+01
 1.8405750E+01  2.3742594E+01
 1.8417252E+01  2.3720568E+01
 1.8428751E+01  2.3739145E+01
 1.8440250E+01  2.3734848E+01
 1.8451752E+01  2.3716455E+01
 1.8463251E+01  2.3759104E+01
 1.8474751E+01  2.3765770E+01
 1.8486252E+01  2.3752851E+01
 1.8497751E+01  2.3742153E+01
 1.8509251E+01  2.3753349E+01
 1.8520750E+01  2.3712086E+01
 1.8532251E+01  2.3685764E+01
 1.8543751E+01  2.3622801E+01
 1.8555250E+01  2.3659969E+01
 1.8566751E+01  2.3672365E+01
 1.8578251E+01  2.3755583E+01
 1.8589750E+01  2.3781876E+01
 1.8601252E+01  2.3824812E+01
 1.8612751E+01  2.3784332E+01
 1.8624250E+01  2.3739431E+01
 1.8635752E+01  2.3681206E+01
 1.8647251E+01  2.3649223E+01
 1.8658751E+01  2.3610498E+01
 1.8670252E+01  2.3593870E+01
 1.8681751E+01  2.3621284E+01
 1.8693251E+01  2.3651201E+01
 1.8704750E+01  2.3650719E+01
 1.8716251E+01  2.3656590E+01
 1.8727751E+01  2.3650372E+01
 1.8739250E+01  2.3663767E+01
 1.8750751E+01  2.3672234E+01
 1.8762251E+01  2.3672533E+01
 1.8773750E+01  2.3634098E+01
 1.8785252E+01  2.3593565E+01
 1.8796751E+01  2.3600815E+01
 1.8808250E+01  2.3608532E+01
 1.8819752E+01  2.3632338E+01
 1.8831251E+01  2.3616310E+01
 1.8842751E+01  2.3634369E+01
 1.8854252E+01  2.3594160E+01
 1.8865751E+01  2.3578234E+01
 1.8877251E+01  2.3552029E+01
 1.8888750E+01  2.3596216E+01
 1.8900251E+01  2.3669573E+01
 1.8911751E+01  2.3724478E+01
 1.8923250E+01  2.3764633E+01
 1.8934752E+01  2.3805161E+01
 1.8946251E+01  2.3827061E+01
 1.8957750E+01  2.3779501E+01
 1.8969252E+01  2.3654472E+01
 1.8980751E+01  2.3568621E+01
 1.8992250E+01  2.3540066E+01
 1.9003752E+01  2.3588030E+01
 1.9015251E+01  2.3647169E+01
 1.9026751E+01  2.3678003E+01
 1.9038252E+01  2.3675682E+01
 1.9049751E+01  2.3598158E+01
 1.9061251E+01  2.3581051E+01
 1.9072750E+01  2.3575848E+01
 1.9084251E+01  2.3591433E+01
 1.9095751E+01  2.3574919E+01
 1.9107250E+01  2.3559370E+01
 1.9118752E+01  2.3578207E+01
 1.9130251E+01  2.3599380E+01
 1.9141750E+01  2.3624649E+01
 1.9153252E+01  2.3626204E+01
 1.9164751E+01  2.3604109E+01
 1.9176250E+01  2.3573557E+01
 1.9187752E+01  2.3593403E+01
 1.9199251E+01  2.3608461E+01
 1.9210751E+01  2.3615370E+01
 1.9222252E+01  2.3549807E+01
 1.9233751E+01  2.3551432E+01
 1.9245251E+01  2.3611752E+01
 1.9256750E+01  2.3696751E+01
 1.9268251E+01  2.3702372E+01
 1.9279751E+01  2.3722971E+01
 1.9291250E+01  2.3728283E+01
 1.9302752E+01  2.3748760E+01
 1.9314251E+01  2.3709820E+01
 1.9325750E+01  2.3757469E+01
 1.9337252E+01  2.3769669E+01
 1.9348751E+01  2.3754808E+01
 1.9360250E+01  2.3698980E+01
 1.9371752E+01  2.3696495E+01
 1.9383251E+01  2.3732431E+01
 1.9394751E+01  2.3738569E+01
 1.9406250E+01  2.3729973E+01
 1.9417751E+01  2.3760920E+01
 1.9429251E+01  2.3817907E+01
 1.9440750E+01  2.3877037E+01
 1.9452251E+01  2.3915066E+01
 1.9463751E+01  2.3949347E+01
 1.9475250E+01  2.3941534E+01
 1.9486752E+01  2.3869989E+01
 1.9498251E+01  2.3799099E+01
 1.9509750E+01  2.3805925E+01
 1.9521252E+01  2.3847586E+01
 1.9532751E+01  2.3876129E+01
 1.9544250E+01  2.3930042E+01
 1.9555752E+01  2.3971874E+01
 1.9567251E+01  2.4024157E+01
 1.9578751E+01  2.4106070E+01
 1.9590250E+01  2.4203209E+01
 1.9601751E+01  2.4275398E+01
 1.9613251E+01  2.4359692E+01
 1.9624750E+01  2.4468779E+01
 1.9636251E+01  2.4710825E+01
 1.9647751E+01  2.5048475E+01
 1.9659250E+01  2.5569847E+01
 1.9670752E+01  2.6383524E+01
 1.9682251E+01  2.7144985E+01
 1.9693750E+01  2.8288769E+01
 1.9705252E+01  2.9527245E+01
 1.9716751E+01  3.0314835E+01
 1.9728251E+01  3.0198965E+01
 1.9739752E+01  2.9523661E+01
 1.9751251E+01  2.8886854E+01
 1.9762751E+01  2.7816753E+01
 1.9774250E+01  2.6917339E+01
 1.9785751E+01  2.6480871E+01
 1.9797251E+01  2.6300623E+01
 1.9808750E+01  2.6522194E+01
 1.9820251E+01  2.6861662E+01
 1.9831751E+01  2.7259491E+01
 1.9843250E+01  2.7821554E+01
 1.9854752E+01  2.7814659E+01
 1.9866251E+01  2.8210386E+01
 1.9877750E+01  2.7595366E+01
 1.9889252E+01  2.7221922E+01
 1.9900751E+01  2.6347317E+01
 1.9912251E+01  2.5752769E+01
 1.9923752E+01  2.5161543E+01
 1.9935251E+01  2.4780664E+01
 1.9946751E+01  2.4508089E+01
 1.9958250E+01  2.4350250E+01
 1.9969751E+01  2.4230707E+01
 1.9981251E+01  2.4143864E+01
 1.9992750E+01  2.4108675E+01
 2.0004251E+01  2.4084852E+01
 2.0015751E+01  2.4070341E+01
 2.0027250E+01  2.4038145E+01
 2.0038752E+01  2.4045135E+01
 2.0050251E+01  2.4063400E+01
 2.0061750E+01  2.4048246E+01
 2.0073252E+01  2.4001362E+01
 2.0084751E+01  2.3951338E+01
 2.0096251E+01  2.3987871E+01
 2.0107752E+01  2.3971434E+01
 2.0119251E+01  2.3993738E+01
 2.0130751E+01  2.3980486E+01
 2.0142250E+01  2.4007473E+01
 2.0153751E+01  2.4018946E+01
 2.0165251E+01  2.4043070E+01
 2.0176750E+01  2.4045010E+01
 2.0188251E+01  2.4007538E+01
 2.0199751E+01  2.3925117E+01
 2.0211250E+01  2.3876423E+01
 2.0222752E+01  2.3900698E+01
 2.0234251E+01  2.3941957E+01
 2.0245750E+01  2.3947435E+01
 2.0257252E+01  2.3920309E+01
 2.0268751E+01  2.3908113E+01
 2.0280251E+01  2.3913389E+01
 2.0291752E+01  2.3906694E+01
 2.0303251E+01  2.3898176E+01
 2.0314751E+01  2.3925867E+01
 2.0326250E+01  2.3941355E+01
 2.0337751E+01  2.3975100E+01
 2.0349251E+01  2.3994747E+01
 2.0360750E+01  2.3994797E+01
 2.0372252E+01  2.3995407E+01
 2.0383751E+01  2.3992664E+01
 2.0395250E+01  2.4009102E+01
 2.0406752E+01  2.3958269E+01
 2.0418251E+01  2.3963175E+01
 2.0429750E+01  2.3924410E+01
 2.0441252E+01  2.3888180E+01
 2.0452751E+01  2.3846199E+01
 2.0464251E+01  2.3849447E+01
 2.0475752E+01  2.3862669E+01
 2.0487251E+01  2.3931408E+01
 2.0498751E+01  2.3986753E+01
 2.0510250E+01  2.3977388E+01
 2.0521751E+01  2.3944784E+01
 2.0533251E+01  2.3934969E+01
 2.0544750E+01  2.3950600E+01
 2.0556252E+01  2.4002148E+01
 2.0567751E+01  2.3985542E+01
 2.0579250E+01  2.3950434E+01
 2.0590752E+01  2.3952248E+01
 2.0602251E+01  2.4042229E+01
 2.0613750E+01  2.4117908E+01
 2.0625252E+01  2.4162968E+01
 2.0636751E+01  2.4239132E+01
 2.0648251E+01  2.4286627E+01
 2.0659752E+01  2.4364319E+01
 2.0671251E+01  2.4508818E+01
 2.0682751E+01  2.4766235E+01
 2.0694250E+01  2.5111036E+01
 2.0705751E+01  2.5650154E+01
 2.0717251E+01  2.6575680E+01
 2.0728750E+01  2.7501928E+01
 2.0740252E+01  2.8431271E+01
 2.0751751E+01  2.8928156E+01
 2.0763250E+01  2.9112246E+01
 2.0774752E+01  2.8722727E+01
 2.0786251E+01  2.7968637E+01
 2.0797750E+01  2.7133390E+01
 2.0809252E+01  2.6273397E+01
 2.0820751E+01  2.5562820E+01
 2.0832251E+01  2.5105980E+01
 2.0843752E+01  2.4812057E+01
 2.0855251E+01  2.4681511E+01
 2.0866751E+01  2.4552174E+01
 2.0878250E+01  2.4478756E+01
 2.0889751E+01  2.4395761E+01
 2.0901251E+01  2.4363903E+01
 2.0912750E+01  2.4329563E+01
 2.0924252E+01  2.4328379E+01
 2.0935751E+01  2.4302999E+01
 2.0947250E+01  2.4302534E+01
 2.0958752E+01  2.4270353E+01
 2.0970251E+01  2.4205196E+01
 2.0981750E+01  2.4130718E+01
 2.0993252E+01  2.4098707E+01
 2.1004751E+01  2.4085287E+01
 2.1016251E+01  2.4056263E+01
 2.1027752E+01  2.4080708E+01
 2.1039251E+01  2.4087774E+01
 2.1050751E+01  2.4094755E+01
 2.1062250E+01  2.4103737E+01
 2.1073751E+01  2.4108288E+01
 2.1085251E+01  2.4121487E+01
 2.1096750E+01  2.4079287E+01
 2.1108252E+01  2.4102613E+01
 2.1119751E+01  2.4152748E+01
 2.1131250E+01  2.4171972E+01
 2.1142752E+01  2.4144804E+01
 2.1154251E+01  2.4084415E+01
 2.1165751E+01  2.4089401E+01
 2.1177252E+01  2.4085443E+01
 2.1188751E+01  2.4074030E+01
 2.1200251E+01  2.4064873E+01
 2.1211752E+01  2.4042051E+01
 2.1223251E+01  2.4049986E+01
 2.1234751E+01  2.4041603E+01
 2.1246250E+01  2.4099552E+01
 2.1257751E+01  2.4149431E+01
 2.1269251E+01  2.4126087E+01
 2.1280750E+01  2.4094408E+01
 2.1292252E+01  2.4080326E+01
 2.1303751E+01  2.4090452E+01
 2.1315250E+01  2.4067099E+01
 2.1326752E+01  2.4090265E+01
 2.1338251E+01  2.4063396E+01
 2.1349751E+01  2.4038071E+01
 2.1361252E+01  2.4030981E+01
 2.1372751E+01  2.4085571E+01
 2.1384251E+01  2.4108280E+01
 2.1395752E+01  2.4166508E+01
 2.1407251E+01  2.4136612E+01
 2.1418751E+01  2.4142878E+01
 2.1430250E+01  2.4112305E+01
 2.1441751E+01  2.4098978E+01
 2.1453251E+01  2.4065355E+01
 2.1464750E+01  2.4063305E+01
 2.1476252E+01  2.4054857E+01
 2.1487751E+01  2.4105877E+01
 2.1499250E+01  2.4125729E+01
 2.1510752E+01  2.4152998E+01
 2.1522251E+01  2.4189066E+01
 2.1533751E+01  2.4210331E+01
 2.1545252E+01  2.4209604E+01
 2.1556751E+01  2.4195837E+01
 2.1568251E+01  2.4230171E+01
 2.1579752E+01  2.4245102E+01
 2.1591251E+01  2.4275085E+01
 2.1602751E+01  2.4285347E+01
 2.1614250E+01  2.4288500E+01
 2.1625751E+01  2.4255974E+01
 2.1637251E+01  2.4254980E+01
 2.1648750E+01  2.4214165E+01
 2.1660252E+01  2.4228600E+01
 2.1671751E+01  2.4244408E+01
 2.1683250E+01  2.4289192E+01
 2.1694752E+01  2.4282520E+01
 2.1706251E+01  2.4292360E+01
 2.1717751E+01  2.4298615E+01
 2.1729252E+01  2.4337694E+01
 2.1740751E+01  2.4337210E+01
 2.1752251E+01  2.4313320E+01
 2.1763752E+01  2.4302944E+01
 2.1775251E+01  2.4333025E+01
 2.1786751E+01  2.4364717E+01
 2.1798250E+01  2.4418398E+01
 2.1809752E+01  2.4452951E+01
 2.1821251E+01  2.4454887E+01
 2.1832750E+01  2.4442488E+01
 2.1844252E+01  2.4406811E+01
 2.1855751E+01  2.4414024E+01
 2.1867250E+01  2.4397898E+01
 2.1878752E+01  2.4413492E+01
 2.1890251E+01  2.4379642E+01
 2.1901751E+01  2.4380459E+01
 2.1913252E+01  2.4397434E+01
 2.1924751E+01  2.4453884E+01
 2.1936251E+01  2.4443527E+01
 2.1947752E+01  2.4420692E+01
 2.1959251E+01  2.4364346E+01
 2.1970751E+01  2.4395592E+01
 2.1982250E+01  2.4360962E+01
 2.1993752E+01  2.4406452E+01
 2.2005251E+01  2.4417093E+01
 2.2016750E+01  2.4442928E+01
 2.2028252E+01  2.4433731E+01
 2.2039751E+01  2.4421732E+01
 2.2051250E+01  2.4441383E+01
 2.2062752E+01  2.4403383E+01
 2.2074251E+01  2.4452827E+01
 2.2085751E+01  2.4460321E+01
 2.2097252E+01  2.4508884E+01
 2.2108751E+01  2.4516537E+01
 2.2120251E+01  2.4596245E+01
 2.2131752E+01  2.4608017E+01
 2.2143251E+01  2.4603510E+01
 2.2154751E+01  2.4562412E+01
 2.2166250E+01  2.4547510E+01
 2.2177752E+01  2.4524910E+01
 2.2189251E+01  2.4494211E+01
 2.2200750E+01  2.4516844E+01
 2.2212252E+01  2.4517633E+01
 2.2223751E+01  2.4558445E+01
 2.2235250E+01  2.4552629E+01
 2.2246752E+01  2.4588217E+01
 2.2258251E+01  2.4615414E+01
 2.2269751E+01  2.4657469E+01
 2.2281252E+01  2.4694752E+01
 2.2292751E+01  2.4725561E+01
 2.2304251E+01  2.4801991E+01
 2.2315752E+01  2.4843939E+01
 2.2327251E+01  2.4785698E+01
 2.2338751E+01  2.4697092E+01
 2.2350250E+01  2.4675566E+01
 2.2361752E+01  2.4661219E+01
 2.2373251E+01  2.4703285E+01
 2.2384750E+01  2.4700926E+01
 2.2396252E+01  2.4744505E+01
 2.2407751E+01  2.4761248E+01
 2.2419250E+01  2.4772409E+01
 2.2430752E+01  2.4781759E+01
 2.2442251E+01  2.4805111E+01
 2.2453751E+01  2.4795105E+01
 2.2465252E+01  2.4797735E+01
 2.2476751E+01  2.4752186E+01
 2.2488251E+01  2.4797876E+01
 2.2499752E+01  2.4838615E+01
 2.2511251E+01  2.4914988E+01
 2.2522751E+01  2.4961790E+01
 2.2534250E+01  2.4975620E+01
 2.2545752E+01  2.5025352E+01
 2.2557251E+01  2.5017694E+01
 2.2568750E+01  2.5060053E+01
 2.2580252E+01  2.5056633E+01
 2.2591751E+01  2.5076527E+01
 2.2603251E+01  2.5118990E+01
 2.2614752E+01  2.5190952E+01
 2.2626251E+01  2.5218336E+01
 2.2637751E+01  2.5197515E+01
 2.2649252E+01  2.5166845E+01
 2.2660751E+01  2.5159731E+01
 2.2672251E+01  2.5232281E+01
 2.2683752E+01  2.5290199E+01
 2.2695251E+01  2.5390394E+01
 2.2706751E+01  2.5404284E+01
 2.2718250E+01  2.5473688E+01
 2.2729752E+01  2.5427763E+01
 2.2741251E+01  2.5401072E+01
 2.2752750E+01  2.5366262E+01
 2.2764252E+01  2.5352585E+01
 2.2775751E+01  2.5381224E+01
 2.2787251E+01  2.5382139E+01
 2.2798752E+01  2.5437021E+01
 2.2810251E+01  2.5512093E+01
 2.2821751E+01  2.5556686E+01
 2.2833252E+01  2.5612892E+01
 2.2844751E+01  2.5661745E+01
 2.2856251E+01  2.5729767E+01
 2.2867750E+01  2.5765211E+01
 2.2879251E+01  2.5773634E+01
 2.2890751E+01  2.5839626E+01
 2.2902250E+01  2.5876596E+01
 2.2913752E+01  2.5939489E+01
 2.2925251E+01  2.5999514E+01
 2.2936750E+01  2.6037762E+01
 2.2948252E+01  2.6061085E+01
 2.2959751E+01  2.6094400E+01
 2.2971251E+01  2.6211605E+01
 2.2982752E+01  2.6310078E+01
 2.2994251E+01  2.6412828E+01
