F:\20151113_APS_34IDE\\Brian\Particle1\OCV\Data_0030.tif
2-Theta Angle (Degrees)
Intensity
       2000
 5.7500005E-03  0.0000000E+00
 1.7250001E-02  0.0000000E+00
 2.8750001E-02  0.0000000E+00
 4.0250003E-02  0.0000000E+00
 5.1750004E-02  0.0000000E+00
 6.3250005E-02  0.0000000E+00
 7.4750006E-02  0.0000000E+00
 8.6250007E-02  0.0000000E+00
 9.7750008E-02  0.0000000E+00
 1.0925001E-01  0.0000000E+00
 1.2075000E-01  0.0000000E+00
 1.3225001E-01  0.0000000E+00
 1.4375001E-01  0.0000000E+00
 1.5525001E-01  0.0000000E+00
 1.6675001E-01  0.0000000E+00
 1.7825001E-01  0.0000000E+00
 1.8975002E-01  0.0000000E+00
 2.0125002E-01  0.0000000E+00
 2.1275002E-01  0.0000000E+00
 2.2425000E-01  0.0000000E+00
 2.3575000E-01  0.0000000E+00
 2.4725001E-01  0.0000000E+00
 2.5875002E-01  0.0000000E+00
 2.7025002E-01  0.0000000E+00
 2.8175002E-01  0.0000000E+00
 2.9325002E-01  0.0000000E+00
 3.0475003E-01  0.0000000E+00
 3.1625003E-01  0.0000000E+00
 3.2775003E-01  0.0000000E+00
 3.3925003E-01  0.0000000E+00
 3.5075003E-01  0.0000000E+00
 3.6225003E-01  0.0000000E+00
 3.7375003E-01  0.0000000E+00
 3.8525003E-01  0.0000000E+00
 3.9675003E-01  0.0000000E+00
 4.0825003E-01  0.0000000E+00
 4.1975003E-01  0.0000000E+00
 4.3125004E-01  0.0000000E+00
 4.4275001E-01  0.0000000E+00
 4.5425001E-01  0.0000000E+00
 4.6575001E-01  0.0000000E+00
 4.7725001E-01  0.0000000E+00
 4.8875001E-01  0.0000000E+00
 5.0025004E-01  0.0000000E+00
 5.1175004E-01  0.0000000E+00
 5.2325004E-01  0.0000000E+00
 5.3475004E-01  0.0000000E+00
 5.4625005E-01  0.0000000E+00
 5.5775005E-01  0.0000000E+00
 5.6925005E-01  0.0000000E+00
 5.8075005E-01  0.0000000E+00
 5.9225005E-01  0.0000000E+00
 6.0375005E-01  0.0000000E+00
 6.1525005E-01  0.0000000E+00
 6.2675005E-01  0.0000000E+00
 6.3825005E-01  0.0000000E+00
 6.4975005E-01  0.0000000E+00
 6.6125005E-01  0.0000000E+00
 6.7275006E-01  0.0000000E+00
 6.8425006E-01  0.0000000E+00
 6.9575006E-01  0.0000000E+00
 7.0725006E-01  0.0000000E+00
 7.1875006E-01  0.0000000E+00
 7.3025006E-01  0.0000000E+00
 7.4175006E-01  0.0000000E+00
 7.5325006E-01  0.0000000E+00
 7.6475006E-01  0.0000000E+00
 7.7625006E-01  0.0000000E+00
 7.8775007E-01  0.0000000E+00
 7.9925007E-01  0.0000000E+00
 8.1075007E-01  0.0000000E+00
 8.2225007E-01  0.0000000E+00
 8.3375007E-01  0.0000000E+00
 8.4525007E-01  0.0000000E+00
 8.5675007E-01  0.0000000E+00
 8.6825007E-01  0.0000000E+00
 8.7975001E-01  0.0000000E+00
 8.9125001E-01  0.0000000E+00
 9.0275002E-01  0.0000000E+00
 9.1425002E-01  0.0000000E+00
 9.2575002E-01  0.0000000E+00
 9.3725002E-01  0.0000000E+00
 9.4875002E-01  0.0000000E+00
 9.6025002E-01  0.0000000E+00
 9.7175002E-01  0.0000000E+00
 9.8325002E-01  0.0000000E+00
 9.9475002E-01  0.0000000E+00
 1.0062500E+00  0.0000000E+00
 1.0177500E+00  0.0000000E+00
 1.0292500E+00  0.0000000E+00
 1.0407500E+00  0.0000000E+00
 1.0522500E+00  0.0000000E+00
 1.0637500E+00  0.0000000E+00
 1.0752500E+00  0.0000000E+00
 1.0867500E+00  0.0000000E+00
 1.0982500E+00  0.0000000E+00
 1.1097500E+00  0.0000000E+00
 1.1212500E+00  0.0000000E+00
 1.1327500E+00  0.0000000E+00
 1.1442500E+00  0.0000000E+00
 1.1557500E+00  0.0000000E+00
 1.1672500E+00  0.0000000E+00
 1.1787500E+00  0.0000000E+00
 1.1902500E+00  0.0000000E+00
 1.2017500E+00  0.0000000E+00
 1.2132500E+00  0.0000000E+00
 1.2247500E+00  0.0000000E+00
 1.2362500E+00  0.0000000E+00
 1.2477500E+00  0.0000000E+00
 1.2592500E+00  0.0000000E+00
 1.2707500E+00  0.0000000E+00
 1.2822500E+00  0.0000000E+00
 1.2937500E+00  0.0000000E+00
 1.3052500E+00  0.0000000E+00
 1.3167500E+00  0.0000000E+00
 1.3282501E+00  0.0000000E+00
 1.3397501E+00  0.0000000E+00
 1.3512501E+00  0.0000000E+00
 1.3627501E+00  0.0000000E+00
 1.3742501E+00  0.0000000E+00
 1.3857501E+00  0.0000000E+00
 1.3972501E+00  0.0000000E+00
 1.4087501E+00  0.0000000E+00
 1.4202501E+00  0.0000000E+00
 1.4317501E+00  0.0000000E+00
 1.4432501E+00  0.0000000E+00
 1.4547501E+00  0.0000000E+00
 1.4662501E+00  0.0000000E+00
 1.4777501E+00  0.0000000E+00
 1.4892501E+00  0.0000000E+00
 1.5007501E+00  0.0000000E+00
 1.5122501E+00  0.0000000E+00
 1.5237501E+00  0.0000000E+00
 1.5352501E+00  0.0000000E+00
 1.5467501E+00  0.0000000E+00
 1.5582501E+00  0.0000000E+00
 1.5697501E+00  0.0000000E+00
 1.5812501E+00  0.0000000E+00
 1.5927501E+00  0.0000000E+00
 1.6042501E+00  0.0000000E+00
 1.6157501E+00  0.0000000E+00
 1.6272501E+00  0.0000000E+00
 1.6387501E+00  0.0000000E+00
 1.6502501E+00  0.0000000E+00
 1.6617501E+00  0.0000000E+00
 1.6732501E+00  0.0000000E+00
 1.6847501E+00  0.0000000E+00
 1.6962501E+00  0.0000000E+00
 1.7077501E+00  0.0000000E+00
 1.7192501E+00  0.0000000E+00
 1.7307501E+00  0.0000000E+00
 1.7422501E+00  0.0000000E+00
 1.7537501E+00  0.0000000E+00
 1.7652501E+00  0.0000000E+00
 1.7767501E+00  0.0000000E+00
 1.7882501E+00  0.0000000E+00
 1.7997501E+00  0.0000000E+00
 1.8112501E+00  0.0000000E+00
 1.8227501E+00  0.0000000E+00
 1.8342501E+00  0.0000000E+00
 1.8457501E+00  0.0000000E+00
 1.8572501E+00  0.0000000E+00
 1.8687501E+00  0.0000000E+00
 1.8802501E+00  0.0000000E+00
 1.8917501E+00  0.0000000E+00
 1.9032501E+00  0.0000000E+00
 1.9147501E+00  0.0000000E+00
 1.9262501E+00  0.0000000E+00
 1.9377501E+00  0.0000000E+00
 1.9492501E+00  0.0000000E+00
 1.9607501E+00  0.0000000E+00
 1.9722501E+00  0.0000000E+00
 1.9837501E+00  0.0000000E+00
 1.9952501E+00  0.0000000E+00
 2.0067501E+00  0.0000000E+00
 2.0182500E+00  0.0000000E+00
 2.0297501E+00  0.0000000E+00
 2.0412500E+00  0.0000000E+00
 2.0527501E+00  0.0000000E+00
 2.0642500E+00  0.0000000E+00
 2.0757501E+00  0.0000000E+00
 2.0872500E+00  0.0000000E+00
 2.0987501E+00  0.0000000E+00
 2.1102500E+00  0.0000000E+00
 2.1217501E+00  0.0000000E+00
 2.1332500E+00  0.0000000E+00
 2.1447501E+00  0.0000000E+00
 2.1562500E+00  0.0000000E+00
 2.1677501E+00  0.0000000E+00
 2.1792500E+00  0.0000000E+00
 2.1907501E+00  0.0000000E+00
 2.2022500E+00  0.0000000E+00
 2.2137501E+00  0.0000000E+00
 2.2252500E+00  0.0000000E+00
 2.2367501E+00  0.0000000E+00
 2.2482500E+00  0.0000000E+00
 2.2597501E+00  0.0000000E+00
 2.2712500E+00  0.0000000E+00
 2.2827501E+00  0.0000000E+00
 2.2942500E+00  0.0000000E+00
 2.3057501E+00  0.0000000E+00
 2.3172500E+00  0.0000000E+00
 2.3287501E+00  0.0000000E+00
 2.3402500E+00  0.0000000E+00
 2.3517501E+00  0.0000000E+00
 2.3632500E+00  0.0000000E+00
 2.3747501E+00  0.0000000E+00
 2.3862500E+00  0.0000000E+00
 2.3977501E+00  0.0000000E+00
 2.4092500E+00  0.0000000E+00
 2.4207501E+00  0.0000000E+00
 2.4322500E+00  0.0000000E+00
 2.4437501E+00  0.0000000E+00
 2.4552500E+00  0.0000000E+00
 2.4667501E+00  0.0000000E+00
 2.4782500E+00  0.0000000E+00
 2.4897501E+00  0.0000000E+00
 2.5012500E+00  0.0000000E+00
 2.5127501E+00  0.0000000E+00
 2.5242500E+00  0.0000000E+00
 2.5357502E+00  0.0000000E+00
 2.5472500E+00  0.0000000E+00
 2.5587502E+00  0.0000000E+00
 2.5702500E+00  0.0000000E+00
 2.5817502E+00  0.0000000E+00
 2.5932500E+00  0.0000000E+00
 2.6047502E+00  0.0000000E+00
 2.6162500E+00  0.0000000E+00
 2.6277502E+00  0.0000000E+00
 2.6392500E+00  0.0000000E+00
 2.6507502E+00  0.0000000E+00
 2.6622500E+00  0.0000000E+00
 2.6737502E+00  0.0000000E+00
 2.6852500E+00  0.0000000E+00
 2.6967502E+00  0.0000000E+00
 2.7082500E+00  0.0000000E+00
 2.7197502E+00  0.0000000E+00
 2.7312500E+00  0.0000000E+00
 2.7427502E+00  0.0000000E+00
 2.7542500E+00  0.0000000E+00
 2.7657502E+00  0.0000000E+00
 2.7772501E+00  0.0000000E+00
 2.7887502E+00  0.0000000E+00
 2.8002501E+00  0.0000000E+00
 2.8117502E+00  0.0000000E+00
 2.8232501E+00  3.1694506E+01
 2.8347502E+00  3.3946873E+01
 2.8462501E+00  3.4651386E+01
 2.8577502E+00  3.5404812E+01
 2.8692501E+00  3.5660706E+01
 2.8807502E+00  3.5498611E+01
 2.8922501E+00  3.5187614E+01
 2.9037502E+00  3.5312214E+01
 2.9152501E+00  3.5732456E+01
 2.9267502E+00  3.6107304E+01
 2.9382501E+00  3.6207539E+01
 2.9497502E+00  3.6200516E+01
 2.9612501E+00  3.6034271E+01
 2.9727502E+00  3.5679096E+01
 2.9842501E+00  3.5473461E+01
 2.9957502E+00  3.5963680E+01
 3.0072501E+00  3.6384628E+01
 3.0187502E+00  3.6717525E+01
 3.0302501E+00  3.6290421E+01
 3.0417502E+00  3.5827362E+01
 3.0532501E+00  3.5128468E+01
 3.0647502E+00  3.4862885E+01
 3.0762501E+00  3.5023281E+01
 3.0877502E+00  3.5105007E+01
 3.0992501E+00  3.5632317E+01
 3.1107502E+00  3.5465111E+01
 3.1222501E+00  3.6212406E+01
 3.1337502E+00  3.5863548E+01
 3.1452501E+00  3.6488110E+01
 3.1567502E+00  3.6486233E+01
 3.1682501E+00  3.6851414E+01
 3.1797502E+00  3.6665905E+01
 3.1912501E+00  3.6535210E+01
 3.2027502E+00  3.6207340E+01
 3.2142501E+00  3.6195930E+01
 3.2257502E+00  3.5884972E+01
 3.2372501E+00  3.5839668E+01
 3.2487502E+00  3.5666363E+01
 3.2602501E+00  3.5661915E+01
 3.2717502E+00  3.5766956E+01
 3.2832501E+00  3.5642632E+01
 3.2947502E+00  3.5496006E+01
 3.3062501E+00  3.5383270E+01
 3.3177502E+00  3.5196266E+01
 3.3292501E+00  3.5152573E+01
 3.3407502E+00  3.4881699E+01
 3.3522501E+00  3.5112331E+01
 3.3637502E+00  3.5148514E+01
 3.3752501E+00  3.5345867E+01
 3.3867502E+00  3.5380314E+01
 3.3982501E+00  3.5290127E+01
 3.4097502E+00  3.5083710E+01
 3.4212501E+00  3.4959137E+01
 3.4327502E+00  3.5043587E+01
 3.4442501E+00  3.5145081E+01
 3.4557502E+00  3.4890381E+01
 3.4672501E+00  3.5021854E+01
 3.4787502E+00  3.4803699E+01
 3.4902501E+00  3.5034515E+01
 3.5017502E+00  3.4689507E+01
 3.5132501E+00  3.4617710E+01
 3.5247502E+00  3.4776527E+01
 3.5362501E+00  3.4517479E+01
 3.5477502E+00  3.4537350E+01
 3.5592501E+00  3.4032391E+01
 3.5707502E+00  3.3787663E+01
 3.5822501E+00  3.3602180E+01
 3.5937502E+00  3.3553223E+01
 3.6052501E+00  3.3649494E+01
 3.6167502E+00  3.3721897E+01
 3.6282501E+00  3.3611835E+01
 3.6397502E+00  3.3510967E+01
 3.6512501E+00  3.3641724E+01
 3.6627502E+00  3.3569935E+01
 3.6742501E+00  3.3746384E+01
 3.6857502E+00  3.3793293E+01
 3.6972501E+00  3.3767010E+01
 3.7087502E+00  3.3850895E+01
 3.7202501E+00  3.3405209E+01
 3.7317502E+00  3.3352558E+01
 3.7432501E+00  3.3206581E+01
 3.7547503E+00  3.3271168E+01
 3.7662501E+00  3.3355911E+01
 3.7777503E+00  3.3450718E+01
 3.7892501E+00  3.3420094E+01
 3.8007503E+00  3.3383308E+01
 3.8122501E+00  3.3184708E+01
 3.8237503E+00  3.3202106E+01
 3.8352501E+00  3.3299831E+01
 3.8467503E+00  3.3443558E+01
 3.8582501E+00  3.3427338E+01
 3.8697503E+00  3.3484829E+01
 3.8812501E+00  3.3366585E+01
 3.8927503E+00  3.3158504E+01
 3.9042501E+00  3.3069576E+01
 3.9157503E+00  3.2771664E+01
 3.9272501E+00  3.2780197E+01
 3.9387503E+00  3.2631721E+01
 3.9502501E+00  3.2720387E+01
 3.9617503E+00  3.2919018E+01
 3.9732502E+00  3.3117176E+01
 3.9847503E+00  3.3245399E+01
 3.9962502E+00  3.3329540E+01
 4.0077500E+00  3.3247017E+01
 4.0192504E+00  3.3303513E+01
 4.0307503E+00  3.3316067E+01
 4.0422502E+00  3.3396969E+01
 4.0537500E+00  3.3290504E+01
 4.0652504E+00  3.3327915E+01
 4.0767503E+00  3.3310192E+01
 4.0882502E+00  3.3270069E+01
 4.0997500E+00  3.3140110E+01
 4.1112504E+00  3.3239510E+01
 4.1227503E+00  3.3304104E+01
 4.1342502E+00  3.3334782E+01
 4.1457500E+00  3.3373055E+01
 4.1572504E+00  3.3248112E+01
 4.1687503E+00  3.3199665E+01
 4.1802502E+00  3.2731102E+01
 4.1917500E+00  3.2689041E+01
 4.2032504E+00  3.2543808E+01
 4.2147503E+00  3.2551220E+01
 4.2262502E+00  3.2593208E+01
 4.2377501E+00  3.2570583E+01
 4.2492504E+00  3.2711235E+01
 4.2607503E+00  3.2726784E+01
 4.2722502E+00  3.2868820E+01
 4.2837501E+00  3.2968639E+01
 4.2952504E+00  3.2992123E+01
 4.3067503E+00  3.2971451E+01
 4.3182502E+00  3.2984917E+01
 4.3297501E+00  3.2992310E+01
 4.3412504E+00  3.3067619E+01
 4.3527503E+00  3.3083073E+01
 4.3642502E+00  3.3100887E+01
 4.3757501E+00  3.3112656E+01
 4.3872504E+00  3.3076027E+01
 4.3987503E+00  3.3003185E+01
 4.4102502E+00  3.3071274E+01
 4.4217501E+00  3.3035164E+01
 4.4332504E+00  3.3043583E+01
 4.4447503E+00  3.2920654E+01
 4.4562502E+00  3.2824753E+01
 4.4677501E+00  3.2828671E+01
 4.4792504E+00  3.2864101E+01
 4.4907503E+00  3.2906765E+01
 4.5022502E+00  3.3005241E+01
 4.5137501E+00  3.2940926E+01
 4.5252504E+00  3.2904015E+01
 4.5367503E+00  3.2673115E+01
 4.5482502E+00  3.2648388E+01
 4.5597501E+00  3.2594883E+01
 4.5712504E+00  3.2683968E+01
 4.5827503E+00  3.2739403E+01
 4.5942502E+00  3.2832382E+01
 4.6057501E+00  3.2847996E+01
 4.6172504E+00  3.2866093E+01
 4.6287503E+00  3.2986023E+01
 4.6402502E+00  3.3162346E+01
 4.6517501E+00  3.3181705E+01
 4.6632504E+00  3.3162495E+01
 4.6747503E+00  3.3146156E+01
 4.6862502E+00  3.3121456E+01
 4.6977501E+00  3.3248604E+01
 4.7092505E+00  3.3267200E+01
 4.7207503E+00  3.3198364E+01
 4.7322502E+00  3.3040722E+01
 4.7437501E+00  3.2871655E+01
 4.7552505E+00  3.2869217E+01
 4.7667503E+00  3.2944809E+01
 4.7782502E+00  3.2956364E+01
 4.7897501E+00  3.2899406E+01
 4.8012505E+00  3.2829239E+01
 4.8127503E+00  3.2868572E+01
 4.8242502E+00  3.2958862E+01
 4.8357501E+00  3.3097645E+01
 4.8472505E+00  3.3148777E+01
 4.8587503E+00  3.3290432E+01
 4.8702502E+00  3.3255730E+01
 4.8817501E+00  3.3302784E+01
 4.8932505E+00  3.3327900E+01
 4.9047503E+00  3.3418118E+01
 4.9162502E+00  3.3555737E+01
 4.9277501E+00  3.3478657E+01
 4.9392505E+00  3.3449532E+01
 4.9507504E+00  3.3370487E+01
 4.9622502E+00  3.3353451E+01
 4.9737501E+00  3.3431049E+01
 4.9852505E+00  3.3462112E+01
 4.9967504E+00  3.3484375E+01
 5.0082502E+00  3.3523266E+01
 5.0197501E+00  3.3521919E+01
 5.0312505E+00  3.3557190E+01
 5.0427504E+00  3.3636120E+01
 5.0542502E+00  3.3716770E+01
 5.0657501E+00  3.3811684E+01
 5.0772505E+00  3.3878311E+01
 5.0887504E+00  3.3887592E+01
 5.1002502E+00  3.3917892E+01
 5.1117501E+00  3.3887047E+01
 5.1232505E+00  3.3872742E+01
 5.1347504E+00  3.4011494E+01
 5.1462502E+00  3.4161507E+01
 5.1577501E+00  3.4145084E+01
 5.1692505E+00  3.4128742E+01
 5.1807504E+00  3.4028702E+01
 5.1922503E+00  3.4161648E+01
 5.2037501E+00  3.4178238E+01
 5.2152505E+00  3.4392883E+01
 5.2267504E+00  3.4436329E+01
 5.2382503E+00  3.4510647E+01
 5.2497501E+00  3.4294521E+01
 5.2612505E+00  3.4253735E+01
 5.2727504E+00  3.4177933E+01
 5.2842503E+00  3.4235825E+01
 5.2957501E+00  3.4143219E+01
 5.3072500E+00  3.4160500E+01
 5.3187504E+00  3.4300640E+01
 5.3302503E+00  3.4409256E+01
 5.3417501E+00  3.4426403E+01
 5.3532500E+00  3.4456013E+01
 5.3647504E+00  3.4470631E+01
 5.3762503E+00  3.4539246E+01
 5.3877501E+00  3.4638004E+01
 5.3992500E+00  3.4752327E+01
 5.4107504E+00  3.4890404E+01
 5.4222503E+00  3.4880890E+01
 5.4337502E+00  3.4795410E+01
 5.4452500E+00  3.4836578E+01
 5.4567504E+00  3.4824783E+01
 5.4682503E+00  3.4869919E+01
 5.4797502E+00  3.4934605E+01
 5.4912500E+00  3.4941929E+01
 5.5027504E+00  3.4985172E+01
 5.5142503E+00  3.5017555E+01
 5.5257502E+00  3.5077324E+01
 5.5372500E+00  3.5122379E+01
 5.5487504E+00  3.5108910E+01
 5.5602503E+00  3.5178757E+01
 5.5717502E+00  3.5257370E+01
 5.5832500E+00  3.5353088E+01
 5.5947504E+00  3.5395626E+01
 5.6062503E+00  3.5486263E+01
 5.6177502E+00  3.5527412E+01
 5.6292500E+00  3.5495438E+01
 5.6407504E+00  3.5458633E+01
 5.6522503E+00  3.5454651E+01
 5.6637502E+00  3.5457298E+01
 5.6752501E+00  3.5549309E+01
 5.6867504E+00  3.5533989E+01
 5.6982503E+00  3.5611443E+01
 5.7097502E+00  3.5683819E+01
 5.7212501E+00  3.5765934E+01
 5.7327504E+00  3.5787064E+01
 5.7442503E+00  3.5782806E+01
 5.7557502E+00  3.5751633E+01
 5.7672501E+00  3.5780796E+01
 5.7787504E+00  3.5735378E+01
 5.7902503E+00  3.5751408E+01
 5.8017502E+00  3.5661785E+01
 5.8132501E+00  3.5781742E+01
 5.8247504E+00  3.5859451E+01
 5.8362503E+00  3.6128590E+01
 5.8477502E+00  3.6272186E+01
 5.8592501E+00  3.6370724E+01
 5.8707504E+00  3.6623367E+01
 5.8822503E+00  3.6709648E+01
 5.8937502E+00  3.6991779E+01
 5.9052501E+00  3.7200977E+01
 5.9167504E+00  3.7524242E+01
 5.9282503E+00  3.8225681E+01
 5.9397502E+00  3.9301952E+01
 5.9512501E+00  4.0482952E+01
 5.9627504E+00  4.2325237E+01
 5.9742503E+00  4.3670582E+01
 5.9857502E+00  4.4464893E+01
 5.9972501E+00  4.4347084E+01
 6.0087504E+00  4.3028481E+01
 6.0202503E+00  4.1527847E+01
 6.0317502E+00  3.9751659E+01
 6.0432501E+00  3.8589211E+01
 6.0547504E+00  3.7875862E+01
 6.0662503E+00  3.7438469E+01
 6.0777502E+00  3.7232189E+01
 6.0892501E+00  3.7212475E+01
 6.1007504E+00  3.7205570E+01
 6.1122503E+00  3.7200451E+01
 6.1237502E+00  3.7153454E+01
 6.1352501E+00  3.7114864E+01
 6.1467505E+00  3.7084736E+01
 6.1582503E+00  3.7150101E+01
 6.1697502E+00  3.7136406E+01
 6.1812501E+00  3.7315556E+01
 6.1927505E+00  3.7308971E+01
 6.2042503E+00  3.7371380E+01
 6.2157502E+00  3.7293827E+01
 6.2272501E+00  3.7433693E+01
 6.2387505E+00  3.7426731E+01
 6.2502503E+00  3.7532188E+01
 6.2617502E+00  3.7528900E+01
 6.2732501E+00  3.7662769E+01
 6.2847505E+00  3.7706814E+01
 6.2962503E+00  3.7793716E+01
 6.3077502E+00  3.7859680E+01
 6.3192501E+00  3.7955631E+01
 6.3307505E+00  3.8016422E+01
 6.3422503E+00  3.8088081E+01
 6.3537502E+00  3.8163372E+01
 6.3652501E+00  3.8247829E+01
 6.3767505E+00  3.8363689E+01
 6.3882504E+00  3.8542599E+01
 6.3997502E+00  3.8652748E+01
 6.4112501E+00  3.8816566E+01
 6.4227505E+00  3.8998291E+01
 6.4342504E+00  3.9144554E+01
 6.4457502E+00  3.9152012E+01
 6.4572501E+00  3.9069813E+01
 6.4687505E+00  3.8950684E+01
 6.4802504E+00  3.8865490E+01
 6.4917502E+00  3.8822426E+01
 6.5032501E+00  3.8939472E+01
 6.5147505E+00  3.9189724E+01
 6.5262504E+00  3.9329395E+01
 6.5377502E+00  3.9496445E+01
 6.5492501E+00  3.9549068E+01
 6.5607505E+00  3.9701267E+01
 6.5722504E+00  3.9818546E+01
 6.5837502E+00  4.0011780E+01
 6.5952501E+00  4.0032650E+01
 6.6067505E+00  4.0150459E+01
 6.6182504E+00  4.0210678E+01
 6.6297503E+00  4.0398487E+01
 6.6412501E+00  4.0507610E+01
 6.6527505E+00  4.0528976E+01
 6.6642504E+00  4.0600075E+01
 6.6757503E+00  4.0615410E+01
 6.6872501E+00  4.0688858E+01
 6.6987505E+00  4.0734013E+01
 6.7102504E+00  4.0825008E+01
 6.7217503E+00  4.0943348E+01
 6.7332501E+00  4.1048561E+01
 6.7447505E+00  4.1025017E+01
 6.7562504E+00  4.1055824E+01
 6.7677503E+00  4.1094841E+01
 6.7792501E+00  4.1187801E+01
 6.7907505E+00  4.1248158E+01
 6.8022504E+00  4.1307007E+01
 6.8137503E+00  4.1369717E+01
 6.8252501E+00  4.1455444E+01
 6.8367505E+00  4.1507156E+01
 6.8482504E+00  4.1623177E+01
 6.8597503E+00  4.1760601E+01
 6.8712502E+00  4.1927601E+01
 6.8827505E+00  4.2070637E+01
 6.8942504E+00  4.2158783E+01
 6.9057503E+00  4.2265999E+01
 6.9172502E+00  4.2263542E+01
 6.9287505E+00  4.2222816E+01
 6.9402504E+00  4.2240719E+01
 6.9517503E+00  4.2269321E+01
 6.9632502E+00  4.2400803E+01
 6.9747505E+00  4.2533813E+01
 6.9862504E+00  4.2641563E+01
 6.9977503E+00  4.2725632E+01
 7.0092502E+00  4.2748936E+01
 7.0207505E+00  4.2840591E+01
 7.0322504E+00  4.2924232E+01
 7.0437503E+00  4.3104404E+01
 7.0552502E+00  4.3284256E+01
 7.0667505E+00  4.3535297E+01
 7.0782504E+00  4.3598896E+01
 7.0897503E+00  4.3639881E+01
 7.1012502E+00  4.3659149E+01
 7.1127505E+00  4.3618771E+01
 7.1242504E+00  4.3562294E+01
 7.1357503E+00  4.3477913E+01
 7.1472502E+00  4.3446178E+01
 7.1587505E+00  4.3482658E+01
 7.1702504E+00  4.3434742E+01
 7.1817503E+00  4.3441425E+01
 7.1932502E+00  4.3506031E+01
 7.2047505E+00  4.3533997E+01
 7.2162504E+00  4.3526657E+01
 7.2277503E+00  4.3538525E+01
 7.2392502E+00  4.3627274E+01
 7.2507505E+00  4.3758400E+01
 7.2622504E+00  4.3860905E+01
 7.2737503E+00  4.3918362E+01
 7.2852502E+00  4.3990547E+01
 7.2967505E+00  4.3985432E+01
 7.3082504E+00  4.4037998E+01
 7.3197503E+00  4.4046520E+01
 7.3312502E+00  4.4082359E+01
 7.3427505E+00  4.4195518E+01
 7.3542504E+00  4.4282181E+01
 7.3657503E+00  4.4413410E+01
 7.3772502E+00  4.4460926E+01
 7.3887506E+00  4.4590534E+01
 7.4002504E+00  4.4561180E+01
 7.4117503E+00  4.4580929E+01
 7.4232502E+00  4.4472427E+01
 7.4347506E+00  4.4513126E+01
 7.4462504E+00  4.4596966E+01
 7.4577503E+00  4.4640823E+01
 7.4692502E+00  4.4719631E+01
 7.4807506E+00  4.4676785E+01
 7.4922504E+00  4.4724758E+01
 7.5037503E+00  4.4779690E+01
 7.5152502E+00  4.4760372E+01
 7.5267506E+00  4.4721931E+01
 7.5382504E+00  4.4726677E+01
 7.5497503E+00  4.4690292E+01
 7.5612502E+00  4.4794098E+01
 7.5727506E+00  4.4801235E+01
 7.5842505E+00  4.4852867E+01
 7.5957503E+00  4.4813889E+01
 7.6072502E+00  4.4780426E+01
 7.6187506E+00  4.4771664E+01
 7.6302505E+00  4.4723423E+01
 7.6417503E+00  4.4750465E+01
 7.6532502E+00  4.4773075E+01
 7.6647506E+00  4.4883102E+01
 7.6762505E+00  4.4880466E+01
 7.6877503E+00  4.4822342E+01
 7.6992502E+00  4.4831348E+01
 7.7107506E+00  4.4817009E+01
 7.7222505E+00  4.4878578E+01
 7.7337503E+00  4.4832985E+01
 7.7452502E+00  4.4873528E+01
 7.7567506E+00  4.4879326E+01
 7.7682505E+00  4.4886223E+01
 7.7797503E+00  4.4890804E+01
 7.7912502E+00  4.4902737E+01
 7.8027506E+00  4.4817776E+01
 7.8142505E+00  4.4803230E+01
 7.8257504E+00  4.4612389E+01
 7.8372502E+00  4.4700798E+01
 7.8487506E+00  4.4548340E+01
 7.8602505E+00  4.4591331E+01
 7.8717504E+00  4.4459312E+01
 7.8832502E+00  4.4344219E+01
 7.8947506E+00  4.4151787E+01
 7.9062505E+00  4.4115154E+01
 7.9177504E+00  4.4105274E+01
 7.9292502E+00  4.4101337E+01
 7.9407506E+00  4.3978256E+01
 7.9522505E+00  4.3982731E+01
 7.9637504E+00  4.3976818E+01
 7.9752502E+00  4.3942669E+01
 7.9867506E+00  4.3908607E+01
 7.9982505E+00  4.3888878E+01
 8.0097504E+00  4.3921856E+01
 8.0212507E+00  4.3859886E+01
 8.0327501E+00  4.3817802E+01
 8.0442505E+00  4.3782040E+01
 8.0557508E+00  4.3736393E+01
 8.0672503E+00  4.3549248E+01
 8.0787506E+00  4.3412983E+01
 8.0902500E+00  4.3384758E+01
 8.1017504E+00  4.3441532E+01
 8.1132507E+00  4.3497250E+01
 8.1247501E+00  4.3363239E+01
 8.1362505E+00  4.3249649E+01
 8.1477509E+00  4.3078957E+01
 8.1592503E+00  4.2897041E+01
 8.1707506E+00  4.2842216E+01
 8.1822500E+00  4.2673439E+01
 8.1937504E+00  4.2593868E+01
 8.2052507E+00  4.2309841E+01
 8.2167501E+00  4.2064587E+01
 8.2282505E+00  4.1883518E+01
 8.2397509E+00  4.1665005E+01
 8.2512503E+00  4.1640224E+01
 8.2627506E+00  4.1447170E+01
 8.2742500E+00  4.1438503E+01
 8.2857504E+00  4.1262791E+01
 8.2972507E+00  4.1096863E+01
 8.3087502E+00  4.0943195E+01
 8.3202505E+00  4.0740353E+01
 8.3317509E+00  4.0568321E+01
 8.3432503E+00  4.0458176E+01
 8.3547506E+00  4.0333504E+01
 8.3662500E+00  4.0290138E+01
 8.3777504E+00  4.0078945E+01
 8.3892508E+00  3.9955578E+01
 8.4007502E+00  3.9753792E+01
 8.4122505E+00  3.9654709E+01
 8.4237509E+00  3.9551163E+01
 8.4352503E+00  3.9420155E+01
 8.4467506E+00  3.9337620E+01
 8.4582500E+00  3.9115757E+01
 8.4697504E+00  3.8968479E+01
 8.4812508E+00  3.8617748E+01
 8.4927502E+00  3.8376678E+01
 8.5042505E+00  3.8164501E+01
 8.5157509E+00  3.8007912E+01
 8.5272503E+00  3.7908016E+01
 8.5387506E+00  3.7789761E+01
 8.5502501E+00  3.7705448E+01
 8.5617504E+00  3.7493397E+01
 8.5732508E+00  3.7257271E+01
 8.5847502E+00  3.7032417E+01
 8.5962505E+00  3.6806751E+01
 8.6077509E+00  3.6631050E+01
 8.6192503E+00  3.6497662E+01
 8.6307507E+00  3.6373566E+01
 8.6422501E+00  3.6184067E+01
 8.6537504E+00  3.5940735E+01
 8.6652508E+00  3.5772858E+01
 8.6767502E+00  3.5673759E+01
 8.6882505E+00  3.5538383E+01
 8.6997509E+00  3.5388817E+01
 8.7112503E+00  3.5212376E+01
 8.7227507E+00  3.5072102E+01
 8.7342501E+00  3.4891945E+01
 8.7457504E+00  3.4698521E+01
 8.7572508E+00  3.4450058E+01
 8.7687502E+00  3.4282394E+01
 8.7802505E+00  3.4142941E+01
 8.7917500E+00  3.3991142E+01
 8.8032503E+00  3.3798210E+01
 8.8147507E+00  3.3612133E+01
 8.8262501E+00  3.3452873E+01
 8.8377504E+00  3.3376865E+01
 8.8492508E+00  3.3211739E+01
 8.8607502E+00  3.3040886E+01
 8.8722506E+00  3.2865665E+01
 8.8837500E+00  3.2691624E+01
 8.8952503E+00  3.2506355E+01
 8.9067507E+00  3.2316372E+01
 8.9182501E+00  3.2135681E+01
 8.9297504E+00  3.2075352E+01
 8.9412508E+00  3.1892351E+01
 8.9527502E+00  3.1807531E+01
 8.9642506E+00  3.1619234E+01
 8.9757500E+00  3.1522137E+01
 8.9872503E+00  3.1303913E+01
 8.9987507E+00  3.1042250E+01
 9.0102501E+00  3.0853420E+01
 9.0217505E+00  3.0690901E+01
 9.0332508E+00  3.0668306E+01
 9.0447502E+00  3.0553747E+01
 9.0562506E+00  3.0463818E+01
 9.0677500E+00  3.0333290E+01
 9.0792503E+00  3.0252499E+01
 9.0907507E+00  3.0108015E+01
 9.1022501E+00  2.9990923E+01
 9.1137505E+00  2.9911133E+01
 9.1252508E+00  2.9863897E+01
 9.1367502E+00  2.9782532E+01
 9.1482506E+00  2.9667973E+01
 9.1597500E+00  2.9478451E+01
 9.1712503E+00  2.9332140E+01
 9.1827507E+00  2.9138987E+01
 9.1942501E+00  2.9045065E+01
 9.2057505E+00  2.8977461E+01
 9.2172508E+00  2.8950075E+01
 9.2287502E+00  2.8789011E+01
 9.2402506E+00  2.8616743E+01
 9.2517500E+00  2.8378969E+01
 9.2632504E+00  2.8312300E+01
 9.2747507E+00  2.8268038E+01
 9.2862501E+00  2.8249199E+01
 9.2977505E+00  2.8238163E+01
 9.3092508E+00  2.8143915E+01
 9.3207502E+00  2.8044588E+01
 9.3322506E+00  2.7947067E+01
 9.3437500E+00  2.7743935E+01
 9.3552504E+00  2.7627201E+01
 9.3667507E+00  2.7484970E+01
 9.3782501E+00  2.7426840E+01
 9.3897505E+00  2.7369568E+01
 9.4012508E+00  2.7278156E+01
 9.4127502E+00  2.7205656E+01
 9.4242506E+00  2.7103014E+01
 9.4357500E+00  2.7056705E+01
 9.4472504E+00  2.7022808E+01
 9.4587507E+00  2.6979900E+01
 9.4702501E+00  2.6875557E+01
 9.4817505E+00  2.6764330E+01
 9.4932508E+00  2.6615425E+01
 9.5047503E+00  2.6495386E+01
 9.5162506E+00  2.6458168E+01
 9.5277500E+00  2.6386353E+01
 9.5392504E+00  2.6333666E+01
 9.5507507E+00  2.6215187E+01
 9.5622501E+00  2.6230532E+01
 9.5737505E+00  2.6139542E+01
 9.5852509E+00  2.6112600E+01
 9.5967503E+00  2.6112909E+01
 9.6082506E+00  2.6101627E+01
 9.6197500E+00  2.6064024E+01
 9.6312504E+00  2.5885775E+01
 9.6427507E+00  2.5823860E+01
 9.6542501E+00  2.5791990E+01
 9.6657505E+00  2.5747574E+01
 9.6772509E+00  2.5623652E+01
 9.6887503E+00  2.5493725E+01
 9.7002506E+00  2.5436684E+01
 9.7117500E+00  2.5430683E+01
 9.7232504E+00  2.5454344E+01
 9.7347507E+00  2.5388899E+01
 9.7462502E+00  2.5348238E+01
 9.7577505E+00  2.5282791E+01
 9.7692509E+00  2.5267723E+01
 9.7807503E+00  2.5229439E+01
 9.7922506E+00  2.5117207E+01
 9.8037500E+00  2.5063822E+01
 9.8152504E+00  2.4981020E+01
 9.8267508E+00  2.4974195E+01
 9.8382502E+00  2.4931200E+01
 9.8497505E+00  2.4949650E+01
 9.8612509E+00  2.4964012E+01
 9.8727503E+00  2.4999344E+01
 9.8842506E+00  2.4983736E+01
 9.8957500E+00  2.4942154E+01
 9.9072504E+00  2.4860197E+01
 9.9187508E+00  2.4807520E+01
 9.9302502E+00  2.4727329E+01
 9.9417505E+00  2.4623743E+01
 9.9532509E+00  2.4513828E+01
 9.9647503E+00  2.4490129E+01
 9.9762506E+00  2.4492960E+01
 9.9877501E+00  2.4498398E+01
 9.9992504E+00  2.4443218E+01
 1.0010751E+01  2.4402540E+01
 1.0022250E+01  2.4356133E+01
 1.0033751E+01  2.4354420E+01
 1.0045251E+01  2.4316448E+01
 1.0056750E+01  2.4202311E+01
 1.0068251E+01  2.4112507E+01
 1.0079750E+01  2.3982639E+01
 1.0091250E+01  2.3981026E+01
 1.0102751E+01  2.4021538E+01
 1.0114250E+01  2.4074535E+01
 1.0125751E+01  2.4119070E+01
 1.0137251E+01  2.4059059E+01
 1.0148750E+01  2.4080622E+01
 1.0160251E+01  2.4073391E+01
 1.0171750E+01  2.4077106E+01
 1.0183250E+01  2.4110891E+01
 1.0194751E+01  2.4104713E+01
 1.0206250E+01  2.4154167E+01
 1.0217751E+01  2.4151384E+01
 1.0229251E+01  2.4149300E+01
 1.0240750E+01  2.4119446E+01
 1.0252251E+01  2.4070787E+01
 1.0263750E+01  2.3979137E+01
 1.0275250E+01  2.3875183E+01
 1.0286751E+01  2.3803045E+01
 1.0298250E+01  2.3813509E+01
 1.0309751E+01  2.3828577E+01
 1.0321251E+01  2.3780928E+01
 1.0332750E+01  2.3755272E+01
 1.0344251E+01  2.3720036E+01
 1.0355750E+01  2.3701317E+01
 1.0367250E+01  2.3559738E+01
 1.0378751E+01  2.3477301E+01
 1.0390250E+01  2.3485214E+01
 1.0401751E+01  2.3553144E+01
 1.0413251E+01  2.3589445E+01
 1.0424750E+01  2.3552137E+01
 1.0436251E+01  2.3493462E+01
 1.0447750E+01  2.3421240E+01
 1.0459250E+01  2.3342627E+01
 1.0470751E+01  2.3355293E+01
 1.0482250E+01  2.3361654E+01
 1.0493751E+01  2.3357500E+01
 1.0505251E+01  2.3371590E+01
 1.0516750E+01  2.3375465E+01
 1.0528251E+01  2.3392344E+01
 1.0539750E+01  2.3392162E+01
 1.0551250E+01  2.3436125E+01
 1.0562751E+01  2.3479397E+01
 1.0574250E+01  2.3418640E+01
 1.0585751E+01  2.3351177E+01
 1.0597251E+01  2.3208807E+01
 1.0608750E+01  2.3125408E+01
 1.0620251E+01  2.2985584E+01
 1.0631750E+01  2.2953735E+01
 1.0643250E+01  2.2919064E+01
 1.0654751E+01  2.2935963E+01
 1.0666250E+01  2.2945982E+01
 1.0677751E+01  2.2946857E+01
 1.0689251E+01  2.2980007E+01
 1.0700750E+01  2.2973671E+01
 1.0712251E+01  2.3007498E+01
 1.0723750E+01  2.3030367E+01
 1.0735250E+01  2.3040140E+01
 1.0746751E+01  2.3034597E+01
 1.0758250E+01  2.2998466E+01
 1.0769751E+01  2.2980354E+01
 1.0781251E+01  2.2988441E+01
 1.0792750E+01  2.2939194E+01
 1.0804251E+01  2.2865280E+01
 1.0815750E+01  2.2770727E+01
 1.0827250E+01  2.2716713E+01
 1.0838751E+01  2.2746101E+01
 1.0850250E+01  2.2772968E+01
 1.0861751E+01  2.2860117E+01
 1.0873251E+01  2.2873720E+01
 1.0884750E+01  2.2878139E+01
 1.0896251E+01  2.2793848E+01
 1.0907750E+01  2.2751810E+01
 1.0919250E+01  2.2723408E+01
 1.0930751E+01  2.2776615E+01
 1.0942250E+01  2.2789963E+01
 1.0953751E+01  2.2814959E+01
 1.0965251E+01  2.2770704E+01
 1.0976750E+01  2.2792711E+01
 1.0988251E+01  2.2763422E+01
 1.0999750E+01  2.2811216E+01
 1.1011250E+01  2.2792486E+01
 1.1022751E+01  2.2810093E+01
 1.1034250E+01  2.2811499E+01
 1.1045751E+01  2.2794041E+01
 1.1057251E+01  2.2761650E+01
 1.1068750E+01  2.2737797E+01
 1.1080251E+01  2.2748194E+01
 1.1091750E+01  2.2748390E+01
 1.1103251E+01  2.2701061E+01
 1.1114751E+01  2.2681969E+01
 1.1126250E+01  2.2676811E+01
 1.1137751E+01  2.2666773E+01
 1.1149251E+01  2.2698532E+01
 1.1160750E+01  2.2691587E+01
 1.1172251E+01  2.2689478E+01
 1.1183750E+01  2.2658810E+01
 1.1195251E+01  2.2642567E+01
 1.1206751E+01  2.2611444E+01
 1.1218250E+01  2.2565811E+01
 1.1229751E+01  2.2540741E+01
 1.1241251E+01  2.2552771E+01
 1.1252750E+01  2.2621340E+01
 1.1264251E+01  2.2687845E+01
 1.1275750E+01  2.2730408E+01
 1.1287251E+01  2.2738503E+01
 1.1298751E+01  2.2725683E+01
 1.1310250E+01  2.2738947E+01
 1.1321751E+01  2.2687654E+01
 1.1333251E+01  2.2666990E+01
 1.1344750E+01  2.2615225E+01
 1.1356251E+01  2.2621752E+01
 1.1367750E+01  2.2703596E+01
 1.1379251E+01  2.2800474E+01
 1.1390751E+01  2.2863401E+01
 1.1402250E+01  2.3019257E+01
 1.1413751E+01  2.2994513E+01
 1.1425251E+01  2.3037781E+01
 1.1436750E+01  2.2907700E+01
 1.1448251E+01  2.2924757E+01
 1.1459750E+01  2.2931026E+01
 1.1471251E+01  2.2935671E+01
 1.1482751E+01  2.2925739E+01
 1.1494250E+01  2.2890640E+01
 1.1505751E+01  2.2898401E+01
 1.1517251E+01  2.3056301E+01
 1.1528750E+01  2.3403952E+01
 1.1540251E+01  2.3743481E+01
 1.1551750E+01  2.4597845E+01
 1.1563251E+01  2.5249203E+01
 1.1574751E+01  2.5873699E+01
 1.1586250E+01  2.5932690E+01
 1.1597751E+01  2.5776665E+01
 1.1609251E+01  2.5322573E+01
 1.1620750E+01  2.4741699E+01
 1.1632251E+01  2.4054279E+01
 1.1643750E+01  2.3592091E+01
 1.1655251E+01  2.3135576E+01
 1.1666751E+01  2.2955465E+01
 1.1678250E+01  2.2819639E+01
 1.1689751E+01  2.2726315E+01
 1.1701251E+01  2.2693422E+01
 1.1712750E+01  2.2707952E+01
 1.1724251E+01  2.2679823E+01
 1.1735750E+01  2.2673204E+01
 1.1747251E+01  2.2636858E+01
 1.1758751E+01  2.2608961E+01
 1.1770250E+01  2.2560295E+01
 1.1781751E+01  2.2515997E+01
 1.1793251E+01  2.2535988E+01
 1.1804750E+01  2.2551460E+01
 1.1816251E+01  2.2583664E+01
 1.1827750E+01  2.2607382E+01
 1.1839251E+01  2.2629604E+01
 1.1850751E+01  2.2651321E+01
 1.1862250E+01  2.2697554E+01
 1.1873751E+01  2.2673946E+01
 1.1885251E+01  2.2668325E+01
 1.1896750E+01  2.2695257E+01
 1.1908251E+01  2.2756189E+01
 1.1919750E+01  2.2825155E+01
 1.1931251E+01  2.2891388E+01
 1.1942751E+01  2.3024685E+01
 1.1954250E+01  2.3164053E+01
 1.1965751E+01  2.3284601E+01
 1.1977251E+01  2.3384214E+01
 1.1988750E+01  2.3525797E+01
 1.2000251E+01  2.3632233E+01
 1.2011750E+01  2.3769545E+01
 1.2023251E+01  2.3957479E+01
 1.2034751E+01  2.4706720E+01
 1.2046250E+01  2.5157602E+01
 1.2057751E+01  2.7334875E+01
 1.2069251E+01  3.0468952E+01
 1.2080750E+01  3.1020861E+01
 1.2092251E+01  3.5853905E+01
 1.2103750E+01  3.6333199E+01
 1.2115251E+01  3.5980934E+01
 1.2126751E+01  3.1001009E+01
 1.2138250E+01  2.7283705E+01
 1.2149751E+01  2.6602304E+01
 1.2161251E+01  2.4326323E+01
 1.2172750E+01  2.3758049E+01
 1.2184251E+01  2.3461090E+01
 1.2195750E+01  2.3148829E+01
 1.2207251E+01  2.3072903E+01
 1.2218751E+01  2.2949650E+01
 1.2230250E+01  2.2867096E+01
 1.2241751E+01  2.2761366E+01
 1.2253251E+01  2.2687048E+01
 1.2264750E+01  2.2670664E+01
 1.2276251E+01  2.2696415E+01
 1.2287750E+01  2.2778847E+01
 1.2299251E+01  2.2831236E+01
 1.2310751E+01  2.2899725E+01
 1.2322250E+01  2.2881556E+01
 1.2333751E+01  2.2926601E+01
 1.2345250E+01  2.2860231E+01
 1.2356750E+01  2.2846561E+01
 1.2368251E+01  2.2778362E+01
 1.2379750E+01  2.2796831E+01
 1.2391251E+01  2.2784006E+01
 1.2402751E+01  2.2791521E+01
 1.2414250E+01  2.2816431E+01
 1.2425751E+01  2.2842051E+01
 1.2437250E+01  2.2846796E+01
 1.2448750E+01  2.2831575E+01
 1.2460251E+01  2.2862570E+01
 1.2471750E+01  2.2824057E+01
 1.2483251E+01  2.2793015E+01
 1.2494751E+01  2.2762962E+01
 1.2506250E+01  2.2750494E+01
 1.2517751E+01  2.2790419E+01
 1.2529250E+01  2.2845366E+01
 1.2540751E+01  2.2967896E+01
 1.2552251E+01  2.2997755E+01
 1.2563750E+01  2.2998583E+01
 1.2575251E+01  2.2949631E+01
 1.2586751E+01  2.2931013E+01
 1.2598250E+01  2.2948126E+01
 1.2609751E+01  2.2942322E+01
 1.2621250E+01  2.2957987E+01
 1.2632751E+01  2.2907793E+01
 1.2644251E+01  2.2919275E+01
 1.2655750E+01  2.2900890E+01
 1.2667251E+01  2.2939533E+01
 1.2678751E+01  2.2944784E+01
 1.2690250E+01  2.2952065E+01
 1.2701751E+01  2.2919073E+01
 1.2713250E+01  2.2968040E+01
 1.2724751E+01  2.3040735E+01
 1.2736251E+01  2.3118778E+01
 1.2747750E+01  2.3100723E+01
 1.2759251E+01  2.3111355E+01
 1.2770751E+01  2.3078747E+01
 1.2782250E+01  2.3149630E+01
 1.2793751E+01  2.3147642E+01
 1.2805250E+01  2.3219894E+01
 1.2816751E+01  2.3259623E+01
 1.2828251E+01  2.3292189E+01
 1.2839750E+01  2.3293169E+01
 1.2851251E+01  2.3281210E+01
 1.2862751E+01  2.3343796E+01
 1.2874250E+01  2.3458853E+01
 1.2885751E+01  2.3491426E+01
 1.2897250E+01  2.3536247E+01
 1.2908751E+01  2.3573332E+01
 1.2920251E+01  2.3682632E+01
 1.2931750E+01  2.3778185E+01
 1.2943251E+01  2.3840321E+01
 1.2954751E+01  2.3868923E+01
 1.2966250E+01  2.3857471E+01
 1.2977751E+01  2.3878988E+01
 1.2989250E+01  2.3903316E+01
 1.3000751E+01  2.3988134E+01
 1.3012251E+01  2.4100613E+01
 1.3023750E+01  2.4189665E+01
 1.3035251E+01  2.4300621E+01
 1.3046751E+01  2.4374884E+01
 1.3058250E+01  2.4528112E+01
 1.3069751E+01  2.4592287E+01
 1.3081250E+01  2.4639708E+01
 1.3092751E+01  2.4697987E+01
 1.3104251E+01  2.4834171E+01
 1.3115750E+01  2.4945843E+01
 1.3127251E+01  2.5107525E+01
 1.3138751E+01  2.5204613E+01
 1.3150250E+01  2.5402773E+01
 1.3161751E+01  2.5446890E+01
 1.3173250E+01  2.5585342E+01
 1.3184751E+01  2.5673742E+01
 1.3196251E+01  2.5826988E+01
 1.3207750E+01  2.5971462E+01
 1.3219251E+01  2.6134594E+01
 1.3230751E+01  2.6284550E+01
 1.3242250E+01  2.6440933E+01
 1.3253751E+01  2.6550764E+01
 1.3265250E+01  2.6724033E+01
 1.3276751E+01  2.6831861E+01
 1.3288251E+01  2.7065960E+01
 1.3299750E+01  2.7239798E+01
 1.3311251E+01  2.7381317E+01
 1.3322751E+01  2.7466534E+01
 1.3334250E+01  2.7620085E+01
 1.3345751E+01  2.7757233E+01
 1.3357250E+01  2.7949596E+01
 1.3368751E+01  2.8005636E+01
 1.3380251E+01  2.8176832E+01
 1.3391750E+01  2.8233932E+01
 1.3403251E+01  2.8442863E+01
 1.3414751E+01  2.8604328E+01
 1.3426250E+01  2.8775692E+01
 1.3437751E+01  2.8906996E+01
 1.3449250E+01  2.8983053E+01
 1.3460751E+01  2.9107986E+01
 1.3472251E+01  2.9170322E+01
 1.3483750E+01  2.9335751E+01
 1.3495251E+01  2.9389477E+01
 1.3506751E+01  2.9508623E+01
 1.3518250E+01  2.9595234E+01
 1.3529751E+01  2.9712982E+01
 1.3541250E+01  2.9804508E+01
 1.3552751E+01  2.9838079E+01
 1.3564251E+01  2.9869001E+01
 1.3575750E+01  2.9911062E+01
 1.3587251E+01  2.9941648E+01
 1.3598751E+01  2.9988554E+01
 1.3610250E+01  2.9987930E+01
 1.3621751E+01  3.0047510E+01
 1.3633250E+01  3.0061863E+01
 1.3644751E+01  3.0045897E+01
 1.3656251E+01  2.9980555E+01
 1.3667750E+01  3.0065912E+01
 1.3679251E+01  3.0072628E+01
 1.3690751E+01  3.0044701E+01
 1.3702250E+01  2.9966246E+01
 1.3713751E+01  2.9987017E+01
 1.3725250E+01  3.0016563E+01
 1.3736751E+01  2.9965357E+01
 1.3748251E+01  2.9960539E+01
 1.3759750E+01  2.9889242E+01
 1.3771251E+01  2.9870518E+01
 1.3782751E+01  2.9830330E+01
 1.3794250E+01  2.9833670E+01
 1.3805751E+01  2.9874708E+01
 1.3817250E+01  2.9937719E+01
 1.3828751E+01  3.0111681E+01
 1.3840251E+01  3.0216173E+01
 1.3851750E+01  3.0388105E+01
 1.3863251E+01  3.0499664E+01
 1.3874751E+01  3.0877014E+01
 1.3886250E+01  3.1261250E+01
 1.3897751E+01  3.2221893E+01
 1.3909250E+01  3.3306648E+01
 1.3920751E+01  3.4648479E+01
 1.3932251E+01  3.6379669E+01
 1.3943750E+01  3.7575130E+01
 1.3955251E+01  3.8250435E+01
 1.3966751E+01  3.8543552E+01
 1.3978251E+01  3.7481331E+01
 1.3989751E+01  3.6409874E+01
 1.4001250E+01  3.4443363E+01
 1.4012751E+01  3.3050411E+01
 1.4024251E+01  3.1620771E+01
 1.4035750E+01  3.0281473E+01
 1.4047251E+01  2.9673929E+01
 1.4058751E+01  2.8929523E+01
 1.4070251E+01  2.8620956E+01
 1.4081751E+01  2.8263332E+01
 1.4093250E+01  2.8044817E+01
 1.4104751E+01  2.7849445E+01
 1.4116251E+01  2.7651899E+01
 1.4127750E+01  2.7562748E+01
 1.4139251E+01  2.7447886E+01
 1.4150751E+01  2.7431042E+01
 1.4162251E+01  2.7338413E+01
 1.4173751E+01  2.7241196E+01
 1.4185250E+01  2.7090443E+01
 1.4196751E+01  2.7005520E+01
 1.4208251E+01  2.6909508E+01
 1.4219750E+01  2.6823959E+01
 1.4231251E+01  2.6691595E+01
 1.4242751E+01  2.6607744E+01
 1.4254251E+01  2.6550955E+01
 1.4265751E+01  2.6559189E+01
 1.4277250E+01  2.6546593E+01
 1.4288751E+01  2.6536541E+01
 1.4300251E+01  2.6529123E+01
 1.4311750E+01  2.6528479E+01
 1.4323251E+01  2.6473095E+01
 1.4334751E+01  2.6427401E+01
 1.4346251E+01  2.6401196E+01
 1.4357751E+01  2.6400295E+01
 1.4369250E+01  2.6335114E+01
 1.4380751E+01  2.6227888E+01
 1.4392251E+01  2.6146141E+01
 1.4403750E+01  2.6126574E+01
 1.4415251E+01  2.6160547E+01
 1.4426751E+01  2.6146078E+01
 1.4438251E+01  2.6131184E+01
 1.4449751E+01  2.6069439E+01
 1.4461250E+01  2.5982128E+01
 1.4472751E+01  2.5881483E+01
 1.4484251E+01  2.5797167E+01
 1.4495750E+01  2.5793304E+01
 1.4507251E+01  2.5782143E+01
 1.4518751E+01  2.5769199E+01
 1.4530251E+01  2.5707754E+01
 1.4541751E+01  2.5658228E+01
 1.4553250E+01  2.5664656E+01
 1.4564751E+01  2.5676888E+01
 1.4576251E+01  2.5726276E+01
 1.4587750E+01  2.5716980E+01
 1.4599251E+01  2.5666082E+01
 1.4610751E+01  2.5575653E+01
 1.4622251E+01  2.5540211E+01
 1.4633751E+01  2.5540604E+01
 1.4645250E+01  2.5483318E+01
 1.4656751E+01  2.5449366E+01
 1.4668251E+01  2.5412258E+01
 1.4679750E+01  2.5433943E+01
 1.4691251E+01  2.5465899E+01
 1.4702751E+01  2.5460138E+01
 1.4714251E+01  2.5386948E+01
 1.4725751E+01  2.5306910E+01
 1.4737250E+01  2.5237616E+01
 1.4748751E+01  2.5250811E+01
 1.4760251E+01  2.5189905E+01
 1.4771750E+01  2.5161543E+01
 1.4783251E+01  2.5057617E+01
 1.4794751E+01  2.4997356E+01
 1.4806251E+01  2.4989380E+01
 1.4817751E+01  2.5022972E+01
 1.4829250E+01  2.5064772E+01
 1.4840751E+01  2.5120674E+01
 1.4852251E+01  2.5106461E+01
 1.4863750E+01  2.5067553E+01
 1.4875251E+01  2.4998642E+01
 1.4886751E+01  2.5036148E+01
 1.4898251E+01  2.5097065E+01
 1.4909751E+01  2.5132956E+01
 1.4921250E+01  2.5119593E+01
 1.4932751E+01  2.5142126E+01
 1.4944251E+01  2.5108574E+01
 1.4955750E+01  2.5077759E+01
 1.4967251E+01  2.5005445E+01
 1.4978751E+01  2.4980778E+01
 1.4990251E+01  2.4972546E+01
 1.5001751E+01  2.5019411E+01
 1.5013250E+01  2.5108700E+01
 1.5024751E+01  2.5134865E+01
 1.5036251E+01  2.5110287E+01
 1.5047750E+01  2.5041409E+01
 1.5059251E+01  2.4961735E+01
 1.5070751E+01  2.4916559E+01
 1.5082251E+01  2.4855833E+01
 1.5093751E+01  2.4862944E+01
 1.5105250E+01  2.4949715E+01
 1.5116751E+01  2.5033485E+01
 1.5128251E+01  2.5138107E+01
 1.5139750E+01  2.5293955E+01
 1.5151251E+01  2.5460787E+01
 1.5162751E+01  2.5790150E+01
 1.5174251E+01  2.6053085E+01
 1.5185751E+01  2.6243055E+01
 1.5197250E+01  2.6354254E+01
 1.5208751E+01  2.6405888E+01
 1.5220251E+01  2.6317503E+01
 1.5231750E+01  2.5970301E+01
 1.5243251E+01  2.5601654E+01
 1.5254751E+01  2.5351585E+01
 1.5266251E+01  2.5084600E+01
 1.5277751E+01  2.5002808E+01
 1.5289250E+01  2.4974531E+01
 1.5300751E+01  2.4962423E+01
 1.5312251E+01  2.4959667E+01
 1.5323750E+01  2.4899551E+01
 1.5335251E+01  2.4836548E+01
 1.5346751E+01  2.4775255E+01
 1.5358251E+01  2.4746664E+01
 1.5369751E+01  2.4793226E+01
 1.5381250E+01  2.4819284E+01
 1.5392751E+01  2.4898880E+01
 1.5404251E+01  2.4909300E+01
 1.5415751E+01  2.4883930E+01
 1.5427251E+01  2.4816092E+01
 1.5438751E+01  2.4743330E+01
 1.5450251E+01  2.4675066E+01
 1.5461751E+01  2.4608757E+01
 1.5473250E+01  2.4592718E+01
 1.5484751E+01  2.4607601E+01
 1.5496251E+01  2.4620054E+01
 1.5507751E+01  2.4609444E+01
 1.5519251E+01  2.4603294E+01
 1.5530751E+01  2.4601940E+01
 1.5542251E+01  2.4645800E+01
 1.5553751E+01  2.4682646E+01
 1.5565250E+01  2.4732628E+01
 1.5576751E+01  2.4711821E+01
 1.5588251E+01  2.4719019E+01
 1.5599751E+01  2.4683641E+01
 1.5611251E+01  2.4694942E+01
 1.5622751E+01  2.4688915E+01
 1.5634251E+01  2.4729719E+01
 1.5645751E+01  2.4756399E+01
 1.5657250E+01  2.4814667E+01
 1.5668751E+01  2.4836926E+01
 1.5680251E+01  2.4821356E+01
 1.5691751E+01  2.4731022E+01
 1.5703251E+01  2.4685753E+01
 1.5714751E+01  2.4629900E+01
 1.5726251E+01  2.4653799E+01
 1.5737751E+01  2.4598814E+01
 1.5749250E+01  2.4615501E+01
 1.5760751E+01  2.4580612E+01
 1.5772251E+01  2.4607752E+01
 1.5783751E+01  2.4592445E+01
 1.5795251E+01  2.4703974E+01
 1.5806751E+01  2.4812645E+01
 1.5818251E+01  2.4865583E+01
 1.5829751E+01  2.4946194E+01
 1.5841250E+01  2.4901972E+01
 1.5852751E+01  2.4896160E+01
 1.5864251E+01  2.4694935E+01
 1.5875751E+01  2.4677006E+01
 1.5887251E+01  2.4626942E+01
 1.5898750E+01  2.4651972E+01
 1.5910251E+01  2.4683065E+01
 1.5921751E+01  2.4715929E+01
 1.5933250E+01  2.4752789E+01
 1.5944751E+01  2.4735697E+01
 1.5956251E+01  2.4723845E+01
 1.5967751E+01  2.4696598E+01
 1.5979251E+01  2.4700750E+01
 1.5990750E+01  2.4760021E+01
 1.6002251E+01  2.4846859E+01
 1.6013750E+01  2.4880583E+01
 1.6025251E+01  2.4852680E+01
 1.6036751E+01  2.4796459E+01
 1.6048250E+01  2.4763317E+01
 1.6059752E+01  2.4763193E+01
 1.6071251E+01  2.4742590E+01
 1.6082750E+01  2.4835567E+01
 1.6094252E+01  2.4887815E+01
 1.6105751E+01  2.5020664E+01
 1.6117250E+01  2.5013849E+01
 1.6128750E+01  2.4993862E+01
 1.6140251E+01  2.4965010E+01
 1.6151751E+01  2.4924902E+01
 1.6163250E+01  2.4927523E+01
 1.6174751E+01  2.4861895E+01
 1.6186251E+01  2.4966928E+01
 1.6197750E+01  2.4891172E+01
 1.6209251E+01  2.5059410E+01
 1.6220751E+01  2.5035532E+01
 1.6232250E+01  2.5266409E+01
 1.6243752E+01  2.5322525E+01
 1.6255251E+01  2.5466024E+01
 1.6266750E+01  2.5616739E+01
 1.6278252E+01  2.5513437E+01
 1.6289751E+01  2.5631134E+01
 1.6301250E+01  2.5259706E+01
 1.6312750E+01  2.5311487E+01
 1.6324251E+01  2.4987602E+01
 1.6335751E+01  2.5032232E+01
 1.6347250E+01  2.4828554E+01
 1.6358751E+01  2.4756645E+01
 1.6370251E+01  2.4646393E+01
 1.6381750E+01  2.4626585E+01
 1.6393251E+01  2.4590141E+01
 1.6404751E+01  2.4641354E+01
 1.6416250E+01  2.4695078E+01
 1.6427752E+01  2.4739010E+01
 1.6439251E+01  2.4733452E+01
 1.6450750E+01  2.4715500E+01
 1.6462252E+01  2.4702213E+01
 1.6473751E+01  2.4693260E+01
 1.6485250E+01  2.4723022E+01
 1.6496750E+01  2.4748985E+01
 1.6508251E+01  2.4755194E+01
 1.6519751E+01  2.4713270E+01
 1.6531250E+01  2.4715811E+01
 1.6542751E+01  2.4737154E+01
 1.6554251E+01  2.4739985E+01
 1.6565750E+01  2.4693371E+01
 1.6577251E+01  2.4670858E+01
 1.6588751E+01  2.4710848E+01
 1.6600250E+01  2.4742773E+01
 1.6611752E+01  2.4781269E+01
 1.6623251E+01  2.4751860E+01
 1.6634750E+01  2.4785692E+01
 1.6646252E+01  2.4756996E+01
 1.6657751E+01  2.4778784E+01
 1.6669250E+01  2.4762705E+01
 1.6680750E+01  2.4761477E+01
 1.6692251E+01  2.4769859E+01
 1.6703751E+01  2.4703070E+01
 1.6715250E+01  2.4696983E+01
 1.6726751E+01  2.4641674E+01
 1.6738251E+01  2.4627264E+01
 1.6749750E+01  2.4630062E+01
 1.6761251E+01  2.4608662E+01
 1.6772751E+01  2.4560127E+01
 1.6784250E+01  2.4497307E+01
 1.6795752E+01  2.4485815E+01
 1.6807251E+01  2.4475794E+01
 1.6818750E+01  2.4474390E+01
 1.6830252E+01  2.4482609E+01
 1.6841751E+01  2.4531374E+01
 1.6853251E+01  2.4535563E+01
 1.6864750E+01  2.4513546E+01
 1.6876251E+01  2.4458698E+01
 1.6887751E+01  2.4424889E+01
 1.6899250E+01  2.4417940E+01
 1.6910751E+01  2.4434198E+01
 1.6922251E+01  2.4484415E+01
 1.6933750E+01  2.4512604E+01
 1.6945251E+01  2.4492668E+01
 1.6956751E+01  2.4449968E+01
 1.6968250E+01  2.4410532E+01
 1.6979752E+01  2.4406546E+01
 1.6991251E+01  2.4395498E+01
 1.7002750E+01  2.4381952E+01
 1.7014252E+01  2.4367895E+01
 1.7025751E+01  2.4315926E+01
 1.7037251E+01  2.4295248E+01
 1.7048750E+01  2.4251736E+01
 1.7060251E+01  2.4272356E+01
 1.7071751E+01  2.4282539E+01
 1.7083250E+01  2.4336531E+01
 1.7094751E+01  2.4324869E+01
 1.7106251E+01  2.4317141E+01
 1.7117750E+01  2.4320765E+01
 1.7129251E+01  2.4371353E+01
 1.7140751E+01  2.4404898E+01
 1.7152250E+01  2.4395706E+01
 1.7163752E+01  2.4349049E+01
 1.7175251E+01  2.4328794E+01
 1.7186750E+01  2.4307226E+01
 1.7198252E+01  2.4335314E+01
 1.7209751E+01  2.4305464E+01
 1.7221251E+01  2.4317299E+01
 1.7232750E+01  2.4255676E+01
 1.7244251E+01  2.4218382E+01
 1.7255751E+01  2.4148766E+01
 1.7267250E+01  2.4151033E+01
 1.7278751E+01  2.4126524E+01
 1.7290251E+01  2.4160429E+01
 1.7301750E+01  2.4221163E+01
 1.7313251E+01  2.4241354E+01
 1.7324751E+01  2.4258104E+01
 1.7336250E+01  2.4235981E+01
 1.7347752E+01  2.4282476E+01
 1.7359251E+01  2.4276646E+01
 1.7370750E+01  2.4269258E+01
 1.7382252E+01  2.4254322E+01
 1.7393751E+01  2.4192514E+01
 1.7405251E+01  2.4122433E+01
 1.7416750E+01  2.4069283E+01
 1.7428251E+01  2.4045805E+01
 1.7439751E+01  2.4009813E+01
 1.7451250E+01  2.4025835E+01
 1.7462751E+01  2.4059549E+01
 1.7474251E+01  2.4103075E+01
 1.7485750E+01  2.4158138E+01
 1.7497252E+01  2.4124939E+01
 1.7508751E+01  2.4107405E+01
 1.7520250E+01  2.4030539E+01
 1.7531752E+01  2.4025625E+01
 1.7543251E+01  2.3992182E+01
 1.7554750E+01  2.3974049E+01
 1.7566252E+01  2.3952547E+01
 1.7577751E+01  2.3941317E+01
 1.7589251E+01  2.3918571E+01
 1.7600750E+01  2.3931259E+01
 1.7612251E+01  2.3950787E+01
 1.7623751E+01  2.4011454E+01
 1.7635250E+01  2.4009367E+01
 1.7646751E+01  2.4011982E+01
 1.7658251E+01  2.3952290E+01
 1.7669750E+01  2.3961029E+01
 1.7681252E+01  2.3942469E+01
 1.7692751E+01  2.3934015E+01
 1.7704250E+01  2.3877960E+01
 1.7715752E+01  2.3877604E+01
 1.7727251E+01  2.3871729E+01
 1.7738750E+01  2.3837234E+01
 1.7750252E+01  2.3825947E+01
 1.7761751E+01  2.3847147E+01
 1.7773251E+01  2.3935247E+01
 1.7784750E+01  2.4001741E+01
 1.7796251E+01  2.4088373E+01
 1.7807751E+01  2.4065161E+01
 1.7819250E+01  2.4030054E+01
 1.7830751E+01  2.3967634E+01
 1.7842251E+01  2.3900288E+01
 1.7853750E+01  2.3829094E+01
 1.7865252E+01  2.3835470E+01
 1.7876751E+01  2.3904585E+01
 1.7888250E+01  2.3935268E+01
 1.7899752E+01  2.3966715E+01
 1.7911251E+01  2.4022406E+01
 1.7922750E+01  2.4058725E+01
 1.7934252E+01  2.4032349E+01
 1.7945751E+01  2.4124531E+01
 1.7957251E+01  2.4165049E+01
 1.7968750E+01  2.4392567E+01
 1.7980251E+01  2.4511209E+01
 1.7991751E+01  2.4694857E+01
 1.8003250E+01  2.4820938E+01
 1.8014751E+01  2.4996809E+01
 1.8026251E+01  2.5315170E+01
 1.8037750E+01  2.5586239E+01
 1.8049252E+01  2.5985968E+01
 1.8060751E+01  2.6195292E+01
 1.8072250E+01  2.6390511E+01
 1.8083752E+01  2.6433422E+01
 1.8095251E+01  2.6346773E+01
 1.8106750E+01  2.6047157E+01
 1.8118252E+01  2.5675531E+01
 1.8129751E+01  2.5280237E+01
 1.8141251E+01  2.4910437E+01
 1.8152750E+01  2.4510368E+01
 1.8164251E+01  2.4222382E+01
 1.8175751E+01  2.4024696E+01
 1.8187250E+01  2.3910517E+01
 1.8198751E+01  2.3910727E+01
 1.8210251E+01  2.3936462E+01
 1.8221750E+01  2.3958439E+01
 1.8233252E+01  2.3906258E+01
 1.8244751E+01  2.3870596E+01
 1.8256250E+01  2.3858685E+01
 1.8267752E+01  2.3818523E+01
 1.8279251E+01  2.3757385E+01
 1.8290751E+01  2.3726938E+01
 1.8302252E+01  2.3731050E+01
 1.8313751E+01  2.3762617E+01
 1.8325251E+01  2.3762993E+01
 1.8336750E+01  2.3764229E+01
 1.8348251E+01  2.3759731E+01
 1.8359751E+01  2.3780735E+01
 1.8371250E+01  2.3787636E+01
 1.8382751E+01  2.3842392E+01
 1.8394251E+01  2.3857883E+01
 1.8405750E+01  2.3879478E+01
 1.8417252E+01  2.3811396E+01
 1.8428751E+01  2.3772793E+01
 1.8440250E+01  2.3723303E+01
 1.8451752E+01  2.3707762E+01
 1.8463251E+01  2.3714817E+01
 1.8474751E+01  2.3656715E+01
 1.8486252E+01  2.3596390E+01
 1.8497751E+01  2.3576015E+01
 1.8509251E+01  2.3565536E+01
 1.8520750E+01  2.3570732E+01
 1.8532251E+01  2.3550734E+01
 1.8543751E+01  2.3576248E+01
 1.8555250E+01  2.3598701E+01
 1.8566751E+01  2.3598286E+01
 1.8578251E+01  2.3599987E+01
 1.8589750E+01  2.3629776E+01
 1.8601252E+01  2.3675005E+01
 1.8612751E+01  2.3699402E+01
 1.8624250E+01  2.3679449E+01
 1.8635752E+01  2.3670246E+01
 1.8647251E+01  2.3608717E+01
 1.8658751E+01  2.3596090E+01
 1.8670252E+01  2.3575914E+01
 1.8681751E+01  2.3588890E+01
 1.8693251E+01  2.3564974E+01
 1.8704750E+01  2.3537863E+01
 1.8716251E+01  2.3539295E+01
 1.8727751E+01  2.3549194E+01
 1.8739250E+01  2.3550333E+01
 1.8750751E+01  2.3539494E+01
 1.8762251E+01  2.3528601E+01
 1.8773750E+01  2.3528255E+01
 1.8785252E+01  2.3563614E+01
 1.8796751E+01  2.3566048E+01
 1.8808250E+01  2.3577900E+01
 1.8819752E+01  2.3525047E+01
 1.8831251E+01  2.3526825E+01
 1.8842751E+01  2.3497183E+01
 1.8854252E+01  2.3483477E+01
 1.8865751E+01  2.3455399E+01
 1.8877251E+01  2.3478577E+01
 1.8888750E+01  2.3491135E+01
 1.8900251E+01  2.3536327E+01
 1.8911751E+01  2.3572380E+01
 1.8923250E+01  2.3643484E+01
 1.8934752E+01  2.3638577E+01
 1.8946251E+01  2.3686291E+01
 1.8957750E+01  2.3695587E+01
 1.8969252E+01  2.3657167E+01
 1.8980751E+01  2.3634758E+01
 1.8992250E+01  2.3622381E+01
 1.9003752E+01  2.3660755E+01
 1.9015251E+01  2.3674824E+01
 1.9026751E+01  2.3680164E+01
 1.9038252E+01  2.3673531E+01
 1.9049751E+01  2.3606384E+01
 1.9061251E+01  2.3617008E+01
 1.9072750E+01  2.3626780E+01
 1.9084251E+01  2.3629305E+01
 1.9095751E+01  2.3545713E+01
 1.9107250E+01  2.3488962E+01
 1.9118752E+01  2.3485842E+01
 1.9130251E+01  2.3514236E+01
 1.9141750E+01  2.3550327E+01
 1.9153252E+01  2.3591356E+01
 1.9164751E+01  2.3608587E+01
 1.9176250E+01  2.3567383E+01
 1.9187752E+01  2.3541260E+01
 1.9199251E+01  2.3562090E+01
 1.9210751E+01  2.3603127E+01
 1.9222252E+01  2.3639839E+01
 1.9233751E+01  2.3620258E+01
 1.9245251E+01  2.3654404E+01
 1.9256750E+01  2.3676092E+01
 1.9268251E+01  2.3719509E+01
 1.9279751E+01  2.3652687E+01
 1.9291250E+01  2.3659266E+01
 1.9302752E+01  2.3673939E+01
 1.9314251E+01  2.3753550E+01
 1.9325750E+01  2.3732639E+01
 1.9337252E+01  2.3797865E+01
 1.9348751E+01  2.3759409E+01
 1.9360250E+01  2.3763981E+01
 1.9371752E+01  2.3763155E+01
 1.9383251E+01  2.3818481E+01
 1.9394751E+01  2.3884281E+01
 1.9406250E+01  2.3852871E+01
 1.9417751E+01  2.3844666E+01
 1.9429251E+01  2.3809914E+01
 1.9440750E+01  2.3806564E+01
 1.9452251E+01  2.3755264E+01
 1.9463751E+01  2.3728642E+01
 1.9475250E+01  2.3722666E+01
 1.9486752E+01  2.3713371E+01
 1.9498251E+01  2.3702387E+01
 1.9509750E+01  2.3694351E+01
 1.9521252E+01  2.3739750E+01
 1.9532751E+01  2.3774435E+01
 1.9544250E+01  2.3867981E+01
 1.9555752E+01  2.3891205E+01
 1.9567251E+01  2.3891487E+01
 1.9578751E+01  2.3873995E+01
 1.9590250E+01  2.3907675E+01
 1.9601751E+01  2.3982252E+01
 1.9613251E+01  2.4085718E+01
 1.9624750E+01  2.4225016E+01
 1.9636251E+01  2.4374859E+01
 1.9647751E+01  2.4566389E+01
 1.9659250E+01  2.4936834E+01
 1.9670752E+01  2.5398527E+01
 1.9682251E+01  2.5872322E+01
 1.9693750E+01  2.6453438E+01
 1.9705252E+01  2.6613850E+01
 1.9716751E+01  2.6800623E+01
 1.9728251E+01  2.6438726E+01
 1.9739752E+01  2.6161335E+01
 1.9751251E+01  2.5756678E+01
 1.9762751E+01  2.5427706E+01
 1.9774250E+01  2.5283075E+01
 1.9785751E+01  2.5259096E+01
 1.9797251E+01  2.5575312E+01
 1.9808750E+01  2.6300041E+01
 1.9820251E+01  2.7267164E+01
 1.9831751E+01  2.9120361E+01
 1.9843250E+01  2.9857988E+01
 1.9854752E+01  3.0417416E+01
 1.9866251E+01  2.9938366E+01
 1.9877750E+01  2.8925949E+01
 1.9889252E+01  2.7643339E+01
 1.9900751E+01  2.6366013E+01
 1.9912251E+01  2.5740091E+01
 1.9923752E+01  2.5049259E+01
 1.9935251E+01  2.4666914E+01
 1.9946751E+01  2.4415518E+01
 1.9958250E+01  2.4209883E+01
 1.9969751E+01  2.4151438E+01
 1.9981251E+01  2.4014887E+01
 1.9992750E+01  2.3947954E+01
 2.0004251E+01  2.3902954E+01
 2.0015751E+01  2.3903622E+01
 2.0027250E+01  2.3923780E+01
 2.0038752E+01  2.3965080E+01
 2.0050251E+01  2.3979172E+01
 2.0061750E+01  2.3994143E+01
 2.0073252E+01  2.3958426E+01
 2.0084751E+01  2.3943230E+01
 2.0096251E+01  2.3919081E+01
 2.0107752E+01  2.3875488E+01
 2.0119251E+01  2.3868164E+01
 2.0130751E+01  2.3824017E+01
 2.0142250E+01  2.3817863E+01
 2.0153751E+01  2.3790304E+01
 2.0165251E+01  2.3832270E+01
 2.0176750E+01  2.3863245E+01
 2.0188251E+01  2.3922127E+01
 2.0199751E+01  2.3887796E+01
 2.0211250E+01  2.3864441E+01
 2.0222752E+01  2.3864660E+01
 2.0234251E+01  2.3880800E+01
 2.0245750E+01  2.3842424E+01
 2.0257252E+01  2.3778690E+01
 2.0268751E+01  2.3772532E+01
 2.0280251E+01  2.3799706E+01
 2.0291752E+01  2.3814861E+01
 2.0303251E+01  2.3784960E+01
 2.0314751E+01  2.3811876E+01
 2.0326250E+01  2.3832813E+01
 2.0337751E+01  2.3880793E+01
 2.0349251E+01  2.3852697E+01
 2.0360750E+01  2.3855846E+01
 2.0372252E+01  2.3830645E+01
 2.0383751E+01  2.3820309E+01
 2.0395250E+01  2.3865288E+01
 2.0406752E+01  2.3897747E+01
 2.0418251E+01  2.3925789E+01
 2.0429750E+01  2.3905882E+01
 2.0441252E+01  2.3908089E+01
 2.0452751E+01  2.3885958E+01
 2.0464251E+01  2.3829206E+01
 2.0475752E+01  2.3747839E+01
 2.0487251E+01  2.3713932E+01
 2.0498751E+01  2.3726091E+01
 2.0510250E+01  2.3738182E+01
 2.0521751E+01  2.3780687E+01
 2.0533251E+01  2.3828064E+01
 2.0544750E+01  2.3894018E+01
 2.0556252E+01  2.3942934E+01
 2.0567751E+01  2.3966688E+01
 2.0579250E+01  2.3962303E+01
 2.0590752E+01  2.4015001E+01
 2.0602251E+01  2.4022476E+01
 2.0613750E+01  2.4018364E+01
 2.0625252E+01  2.3973524E+01
 2.0636751E+01  2.3998539E+01
 2.0648251E+01  2.3984436E+01
 2.0659752E+01  2.4030338E+01
 2.0671251E+01  2.4128500E+01
 2.0682751E+01  2.4282612E+01
 2.0694250E+01  2.4471170E+01
 2.0705751E+01  2.4651773E+01
 2.0717251E+01  2.4885122E+01
 2.0728750E+01  2.5085039E+01
 2.0740252E+01  2.5241440E+01
 2.0751751E+01  2.5344841E+01
 2.0763250E+01  2.5385115E+01
 2.0774752E+01  2.5281569E+01
 2.0786251E+01  2.5114758E+01
 2.0797750E+01  2.4915871E+01
 2.0809252E+01  2.4688446E+01
 2.0820751E+01  2.4480314E+01
 2.0832251E+01  2.4263460E+01
 2.0843752E+01  2.4167187E+01
 2.0855251E+01  2.4097284E+01
 2.0866751E+01  2.4075296E+01
 2.0878250E+01  2.4021139E+01
 2.0889751E+01  2.4024679E+01
 2.0901251E+01  2.4047283E+01
 2.0912750E+01  2.4066128E+01
 2.0924252E+01  2.4030321E+01
 2.0935751E+01  2.4028511E+01
 2.0947250E+01  2.4087111E+01
 2.0958752E+01  2.4088888E+01
 2.0970251E+01  2.4016659E+01
 2.0981750E+01  2.3933943E+01
 2.0993252E+01  2.3930975E+01
 2.1004751E+01  2.3961870E+01
 2.1016251E+01  2.3970800E+01
 2.1027752E+01  2.3957186E+01
 2.1039251E+01  2.3943787E+01
 2.1050751E+01  2.3946365E+01
 2.1062250E+01  2.3944805E+01
 2.1073751E+01  2.3997822E+01
 2.1085251E+01  2.3998774E+01
 2.1096750E+01  2.3984486E+01
 2.1108252E+01  2.3999517E+01
 2.1119751E+01  2.4033636E+01
 2.1131250E+01  2.4071726E+01
 2.1142752E+01  2.4048862E+01
 2.1154251E+01  2.3967428E+01
 2.1165751E+01  2.3918362E+01
 2.1177252E+01  2.3911470E+01
 2.1188751E+01  2.3895983E+01
 2.1200251E+01  2.3869497E+01
 2.1211752E+01  2.3847191E+01
 2.1223251E+01  2.3824286E+01
 2.1234751E+01  2.3831953E+01
 2.1246250E+01  2.3856546E+01
 2.1257751E+01  2.3947729E+01
 2.1269251E+01  2.4007906E+01
 2.1280750E+01  2.4100019E+01
 2.1292252E+01  2.4112720E+01
 2.1303751E+01  2.4101603E+01
 2.1315250E+01  2.4046621E+01
 2.1326752E+01  2.3974169E+01
 2.1338251E+01  2.3972223E+01
 2.1349751E+01  2.3960661E+01
 2.1361252E+01  2.4002068E+01
 2.1372751E+01  2.4030035E+01
 2.1384251E+01  2.4059191E+01
 2.1395752E+01  2.4082874E+01
 2.1407251E+01  2.4048132E+01
 2.1418751E+01  2.4047916E+01
 2.1430250E+01  2.3978474E+01
 2.1441751E+01  2.3916502E+01
 2.1453251E+01  2.3915428E+01
 2.1464750E+01  2.3943554E+01
 2.1476252E+01  2.3974894E+01
 2.1487751E+01  2.4010300E+01
 2.1499250E+01  2.4036020E+01
 2.1510752E+01  2.4061121E+01
 2.1522251E+01  2.4059977E+01
 2.1533751E+01  2.4064512E+01
 2.1545252E+01  2.4053627E+01
 2.1556751E+01  2.4014820E+01
 2.1568251E+01  2.4043539E+01
 2.1579752E+01  2.4105383E+01
 2.1591251E+01  2.4159971E+01
 2.1602751E+01  2.4145393E+01
 2.1614250E+01  2.4125643E+01
 2.1625751E+01  2.4088919E+01
 2.1637251E+01  2.4073128E+01
 2.1648750E+01  2.4037394E+01
 2.1660252E+01  2.4054882E+01
 2.1671751E+01  2.4020809E+01
 2.1683250E+01  2.4012684E+01
 2.1694752E+01  2.4006147E+01
 2.1706251E+01  2.4033403E+01
 2.1717751E+01  2.4039095E+01
 2.1729252E+01  2.4061636E+01
 2.1740751E+01  2.4098915E+01
 2.1752251E+01  2.4143085E+01
 2.1763752E+01  2.4207853E+01
 2.1775251E+01  2.4274403E+01
 2.1786751E+01  2.4316853E+01
 2.1798250E+01  2.4340828E+01
 2.1809752E+01  2.4320314E+01
 2.1821251E+01  2.4306177E+01
 2.1832750E+01  2.4231237E+01
 2.1844252E+01  2.4213421E+01
 2.1855751E+01  2.4158880E+01
 2.1867250E+01  2.4149176E+01
 2.1878752E+01  2.4109098E+01
 2.1890251E+01  2.4118311E+01
 2.1901751E+01  2.4137646E+01
 2.1913252E+01  2.4156965E+01
 2.1924751E+01  2.4161352E+01
 2.1936251E+01  2.4213509E+01
 2.1947752E+01  2.4270100E+01
 2.1959251E+01  2.4310236E+01
 2.1970751E+01  2.4307293E+01
 2.1982250E+01  2.4288261E+01
 2.1993752E+01  2.4259476E+01
 2.2005251E+01  2.4225100E+01
 2.2016750E+01  2.4272537E+01
 2.2028252E+01  2.4322083E+01
 2.2039751E+01  2.4381821E+01
 2.2051250E+01  2.4416809E+01
 2.2062752E+01  2.4403795E+01
 2.2074251E+01  2.4419849E+01
 2.2085751E+01  2.4390638E+01
 2.2097252E+01  2.4370213E+01
 2.2108751E+01  2.4319809E+01
 2.2120251E+01  2.4341967E+01
 2.2131752E+01  2.4394663E+01
 2.2143251E+01  2.4473501E+01
 2.2154751E+01  2.4474533E+01
 2.2166250E+01  2.4461481E+01
 2.2177752E+01  2.4395561E+01
 2.2189251E+01  2.4337326E+01
 2.2200750E+01  2.4336473E+01
 2.2212252E+01  2.4414658E+01
 2.2223751E+01  2.4487614E+01
 2.2235250E+01  2.4525034E+01
 2.2246752E+01  2.4545860E+01
 2.2258251E+01  2.4542854E+01
 2.2269751E+01  2.4524517E+01
 2.2281252E+01  2.4515965E+01
 2.2292751E+01  2.4508589E+01
 2.2304251E+01  2.4535315E+01
 2.2315752E+01  2.4534897E+01
 2.2327251E+01  2.4556444E+01
 2.2338751E+01  2.4592104E+01
 2.2350250E+01  2.4639782E+01
 2.2361752E+01  2.4618422E+01
 2.2373251E+01  2.4604128E+01
 2.2384750E+01  2.4552896E+01
 2.2396252E+01  2.4552343E+01
 2.2407751E+01  2.4550320E+01
 2.2419250E+01  2.4539963E+01
 2.2430752E+01  2.4558702E+01
 2.2442251E+01  2.4624411E+01
 2.2453751E+01  2.4683426E+01
 2.2465252E+01  2.4672424E+01
 2.2476751E+01  2.4675568E+01
 2.2488251E+01  2.4706358E+01
 2.2499752E+01  2.4719444E+01
 2.2511251E+01  2.4730158E+01
 2.2522751E+01  2.4806065E+01
 2.2534250E+01  2.4856348E+01
 2.2545752E+01  2.4905331E+01
 2.2557251E+01  2.4926325E+01
 2.2568750E+01  2.4928053E+01
 2.2580252E+01  2.4915390E+01
 2.2591751E+01  2.4917860E+01
 2.2603251E+01  2.4950424E+01
 2.2614752E+01  2.4994556E+01
 2.2626251E+01  2.5007908E+01
 2.2637751E+01  2.5012667E+01
 2.2649252E+01  2.4961349E+01
 2.2660751E+01  2.4906357E+01
 2.2672251E+01  2.4921614E+01
 2.2683752E+01  2.5031048E+01
 2.2695251E+01  2.5114323E+01
 2.2706751E+01  2.5141882E+01
 2.2718250E+01  2.5199987E+01
 2.2729752E+01  2.5220789E+01
 2.2741251E+01  2.5273474E+01
 2.2752750E+01  2.5268459E+01
 2.2764252E+01  2.5286835E+01
 2.2775751E+01  2.5281790E+01
 2.2787251E+01  2.5242418E+01
 2.2798752E+01  2.5227835E+01
 2.2810251E+01  2.5290266E+01
 2.2821751E+01  2.5389500E+01
 2.2833252E+01  2.5427095E+01
 2.2844751E+01  2.5434282E+01
 2.2856251E+01  2.5412600E+01
 2.2867750E+01  2.5490154E+01
 2.2879251E+01  2.5577456E+01
 2.2890751E+01  2.5733227E+01
 2.2902250E+01  2.5795029E+01
 2.2913752E+01  2.5910320E+01
 2.2925251E+01  2.5958347E+01
 2.2936750E+01  2.6048534E+01
 2.2948252E+01  2.6048470E+01
 2.2959751E+01  2.6117271E+01
 2.2971251E+01  2.6204840E+01
 2.2982752E+01  2.6373005E+01
 2.2994251E+01  2.6533634E+01
