F:\20151113_APS_34IDE\\Brian\Particle1\OCV\Data_0142.tif
2-Theta Angle (Degrees)
Intensity
       2000
 5.7500005E-03  0.0000000E+00
 1.7250001E-02  0.0000000E+00
 2.8750001E-02  0.0000000E+00
 4.0250003E-02  0.0000000E+00
 5.1750004E-02  0.0000000E+00
 6.3250005E-02  0.0000000E+00
 7.4750006E-02  0.0000000E+00
 8.6250007E-02  0.0000000E+00
 9.7750008E-02  0.0000000E+00
 1.0925001E-01  0.0000000E+00
 1.2075000E-01  0.0000000E+00
 1.3225001E-01  0.0000000E+00
 1.4375001E-01  0.0000000E+00
 1.5525001E-01  0.0000000E+00
 1.6675001E-01  0.0000000E+00
 1.7825001E-01  0.0000000E+00
 1.8975002E-01  0.0000000E+00
 2.0125002E-01  0.0000000E+00
 2.1275002E-01  0.0000000E+00
 2.2425000E-01  0.0000000E+00
 2.3575000E-01  0.0000000E+00
 2.4725001E-01  0.0000000E+00
 2.5875002E-01  0.0000000E+00
 2.7025002E-01  0.0000000E+00
 2.8175002E-01  0.0000000E+00
 2.9325002E-01  0.0000000E+00
 3.0475003E-01  0.0000000E+00
 3.1625003E-01  0.0000000E+00
 3.2775003E-01  0.0000000E+00
 3.3925003E-01  0.0000000E+00
 3.5075003E-01  0.0000000E+00
 3.6225003E-01  0.0000000E+00
 3.7375003E-01  0.0000000E+00
 3.8525003E-01  0.0000000E+00
 3.9675003E-01  0.0000000E+00
 4.0825003E-01  0.0000000E+00
 4.1975003E-01  0.0000000E+00
 4.3125004E-01  0.0000000E+00
 4.4275001E-01  0.0000000E+00
 4.5425001E-01  0.0000000E+00
 4.6575001E-01  0.0000000E+00
 4.7725001E-01  0.0000000E+00
 4.8875001E-01  0.0000000E+00
 5.0025004E-01  0.0000000E+00
 5.1175004E-01  0.0000000E+00
 5.2325004E-01  0.0000000E+00
 5.3475004E-01  0.0000000E+00
 5.4625005E-01  0.0000000E+00
 5.5775005E-01  0.0000000E+00
 5.6925005E-01  0.0000000E+00
 5.8075005E-01  0.0000000E+00
 5.9225005E-01  0.0000000E+00
 6.0375005E-01  0.0000000E+00
 6.1525005E-01  0.0000000E+00
 6.2675005E-01  0.0000000E+00
 6.3825005E-01  0.0000000E+00
 6.4975005E-01  0.0000000E+00
 6.6125005E-01  0.0000000E+00
 6.7275006E-01  0.0000000E+00
 6.8425006E-01  0.0000000E+00
 6.9575006E-01  0.0000000E+00
 7.0725006E-01  0.0000000E+00
 7.1875006E-01  0.0000000E+00
 7.3025006E-01  0.0000000E+00
 7.4175006E-01  0.0000000E+00
 7.5325006E-01  0.0000000E+00
 7.6475006E-01  0.0000000E+00
 7.7625006E-01  0.0000000E+00
 7.8775007E-01  0.0000000E+00
 7.9925007E-01  0.0000000E+00
 8.1075007E-01  0.0000000E+00
 8.2225007E-01  0.0000000E+00
 8.3375007E-01  0.0000000E+00
 8.4525007E-01  0.0000000E+00
 8.5675007E-01  0.0000000E+00
 8.6825007E-01  0.0000000E+00
 8.7975001E-01  0.0000000E+00
 8.9125001E-01  0.0000000E+00
 9.0275002E-01  0.0000000E+00
 9.1425002E-01  0.0000000E+00
 9.2575002E-01  0.0000000E+00
 9.3725002E-01  0.0000000E+00
 9.4875002E-01  0.0000000E+00
 9.6025002E-01  0.0000000E+00
 9.7175002E-01  0.0000000E+00
 9.8325002E-01  0.0000000E+00
 9.9475002E-01  0.0000000E+00
 1.0062500E+00  0.0000000E+00
 1.0177500E+00  0.0000000E+00
 1.0292500E+00  0.0000000E+00
 1.0407500E+00  0.0000000E+00
 1.0522500E+00  0.0000000E+00
 1.0637500E+00  0.0000000E+00
 1.0752500E+00  0.0000000E+00
 1.0867500E+00  0.0000000E+00
 1.0982500E+00  0.0000000E+00
 1.1097500E+00  0.0000000E+00
 1.1212500E+00  0.0000000E+00
 1.1327500E+00  0.0000000E+00
 1.1442500E+00  0.0000000E+00
 1.1557500E+00  0.0000000E+00
 1.1672500E+00  0.0000000E+00
 1.1787500E+00  0.0000000E+00
 1.1902500E+00  0.0000000E+00
 1.2017500E+00  0.0000000E+00
 1.2132500E+00  0.0000000E+00
 1.2247500E+00  0.0000000E+00
 1.2362500E+00  0.0000000E+00
 1.2477500E+00  0.0000000E+00
 1.2592500E+00  0.0000000E+00
 1.2707500E+00  0.0000000E+00
 1.2822500E+00  0.0000000E+00
 1.2937500E+00  0.0000000E+00
 1.3052500E+00  0.0000000E+00
 1.3167500E+00  0.0000000E+00
 1.3282501E+00  0.0000000E+00
 1.3397501E+00  0.0000000E+00
 1.3512501E+00  0.0000000E+00
 1.3627501E+00  0.0000000E+00
 1.3742501E+00  0.0000000E+00
 1.3857501E+00  0.0000000E+00
 1.3972501E+00  0.0000000E+00
 1.4087501E+00  0.0000000E+00
 1.4202501E+00  0.0000000E+00
 1.4317501E+00  0.0000000E+00
 1.4432501E+00  0.0000000E+00
 1.4547501E+00  0.0000000E+00
 1.4662501E+00  0.0000000E+00
 1.4777501E+00  0.0000000E+00
 1.4892501E+00  0.0000000E+00
 1.5007501E+00  0.0000000E+00
 1.5122501E+00  0.0000000E+00
 1.5237501E+00  0.0000000E+00
 1.5352501E+00  0.0000000E+00
 1.5467501E+00  0.0000000E+00
 1.5582501E+00  0.0000000E+00
 1.5697501E+00  0.0000000E+00
 1.5812501E+00  0.0000000E+00
 1.5927501E+00  0.0000000E+00
 1.6042501E+00  0.0000000E+00
 1.6157501E+00  0.0000000E+00
 1.6272501E+00  0.0000000E+00
 1.6387501E+00  0.0000000E+00
 1.6502501E+00  0.0000000E+00
 1.6617501E+00  0.0000000E+00
 1.6732501E+00  0.0000000E+00
 1.6847501E+00  0.0000000E+00
 1.6962501E+00  0.0000000E+00
 1.7077501E+00  0.0000000E+00
 1.7192501E+00  0.0000000E+00
 1.7307501E+00  0.0000000E+00
 1.7422501E+00  0.0000000E+00
 1.7537501E+00  0.0000000E+00
 1.7652501E+00  0.0000000E+00
 1.7767501E+00  0.0000000E+00
 1.7882501E+00  0.0000000E+00
 1.7997501E+00  0.0000000E+00
 1.8112501E+00  0.0000000E+00
 1.8227501E+00  0.0000000E+00
 1.8342501E+00  0.0000000E+00
 1.8457501E+00  0.0000000E+00
 1.8572501E+00  0.0000000E+00
 1.8687501E+00  0.0000000E+00
 1.8802501E+00  0.0000000E+00
 1.8917501E+00  0.0000000E+00
 1.9032501E+00  0.0000000E+00
 1.9147501E+00  0.0000000E+00
 1.9262501E+00  0.0000000E+00
 1.9377501E+00  0.0000000E+00
 1.9492501E+00  0.0000000E+00
 1.9607501E+00  0.0000000E+00
 1.9722501E+00  0.0000000E+00
 1.9837501E+00  0.0000000E+00
 1.9952501E+00  0.0000000E+00
 2.0067501E+00  0.0000000E+00
 2.0182500E+00  0.0000000E+00
 2.0297501E+00  0.0000000E+00
 2.0412500E+00  0.0000000E+00
 2.0527501E+00  0.0000000E+00
 2.0642500E+00  0.0000000E+00
 2.0757501E+00  0.0000000E+00
 2.0872500E+00  0.0000000E+00
 2.0987501E+00  0.0000000E+00
 2.1102500E+00  0.0000000E+00
 2.1217501E+00  0.0000000E+00
 2.1332500E+00  0.0000000E+00
 2.1447501E+00  0.0000000E+00
 2.1562500E+00  0.0000000E+00
 2.1677501E+00  0.0000000E+00
 2.1792500E+00  0.0000000E+00
 2.1907501E+00  0.0000000E+00
 2.2022500E+00  0.0000000E+00
 2.2137501E+00  0.0000000E+00
 2.2252500E+00  0.0000000E+00
 2.2367501E+00  0.0000000E+00
 2.2482500E+00  0.0000000E+00
 2.2597501E+00  0.0000000E+00
 2.2712500E+00  0.0000000E+00
 2.2827501E+00  0.0000000E+00
 2.2942500E+00  0.0000000E+00
 2.3057501E+00  0.0000000E+00
 2.3172500E+00  0.0000000E+00
 2.3287501E+00  0.0000000E+00
 2.3402500E+00  0.0000000E+00
 2.3517501E+00  0.0000000E+00
 2.3632500E+00  0.0000000E+00
 2.3747501E+00  0.0000000E+00
 2.3862500E+00  0.0000000E+00
 2.3977501E+00  0.0000000E+00
 2.4092500E+00  0.0000000E+00
 2.4207501E+00  0.0000000E+00
 2.4322500E+00  0.0000000E+00
 2.4437501E+00  0.0000000E+00
 2.4552500E+00  0.0000000E+00
 2.4667501E+00  0.0000000E+00
 2.4782500E+00  0.0000000E+00
 2.4897501E+00  0.0000000E+00
 2.5012500E+00  0.0000000E+00
 2.5127501E+00  0.0000000E+00
 2.5242500E+00  0.0000000E+00
 2.5357502E+00  0.0000000E+00
 2.5472500E+00  0.0000000E+00
 2.5587502E+00  0.0000000E+00
 2.5702500E+00  0.0000000E+00
 2.5817502E+00  0.0000000E+00
 2.5932500E+00  0.0000000E+00
 2.6047502E+00  0.0000000E+00
 2.6162500E+00  0.0000000E+00
 2.6277502E+00  0.0000000E+00
 2.6392500E+00  0.0000000E+00
 2.6507502E+00  0.0000000E+00
 2.6622500E+00  0.0000000E+00
 2.6737502E+00  0.0000000E+00
 2.6852500E+00  0.0000000E+00
 2.6967502E+00  0.0000000E+00
 2.7082500E+00  0.0000000E+00
 2.7197502E+00  0.0000000E+00
 2.7312500E+00  0.0000000E+00
 2.7427502E+00  0.0000000E+00
 2.7542500E+00  0.0000000E+00
 2.7657502E+00  0.0000000E+00
 2.7772501E+00  0.0000000E+00
 2.7887502E+00  0.0000000E+00
 2.8002501E+00  0.0000000E+00
 2.8117502E+00  0.0000000E+00
 2.8232501E+00  3.3140232E+01
 2.8347502E+00  3.3201653E+01
 2.8462501E+00  3.3329487E+01
 2.8577502E+00  3.3282970E+01
 2.8692501E+00  3.3300697E+01
 2.8807502E+00  3.3568054E+01
 2.8922501E+00  3.4559998E+01
 2.9037502E+00  3.5214478E+01
 2.9152501E+00  3.5803215E+01
 2.9267502E+00  3.6011471E+01
 2.9382501E+00  3.6256985E+01
 2.9497502E+00  3.6321045E+01
 2.9612501E+00  3.6014267E+01
 2.9727502E+00  3.5812519E+01
 2.9842501E+00  3.5634003E+01
 2.9957502E+00  3.5884350E+01
 3.0072501E+00  3.6233719E+01
 3.0187502E+00  3.6236427E+01
 3.0302501E+00  3.6011364E+01
 3.0417502E+00  3.5746082E+01
 3.0532501E+00  3.5668423E+01
 3.0647502E+00  3.5641899E+01
 3.0762501E+00  3.5657230E+01
 3.0877502E+00  3.5598125E+01
 3.0992501E+00  3.5875450E+01
 3.1107502E+00  3.5540550E+01
 3.1222501E+00  3.5828922E+01
 3.1337502E+00  3.5780479E+01
 3.1452501E+00  3.5953014E+01
 3.1567502E+00  3.5901615E+01
 3.1682501E+00  3.5744762E+01
 3.1797502E+00  3.5824478E+01
 3.1912501E+00  3.5458050E+01
 3.2027502E+00  3.5388252E+01
 3.2142501E+00  3.5402351E+01
 3.2257502E+00  3.5309753E+01
 3.2372501E+00  3.5020435E+01
 3.2487502E+00  3.4676399E+01
 3.2602501E+00  3.4477894E+01
 3.2717502E+00  3.4434109E+01
 3.2832501E+00  3.4371632E+01
 3.2947502E+00  3.4477585E+01
 3.3062501E+00  3.4430050E+01
 3.3177502E+00  3.4188885E+01
 3.3292501E+00  3.4214909E+01
 3.3407502E+00  3.4037975E+01
 3.3522501E+00  3.3984196E+01
 3.3637502E+00  3.3729378E+01
 3.3752501E+00  3.3820076E+01
 3.3867502E+00  3.3916161E+01
 3.3982501E+00  3.4073116E+01
 3.4097502E+00  3.4117943E+01
 3.4212501E+00  3.4173458E+01
 3.4327502E+00  3.4407623E+01
 3.4442501E+00  3.4175972E+01
 3.4557502E+00  3.4044472E+01
 3.4672501E+00  3.3956959E+01
 3.4787502E+00  3.3963104E+01
 3.4902501E+00  3.4266567E+01
 3.5017502E+00  3.4197872E+01
 3.5132501E+00  3.4357315E+01
 3.5247502E+00  3.4274868E+01
 3.5362501E+00  3.4187057E+01
 3.5477502E+00  3.4033062E+01
 3.5592501E+00  3.4028164E+01
 3.5707502E+00  3.3820354E+01
 3.5822501E+00  3.3589069E+01
 3.5937502E+00  3.3394901E+01
 3.6052501E+00  3.3314800E+01
 3.6167502E+00  3.3342922E+01
 3.6282501E+00  3.3396782E+01
 3.6397502E+00  3.3382751E+01
 3.6512501E+00  3.3398361E+01
 3.6627502E+00  3.3449100E+01
 3.6742501E+00  3.3322365E+01
 3.6857502E+00  3.3388226E+01
 3.6972501E+00  3.3120846E+01
 3.7087502E+00  3.3142029E+01
 3.7202501E+00  3.2996464E+01
 3.7317502E+00  3.3060444E+01
 3.7432501E+00  3.3284798E+01
 3.7547503E+00  3.3375576E+01
 3.7662501E+00  3.3261086E+01
 3.7777503E+00  3.3215870E+01
 3.7892501E+00  3.2999851E+01
 3.8007503E+00  3.3038803E+01
 3.8122501E+00  3.2931496E+01
 3.8237503E+00  3.2859020E+01
 3.8352501E+00  3.2955734E+01
 3.8467503E+00  3.2663078E+01
 3.8582501E+00  3.2733170E+01
 3.8697503E+00  3.2546154E+01
 3.8812501E+00  3.2542103E+01
 3.8927503E+00  3.2247635E+01
 3.9042501E+00  3.1911291E+01
 3.9157503E+00  3.1847153E+01
 3.9272501E+00  3.1852474E+01
 3.9387503E+00  3.2095570E+01
 3.9502501E+00  3.2295830E+01
 3.9617503E+00  3.2512245E+01
 3.9732502E+00  3.2635429E+01
 3.9847503E+00  3.2648754E+01
 3.9962502E+00  3.2515175E+01
 4.0077500E+00  3.2494213E+01
 4.0192504E+00  3.2333435E+01
 4.0307503E+00  3.2319038E+01
 4.0422502E+00  3.2259705E+01
 4.0537500E+00  3.2249157E+01
 4.0652504E+00  3.2157005E+01
 4.0767503E+00  3.2159504E+01
 4.0882502E+00  3.2141476E+01
 4.0997500E+00  3.2206383E+01
 4.1112504E+00  3.2268978E+01
 4.1227503E+00  3.2275887E+01
 4.1342502E+00  3.2338680E+01
 4.1457500E+00  3.2326046E+01
 4.1572504E+00  3.2219158E+01
 4.1687503E+00  3.2059025E+01
 4.1802502E+00  3.1980215E+01
 4.1917500E+00  3.2076889E+01
 4.2032504E+00  3.2036060E+01
 4.2147503E+00  3.2079239E+01
 4.2262502E+00  3.2012100E+01
 4.2377501E+00  3.2113777E+01
 4.2492504E+00  3.2077179E+01
 4.2607503E+00  3.2064480E+01
 4.2722502E+00  3.2157921E+01
 4.2837501E+00  3.2240387E+01
 4.2952504E+00  3.2315632E+01
 4.3067503E+00  3.2394764E+01
 4.3182502E+00  3.2455841E+01
 4.3297501E+00  3.2544323E+01
 4.3412504E+00  3.2524853E+01
 4.3527503E+00  3.2426113E+01
 4.3642502E+00  3.2387871E+01
 4.3757501E+00  3.2289265E+01
 4.3872504E+00  3.2273075E+01
 4.3987503E+00  3.2270439E+01
 4.4102502E+00  3.2384823E+01
 4.4217501E+00  3.2456345E+01
 4.4332504E+00  3.2548229E+01
 4.4447503E+00  3.2589989E+01
 4.4562502E+00  3.2531555E+01
 4.4677501E+00  3.2588104E+01
 4.4792504E+00  3.2541546E+01
 4.4907503E+00  3.2573971E+01
 4.5022502E+00  3.2476925E+01
 4.5137501E+00  3.2480728E+01
 4.5252504E+00  3.2363636E+01
 4.5367503E+00  3.2532238E+01
 4.5482502E+00  3.2377338E+01
 4.5597501E+00  3.2421215E+01
 4.5712504E+00  3.2461906E+01
 4.5827503E+00  3.2670372E+01
 4.5942502E+00  3.2860806E+01
 4.6057501E+00  3.2840229E+01
 4.6172504E+00  3.2935741E+01
 4.6287503E+00  3.2971848E+01
 4.6402502E+00  3.2974834E+01
 4.6517501E+00  3.2941570E+01
 4.6632504E+00  3.2845119E+01
 4.6747503E+00  3.2897327E+01
 4.6862502E+00  3.2865658E+01
 4.6977501E+00  3.2972561E+01
 4.7092505E+00  3.2878273E+01
 4.7207503E+00  3.2750984E+01
 4.7322502E+00  3.2535141E+01
 4.7437501E+00  3.2285622E+01
 4.7552505E+00  3.2088947E+01
 4.7667503E+00  3.2034531E+01
 4.7782502E+00  3.2118450E+01
 4.7897501E+00  3.2335331E+01
 4.8012505E+00  3.2511967E+01
 4.8127503E+00  3.2730000E+01
 4.8242502E+00  3.2785603E+01
 4.8357501E+00  3.2908848E+01
 4.8472505E+00  3.2942612E+01
 4.8587503E+00  3.3049324E+01
 4.8702502E+00  3.2917656E+01
 4.8817501E+00  3.2774040E+01
 4.8932505E+00  3.2629429E+01
 4.9047503E+00  3.2517498E+01
 4.9162502E+00  3.2634148E+01
 4.9277501E+00  3.2647926E+01
 4.9392505E+00  3.2819645E+01
 4.9507504E+00  3.2708763E+01
 4.9622502E+00  3.2739819E+01
 4.9737501E+00  3.2770741E+01
 4.9852505E+00  3.2927082E+01
 4.9967504E+00  3.3047756E+01
 5.0082502E+00  3.3100750E+01
 5.0197501E+00  3.3043343E+01
 5.0312505E+00  3.3063950E+01
 5.0427504E+00  3.3063667E+01
 5.0542502E+00  3.3172611E+01
 5.0657501E+00  3.3191025E+01
 5.0772505E+00  3.3173641E+01
 5.0887504E+00  3.3147804E+01
 5.1002502E+00  3.3079811E+01
 5.1117501E+00  3.3059181E+01
 5.1232505E+00  3.3051617E+01
 5.1347504E+00  3.3230488E+01
 5.1462502E+00  3.3394127E+01
 5.1577501E+00  3.3425488E+01
 5.1692505E+00  3.3527943E+01
 5.1807504E+00  3.3392296E+01
 5.1922503E+00  3.3561512E+01
 5.2037501E+00  3.3491657E+01
 5.2152505E+00  3.3685692E+01
 5.2267504E+00  3.3623680E+01
 5.2382503E+00  3.3624100E+01
 5.2497501E+00  3.3551529E+01
 5.2612505E+00  3.3616798E+01
 5.2727504E+00  3.3586956E+01
 5.2842503E+00  3.3795357E+01
 5.2957501E+00  3.3971500E+01
 5.3072500E+00  3.4165741E+01
 5.3187504E+00  3.4312569E+01
 5.3302503E+00  3.4249634E+01
 5.3417501E+00  3.4183475E+01
 5.3532500E+00  3.4041065E+01
 5.3647504E+00  3.4094891E+01
 5.3762503E+00  3.4158493E+01
 5.3877501E+00  3.4420166E+01
 5.3992500E+00  3.4437534E+01
 5.4107504E+00  3.4587200E+01
 5.4222503E+00  3.4492928E+01
 5.4337502E+00  3.4475681E+01
 5.4452500E+00  3.4489063E+01
 5.4567504E+00  3.4359509E+01
 5.4682503E+00  3.4307159E+01
 5.4797502E+00  3.4265034E+01
 5.4912500E+00  3.4319717E+01
 5.5027504E+00  3.4404060E+01
 5.5142503E+00  3.4384129E+01
 5.5257502E+00  3.4404308E+01
 5.5372500E+00  3.4411510E+01
 5.5487504E+00  3.4485519E+01
 5.5602503E+00  3.4630104E+01
 5.5717502E+00  3.4798450E+01
 5.5832500E+00  3.5030369E+01
 5.5947504E+00  3.5116112E+01
 5.6062503E+00  3.5068584E+01
 5.6177502E+00  3.4970871E+01
 5.6292500E+00  3.4788761E+01
 5.6407504E+00  3.4859470E+01
 5.6522503E+00  3.4819614E+01
 5.6637502E+00  3.5047646E+01
 5.6752501E+00  3.5263958E+01
 5.6867504E+00  3.5359875E+01
 5.6982503E+00  3.5454288E+01
 5.7097502E+00  3.5477856E+01
 5.7212501E+00  3.5576645E+01
 5.7327504E+00  3.5636818E+01
 5.7442503E+00  3.5761681E+01
 5.7557502E+00  3.5744984E+01
 5.7672501E+00  3.5763039E+01
 5.7787504E+00  3.5573982E+01
 5.7902503E+00  3.5536987E+01
 5.8017502E+00  3.5449863E+01
 5.8132501E+00  3.5380779E+01
 5.8247504E+00  3.5308956E+01
 5.8362503E+00  3.5290009E+01
 5.8477502E+00  3.5237854E+01
 5.8592501E+00  3.5190754E+01
 5.8707504E+00  3.5264912E+01
 5.8822503E+00  3.5449497E+01
 5.8937502E+00  3.5632629E+01
 5.9052501E+00  3.5793827E+01
 5.9167504E+00  3.5794827E+01
 5.9282503E+00  3.5899311E+01
 5.9397502E+00  3.5976997E+01
 5.9512501E+00  3.6236530E+01
 5.9627504E+00  3.6545002E+01
 5.9742503E+00  3.6818996E+01
 5.9857502E+00  3.6870922E+01
 5.9972501E+00  3.6885071E+01
 6.0087504E+00  3.6733120E+01
 6.0202503E+00  3.6721134E+01
 6.0317502E+00  3.6554417E+01
 6.0432501E+00  3.6483288E+01
 6.0547504E+00  3.6462776E+01
 6.0662503E+00  3.6585392E+01
 6.0777502E+00  3.6695984E+01
 6.0892501E+00  3.6846123E+01
 6.1007504E+00  3.6873356E+01
 6.1122503E+00  3.6944427E+01
 6.1237502E+00  3.6747177E+01
 6.1352501E+00  3.6715111E+01
 6.1467505E+00  3.6604641E+01
 6.1582503E+00  3.6678005E+01
 6.1697502E+00  3.6680439E+01
 6.1812501E+00  3.6739861E+01
 6.1927505E+00  3.6801132E+01
 6.2042503E+00  3.6857662E+01
 6.2157502E+00  3.6986485E+01
 6.2272501E+00  3.7056038E+01
 6.2387505E+00  3.7048393E+01
 6.2502503E+00  3.7113926E+01
 6.2617502E+00  3.7115723E+01
 6.2732501E+00  3.7281532E+01
 6.2847505E+00  3.7407200E+01
 6.2962503E+00  3.7614819E+01
 6.3077502E+00  3.7768185E+01
 6.3192501E+00  3.7874294E+01
 6.3307505E+00  3.7922478E+01
 6.3422503E+00  3.8015644E+01
 6.3537502E+00  3.7983505E+01
 6.3652501E+00  3.7970741E+01
 6.3767505E+00  3.7981560E+01
 6.3882504E+00  3.8084267E+01
 6.3997502E+00  3.8158691E+01
 6.4112501E+00  3.8286163E+01
 6.4227505E+00  3.8395329E+01
 6.4342504E+00  3.8616283E+01
 6.4457502E+00  3.8706097E+01
 6.4572501E+00  3.8668041E+01
 6.4687505E+00  3.8691238E+01
 6.4802504E+00  3.8768543E+01
 6.4917502E+00  3.8868698E+01
 6.5032501E+00  3.9033947E+01
 6.5147505E+00  3.9123798E+01
 6.5262504E+00  3.9299576E+01
 6.5377502E+00  3.9321205E+01
 6.5492501E+00  3.9360176E+01
 6.5607505E+00  3.9464478E+01
 6.5722504E+00  3.9645844E+01
 6.5837502E+00  3.9757793E+01
 6.5952501E+00  3.9805336E+01
 6.6067505E+00  3.9810307E+01
 6.6182504E+00  3.9754822E+01
 6.6297503E+00  3.9907249E+01
 6.6412501E+00  3.9945274E+01
 6.6527505E+00  4.0117760E+01
 6.6642504E+00  4.0232807E+01
 6.6757503E+00  4.0297810E+01
 6.6872501E+00  4.0396500E+01
 6.6987505E+00  4.0398510E+01
 6.7102504E+00  4.0505505E+01
 6.7217503E+00  4.0522438E+01
 6.7332501E+00  4.0563660E+01
 6.7447505E+00  4.0630844E+01
 6.7562504E+00  4.0765083E+01
 6.7677503E+00  4.0822433E+01
 6.7792501E+00  4.0944286E+01
 6.7907505E+00  4.1093781E+01
 6.8022504E+00  4.1203289E+01
 6.8137503E+00  4.1232143E+01
 6.8252501E+00  4.1319485E+01
 6.8367505E+00  4.1406086E+01
 6.8482504E+00  4.1591244E+01
 6.8597503E+00  4.1590824E+01
 6.8712502E+00  4.1813595E+01
 6.8827505E+00  4.1839352E+01
 6.8942504E+00  4.1937813E+01
 6.9057503E+00  4.1970387E+01
 6.9172502E+00  4.2094460E+01
 6.9287505E+00  4.2149681E+01
 6.9402504E+00  4.2154186E+01
 6.9517503E+00  4.2155502E+01
 6.9632502E+00  4.2280418E+01
 6.9747505E+00  4.2326950E+01
 6.9862504E+00  4.2411381E+01
 6.9977503E+00  4.2333172E+01
 7.0092502E+00  4.2347759E+01
 7.0207505E+00  4.2250130E+01
 7.0322504E+00  4.2332573E+01
 7.0437503E+00  4.2458885E+01
 7.0552502E+00  4.2624321E+01
 7.0667505E+00  4.2735321E+01
 7.0782504E+00  4.2782764E+01
 7.0897503E+00  4.2884964E+01
 7.1012502E+00  4.3017448E+01
 7.1127505E+00  4.3219547E+01
 7.1242504E+00  4.3316811E+01
 7.1357503E+00  4.3387856E+01
 7.1472502E+00  4.3340435E+01
 7.1587505E+00  4.3360718E+01
 7.1702504E+00  4.3392918E+01
 7.1817503E+00  4.3420097E+01
 7.1932502E+00  4.3441204E+01
 7.2047505E+00  4.3406544E+01
 7.2162504E+00  4.3430168E+01
 7.2277503E+00  4.3384129E+01
 7.2392502E+00  4.3386417E+01
 7.2507505E+00  4.3341480E+01
 7.2622504E+00  4.3316708E+01
 7.2737503E+00  4.3398880E+01
 7.2852502E+00  4.3452629E+01
 7.2967505E+00  4.3544098E+01
 7.3082504E+00  4.3704845E+01
 7.3197503E+00  4.3804443E+01
 7.3312502E+00  4.4019691E+01
 7.3427505E+00  4.4090282E+01
 7.3542504E+00  4.4166470E+01
 7.3657503E+00  4.4212734E+01
 7.3772502E+00  4.4119797E+01
 7.3887506E+00  4.4109127E+01
 7.4002504E+00  4.4044472E+01
 7.4117503E+00  4.4145088E+01
 7.4232502E+00  4.4183392E+01
 7.4347506E+00  4.4214092E+01
 7.4462504E+00  4.4133282E+01
 7.4577503E+00  4.4236660E+01
 7.4692502E+00  4.4323006E+01
 7.4807506E+00  4.4497211E+01
 7.4922504E+00  4.4491676E+01
 7.5037503E+00  4.4470253E+01
 7.5152502E+00  4.4414261E+01
 7.5267506E+00  4.4392605E+01
 7.5382504E+00  4.4442249E+01
 7.5497503E+00  4.4386162E+01
 7.5612502E+00  4.4423573E+01
 7.5727506E+00  4.4497612E+01
 7.5842505E+00  4.4581757E+01
 7.5957503E+00  4.4563080E+01
 7.6072502E+00  4.4532288E+01
 7.6187506E+00  4.4529514E+01
 7.6302505E+00  4.4534901E+01
 7.6417503E+00  4.4551792E+01
 7.6532502E+00  4.4465355E+01
 7.6647506E+00  4.4427536E+01
 7.6762505E+00  4.4331741E+01
 7.6877503E+00  4.4385670E+01
 7.6992502E+00  4.4476265E+01
 7.7107506E+00  4.4540634E+01
 7.7222505E+00  4.4685619E+01
 7.7337503E+00  4.4695213E+01
 7.7452502E+00  4.4643074E+01
 7.7567506E+00  4.4530029E+01
 7.7682505E+00  4.4434711E+01
 7.7797503E+00  4.4469685E+01
 7.7912502E+00  4.4415779E+01
 7.8027506E+00  4.4323586E+01
 7.8142505E+00  4.4282841E+01
 7.8257504E+00  4.4262127E+01
 7.8372502E+00  4.4355244E+01
 7.8487506E+00  4.4319515E+01
 7.8602505E+00  4.4294167E+01
 7.8717504E+00  4.4212109E+01
 7.8832502E+00  4.4162357E+01
 7.8947506E+00  4.4023872E+01
 7.9062505E+00  4.4021034E+01
 7.9177504E+00  4.4027073E+01
 7.9292502E+00  4.3972942E+01
 7.9407506E+00  4.3958729E+01
 7.9522505E+00  4.3794140E+01
 7.9637504E+00  4.3824261E+01
 7.9752502E+00  4.3694756E+01
 7.9867506E+00  4.3663330E+01
 7.9982505E+00  4.3580181E+01
 8.0097504E+00  4.3478886E+01
 8.0212507E+00  4.3429653E+01
 8.0327501E+00  4.3438614E+01
 8.0442505E+00  4.3403870E+01
 8.0557508E+00  4.3347557E+01
 8.0672503E+00  4.3128345E+01
 8.0787506E+00  4.2999393E+01
 8.0902500E+00  4.2897942E+01
 8.1017504E+00  4.2846428E+01
 8.1132507E+00  4.2796143E+01
 8.1247501E+00  4.2591030E+01
 8.1362505E+00  4.2495808E+01
 8.1477509E+00  4.2299713E+01
 8.1592503E+00  4.2255871E+01
 8.1707506E+00  4.2197857E+01
 8.1822500E+00  4.2107208E+01
 8.1937504E+00  4.2032631E+01
 8.2052507E+00  4.1896847E+01
 8.2167501E+00  4.1815609E+01
 8.2282505E+00  4.1671688E+01
 8.2397509E+00  4.1584118E+01
 8.2512503E+00  4.1513954E+01
 8.2627506E+00  4.1483112E+01
 8.2742500E+00  4.1437569E+01
 8.2857504E+00  4.1308414E+01
 8.2972507E+00  4.1232567E+01
 8.3087502E+00  4.0996826E+01
 8.3202505E+00  4.0879070E+01
 8.3317509E+00  4.0636517E+01
 8.3432503E+00  4.0480812E+01
 8.3547506E+00  4.0312675E+01
 8.3662500E+00  4.0191757E+01
 8.3777504E+00  3.9996639E+01
 8.3892508E+00  3.9768913E+01
 8.4007502E+00  3.9565525E+01
 8.4122505E+00  3.9505611E+01
 8.4237509E+00  3.9376854E+01
 8.4352503E+00  3.9235615E+01
 8.4467506E+00  3.9043728E+01
 8.4582500E+00  3.8920734E+01
 8.4697504E+00  3.8826088E+01
 8.4812508E+00  3.8555237E+01
 8.4927502E+00  3.8367138E+01
 8.5042505E+00  3.8112965E+01
 8.5157509E+00  3.7961494E+01
 8.5272503E+00  3.7672958E+01
 8.5387506E+00  3.7498207E+01
 8.5502501E+00  3.7294865E+01
 8.5617504E+00  3.7171612E+01
 8.5732508E+00  3.7042961E+01
 8.5847502E+00  3.6913982E+01
 8.5962505E+00  3.6766144E+01
 8.6077509E+00  3.6572498E+01
 8.6192503E+00  3.6383434E+01
 8.6307507E+00  3.6243366E+01
 8.6422501E+00  3.6081356E+01
 8.6537504E+00  3.5915047E+01
 8.6652508E+00  3.5814114E+01
 8.6767502E+00  3.5598568E+01
 8.6882505E+00  3.5456459E+01
 8.6997509E+00  3.5260143E+01
 8.7112503E+00  3.5076851E+01
 8.7227507E+00  3.4894894E+01
 8.7342501E+00  3.4650852E+01
 8.7457504E+00  3.4464405E+01
 8.7572508E+00  3.4171013E+01
 8.7687502E+00  3.3866447E+01
 8.7802505E+00  3.3663017E+01
 8.7917500E+00  3.3505104E+01
 8.8032503E+00  3.3416721E+01
 8.8147507E+00  3.3328327E+01
 8.8262501E+00  3.3252331E+01
 8.8377504E+00  3.3129387E+01
 8.8492508E+00  3.2924965E+01
 8.8607502E+00  3.2753998E+01
 8.8722506E+00  3.2564953E+01
 8.8837500E+00  3.2390842E+01
 8.8952503E+00  3.2124390E+01
 8.9067507E+00  3.1929100E+01
 8.9182501E+00  3.1686975E+01
 8.9297504E+00  3.1528292E+01
 8.9412508E+00  3.1353554E+01
 8.9527502E+00  3.1202759E+01
 8.9642506E+00  3.1043896E+01
 8.9757500E+00  3.0887808E+01
 8.9872503E+00  3.0770018E+01
 8.9987507E+00  3.0615923E+01
 9.0102501E+00  3.0519554E+01
 9.0217505E+00  3.0389664E+01
 9.0332508E+00  3.0347612E+01
 9.0447502E+00  3.0350605E+01
 9.0562506E+00  3.0284073E+01
 9.0677500E+00  3.0276327E+01
 9.0792503E+00  3.0152134E+01
 9.0907507E+00  3.0089687E+01
 9.1022501E+00  2.9933857E+01
 9.1137505E+00  2.9717739E+01
 9.1252508E+00  2.9552959E+01
 9.1367502E+00  2.9375772E+01
 9.1482506E+00  2.9284464E+01
 9.1597500E+00  2.9096045E+01
 9.1712503E+00  2.8957493E+01
 9.1827507E+00  2.8735760E+01
 9.1942501E+00  2.8591686E+01
 9.2057505E+00  2.8428619E+01
 9.2172508E+00  2.8347425E+01
 9.2287502E+00  2.8232733E+01
 9.2402506E+00  2.8169727E+01
 9.2517500E+00  2.8046331E+01
 9.2632504E+00  2.8039001E+01
 9.2747507E+00  2.7951746E+01
 9.2862501E+00  2.7934774E+01
 9.2977505E+00  2.7846453E+01
 9.3092508E+00  2.7734095E+01
 9.3207502E+00  2.7599367E+01
 9.3322506E+00  2.7437986E+01
 9.3437500E+00  2.7344088E+01
 9.3552504E+00  2.7234789E+01
 9.3667507E+00  2.7139999E+01
 9.3782501E+00  2.7034073E+01
 9.3897505E+00  2.6890234E+01
 9.4012508E+00  2.6813913E+01
 9.4127502E+00  2.6758614E+01
 9.4242506E+00  2.6735876E+01
 9.4357500E+00  2.6677727E+01
 9.4472504E+00  2.6589409E+01
 9.4587507E+00  2.6539656E+01
 9.4702501E+00  2.6510912E+01
 9.4817505E+00  2.6442162E+01
 9.4932508E+00  2.6369812E+01
 9.5047503E+00  2.6263371E+01
 9.5162506E+00  2.6207678E+01
 9.5277500E+00  2.6172199E+01
 9.5392504E+00  2.6097219E+01
 9.5507507E+00  2.6033161E+01
 9.5622501E+00  2.5954336E+01
 9.5737505E+00  2.5876942E+01
 9.5852509E+00  2.5797745E+01
 9.5967503E+00  2.5755377E+01
 9.6082506E+00  2.5742046E+01
 9.6197500E+00  2.5696884E+01
 9.6312504E+00  2.5620607E+01
 9.6427507E+00  2.5545212E+01
 9.6542501E+00  2.5500423E+01
 9.6657505E+00  2.5412449E+01
 9.6772509E+00  2.5304321E+01
 9.6887503E+00  2.5234873E+01
 9.7002506E+00  2.5157040E+01
 9.7117500E+00  2.5101015E+01
 9.7232504E+00  2.4986261E+01
 9.7347507E+00  2.4930880E+01
 9.7462502E+00  2.4967175E+01
 9.7577505E+00  2.4965971E+01
 9.7692509E+00  2.4984119E+01
 9.7807503E+00  2.4908651E+01
 9.7922506E+00  2.4952724E+01
 9.8037500E+00  2.4932920E+01
 9.8152504E+00  2.4906780E+01
 9.8267508E+00  2.4690359E+01
 9.8382502E+00  2.4598480E+01
 9.8497505E+00  2.4461241E+01
 9.8612509E+00  2.4504934E+01
 9.8727503E+00  2.4448397E+01
 9.8842506E+00  2.4481617E+01
 9.8957500E+00  2.4549417E+01
 9.9072504E+00  2.4567137E+01
 9.9187508E+00  2.4505196E+01
 9.9302502E+00  2.4429445E+01
 9.9417505E+00  2.4365486E+01
 9.9532509E+00  2.4301941E+01
 9.9647503E+00  2.4203943E+01
 9.9762506E+00  2.4187304E+01
 9.9877501E+00  2.4194826E+01
 9.9992504E+00  2.4189764E+01
 1.0010751E+01  2.4070238E+01
 1.0022250E+01  2.4025799E+01
 1.0033751E+01  2.3954742E+01
 1.0045251E+01  2.3996483E+01
 1.0056750E+01  2.4001671E+01
 1.0068251E+01  2.4060484E+01
 1.0079750E+01  2.4089741E+01
 1.0091250E+01  2.4099325E+01
 1.0102751E+01  2.4070915E+01
 1.0114250E+01  2.4001444E+01
 1.0125751E+01  2.3930037E+01
 1.0137251E+01  2.3830656E+01
 1.0148750E+01  2.3794399E+01
 1.0160251E+01  2.3768280E+01
 1.0171750E+01  2.3703856E+01
 1.0183250E+01  2.3679960E+01
 1.0194751E+01  2.3600485E+01
 1.0206250E+01  2.3652382E+01
 1.0217751E+01  2.3659916E+01
 1.0229251E+01  2.3647064E+01
 1.0240750E+01  2.3553740E+01
 1.0252251E+01  2.3444393E+01
 1.0263750E+01  2.3372908E+01
 1.0275250E+01  2.3369904E+01
 1.0286751E+01  2.3368988E+01
 1.0298250E+01  2.3412685E+01
 1.0309751E+01  2.3424482E+01
 1.0321251E+01  2.3369545E+01
 1.0332750E+01  2.3331356E+01
 1.0344251E+01  2.3281685E+01
 1.0355750E+01  2.3294714E+01
 1.0367250E+01  2.3258146E+01
 1.0378751E+01  2.3233902E+01
 1.0390250E+01  2.3255814E+01
 1.0401751E+01  2.3289534E+01
 1.0413251E+01  2.3302458E+01
 1.0424750E+01  2.3270342E+01
 1.0436251E+01  2.3201265E+01
 1.0447750E+01  2.3140621E+01
 1.0459250E+01  2.3121643E+01
 1.0470751E+01  2.3145222E+01
 1.0482250E+01  2.3193243E+01
 1.0493751E+01  2.3230892E+01
 1.0505251E+01  2.3200050E+01
 1.0516750E+01  2.3174603E+01
 1.0528251E+01  2.3063824E+01
 1.0539750E+01  2.3035498E+01
 1.0551250E+01  2.3024036E+01
 1.0562751E+01  2.3069853E+01
 1.0574250E+01  2.3026690E+01
 1.0585751E+01  2.2927542E+01
 1.0597251E+01  2.2800116E+01
 1.0608750E+01  2.2824223E+01
 1.0620251E+01  2.2886866E+01
 1.0631750E+01  2.2958361E+01
 1.0643250E+01  2.2973301E+01
 1.0654751E+01  2.2998625E+01
 1.0666250E+01  2.3001623E+01
 1.0677751E+01  2.2936293E+01
 1.0689251E+01  2.2871815E+01
 1.0700750E+01  2.2836306E+01
 1.0712251E+01  2.2804916E+01
 1.0723750E+01  2.2797932E+01
 1.0735250E+01  2.2735519E+01
 1.0746751E+01  2.2730747E+01
 1.0758250E+01  2.2647358E+01
 1.0769751E+01  2.2621828E+01
 1.0781251E+01  2.2623840E+01
 1.0792750E+01  2.2618118E+01
 1.0804251E+01  2.2656116E+01
 1.0815750E+01  2.2696440E+01
 1.0827250E+01  2.2779238E+01
 1.0838751E+01  2.2782846E+01
 1.0850250E+01  2.2795183E+01
 1.0861751E+01  2.2732468E+01
 1.0873251E+01  2.2690798E+01
 1.0884750E+01  2.2647072E+01
 1.0896251E+01  2.2658308E+01
 1.0907750E+01  2.2712214E+01
 1.0919250E+01  2.2667929E+01
 1.0930751E+01  2.2609898E+01
 1.0942250E+01  2.2510654E+01
 1.0953751E+01  2.2516678E+01
 1.0965251E+01  2.2506224E+01
 1.0976750E+01  2.2565361E+01
 1.0988251E+01  2.2500479E+01
 1.0999750E+01  2.2489105E+01
 1.1011250E+01  2.2390471E+01
 1.1022751E+01  2.2381256E+01
 1.1034250E+01  2.2379782E+01
 1.1045751E+01  2.2378813E+01
 1.1057251E+01  2.2394493E+01
 1.1068750E+01  2.2395374E+01
 1.1080251E+01  2.2397858E+01
 1.1091750E+01  2.2443155E+01
 1.1103251E+01  2.2413404E+01
 1.1114751E+01  2.2461479E+01
 1.1126250E+01  2.2394558E+01
 1.1137751E+01  2.2364719E+01
 1.1149251E+01  2.2308390E+01
 1.1160750E+01  2.2304367E+01
 1.1172251E+01  2.2286131E+01
 1.1183750E+01  2.2296700E+01
 1.1195251E+01  2.2292912E+01
 1.1206751E+01  2.2357674E+01
 1.1218250E+01  2.2355553E+01
 1.1229751E+01  2.2370325E+01
 1.1241251E+01  2.2300957E+01
 1.1252750E+01  2.2238594E+01
 1.1264251E+01  2.2191648E+01
 1.1275750E+01  2.2227186E+01
 1.1287251E+01  2.2215237E+01
 1.1298751E+01  2.2225130E+01
 1.1310250E+01  2.2204096E+01
 1.1321751E+01  2.2243988E+01
 1.1333251E+01  2.2243517E+01
 1.1344750E+01  2.2252035E+01
 1.1356251E+01  2.2296343E+01
 1.1367750E+01  2.2351046E+01
 1.1379251E+01  2.2365486E+01
 1.1390751E+01  2.2394714E+01
 1.1402250E+01  2.2439919E+01
 1.1413751E+01  2.2426378E+01
 1.1425251E+01  2.2445601E+01
 1.1436750E+01  2.2365208E+01
 1.1448251E+01  2.2406128E+01
 1.1459750E+01  2.2397621E+01
 1.1471251E+01  2.2424513E+01
 1.1482751E+01  2.2454067E+01
 1.1494250E+01  2.2465532E+01
 1.1505751E+01  2.2444656E+01
 1.1517251E+01  2.2419121E+01
 1.1528750E+01  2.2374910E+01
 1.1540251E+01  2.2400440E+01
 1.1551750E+01  2.2436068E+01
 1.1563251E+01  2.2482557E+01
 1.1574751E+01  2.2527725E+01
 1.1586250E+01  2.2522305E+01
 1.1597751E+01  2.2562218E+01
 1.1609251E+01  2.2527739E+01
 1.1620750E+01  2.2478691E+01
 1.1632251E+01  2.2392582E+01
 1.1643750E+01  2.2378738E+01
 1.1655251E+01  2.2411325E+01
 1.1666751E+01  2.2364681E+01
 1.1678250E+01  2.2295471E+01
 1.1689751E+01  2.2230787E+01
 1.1701251E+01  2.2177389E+01
 1.1712750E+01  2.2150444E+01
 1.1724251E+01  2.2095732E+01
 1.1735750E+01  2.2123432E+01
 1.1747251E+01  2.2150377E+01
 1.1758751E+01  2.2164837E+01
 1.1770250E+01  2.2160877E+01
 1.1781751E+01  2.2173887E+01
 1.1793251E+01  2.2206093E+01
 1.1804750E+01  2.2216047E+01
 1.1816251E+01  2.2259336E+01
 1.1827750E+01  2.2245127E+01
 1.1839251E+01  2.2241980E+01
 1.1850751E+01  2.2197638E+01
 1.1862250E+01  2.2216553E+01
 1.1873751E+01  2.2228788E+01
 1.1885251E+01  2.2219465E+01
 1.1896750E+01  2.2287182E+01
 1.1908251E+01  2.2305117E+01
 1.1919750E+01  2.2418457E+01
 1.1931251E+01  2.2384777E+01
 1.1942751E+01  2.2470621E+01
 1.1954250E+01  2.2438416E+01
 1.1965751E+01  2.2514870E+01
 1.1977251E+01  2.2482786E+01
 1.1988750E+01  2.2483858E+01
 1.2000251E+01  2.2425150E+01
 1.2011750E+01  2.2392345E+01
 1.2023251E+01  2.2341150E+01
 1.2034751E+01  2.2316257E+01
 1.2046250E+01  2.2335073E+01
 1.2057751E+01  2.2313854E+01
 1.2069251E+01  2.2363182E+01
 1.2080750E+01  2.2373051E+01
 1.2092251E+01  2.2477894E+01
 1.2103750E+01  2.2516373E+01
 1.2115251E+01  2.2522787E+01
 1.2126751E+01  2.2478359E+01
 1.2138250E+01  2.2439577E+01
 1.2149751E+01  2.2421003E+01
 1.2161251E+01  2.2397903E+01
 1.2172750E+01  2.2330677E+01
 1.2184251E+01  2.2302742E+01
 1.2195750E+01  2.2225061E+01
 1.2207251E+01  2.2161791E+01
 1.2218751E+01  2.2087204E+01
 1.2230250E+01  2.2086401E+01
 1.2241751E+01  2.2140079E+01
 1.2253251E+01  2.2192318E+01
 1.2264750E+01  2.2265675E+01
 1.2276251E+01  2.2301056E+01
 1.2287750E+01  2.2384438E+01
 1.2299251E+01  2.2389439E+01
 1.2310751E+01  2.2470768E+01
 1.2322250E+01  2.2431845E+01
 1.2333751E+01  2.2488420E+01
 1.2345250E+01  2.2430357E+01
 1.2356750E+01  2.2491711E+01
 1.2368251E+01  2.2511202E+01
 1.2379750E+01  2.2580606E+01
 1.2391251E+01  2.2559006E+01
 1.2402751E+01  2.2517353E+01
 1.2414250E+01  2.2446201E+01
 1.2425751E+01  2.2402754E+01
 1.2437250E+01  2.2367235E+01
 1.2448750E+01  2.2368738E+01
 1.2460251E+01  2.2392111E+01
 1.2471750E+01  2.2393183E+01
 1.2483251E+01  2.2390806E+01
 1.2494751E+01  2.2364128E+01
 1.2506250E+01  2.2392107E+01
 1.2517751E+01  2.2400103E+01
 1.2529250E+01  2.2439613E+01
 1.2540751E+01  2.2458534E+01
 1.2552251E+01  2.2513371E+01
 1.2563750E+01  2.2517048E+01
 1.2575251E+01  2.2512741E+01
 1.2586751E+01  2.2468222E+01
 1.2598250E+01  2.2513437E+01
 1.2609751E+01  2.2536846E+01
 1.2621250E+01  2.2607851E+01
 1.2632751E+01  2.2590755E+01
 1.2644251E+01  2.2584650E+01
 1.2655750E+01  2.2563452E+01
 1.2667251E+01  2.2609049E+01
 1.2678751E+01  2.2651093E+01
 1.2690250E+01  2.2666338E+01
 1.2701751E+01  2.2672855E+01
 1.2713250E+01  2.2722227E+01
 1.2724751E+01  2.2743179E+01
 1.2736251E+01  2.2826630E+01
 1.2747750E+01  2.2876551E+01
 1.2759251E+01  2.2909693E+01
 1.2770751E+01  2.2919165E+01
 1.2782250E+01  2.2979021E+01
 1.2793751E+01  2.2987377E+01
 1.2805250E+01  2.3044254E+01
 1.2816751E+01  2.3088335E+01
 1.2828251E+01  2.3196356E+01
 1.2839750E+01  2.3194958E+01
 1.2851251E+01  2.3227249E+01
 1.2862751E+01  2.3215895E+01
 1.2874250E+01  2.3207150E+01
 1.2885751E+01  2.3156614E+01
 1.2897250E+01  2.3144451E+01
 1.2908751E+01  2.3235058E+01
 1.2920251E+01  2.3297705E+01
 1.2931750E+01  2.3420044E+01
 1.2943251E+01  2.3437311E+01
 1.2954751E+01  2.3477394E+01
 1.2966250E+01  2.3544920E+01
 1.2977751E+01  2.3683462E+01
 1.2989250E+01  2.3777470E+01
 1.3000751E+01  2.3828659E+01
 1.3012251E+01  2.3858925E+01
 1.3023750E+01  2.3918070E+01
 1.3035251E+01  2.4001732E+01
 1.3046751E+01  2.4020523E+01
 1.3058250E+01  2.4117491E+01
 1.3069751E+01  2.4118614E+01
 1.3081250E+01  2.4232267E+01
 1.3092751E+01  2.4349951E+01
 1.3104251E+01  2.4568851E+01
 1.3115750E+01  2.4757738E+01
 1.3127251E+01  2.4873104E+01
 1.3138751E+01  2.4941574E+01
 1.3150250E+01  2.5017136E+01
 1.3161751E+01  2.5099339E+01
 1.3173250E+01  2.5191595E+01
 1.3184751E+01  2.5311472E+01
 1.3196251E+01  2.5443394E+01
 1.3207750E+01  2.5592697E+01
 1.3219251E+01  2.5681007E+01
 1.3230751E+01  2.5867802E+01
 1.3242250E+01  2.6069464E+01
 1.3253751E+01  2.6216837E+01
 1.3265250E+01  2.6341387E+01
 1.3276751E+01  2.6485271E+01
 1.3288251E+01  2.6639536E+01
 1.3299750E+01  2.6747435E+01
 1.3311251E+01  2.6845173E+01
 1.3322751E+01  2.7059031E+01
 1.3334250E+01  2.7277344E+01
 1.3345751E+01  2.7462082E+01
 1.3357250E+01  2.7585043E+01
 1.3368751E+01  2.7638733E+01
 1.3380251E+01  2.7744307E+01
 1.3391750E+01  2.7859085E+01
 1.3403251E+01  2.8039036E+01
 1.3414751E+01  2.8192617E+01
 1.3426250E+01  2.8325216E+01
 1.3437751E+01  2.8444174E+01
 1.3449250E+01  2.8539713E+01
 1.3460751E+01  2.8602528E+01
 1.3472251E+01  2.8721235E+01
 1.3483750E+01  2.8832914E+01
 1.3495251E+01  2.8954222E+01
 1.3506751E+01  2.9063587E+01
 1.3518250E+01  2.9202681E+01
 1.3529751E+01  2.9275045E+01
 1.3541250E+01  2.9259096E+01
 1.3552751E+01  2.9234596E+01
 1.3564251E+01  2.9248739E+01
 1.3575750E+01  2.9310190E+01
 1.3587251E+01  2.9355305E+01
 1.3598751E+01  2.9483263E+01
 1.3610250E+01  2.9555965E+01
 1.3621751E+01  2.9660383E+01
 1.3633250E+01  2.9604338E+01
 1.3644751E+01  2.9587185E+01
 1.3656251E+01  2.9520042E+01
 1.3667750E+01  2.9541424E+01
 1.3679251E+01  2.9543911E+01
 1.3690751E+01  2.9540493E+01
 1.3702250E+01  2.9441887E+01
 1.3713751E+01  2.9308489E+01
 1.3725250E+01  2.9217928E+01
 1.3736751E+01  2.9191618E+01
 1.3748251E+01  2.9129034E+01
 1.3759750E+01  2.9030197E+01
 1.3771251E+01  2.8948652E+01
 1.3782751E+01  2.8887268E+01
 1.3794250E+01  2.8800716E+01
 1.3805751E+01  2.8732903E+01
 1.3817250E+01  2.8695473E+01
 1.3828751E+01  2.8678896E+01
 1.3840251E+01  2.8663837E+01
 1.3851750E+01  2.8715710E+01
 1.3863251E+01  2.8695587E+01
 1.3874751E+01  2.8681210E+01
 1.3886250E+01  2.8573307E+01
 1.3897751E+01  2.8522575E+01
 1.3909250E+01  2.8500534E+01
 1.3920751E+01  2.8527979E+01
 1.3932251E+01  2.8579250E+01
 1.3943750E+01  2.8610533E+01
 1.3955251E+01  2.8609854E+01
 1.3966751E+01  2.8521368E+01
 1.3978251E+01  2.8379053E+01
 1.3989751E+01  2.8199871E+01
 1.4001250E+01  2.8037500E+01
 1.4012751E+01  2.7846539E+01
 1.4024251E+01  2.7679075E+01
 1.4035750E+01  2.7502396E+01
 1.4047251E+01  2.7371607E+01
 1.4058751E+01  2.7277184E+01
 1.4070251E+01  2.7275627E+01
 1.4081751E+01  2.7234732E+01
 1.4093250E+01  2.7207937E+01
 1.4104751E+01  2.7135302E+01
 1.4116251E+01  2.7109213E+01
 1.4127750E+01  2.7036989E+01
 1.4139251E+01  2.6937069E+01
 1.4150751E+01  2.6813616E+01
 1.4162251E+01  2.6722143E+01
 1.4173751E+01  2.6642939E+01
 1.4185250E+01  2.6548716E+01
 1.4196751E+01  2.6492529E+01
 1.4208251E+01  2.6438164E+01
 1.4219750E+01  2.6387022E+01
 1.4231251E+01  2.6247602E+01
 1.4242751E+01  2.6236204E+01
 1.4254251E+01  2.6140512E+01
 1.4265751E+01  2.6158552E+01
 1.4277250E+01  2.6093929E+01
 1.4288751E+01  2.6134745E+01
 1.4300251E+01  2.6078987E+01
 1.4311750E+01  2.6011223E+01
 1.4323251E+01  2.5915241E+01
 1.4334751E+01  2.5876217E+01
 1.4346251E+01  2.5865637E+01
 1.4357751E+01  2.5877018E+01
 1.4369250E+01  2.5853485E+01
 1.4380751E+01  2.5828335E+01
 1.4392251E+01  2.5777199E+01
 1.4403750E+01  2.5743362E+01
 1.4415251E+01  2.5737331E+01
 1.4426751E+01  2.5699764E+01
 1.4438251E+01  2.5687008E+01
 1.4449751E+01  2.5562954E+01
 1.4461250E+01  2.5508360E+01
 1.4472751E+01  2.5410202E+01
 1.4484251E+01  2.5425531E+01
 1.4495750E+01  2.5412388E+01
 1.4507251E+01  2.5418972E+01
 1.4518751E+01  2.5338223E+01
 1.4530251E+01  2.5306225E+01
 1.4541751E+01  2.5248812E+01
 1.4553250E+01  2.5264351E+01
 1.4564751E+01  2.5248007E+01
 1.4576251E+01  2.5243160E+01
 1.4587750E+01  2.5234133E+01
 1.4599251E+01  2.5180719E+01
 1.4610751E+01  2.5095690E+01
 1.4622251E+01  2.5068792E+01
 1.4633751E+01  2.5095795E+01
 1.4645250E+01  2.5112822E+01
 1.4656751E+01  2.5121683E+01
 1.4668251E+01  2.5099073E+01
 1.4679750E+01  2.5122269E+01
 1.4691251E+01  2.5104391E+01
 1.4702751E+01  2.5078905E+01
 1.4714251E+01  2.5025627E+01
 1.4725751E+01  2.4985353E+01
 1.4737250E+01  2.4970417E+01
 1.4748751E+01  2.4953499E+01
 1.4760251E+01  2.4905085E+01
 1.4771750E+01  2.4916359E+01
 1.4783251E+01  2.4918919E+01
 1.4794751E+01  2.4890442E+01
 1.4806251E+01  2.4908659E+01
 1.4817751E+01  2.4834072E+01
 1.4829250E+01  2.4788946E+01
 1.4840751E+01  2.4706713E+01
 1.4852251E+01  2.4687086E+01
 1.4863750E+01  2.4631107E+01
 1.4875251E+01  2.4579657E+01
 1.4886751E+01  2.4580256E+01
 1.4898251E+01  2.4626558E+01
 1.4909751E+01  2.4635096E+01
 1.4921250E+01  2.4657040E+01
 1.4932751E+01  2.4669046E+01
 1.4944251E+01  2.4670086E+01
 1.4955750E+01  2.4628582E+01
 1.4967251E+01  2.4587368E+01
 1.4978751E+01  2.4537628E+01
 1.4990251E+01  2.4506294E+01
 1.5001751E+01  2.4456606E+01
 1.5013250E+01  2.4510029E+01
 1.5024751E+01  2.4516638E+01
 1.5036251E+01  2.4502779E+01
 1.5047750E+01  2.4432619E+01
 1.5059251E+01  2.4458843E+01
 1.5070751E+01  2.4414518E+01
 1.5082251E+01  2.4417028E+01
 1.5093751E+01  2.4397726E+01
 1.5105250E+01  2.4461906E+01
 1.5116751E+01  2.4400457E+01
 1.5128251E+01  2.4338314E+01
 1.5139750E+01  2.4359150E+01
 1.5151251E+01  2.4437952E+01
 1.5162751E+01  2.4496283E+01
 1.5174251E+01  2.4472744E+01
 1.5185751E+01  2.4449554E+01
 1.5197250E+01  2.4443188E+01
 1.5208751E+01  2.4504381E+01
 1.5220251E+01  2.4533926E+01
 1.5231750E+01  2.4554167E+01
 1.5243251E+01  2.4491705E+01
 1.5254751E+01  2.4402855E+01
 1.5266251E+01  2.4316683E+01
 1.5277751E+01  2.4276377E+01
 1.5289250E+01  2.4277164E+01
 1.5300751E+01  2.4262863E+01
 1.5312251E+01  2.4317770E+01
 1.5323750E+01  2.4351330E+01
 1.5335251E+01  2.4435207E+01
 1.5346751E+01  2.4418573E+01
 1.5358251E+01  2.4417622E+01
 1.5369751E+01  2.4351257E+01
 1.5381250E+01  2.4341991E+01
 1.5392751E+01  2.4329969E+01
 1.5404251E+01  2.4368507E+01
 1.5415751E+01  2.4331392E+01
 1.5427251E+01  2.4316662E+01
 1.5438751E+01  2.4283621E+01
 1.5450251E+01  2.4268808E+01
 1.5461751E+01  2.4257221E+01
 1.5473250E+01  2.4240177E+01
 1.5484751E+01  2.4285597E+01
 1.5496251E+01  2.4324686E+01
 1.5507751E+01  2.4337183E+01
 1.5519251E+01  2.4310120E+01
 1.5530751E+01  2.4268784E+01
 1.5542251E+01  2.4237942E+01
 1.5553751E+01  2.4232401E+01
 1.5565250E+01  2.4218472E+01
 1.5576751E+01  2.4253784E+01
 1.5588251E+01  2.4295704E+01
 1.5599751E+01  2.4310848E+01
 1.5611251E+01  2.4282143E+01
 1.5622751E+01  2.4286785E+01
 1.5634251E+01  2.4324955E+01
 1.5645751E+01  2.4379307E+01
 1.5657250E+01  2.4362745E+01
 1.5668751E+01  2.4362799E+01
 1.5680251E+01  2.4332310E+01
 1.5691751E+01  2.4351576E+01
 1.5703251E+01  2.4380365E+01
 1.5714751E+01  2.4381742E+01
 1.5726251E+01  2.4405186E+01
 1.5737751E+01  2.4376299E+01
 1.5749250E+01  2.4398752E+01
 1.5760751E+01  2.4398895E+01
 1.5772251E+01  2.4369287E+01
 1.5783751E+01  2.4300732E+01
 1.5795251E+01  2.4305445E+01
 1.5806751E+01  2.4410627E+01
 1.5818251E+01  2.4468416E+01
 1.5829751E+01  2.4479410E+01
 1.5841250E+01  2.4519003E+01
 1.5852751E+01  2.4566734E+01
 1.5864251E+01  2.4602196E+01
 1.5875751E+01  2.4570200E+01
 1.5887251E+01  2.4561470E+01
 1.5898750E+01  2.4508442E+01
 1.5910251E+01  2.4491241E+01
 1.5921751E+01  2.4444078E+01
 1.5933250E+01  2.4386805E+01
 1.5944751E+01  2.4300310E+01
 1.5956251E+01  2.4272360E+01
 1.5967751E+01  2.4320278E+01
 1.5979251E+01  2.4340513E+01
 1.5990750E+01  2.4449558E+01
 1.6002251E+01  2.4449986E+01
 1.6013750E+01  2.4519363E+01
 1.6025251E+01  2.4487972E+01
 1.6036751E+01  2.4520285E+01
 1.6048250E+01  2.4524426E+01
 1.6059752E+01  2.4561319E+01
 1.6071251E+01  2.4508625E+01
 1.6082750E+01  2.4553226E+01
 1.6094252E+01  2.4508852E+01
 1.6105751E+01  2.4532570E+01
 1.6117250E+01  2.4473223E+01
 1.6128750E+01  2.4437117E+01
 1.6140251E+01  2.4503017E+01
 1.6151751E+01  2.4550028E+01
 1.6163250E+01  2.4670250E+01
 1.6174751E+01  2.4662001E+01
 1.6186251E+01  2.4764881E+01
 1.6197750E+01  2.4801096E+01
 1.6209251E+01  2.4964531E+01
 1.6220751E+01  2.4945074E+01
 1.6232250E+01  2.5075945E+01
 1.6243752E+01  2.5080744E+01
 1.6255251E+01  2.5157663E+01
 1.6266750E+01  2.5241838E+01
 1.6278252E+01  2.5140295E+01
 1.6289751E+01  2.5228172E+01
 1.6301250E+01  2.4922569E+01
 1.6312750E+01  2.4994404E+01
 1.6324251E+01  2.4728733E+01
 1.6335751E+01  2.4745369E+01
 1.6347250E+01  2.4570122E+01
 1.6358751E+01  2.4519468E+01
 1.6370251E+01  2.4409853E+01
 1.6381750E+01  2.4372177E+01
 1.6393251E+01  2.4355173E+01
 1.6404751E+01  2.4363417E+01
 1.6416250E+01  2.4436050E+01
 1.6427752E+01  2.4454803E+01
 1.6439251E+01  2.4505404E+01
 1.6450750E+01  2.4463989E+01
 1.6462252E+01  2.4478935E+01
 1.6473751E+01  2.4448193E+01
 1.6485250E+01  2.4533974E+01
 1.6496750E+01  2.4584690E+01
 1.6508251E+01  2.4593884E+01
 1.6519751E+01  2.4532061E+01
 1.6531250E+01  2.4488188E+01
 1.6542751E+01  2.4491001E+01
 1.6554251E+01  2.4482372E+01
 1.6565750E+01  2.4464870E+01
 1.6577251E+01  2.4478403E+01
 1.6588751E+01  2.4466713E+01
 1.6600250E+01  2.4496002E+01
 1.6611752E+01  2.4494207E+01
 1.6623251E+01  2.4410696E+01
 1.6634750E+01  2.4394815E+01
 1.6646252E+01  2.4327213E+01
 1.6657751E+01  2.4359327E+01
 1.6669250E+01  2.4359499E+01
 1.6680750E+01  2.4355263E+01
 1.6692251E+01  2.4356487E+01
 1.6703751E+01  2.4283323E+01
 1.6715250E+01  2.4284323E+01
 1.6726751E+01  2.4252232E+01
 1.6738251E+01  2.4244425E+01
 1.6749750E+01  2.4221107E+01
 1.6761251E+01  2.4154070E+01
 1.6772751E+01  2.4173206E+01
 1.6784250E+01  2.4165886E+01
 1.6795752E+01  2.4171198E+01
 1.6807251E+01  2.4162720E+01
 1.6818750E+01  2.4093307E+01
 1.6830252E+01  2.4059031E+01
 1.6841751E+01  2.4054672E+01
 1.6853251E+01  2.4083626E+01
 1.6864750E+01  2.4116409E+01
 1.6876251E+01  2.4114319E+01
 1.6887751E+01  2.4117996E+01
 1.6899250E+01  2.4115879E+01
 1.6910751E+01  2.4116829E+01
 1.6922251E+01  2.4157843E+01
 1.6933750E+01  2.4140732E+01
 1.6945251E+01  2.4108253E+01
 1.6956751E+01  2.4101601E+01
 1.6968250E+01  2.4107187E+01
 1.6979752E+01  2.4171881E+01
 1.6991251E+01  2.4137266E+01
 1.7002750E+01  2.4070580E+01
 1.7014252E+01  2.3995144E+01
 1.7025751E+01  2.3960947E+01
 1.7037251E+01  2.3935234E+01
 1.7048750E+01  2.3915234E+01
 1.7060251E+01  2.3910181E+01
 1.7071751E+01  2.3943752E+01
 1.7083250E+01  2.3977751E+01
 1.7094751E+01  2.3958979E+01
 1.7106251E+01  2.3945873E+01
 1.7117750E+01  2.3920971E+01
 1.7129251E+01  2.3944469E+01
 1.7140751E+01  2.3953648E+01
 1.7152250E+01  2.3980528E+01
 1.7163752E+01  2.4047295E+01
 1.7175251E+01  2.4082853E+01
 1.7186750E+01  2.4092873E+01
 1.7198252E+01  2.4070154E+01
 1.7209751E+01  2.4063942E+01
 1.7221251E+01  2.4022837E+01
 1.7232750E+01  2.3956211E+01
 1.7244251E+01  2.3881882E+01
 1.7255751E+01  2.3840206E+01
 1.7267250E+01  2.3837278E+01
 1.7278751E+01  2.3872486E+01
 1.7290251E+01  2.3876791E+01
 1.7301750E+01  2.3913942E+01
 1.7313251E+01  2.3915537E+01
 1.7324751E+01  2.3943960E+01
 1.7336250E+01  2.3906128E+01
 1.7347752E+01  2.3863834E+01
 1.7359251E+01  2.3821093E+01
 1.7370750E+01  2.3801958E+01
 1.7382252E+01  2.3785294E+01
 1.7393751E+01  2.3780752E+01
 1.7405251E+01  2.3789566E+01
 1.7416750E+01  2.3754211E+01
 1.7428251E+01  2.3696341E+01
 1.7439751E+01  2.3639349E+01
 1.7451250E+01  2.3612972E+01
 1.7462751E+01  2.3646490E+01
 1.7474251E+01  2.3674904E+01
 1.7485750E+01  2.3718779E+01
 1.7497252E+01  2.3727942E+01
 1.7508751E+01  2.3723984E+01
 1.7520250E+01  2.3707708E+01
 1.7531752E+01  2.3659863E+01
 1.7543251E+01  2.3618532E+01
 1.7554750E+01  2.3530319E+01
 1.7566252E+01  2.3466066E+01
 1.7577751E+01  2.3475817E+01
 1.7589251E+01  2.3495972E+01
 1.7600750E+01  2.3557711E+01
 1.7612251E+01  2.3583931E+01
 1.7623751E+01  2.3646223E+01
 1.7635250E+01  2.3650478E+01
 1.7646751E+01  2.3664999E+01
 1.7658251E+01  2.3666353E+01
 1.7669750E+01  2.3685686E+01
 1.7681252E+01  2.3662273E+01
 1.7692751E+01  2.3685055E+01
 1.7704250E+01  2.3649836E+01
 1.7715752E+01  2.3668451E+01
 1.7727251E+01  2.3643261E+01
 1.7738750E+01  2.3601549E+01
 1.7750252E+01  2.3523872E+01
 1.7761751E+01  2.3518547E+01
 1.7773251E+01  2.3550209E+01
 1.7784750E+01  2.3605537E+01
 1.7796251E+01  2.3610836E+01
 1.7807751E+01  2.3541906E+01
 1.7819250E+01  2.3504299E+01
 1.7830751E+01  2.3475344E+01
 1.7842251E+01  2.3529238E+01
 1.7853750E+01  2.3532171E+01
 1.7865252E+01  2.3535816E+01
 1.7876751E+01  2.3507584E+01
 1.7888250E+01  2.3440670E+01
 1.7899752E+01  2.3450275E+01
 1.7911251E+01  2.3458155E+01
 1.7922750E+01  2.3424549E+01
 1.7934252E+01  2.3355396E+01
 1.7945751E+01  2.3339258E+01
 1.7957251E+01  2.3346111E+01
 1.7968750E+01  2.3369152E+01
 1.7980251E+01  2.3436838E+01
 1.7991751E+01  2.3453983E+01
 1.8003250E+01  2.3467510E+01
 1.8014751E+01  2.3409800E+01
 1.8026251E+01  2.3428753E+01
 1.8037750E+01  2.3387943E+01
 1.8049252E+01  2.3437700E+01
 1.8060751E+01  2.3427898E+01
 1.8072250E+01  2.3440742E+01
 1.8083752E+01  2.3450085E+01
 1.8095251E+01  2.3505522E+01
 1.8106750E+01  2.3571249E+01
 1.8118252E+01  2.3587440E+01
 1.8129751E+01  2.3558384E+01
 1.8141251E+01  2.3413017E+01
 1.8152750E+01  2.3364273E+01
 1.8164251E+01  2.3314589E+01
 1.8175751E+01  2.3349152E+01
 1.8187250E+01  2.3269772E+01
 1.8198751E+01  2.3293547E+01
 1.8210251E+01  2.3261404E+01
 1.8221750E+01  2.3302341E+01
 1.8233252E+01  2.3286139E+01
 1.8244751E+01  2.3300659E+01
 1.8256250E+01  2.3274956E+01
 1.8267752E+01  2.3239889E+01
 1.8279251E+01  2.3266237E+01
 1.8290751E+01  2.3293522E+01
 1.8302252E+01  2.3388117E+01
 1.8313751E+01  2.3399120E+01
 1.8325251E+01  2.3407276E+01
 1.8336750E+01  2.3382277E+01
 1.8348251E+01  2.3362455E+01
 1.8359751E+01  2.3365723E+01
 1.8371250E+01  2.3321642E+01
 1.8382751E+01  2.3316986E+01
 1.8394251E+01  2.3308788E+01
 1.8405750E+01  2.3362871E+01
 1.8417252E+01  2.3398104E+01
 1.8428751E+01  2.3417624E+01
 1.8440250E+01  2.3416239E+01
 1.8451752E+01  2.3371254E+01
 1.8463251E+01  2.3342394E+01
 1.8474751E+01  2.3298204E+01
 1.8486252E+01  2.3234711E+01
 1.8497751E+01  2.3217194E+01
 1.8509251E+01  2.3219671E+01
 1.8520750E+01  2.3249664E+01
 1.8532251E+01  2.3213570E+01
 1.8543751E+01  2.3148493E+01
 1.8555250E+01  2.3116360E+01
 1.8566751E+01  2.3130379E+01
 1.8578251E+01  2.3208227E+01
 1.8589750E+01  2.3281456E+01
 1.8601252E+01  2.3305826E+01
 1.8612751E+01  2.3292414E+01
 1.8624250E+01  2.3291622E+01
 1.8635752E+01  2.3319300E+01
 1.8647251E+01  2.3317894E+01
 1.8658751E+01  2.3253687E+01
 1.8670252E+01  2.3216171E+01
 1.8681751E+01  2.3184361E+01
 1.8693251E+01  2.3193842E+01
 1.8704750E+01  2.3175268E+01
 1.8716251E+01  2.3176857E+01
 1.8727751E+01  2.3202118E+01
 1.8739250E+01  2.3220192E+01
 1.8750751E+01  2.3225430E+01
 1.8762251E+01  2.3179327E+01
 1.8773750E+01  2.3144323E+01
 1.8785252E+01  2.3143301E+01
 1.8796751E+01  2.3160343E+01
 1.8808250E+01  2.3202526E+01
 1.8819752E+01  2.3217251E+01
 1.8831251E+01  2.3235651E+01
 1.8842751E+01  2.3232929E+01
 1.8854252E+01  2.3250854E+01
 1.8865751E+01  2.3236597E+01
 1.8877251E+01  2.3295994E+01
 1.8888750E+01  2.3293863E+01
 1.8900251E+01  2.3291742E+01
 1.8911751E+01  2.3296116E+01
 1.8923250E+01  2.3354668E+01
 1.8934752E+01  2.3395418E+01
 1.8946251E+01  2.3453476E+01
 1.8957750E+01  2.3432793E+01
 1.8969252E+01  2.3331718E+01
 1.8980751E+01  2.3232880E+01
 1.8992250E+01  2.3222513E+01
 1.9003752E+01  2.3246136E+01
 1.9015251E+01  2.3299740E+01
 1.9026751E+01  2.3368702E+01
 1.9038252E+01  2.3367086E+01
 1.9049751E+01  2.3314272E+01
 1.9061251E+01  2.3291079E+01
 1.9072750E+01  2.3325502E+01
 1.9084251E+01  2.3332607E+01
 1.9095751E+01  2.3315277E+01
 1.9107250E+01  2.3258848E+01
 1.9118752E+01  2.3200607E+01
 1.9130251E+01  2.3204784E+01
 1.9141750E+01  2.3155144E+01
 1.9153252E+01  2.3155153E+01
 1.9164751E+01  2.3134182E+01
 1.9176250E+01  2.3166243E+01
 1.9187752E+01  2.3190250E+01
 1.9199251E+01  2.3212877E+01
 1.9210751E+01  2.3251823E+01
 1.9222252E+01  2.3226191E+01
 1.9233751E+01  2.3219521E+01
 1.9245251E+01  2.3220560E+01
 1.9256750E+01  2.3266300E+01
 1.9268251E+01  2.3266527E+01
 1.9279751E+01  2.3240845E+01
 1.9291250E+01  2.3253910E+01
 1.9302752E+01  2.3312033E+01
 1.9314251E+01  2.3359470E+01
 1.9325750E+01  2.3360638E+01
 1.9337252E+01  2.3347811E+01
 1.9348751E+01  2.3375738E+01
 1.9360250E+01  2.3358290E+01
 1.9371752E+01  2.3356342E+01
 1.9383251E+01  2.3330877E+01
 1.9394751E+01  2.3351387E+01
 1.9406250E+01  2.3340185E+01
 1.9417751E+01  2.3324968E+01
 1.9429251E+01  2.3285196E+01
 1.9440750E+01  2.3239527E+01
 1.9452251E+01  2.3228893E+01
 1.9463751E+01  2.3241211E+01
 1.9475250E+01  2.3283237E+01
 1.9486752E+01  2.3274603E+01
 1.9498251E+01  2.3220661E+01
 1.9509750E+01  2.3139240E+01
 1.9521252E+01  2.3147829E+01
 1.9532751E+01  2.3185677E+01
 1.9544250E+01  2.3201542E+01
 1.9555752E+01  2.3202486E+01
 1.9567251E+01  2.3178078E+01
 1.9578751E+01  2.3221659E+01
 1.9590250E+01  2.3223993E+01
 1.9601751E+01  2.3265230E+01
 1.9613251E+01  2.3210583E+01
 1.9624750E+01  2.3230179E+01
 1.9636251E+01  2.3238699E+01
 1.9647751E+01  2.3268175E+01
 1.9659250E+01  2.3302582E+01
 1.9670752E+01  2.3348618E+01
 1.9682251E+01  2.3401218E+01
 1.9693750E+01  2.3457342E+01
 1.9705252E+01  2.3502783E+01
 1.9716751E+01  2.3547731E+01
 1.9728251E+01  2.3554337E+01
 1.9739752E+01  2.3581615E+01
 1.9751251E+01  2.3624472E+01
 1.9762751E+01  2.3591312E+01
 1.9774250E+01  2.3515354E+01
 1.9785751E+01  2.3422243E+01
 1.9797251E+01  2.3397705E+01
 1.9808750E+01  2.3385860E+01
 1.9820251E+01  2.3425327E+01
 1.9831751E+01  2.3479460E+01
 1.9843250E+01  2.3489931E+01
 1.9854752E+01  2.3571499E+01
 1.9866251E+01  2.3602526E+01
 1.9877750E+01  2.3633698E+01
 1.9889252E+01  2.3572140E+01
 1.9900751E+01  2.3566782E+01
 1.9912251E+01  2.3522169E+01
 1.9923752E+01  2.3510267E+01
 1.9935251E+01  2.3472830E+01
 1.9946751E+01  2.3422861E+01
 1.9958250E+01  2.3377979E+01
 1.9969751E+01  2.3353130E+01
 1.9981251E+01  2.3332571E+01
 1.9992750E+01  2.3309088E+01
 2.0004251E+01  2.3311537E+01
 2.0015751E+01  2.3288906E+01
 2.0027250E+01  2.3301096E+01
 2.0038752E+01  2.3307825E+01
 2.0050251E+01  2.3323463E+01
 2.0061750E+01  2.3318733E+01
 2.0073252E+01  2.3290403E+01
 2.0084751E+01  2.3287218E+01
 2.0096251E+01  2.3294712E+01
 2.0107752E+01  2.3311123E+01
 2.0119251E+01  2.3334875E+01
 2.0130751E+01  2.3316380E+01
 2.0142250E+01  2.3347847E+01
 2.0153751E+01  2.3351572E+01
 2.0165251E+01  2.3365997E+01
 2.0176750E+01  2.3369858E+01
 2.0188251E+01  2.3377251E+01
 2.0199751E+01  2.3330481E+01
 2.0211250E+01  2.3353590E+01
 2.0222752E+01  2.3365850E+01
 2.0234251E+01  2.3383965E+01
 2.0245750E+01  2.3359211E+01
 2.0257252E+01  2.3375383E+01
 2.0268751E+01  2.3405117E+01
 2.0280251E+01  2.3427349E+01
 2.0291752E+01  2.3421793E+01
 2.0303251E+01  2.3376263E+01
 2.0314751E+01  2.3339607E+01
 2.0326250E+01  2.3308126E+01
 2.0337751E+01  2.3324215E+01
 2.0349251E+01  2.3320417E+01
 2.0360750E+01  2.3355093E+01
 2.0372252E+01  2.3364626E+01
 2.0383751E+01  2.3361279E+01
 2.0395250E+01  2.3393204E+01
 2.0406752E+01  2.3415298E+01
 2.0418251E+01  2.3465162E+01
 2.0429750E+01  2.3475874E+01
 2.0441252E+01  2.3424639E+01
 2.0452751E+01  2.3425764E+01
 2.0464251E+01  2.3414425E+01
 2.0475752E+01  2.3462727E+01
 2.0487251E+01  2.3428255E+01
 2.0498751E+01  2.3451738E+01
 2.0510250E+01  2.3417372E+01
 2.0521751E+01  2.3424074E+01
 2.0533251E+01  2.3442614E+01
 2.0544750E+01  2.3441475E+01
 2.0556252E+01  2.3477676E+01
 2.0567751E+01  2.3454996E+01
 2.0579250E+01  2.3459515E+01
 2.0590752E+01  2.3471489E+01
 2.0602251E+01  2.3486816E+01
 2.0613750E+01  2.3466562E+01
 2.0625252E+01  2.3499191E+01
 2.0636751E+01  2.3566303E+01
 2.0648251E+01  2.3570595E+01
 2.0659752E+01  2.3552496E+01
 2.0671251E+01  2.3569172E+01
 2.0682751E+01  2.3637377E+01
 2.0694250E+01  2.3640396E+01
 2.0705751E+01  2.3654560E+01
 2.0717251E+01  2.3658766E+01
 2.0728750E+01  2.3720167E+01
 2.0740252E+01  2.3751362E+01
 2.0751751E+01  2.3778151E+01
 2.0763250E+01  2.3767820E+01
 2.0774752E+01  2.3724789E+01
 2.0786251E+01  2.3684319E+01
 2.0797750E+01  2.3657145E+01
 2.0809252E+01  2.3659384E+01
 2.0820751E+01  2.3662106E+01
 2.0832251E+01  2.3695206E+01
 2.0843752E+01  2.3724640E+01
 2.0855251E+01  2.3733059E+01
 2.0866751E+01  2.3671835E+01
 2.0878250E+01  2.3564556E+01
 2.0889751E+01  2.3513788E+01
 2.0901251E+01  2.3543276E+01
 2.0912750E+01  2.3643139E+01
 2.0924252E+01  2.3697020E+01
 2.0935751E+01  2.3741343E+01
 2.0947250E+01  2.3756992E+01
 2.0958752E+01  2.3712322E+01
 2.0970251E+01  2.3655003E+01
 2.0981750E+01  2.3586050E+01
 2.0993252E+01  2.3572903E+01
 2.1004751E+01  2.3571711E+01
 2.1016251E+01  2.3568169E+01
 2.1027752E+01  2.3622200E+01
 2.1039251E+01  2.3630939E+01
 2.1050751E+01  2.3664196E+01
 2.1062250E+01  2.3666355E+01
 2.1073751E+01  2.3649845E+01
 2.1085251E+01  2.3612997E+01
 2.1096750E+01  2.3557796E+01
 2.1108252E+01  2.3562513E+01
 2.1119751E+01  2.3578945E+01
 2.1131250E+01  2.3576540E+01
 2.1142752E+01  2.3497437E+01
 2.1154251E+01  2.3441820E+01
 2.1165751E+01  2.3475832E+01
 2.1177252E+01  2.3546486E+01
 2.1188751E+01  2.3538500E+01
 2.1200251E+01  2.3519363E+01
 2.1211752E+01  2.3513239E+01
 2.1223251E+01  2.3511551E+01
 2.1234751E+01  2.3513201E+01
 2.1246250E+01  2.3548889E+01
 2.1257751E+01  2.3578167E+01
 2.1269251E+01  2.3581173E+01
 2.1280750E+01  2.3572437E+01
 2.1292252E+01  2.3573513E+01
 2.1303751E+01  2.3526089E+01
 2.1315250E+01  2.3539131E+01
 2.1326752E+01  2.3607134E+01
 2.1338251E+01  2.3654812E+01
 2.1349751E+01  2.3686577E+01
 2.1361252E+01  2.3681673E+01
 2.1372751E+01  2.3674601E+01
 2.1384251E+01  2.3617449E+01
 2.1395752E+01  2.3590328E+01
 2.1407251E+01  2.3536858E+01
 2.1418751E+01  2.3532904E+01
 2.1430250E+01  2.3563997E+01
 2.1441751E+01  2.3630703E+01
 2.1453251E+01  2.3650585E+01
 2.1464750E+01  2.3662285E+01
 2.1476252E+01  2.3681973E+01
 2.1487751E+01  2.3773260E+01
 2.1499250E+01  2.3797779E+01
 2.1510752E+01  2.3804741E+01
 2.1522251E+01  2.3803480E+01
 2.1533751E+01  2.3790129E+01
 2.1545252E+01  2.3745312E+01
 2.1556751E+01  2.3697021E+01
 2.1568251E+01  2.3679977E+01
 2.1579752E+01  2.3706846E+01
 2.1591251E+01  2.3733917E+01
 2.1602751E+01  2.3728178E+01
 2.1614250E+01  2.3720358E+01
 2.1625751E+01  2.3753695E+01
 2.1637251E+01  2.3773363E+01
 2.1648750E+01  2.3799870E+01
 2.1660252E+01  2.3823458E+01
 2.1671751E+01  2.3828726E+01
 2.1683250E+01  2.3848000E+01
 2.1694752E+01  2.3851046E+01
 2.1706251E+01  2.3867983E+01
 2.1717751E+01  2.3863008E+01
 2.1729252E+01  2.3891125E+01
 2.1740751E+01  2.3936365E+01
 2.1752251E+01  2.3941900E+01
 2.1763752E+01  2.3924356E+01
 2.1775251E+01  2.3891985E+01
 2.1786751E+01  2.3918177E+01
 2.1798250E+01  2.3968668E+01
 2.1809752E+01  2.3996868E+01
 2.1821251E+01  2.4025175E+01
 2.1832750E+01  2.3961246E+01
 2.1844252E+01  2.3896761E+01
 2.1855751E+01  2.3812807E+01
 2.1867250E+01  2.3826015E+01
 2.1878752E+01  2.3877033E+01
 2.1890251E+01  2.3916605E+01
 2.1901751E+01  2.3941917E+01
 2.1913252E+01  2.3993040E+01
 2.1924751E+01  2.3993595E+01
 2.1936251E+01  2.3978716E+01
 2.1947752E+01  2.3924850E+01
 2.1959251E+01  2.3894737E+01
 2.1970751E+01  2.3844400E+01
 2.1982250E+01  2.3818645E+01
 2.1993752E+01  2.3861181E+01
 2.2005251E+01  2.3914019E+01
 2.2016750E+01  2.4006168E+01
 2.2028252E+01  2.4088827E+01
 2.2039751E+01  2.4132896E+01
 2.2051250E+01  2.4111048E+01
 2.2062752E+01  2.4059259E+01
 2.2074251E+01  2.4044703E+01
 2.2085751E+01  2.4014227E+01
 2.2097252E+01  2.3982332E+01
 2.2108751E+01  2.3975489E+01
 2.2120251E+01  2.4035114E+01
 2.2131752E+01  2.4077787E+01
 2.2143251E+01  2.4092077E+01
 2.2154751E+01  2.4130754E+01
 2.2166250E+01  2.4138315E+01
 2.2177752E+01  2.4111078E+01
 2.2189251E+01  2.4092899E+01
 2.2200750E+01  2.4086803E+01
 2.2212252E+01  2.4079466E+01
 2.2223751E+01  2.4097237E+01
 2.2235250E+01  2.4123617E+01
 2.2246752E+01  2.4109022E+01
 2.2258251E+01  2.4070410E+01
 2.2269751E+01  2.4054007E+01
 2.2281252E+01  2.4086124E+01
 2.2292751E+01  2.4151173E+01
 2.2304251E+01  2.4280993E+01
 2.2315752E+01  2.4302376E+01
 2.2327251E+01  2.4292143E+01
 2.2338751E+01  2.4252718E+01
 2.2350250E+01  2.4310425E+01
 2.2361752E+01  2.4307119E+01
 2.2373251E+01  2.4327396E+01
 2.2384750E+01  2.4293694E+01
 2.2396252E+01  2.4238417E+01
 2.2407751E+01  2.4171812E+01
 2.2419250E+01  2.4182022E+01
 2.2430752E+01  2.4210297E+01
 2.2442251E+01  2.4310266E+01
 2.2453751E+01  2.4357944E+01
 2.2465252E+01  2.4421501E+01
 2.2476751E+01  2.4382229E+01
 2.2488251E+01  2.4394032E+01
 2.2499752E+01  2.4411848E+01
 2.2511251E+01  2.4478928E+01
 2.2522751E+01  2.4516928E+01
 2.2534250E+01  2.4526608E+01
 2.2545752E+01  2.4538607E+01
 2.2557251E+01  2.4553852E+01
 2.2568750E+01  2.4529453E+01
 2.2580252E+01  2.4543003E+01
 2.2591751E+01  2.4564901E+01
 2.2603251E+01  2.4608036E+01
 2.2614752E+01  2.4611624E+01
 2.2626251E+01  2.4654577E+01
 2.2637751E+01  2.4688450E+01
 2.2649252E+01  2.4741278E+01
 2.2660751E+01  2.4728174E+01
 2.2672251E+01  2.4734835E+01
 2.2683752E+01  2.4784672E+01
 2.2695251E+01  2.4837906E+01
 2.2706751E+01  2.4820017E+01
 2.2718250E+01  2.4796051E+01
 2.2729752E+01  2.4773785E+01
 2.2741251E+01  2.4784508E+01
 2.2752750E+01  2.4774355E+01
 2.2764252E+01  2.4767900E+01
 2.2775751E+01  2.4797846E+01
 2.2787251E+01  2.4898546E+01
 2.2798752E+01  2.4971670E+01
 2.2810251E+01  2.5041817E+01
 2.2821751E+01  2.5039345E+01
 2.2833252E+01  2.5104687E+01
 2.2844751E+01  2.5140108E+01
 2.2856251E+01  2.5238132E+01
 2.2867750E+01  2.5309856E+01
 2.2879251E+01  2.5369934E+01
 2.2890751E+01  2.5430023E+01
 2.2902250E+01  2.5445051E+01
 2.2913752E+01  2.5511648E+01
 2.2925251E+01  2.5541916E+01
 2.2936750E+01  2.5583538E+01
 2.2948252E+01  2.5586834E+01
 2.2959751E+01  2.5592863E+01
 2.2971251E+01  2.5640089E+01
 2.2982752E+01  2.5677921E+01
 2.2994251E+01  2.5753927E+01
