F:\20151113_APS_34IDE\\Brian\Particle1\OCV\Data_0050.tif
2-Theta Angle (Degrees)
Intensity
       2000
 5.7500005E-03  0.0000000E+00
 1.7250001E-02  0.0000000E+00
 2.8750001E-02  0.0000000E+00
 4.0250003E-02  0.0000000E+00
 5.1750004E-02  0.0000000E+00
 6.3250005E-02  0.0000000E+00
 7.4750006E-02  0.0000000E+00
 8.6250007E-02  0.0000000E+00
 9.7750008E-02  0.0000000E+00
 1.0925001E-01  0.0000000E+00
 1.2075000E-01  0.0000000E+00
 1.3225001E-01  0.0000000E+00
 1.4375001E-01  0.0000000E+00
 1.5525001E-01  0.0000000E+00
 1.6675001E-01  0.0000000E+00
 1.7825001E-01  0.0000000E+00
 1.8975002E-01  0.0000000E+00
 2.0125002E-01  0.0000000E+00
 2.1275002E-01  0.0000000E+00
 2.2425000E-01  0.0000000E+00
 2.3575000E-01  0.0000000E+00
 2.4725001E-01  0.0000000E+00
 2.5875002E-01  0.0000000E+00
 2.7025002E-01  0.0000000E+00
 2.8175002E-01  0.0000000E+00
 2.9325002E-01  0.0000000E+00
 3.0475003E-01  0.0000000E+00
 3.1625003E-01  0.0000000E+00
 3.2775003E-01  0.0000000E+00
 3.3925003E-01  0.0000000E+00
 3.5075003E-01  0.0000000E+00
 3.6225003E-01  0.0000000E+00
 3.7375003E-01  0.0000000E+00
 3.8525003E-01  0.0000000E+00
 3.9675003E-01  0.0000000E+00
 4.0825003E-01  0.0000000E+00
 4.1975003E-01  0.0000000E+00
 4.3125004E-01  0.0000000E+00
 4.4275001E-01  0.0000000E+00
 4.5425001E-01  0.0000000E+00
 4.6575001E-01  0.0000000E+00
 4.7725001E-01  0.0000000E+00
 4.8875001E-01  0.0000000E+00
 5.0025004E-01  0.0000000E+00
 5.1175004E-01  0.0000000E+00
 5.2325004E-01  0.0000000E+00
 5.3475004E-01  0.0000000E+00
 5.4625005E-01  0.0000000E+00
 5.5775005E-01  0.0000000E+00
 5.6925005E-01  0.0000000E+00
 5.8075005E-01  0.0000000E+00
 5.9225005E-01  0.0000000E+00
 6.0375005E-01  0.0000000E+00
 6.1525005E-01  0.0000000E+00
 6.2675005E-01  0.0000000E+00
 6.3825005E-01  0.0000000E+00
 6.4975005E-01  0.0000000E+00
 6.6125005E-01  0.0000000E+00
 6.7275006E-01  0.0000000E+00
 6.8425006E-01  0.0000000E+00
 6.9575006E-01  0.0000000E+00
 7.0725006E-01  0.0000000E+00
 7.1875006E-01  0.0000000E+00
 7.3025006E-01  0.0000000E+00
 7.4175006E-01  0.0000000E+00
 7.5325006E-01  0.0000000E+00
 7.6475006E-01  0.0000000E+00
 7.7625006E-01  0.0000000E+00
 7.8775007E-01  0.0000000E+00
 7.9925007E-01  0.0000000E+00
 8.1075007E-01  0.0000000E+00
 8.2225007E-01  0.0000000E+00
 8.3375007E-01  0.0000000E+00
 8.4525007E-01  0.0000000E+00
 8.5675007E-01  0.0000000E+00
 8.6825007E-01  0.0000000E+00
 8.7975001E-01  0.0000000E+00
 8.9125001E-01  0.0000000E+00
 9.0275002E-01  0.0000000E+00
 9.1425002E-01  0.0000000E+00
 9.2575002E-01  0.0000000E+00
 9.3725002E-01  0.0000000E+00
 9.4875002E-01  0.0000000E+00
 9.6025002E-01  0.0000000E+00
 9.7175002E-01  0.0000000E+00
 9.8325002E-01  0.0000000E+00
 9.9475002E-01  0.0000000E+00
 1.0062500E+00  0.0000000E+00
 1.0177500E+00  0.0000000E+00
 1.0292500E+00  0.0000000E+00
 1.0407500E+00  0.0000000E+00
 1.0522500E+00  0.0000000E+00
 1.0637500E+00  0.0000000E+00
 1.0752500E+00  0.0000000E+00
 1.0867500E+00  0.0000000E+00
 1.0982500E+00  0.0000000E+00
 1.1097500E+00  0.0000000E+00
 1.1212500E+00  0.0000000E+00
 1.1327500E+00  0.0000000E+00
 1.1442500E+00  0.0000000E+00
 1.1557500E+00  0.0000000E+00
 1.1672500E+00  0.0000000E+00
 1.1787500E+00  0.0000000E+00
 1.1902500E+00  0.0000000E+00
 1.2017500E+00  0.0000000E+00
 1.2132500E+00  0.0000000E+00
 1.2247500E+00  0.0000000E+00
 1.2362500E+00  0.0000000E+00
 1.2477500E+00  0.0000000E+00
 1.2592500E+00  0.0000000E+00
 1.2707500E+00  0.0000000E+00
 1.2822500E+00  0.0000000E+00
 1.2937500E+00  0.0000000E+00
 1.3052500E+00  0.0000000E+00
 1.3167500E+00  0.0000000E+00
 1.3282501E+00  0.0000000E+00
 1.3397501E+00  0.0000000E+00
 1.3512501E+00  0.0000000E+00
 1.3627501E+00  0.0000000E+00
 1.3742501E+00  0.0000000E+00
 1.3857501E+00  0.0000000E+00
 1.3972501E+00  0.0000000E+00
 1.4087501E+00  0.0000000E+00
 1.4202501E+00  0.0000000E+00
 1.4317501E+00  0.0000000E+00
 1.4432501E+00  0.0000000E+00
 1.4547501E+00  0.0000000E+00
 1.4662501E+00  0.0000000E+00
 1.4777501E+00  0.0000000E+00
 1.4892501E+00  0.0000000E+00
 1.5007501E+00  0.0000000E+00
 1.5122501E+00  0.0000000E+00
 1.5237501E+00  0.0000000E+00
 1.5352501E+00  0.0000000E+00
 1.5467501E+00  0.0000000E+00
 1.5582501E+00  0.0000000E+00
 1.5697501E+00  0.0000000E+00
 1.5812501E+00  0.0000000E+00
 1.5927501E+00  0.0000000E+00
 1.6042501E+00  0.0000000E+00
 1.6157501E+00  0.0000000E+00
 1.6272501E+00  0.0000000E+00
 1.6387501E+00  0.0000000E+00
 1.6502501E+00  0.0000000E+00
 1.6617501E+00  0.0000000E+00
 1.6732501E+00  0.0000000E+00
 1.6847501E+00  0.0000000E+00
 1.6962501E+00  0.0000000E+00
 1.7077501E+00  0.0000000E+00
 1.7192501E+00  0.0000000E+00
 1.7307501E+00  0.0000000E+00
 1.7422501E+00  0.0000000E+00
 1.7537501E+00  0.0000000E+00
 1.7652501E+00  0.0000000E+00
 1.7767501E+00  0.0000000E+00
 1.7882501E+00  0.0000000E+00
 1.7997501E+00  0.0000000E+00
 1.8112501E+00  0.0000000E+00
 1.8227501E+00  0.0000000E+00
 1.8342501E+00  0.0000000E+00
 1.8457501E+00  0.0000000E+00
 1.8572501E+00  0.0000000E+00
 1.8687501E+00  0.0000000E+00
 1.8802501E+00  0.0000000E+00
 1.8917501E+00  0.0000000E+00
 1.9032501E+00  0.0000000E+00
 1.9147501E+00  0.0000000E+00
 1.9262501E+00  0.0000000E+00
 1.9377501E+00  0.0000000E+00
 1.9492501E+00  0.0000000E+00
 1.9607501E+00  0.0000000E+00
 1.9722501E+00  0.0000000E+00
 1.9837501E+00  0.0000000E+00
 1.9952501E+00  0.0000000E+00
 2.0067501E+00  0.0000000E+00
 2.0182500E+00  0.0000000E+00
 2.0297501E+00  0.0000000E+00
 2.0412500E+00  0.0000000E+00
 2.0527501E+00  0.0000000E+00
 2.0642500E+00  0.0000000E+00
 2.0757501E+00  0.0000000E+00
 2.0872500E+00  0.0000000E+00
 2.0987501E+00  0.0000000E+00
 2.1102500E+00  0.0000000E+00
 2.1217501E+00  0.0000000E+00
 2.1332500E+00  0.0000000E+00
 2.1447501E+00  0.0000000E+00
 2.1562500E+00  0.0000000E+00
 2.1677501E+00  0.0000000E+00
 2.1792500E+00  0.0000000E+00
 2.1907501E+00  0.0000000E+00
 2.2022500E+00  0.0000000E+00
 2.2137501E+00  0.0000000E+00
 2.2252500E+00  0.0000000E+00
 2.2367501E+00  0.0000000E+00
 2.2482500E+00  0.0000000E+00
 2.2597501E+00  0.0000000E+00
 2.2712500E+00  0.0000000E+00
 2.2827501E+00  0.0000000E+00
 2.2942500E+00  0.0000000E+00
 2.3057501E+00  0.0000000E+00
 2.3172500E+00  0.0000000E+00
 2.3287501E+00  0.0000000E+00
 2.3402500E+00  0.0000000E+00
 2.3517501E+00  0.0000000E+00
 2.3632500E+00  0.0000000E+00
 2.3747501E+00  0.0000000E+00
 2.3862500E+00  0.0000000E+00
 2.3977501E+00  0.0000000E+00
 2.4092500E+00  0.0000000E+00
 2.4207501E+00  0.0000000E+00
 2.4322500E+00  0.0000000E+00
 2.4437501E+00  0.0000000E+00
 2.4552500E+00  0.0000000E+00
 2.4667501E+00  0.0000000E+00
 2.4782500E+00  0.0000000E+00
 2.4897501E+00  0.0000000E+00
 2.5012500E+00  0.0000000E+00
 2.5127501E+00  0.0000000E+00
 2.5242500E+00  0.0000000E+00
 2.5357502E+00  0.0000000E+00
 2.5472500E+00  0.0000000E+00
 2.5587502E+00  0.0000000E+00
 2.5702500E+00  0.0000000E+00
 2.5817502E+00  0.0000000E+00
 2.5932500E+00  0.0000000E+00
 2.6047502E+00  0.0000000E+00
 2.6162500E+00  0.0000000E+00
 2.6277502E+00  0.0000000E+00
 2.6392500E+00  0.0000000E+00
 2.6507502E+00  0.0000000E+00
 2.6622500E+00  0.0000000E+00
 2.6737502E+00  0.0000000E+00
 2.6852500E+00  0.0000000E+00
 2.6967502E+00  0.0000000E+00
 2.7082500E+00  0.0000000E+00
 2.7197502E+00  0.0000000E+00
 2.7312500E+00  0.0000000E+00
 2.7427502E+00  0.0000000E+00
 2.7542500E+00  0.0000000E+00
 2.7657502E+00  0.0000000E+00
 2.7772501E+00  0.0000000E+00
 2.7887502E+00  0.0000000E+00
 2.8002501E+00  0.0000000E+00
 2.8117502E+00  0.0000000E+00
 2.8232501E+00  3.5724277E+01
 2.8347502E+00  3.3553024E+01
 2.8462501E+00  3.2969604E+01
 2.8577502E+00  3.3060158E+01
 2.8692501E+00  3.3254711E+01
 2.8807502E+00  3.4053444E+01
 2.8922501E+00  3.4831333E+01
 2.9037502E+00  3.5746120E+01
 2.9152501E+00  3.6189190E+01
 2.9267502E+00  3.6553112E+01
 2.9382501E+00  3.6736591E+01
 2.9497502E+00  3.7021530E+01
 2.9612501E+00  3.6962494E+01
 2.9727502E+00  3.6690281E+01
 2.9842501E+00  3.6285019E+01
 2.9957502E+00  3.6573391E+01
 3.0072501E+00  3.6580502E+01
 3.0187502E+00  3.6662888E+01
 3.0302501E+00  3.6152561E+01
 3.0417502E+00  3.5754467E+01
 3.0532501E+00  3.5686989E+01
 3.0647502E+00  3.5602474E+01
 3.0762501E+00  3.5851532E+01
 3.0877502E+00  3.5820847E+01
 3.0992501E+00  3.6033363E+01
 3.1107502E+00  3.6317123E+01
 3.1222501E+00  3.6581043E+01
 3.1337502E+00  3.6737926E+01
 3.1452501E+00  3.6535797E+01
 3.1567502E+00  3.6340328E+01
 3.1682501E+00  3.5954777E+01
 3.1797502E+00  3.5583614E+01
 3.1912501E+00  3.5088779E+01
 3.2027502E+00  3.4926811E+01
 3.2142501E+00  3.5104107E+01
 3.2257502E+00  3.5328819E+01
 3.2372501E+00  3.5460011E+01
 3.2487502E+00  3.5390266E+01
 3.2602501E+00  3.5630730E+01
 3.2717502E+00  3.5625908E+01
 3.2832501E+00  3.5546055E+01
 3.2947502E+00  3.5445522E+01
 3.3062501E+00  3.5638420E+01
 3.3177502E+00  3.5629341E+01
 3.3292501E+00  3.5501564E+01
 3.3407502E+00  3.5067310E+01
 3.3522501E+00  3.4813965E+01
 3.3637502E+00  3.4422314E+01
 3.3752501E+00  3.4224125E+01
 3.3867502E+00  3.4018642E+01
 3.3982501E+00  3.3914627E+01
 3.4097502E+00  3.3842030E+01
 3.4212501E+00  3.3955734E+01
 3.4327502E+00  3.4013813E+01
 3.4442501E+00  3.4124424E+01
 3.4557502E+00  3.4246296E+01
 3.4672501E+00  3.4417915E+01
 3.4787502E+00  3.4404850E+01
 3.4902501E+00  3.4218338E+01
 3.5017502E+00  3.3992966E+01
 3.5132501E+00  3.3801369E+01
 3.5247502E+00  3.3726353E+01
 3.5362501E+00  3.3930408E+01
 3.5477502E+00  3.3872463E+01
 3.5592501E+00  3.3860348E+01
 3.5707502E+00  3.3582218E+01
 3.5822501E+00  3.3359783E+01
 3.5937502E+00  3.3177250E+01
 3.6052501E+00  3.2873478E+01
 3.6167502E+00  3.2780960E+01
 3.6282501E+00  3.2618980E+01
 3.6397502E+00  3.2518883E+01
 3.6512501E+00  3.2520351E+01
 3.6627502E+00  3.2683231E+01
 3.6742501E+00  3.2846928E+01
 3.6857502E+00  3.3113804E+01
 3.6972501E+00  3.3122692E+01
 3.7087502E+00  3.3007477E+01
 3.7202501E+00  3.2965462E+01
 3.7317502E+00  3.2893269E+01
 3.7432501E+00  3.2973545E+01
 3.7547503E+00  3.2830261E+01
 3.7662501E+00  3.2671654E+01
 3.7777503E+00  3.2600430E+01
 3.7892501E+00  3.2450218E+01
 3.8007503E+00  3.2528988E+01
 3.8122501E+00  3.2745075E+01
 3.8237503E+00  3.3159981E+01
 3.8352501E+00  3.3315155E+01
 3.8467503E+00  3.3306236E+01
 3.8582501E+00  3.3345230E+01
 3.8697503E+00  3.3442173E+01
 3.8812501E+00  3.3388157E+01
 3.8927503E+00  3.3122234E+01
 3.9042501E+00  3.2919163E+01
 3.9157503E+00  3.2962776E+01
 3.9272501E+00  3.2906155E+01
 3.9387503E+00  3.2750702E+01
 3.9502501E+00  3.2381481E+01
 3.9617503E+00  3.2325840E+01
 3.9732502E+00  3.2382061E+01
 3.9847503E+00  3.2563656E+01
 3.9962502E+00  3.2865887E+01
 4.0077500E+00  3.2912708E+01
 4.0192504E+00  3.3097416E+01
 4.0307503E+00  3.2876846E+01
 4.0422502E+00  3.2889278E+01
 4.0537500E+00  3.2812836E+01
 4.0652504E+00  3.2818474E+01
 4.0767503E+00  3.2797169E+01
 4.0882502E+00  3.2788269E+01
 4.0997500E+00  3.2808094E+01
 4.1112504E+00  3.2811192E+01
 4.1227503E+00  3.2553486E+01
 4.1342502E+00  3.2530151E+01
 4.1457500E+00  3.2507805E+01
 4.1572504E+00  3.2507046E+01
 4.1687503E+00  3.2344074E+01
 4.1802502E+00  3.2095890E+01
 4.1917500E+00  3.2099770E+01
 4.2032504E+00  3.2022820E+01
 4.2147503E+00  3.2019650E+01
 4.2262502E+00  3.1940504E+01
 4.2377501E+00  3.2038445E+01
 4.2492504E+00  3.2079254E+01
 4.2607503E+00  3.2241970E+01
 4.2722502E+00  3.2408081E+01
 4.2837501E+00  3.2578526E+01
 4.2952504E+00  3.2621326E+01
 4.3067503E+00  3.2514717E+01
 4.3182502E+00  3.2311268E+01
 4.3297501E+00  3.2077404E+01
 4.3412504E+00  3.1983721E+01
 4.3527503E+00  3.2032879E+01
 4.3642502E+00  3.2271076E+01
 4.3757501E+00  3.2434231E+01
 4.3872504E+00  3.2509075E+01
 4.3987503E+00  3.2495872E+01
 4.4102502E+00  3.2418011E+01
 4.4217501E+00  3.2488289E+01
 4.4332504E+00  3.2515392E+01
 4.4447503E+00  3.2535370E+01
 4.4562502E+00  3.2624889E+01
 4.4677501E+00  3.2531395E+01
 4.4792504E+00  3.2620319E+01
 4.4907503E+00  3.2526573E+01
 4.5022502E+00  3.2536362E+01
 4.5137501E+00  3.2436100E+01
 4.5252504E+00  3.2379154E+01
 4.5367503E+00  3.2406937E+01
 4.5482502E+00  3.2393284E+01
 4.5597501E+00  3.2429321E+01
 4.5712504E+00  3.2538319E+01
 4.5827503E+00  3.2664974E+01
 4.5942502E+00  3.2861965E+01
 4.6057501E+00  3.2813763E+01
 4.6172504E+00  3.2857845E+01
 4.6287503E+00  3.2670235E+01
 4.6402502E+00  3.2610519E+01
 4.6517501E+00  3.2516651E+01
 4.6632504E+00  3.2670219E+01
 4.6747503E+00  3.2782810E+01
 4.6862502E+00  3.2857613E+01
 4.6977501E+00  3.2964989E+01
 4.7092505E+00  3.3035599E+01
 4.7207503E+00  3.3127224E+01
 4.7322502E+00  3.3048271E+01
 4.7437501E+00  3.2978497E+01
 4.7552505E+00  3.2816822E+01
 4.7667503E+00  3.2724133E+01
 4.7782502E+00  3.2690323E+01
 4.7897501E+00  3.2629063E+01
 4.8012505E+00  3.2625687E+01
 4.8127503E+00  3.2527813E+01
 4.8242502E+00  3.2642380E+01
 4.8357501E+00  3.2643097E+01
 4.8472505E+00  3.2761635E+01
 4.8587503E+00  3.2826019E+01
 4.8702502E+00  3.2894413E+01
 4.8817501E+00  3.2869823E+01
 4.8932505E+00  3.2891979E+01
 4.9047503E+00  3.2926090E+01
 4.9162502E+00  3.2969479E+01
 4.9277501E+00  3.2940685E+01
 4.9392505E+00  3.2946465E+01
 4.9507504E+00  3.2966724E+01
 4.9622502E+00  3.3016590E+01
 4.9737501E+00  3.3023304E+01
 4.9852505E+00  3.3084812E+01
 4.9967504E+00  3.3082752E+01
 5.0082502E+00  3.3233372E+01
 5.0197501E+00  3.3206333E+01
 5.0312505E+00  3.3260742E+01
 5.0427504E+00  3.3277805E+01
 5.0542502E+00  3.3273281E+01
 5.0657501E+00  3.3357361E+01
 5.0772505E+00  3.3394794E+01
 5.0887504E+00  3.3541630E+01
 5.1002502E+00  3.3637188E+01
 5.1117501E+00  3.3698353E+01
 5.1232505E+00  3.3646633E+01
 5.1347504E+00  3.3665371E+01
 5.1462502E+00  3.3664921E+01
 5.1577501E+00  3.3683636E+01
 5.1692505E+00  3.3744232E+01
 5.1807504E+00  3.3650925E+01
 5.1922503E+00  3.3722191E+01
 5.2037501E+00  3.3732681E+01
 5.2152505E+00  3.3781631E+01
 5.2267504E+00  3.3823006E+01
 5.2382503E+00  3.3856373E+01
 5.2497501E+00  3.3947880E+01
 5.2612505E+00  3.3934116E+01
 5.2727504E+00  3.3967072E+01
 5.2842503E+00  3.4041428E+01
 5.2957501E+00  3.4177280E+01
 5.3072500E+00  3.4252178E+01
 5.3187504E+00  3.4333427E+01
 5.3302503E+00  3.4370716E+01
 5.3417501E+00  3.4433853E+01
 5.3532500E+00  3.4297386E+01
 5.3647504E+00  3.4150478E+01
 5.3762503E+00  3.4118549E+01
 5.3877501E+00  3.4250977E+01
 5.3992500E+00  3.4395042E+01
 5.4107504E+00  3.4420006E+01
 5.4222503E+00  3.4429882E+01
 5.4337502E+00  3.4489136E+01
 5.4452500E+00  3.4673038E+01
 5.4567504E+00  3.4860168E+01
 5.4682503E+00  3.4992340E+01
 5.4797502E+00  3.5067257E+01
 5.4912500E+00  3.5064487E+01
 5.5027504E+00  3.5214855E+01
 5.5142503E+00  3.5236809E+01
 5.5257502E+00  3.5344135E+01
 5.5372500E+00  3.5221165E+01
 5.5487504E+00  3.5250725E+01
 5.5602503E+00  3.5210667E+01
 5.5717502E+00  3.5236279E+01
 5.5832500E+00  3.5333347E+01
 5.5947504E+00  3.5417168E+01
 5.6062503E+00  3.5525406E+01
 5.6177502E+00  3.5530987E+01
 5.6292500E+00  3.5461197E+01
 5.6407504E+00  3.5501598E+01
 5.6522503E+00  3.5494629E+01
 5.6637502E+00  3.5599735E+01
 5.6752501E+00  3.5746174E+01
 5.6867504E+00  3.5807308E+01
 5.6982503E+00  3.5789204E+01
 5.7097502E+00  3.5742706E+01
 5.7212501E+00  3.5708641E+01
 5.7327504E+00  3.5783852E+01
 5.7442503E+00  3.5873627E+01
 5.7557502E+00  3.5959488E+01
 5.7672501E+00  3.5972683E+01
 5.7787504E+00  3.6019375E+01
 5.7902503E+00  3.5985043E+01
 5.8017502E+00  3.6072781E+01
 5.8132501E+00  3.5983894E+01
 5.8247504E+00  3.6118416E+01
 5.8362503E+00  3.6151863E+01
 5.8477502E+00  3.6499409E+01
 5.8592501E+00  3.6561909E+01
 5.8707504E+00  3.7130260E+01
 5.8822503E+00  3.7315262E+01
 5.8937502E+00  3.8746727E+01
 5.9052501E+00  3.9373631E+01
 5.9167504E+00  4.2447166E+01
 5.9282503E+00  4.4847794E+01
 5.9397502E+00  5.1404827E+01
 5.9512501E+00  5.4182648E+01
 5.9627504E+00  6.1138687E+01
 5.9742503E+00  6.0045406E+01
 5.9857502E+00  6.2746521E+01
 5.9972501E+00  5.6473686E+01
 6.0087504E+00  5.4495762E+01
 6.0202503E+00  4.7966492E+01
 6.0317502E+00  4.4873245E+01
 6.0432501E+00  4.1339054E+01
 6.0547504E+00  3.9693558E+01
 6.0662503E+00  3.8494816E+01
 6.0777502E+00  3.7953724E+01
 6.0892501E+00  3.7773163E+01
 6.1007504E+00  3.7744595E+01
 6.1122503E+00  3.7613148E+01
 6.1237502E+00  3.7506706E+01
 6.1352501E+00  3.7314339E+01
 6.1467505E+00  3.7216579E+01
 6.1582503E+00  3.7142830E+01
 6.1697502E+00  3.7054123E+01
 6.1812501E+00  3.7081573E+01
 6.1927505E+00  3.6980301E+01
 6.2042503E+00  3.6950470E+01
 6.2157502E+00  3.6936897E+01
 6.2272501E+00  3.7086166E+01
 6.2387505E+00  3.7118843E+01
 6.2502503E+00  3.7359989E+01
 6.2617502E+00  3.7462688E+01
 6.2732501E+00  3.7719254E+01
 6.2847505E+00  3.7863125E+01
 6.2962503E+00  3.7921440E+01
 6.3077502E+00  3.7931374E+01
 6.3192501E+00  3.7939144E+01
 6.3307505E+00  3.8107048E+01
 6.3422503E+00  3.8249104E+01
 6.3537502E+00  3.8387955E+01
 6.3652501E+00  3.8407513E+01
 6.3767505E+00  3.8371338E+01
 6.3882504E+00  3.8338211E+01
 6.3997502E+00  3.8262901E+01
 6.4112501E+00  3.8340881E+01
 6.4227505E+00  3.8421860E+01
 6.4342504E+00  3.8548405E+01
 6.4457502E+00  3.8756580E+01
 6.4572501E+00  3.8797607E+01
 6.4687505E+00  3.8988869E+01
 6.4802504E+00  3.9030907E+01
 6.4917502E+00  3.9194939E+01
 6.5032501E+00  3.9277813E+01
 6.5147505E+00  3.9391411E+01
 6.5262504E+00  3.9352654E+01
 6.5377502E+00  3.9355083E+01
 6.5492501E+00  3.9346439E+01
 6.5607505E+00  3.9444965E+01
 6.5722504E+00  3.9569519E+01
 6.5837502E+00  3.9638329E+01
 6.5952501E+00  3.9678844E+01
 6.6067505E+00  3.9734615E+01
 6.6182504E+00  3.9755531E+01
 6.6297503E+00  3.9875759E+01
 6.6412501E+00  3.9904163E+01
 6.6527505E+00  3.9945511E+01
 6.6642504E+00  4.0108475E+01
 6.6757503E+00  4.0145844E+01
 6.6872501E+00  4.0170483E+01
 6.6987505E+00  4.0150257E+01
 6.7102504E+00  4.0243313E+01
 6.7217503E+00  4.0325031E+01
 6.7332501E+00  4.0369286E+01
 6.7447505E+00  4.0389782E+01
 6.7562504E+00  4.0546482E+01
 6.7677503E+00  4.0661564E+01
 6.7792501E+00  4.0755905E+01
 6.7907505E+00  4.0855995E+01
 6.8022504E+00  4.0953213E+01
 6.8137503E+00  4.1119221E+01
 6.8252501E+00  4.1285870E+01
 6.8367505E+00  4.1407787E+01
 6.8482504E+00  4.1484634E+01
 6.8597503E+00  4.1548279E+01
 6.8712502E+00  4.1513580E+01
 6.8827505E+00  4.1516064E+01
 6.8942504E+00  4.1548428E+01
 6.9057503E+00  4.1598347E+01
 6.9172502E+00  4.1704327E+01
 6.9287505E+00  4.1761444E+01
 6.9402504E+00  4.1886414E+01
 6.9517503E+00  4.2027058E+01
 6.9632502E+00  4.2121773E+01
 6.9747505E+00  4.2216591E+01
 6.9862504E+00  4.2273739E+01
 6.9977503E+00  4.2296951E+01
 7.0092502E+00  4.2353733E+01
 7.0207505E+00  4.2401882E+01
 7.0322504E+00  4.2484142E+01
 7.0437503E+00  4.2522133E+01
 7.0552502E+00  4.2589157E+01
 7.0667505E+00  4.2588928E+01
 7.0782504E+00  4.2610405E+01
 7.0897503E+00  4.2672543E+01
 7.1012502E+00  4.2801899E+01
 7.1127505E+00  4.2919518E+01
 7.1242504E+00  4.2977547E+01
 7.1357503E+00  4.3023132E+01
 7.1472502E+00  4.3077705E+01
 7.1587505E+00  4.3250031E+01
 7.1702504E+00  4.3365097E+01
 7.1817503E+00  4.3424320E+01
 7.1932502E+00  4.3384224E+01
 7.2047505E+00  4.3459949E+01
 7.2162504E+00  4.3549519E+01
 7.2277503E+00  4.3663986E+01
 7.2392502E+00  4.3604778E+01
 7.2507505E+00  4.3683189E+01
 7.2622504E+00  4.3644531E+01
 7.2737503E+00  4.3743553E+01
 7.2852502E+00  4.3672993E+01
 7.2967505E+00  4.3647465E+01
 7.3082504E+00  4.3606228E+01
 7.3197503E+00  4.3603413E+01
 7.3312502E+00  4.3681274E+01
 7.3427505E+00  4.3701851E+01
 7.3542504E+00  4.3796577E+01
 7.3657503E+00  4.3803604E+01
 7.3772502E+00  4.3890537E+01
 7.3887506E+00  4.3927799E+01
 7.4002504E+00  4.4001431E+01
 7.4117503E+00  4.4093567E+01
 7.4232502E+00  4.4171112E+01
 7.4347506E+00  4.4249023E+01
 7.4462504E+00  4.4266674E+01
 7.4577503E+00  4.4259399E+01
 7.4692502E+00  4.4209633E+01
 7.4807506E+00  4.4204720E+01
 7.4922504E+00  4.4198639E+01
 7.5037503E+00  4.4192131E+01
 7.5152502E+00  4.4205723E+01
 7.5267506E+00  4.4170002E+01
 7.5382504E+00  4.4225903E+01
 7.5497503E+00  4.4168831E+01
 7.5612502E+00  4.4320137E+01
 7.5727506E+00  4.4394127E+01
 7.5842505E+00  4.4523319E+01
 7.5957503E+00  4.4456093E+01
 7.6072502E+00  4.4338173E+01
 7.6187506E+00  4.4229736E+01
 7.6302505E+00  4.4115982E+01
 7.6417503E+00  4.4162235E+01
 7.6532502E+00  4.4065044E+01
 7.6647506E+00  4.4130165E+01
 7.6762505E+00  4.4106644E+01
 7.6877503E+00  4.4209602E+01
 7.6992502E+00  4.4206215E+01
 7.7107506E+00  4.4360878E+01
 7.7222505E+00  4.4385387E+01
 7.7337503E+00  4.4504509E+01
 7.7452502E+00  4.4418957E+01
 7.7567506E+00  4.4422485E+01
 7.7682505E+00  4.4410328E+01
 7.7797503E+00  4.4367455E+01
 7.7912502E+00  4.4370529E+01
 7.8027506E+00  4.4276119E+01
 7.8142505E+00  4.4235111E+01
 7.8257504E+00  4.4131199E+01
 7.8372502E+00  4.4086899E+01
 7.8487506E+00  4.3991722E+01
 7.8602505E+00  4.3992249E+01
 7.8717504E+00  4.3967388E+01
 7.8832502E+00  4.3923752E+01
 7.8947506E+00  4.3910126E+01
 7.9062505E+00  4.3941433E+01
 7.9177504E+00  4.3990341E+01
 7.9292502E+00  4.4011459E+01
 7.9407506E+00  4.3980465E+01
 7.9522505E+00  4.3968231E+01
 7.9637504E+00  4.3883675E+01
 7.9752502E+00  4.3730392E+01
 7.9867506E+00  4.3632454E+01
 7.9982505E+00  4.3591366E+01
 8.0097504E+00  4.3505974E+01
 8.0212507E+00  4.3409134E+01
 8.0327501E+00  4.3266247E+01
 8.0442505E+00  4.3171658E+01
 8.0557508E+00  4.3140076E+01
 8.0672503E+00  4.3004616E+01
 8.0787506E+00  4.2950157E+01
 8.0902500E+00  4.2844585E+01
 8.1017504E+00  4.2934227E+01
 8.1132507E+00  4.2948143E+01
 8.1247501E+00  4.2944927E+01
 8.1362505E+00  4.2830971E+01
 8.1477509E+00  4.2718983E+01
 8.1592503E+00  4.2564423E+01
 8.1707506E+00  4.2434666E+01
 8.1822500E+00  4.2335403E+01
 8.1937504E+00  4.2298054E+01
 8.2052507E+00  4.2135403E+01
 8.2167501E+00  4.1918495E+01
 8.2282505E+00  4.1686790E+01
 8.2397509E+00  4.1454323E+01
 8.2512503E+00  4.1384796E+01
 8.2627506E+00  4.1272312E+01
 8.2742500E+00  4.1272896E+01
 8.2857504E+00  4.1136402E+01
 8.2972507E+00  4.1035942E+01
 8.3087502E+00  4.0925484E+01
 8.3202505E+00  4.0795715E+01
 8.3317509E+00  4.0577618E+01
 8.3432503E+00  4.0387241E+01
 8.3547506E+00  4.0171604E+01
 8.3662500E+00  4.0031490E+01
 8.3777504E+00  3.9827808E+01
 8.3892508E+00  3.9634533E+01
 8.4007502E+00  3.9510551E+01
 8.4122505E+00  3.9349182E+01
 8.4237509E+00  3.9179035E+01
 8.4352503E+00  3.8980476E+01
 8.4467506E+00  3.8756992E+01
 8.4582500E+00  3.8558449E+01
 8.4697504E+00  3.8374855E+01
 8.4812508E+00  3.8194168E+01
 8.4927502E+00  3.8051567E+01
 8.5042505E+00  3.7917095E+01
 8.5157509E+00  3.7848232E+01
 8.5272503E+00  3.7744984E+01
 8.5387506E+00  3.7587753E+01
 8.5502501E+00  3.7366138E+01
 8.5617504E+00  3.7107059E+01
 8.5732508E+00  3.6962482E+01
 8.5847502E+00  3.6708458E+01
 8.5962505E+00  3.6576866E+01
 8.6077509E+00  3.6357605E+01
 8.6192503E+00  3.6247643E+01
 8.6307507E+00  3.6213688E+01
 8.6422501E+00  3.5999264E+01
 8.6537504E+00  3.5792667E+01
 8.6652508E+00  3.5531986E+01
 8.6767502E+00  3.5369488E+01
 8.6882505E+00  3.5274014E+01
 8.6997509E+00  3.5106125E+01
 8.7112503E+00  3.4937908E+01
 8.7227507E+00  3.4703838E+01
 8.7342501E+00  3.4505760E+01
 8.7457504E+00  3.4331993E+01
 8.7572508E+00  3.4218811E+01
 8.7687502E+00  3.4054562E+01
 8.7802505E+00  3.3917145E+01
 8.7917500E+00  3.3708504E+01
 8.8032503E+00  3.3545284E+01
 8.8147507E+00  3.3331451E+01
 8.8262501E+00  3.3174850E+01
 8.8377504E+00  3.3049072E+01
 8.8492508E+00  3.2892517E+01
 8.8607502E+00  3.2768890E+01
 8.8722506E+00  3.2615082E+01
 8.8837500E+00  3.2501331E+01
 8.8952503E+00  3.2317818E+01
 8.9067507E+00  3.2196079E+01
 8.9182501E+00  3.2034740E+01
 8.9297504E+00  3.1951584E+01
 8.9412508E+00  3.1756136E+01
 8.9527502E+00  3.1638803E+01
 8.9642506E+00  3.1495630E+01
 8.9757500E+00  3.1336523E+01
 8.9872503E+00  3.1180338E+01
 8.9987507E+00  3.0905479E+01
 9.0102501E+00  3.0656921E+01
 9.0217505E+00  3.0471273E+01
 9.0332508E+00  3.0326698E+01
 9.0447502E+00  3.0302580E+01
 9.0562506E+00  3.0165846E+01
 9.0677500E+00  3.0040117E+01
 9.0792503E+00  2.9926847E+01
 9.0907507E+00  2.9799473E+01
 9.1022501E+00  2.9741011E+01
 9.1137505E+00  2.9621204E+01
 9.1252508E+00  2.9528582E+01
 9.1367502E+00  2.9433796E+01
 9.1482506E+00  2.9298296E+01
 9.1597500E+00  2.9135267E+01
 9.1712503E+00  2.8988850E+01
 9.1827507E+00  2.8837793E+01
 9.1942501E+00  2.8770418E+01
 9.2057505E+00  2.8646305E+01
 9.2172508E+00  2.8570358E+01
 9.2287502E+00  2.8377031E+01
 9.2402506E+00  2.8307236E+01
 9.2517500E+00  2.8194723E+01
 9.2632504E+00  2.8149286E+01
 9.2747507E+00  2.8088428E+01
 9.2862501E+00  2.8000685E+01
 9.2977505E+00  2.7939278E+01
 9.3092508E+00  2.7785553E+01
 9.3207502E+00  2.7684349E+01
 9.3322506E+00  2.7599312E+01
 9.3437500E+00  2.7482046E+01
 9.3552504E+00  2.7425064E+01
 9.3667507E+00  2.7273386E+01
 9.3782501E+00  2.7254808E+01
 9.3897505E+00  2.7147987E+01
 9.4012508E+00  2.7081043E+01
 9.4127502E+00  2.6957300E+01
 9.4242506E+00  2.6880434E+01
 9.4357500E+00  2.6845512E+01
 9.4472504E+00  2.6782116E+01
 9.4587507E+00  2.6749840E+01
 9.4702501E+00  2.6706863E+01
 9.4817505E+00  2.6689367E+01
 9.4932508E+00  2.6597607E+01
 9.5047503E+00  2.6503992E+01
 9.5162506E+00  2.6460701E+01
 9.5277500E+00  2.6391958E+01
 9.5392504E+00  2.6286028E+01
 9.5507507E+00  2.6228432E+01
 9.5622501E+00  2.6168030E+01
 9.5737505E+00  2.6145187E+01
 9.5852509E+00  2.6065727E+01
 9.5967503E+00  2.6047491E+01
 9.6082506E+00  2.6021801E+01
 9.6197500E+00  2.5967575E+01
 9.6312504E+00  2.5897057E+01
 9.6427507E+00  2.5842749E+01
 9.6542501E+00  2.5743118E+01
 9.6657505E+00  2.5611509E+01
 9.6772509E+00  2.5511993E+01
 9.6887503E+00  2.5439392E+01
 9.7002506E+00  2.5420780E+01
 9.7117500E+00  2.5362326E+01
 9.7232504E+00  2.5354649E+01
 9.7347507E+00  2.5307096E+01
 9.7462502E+00  2.5300360E+01
 9.7577505E+00  2.5229803E+01
 9.7692509E+00  2.5230209E+01
 9.7807503E+00  2.5188623E+01
 9.7922506E+00  2.5179203E+01
 9.8037500E+00  2.5134214E+01
 9.8152504E+00  2.5040039E+01
 9.8267508E+00  2.4953197E+01
 9.8382502E+00  2.4864883E+01
 9.8497505E+00  2.4807364E+01
 9.8612509E+00  2.4778763E+01
 9.8727503E+00  2.4769070E+01
 9.8842506E+00  2.4743015E+01
 9.8957500E+00  2.4752958E+01
 9.9072504E+00  2.4706436E+01
 9.9187508E+00  2.4760984E+01
 9.9302502E+00  2.4717134E+01
 9.9417505E+00  2.4646925E+01
 9.9532509E+00  2.4586399E+01
 9.9647503E+00  2.4589851E+01
 9.9762506E+00  2.4599079E+01
 9.9877501E+00  2.4542284E+01
 9.9992504E+00  2.4406771E+01
 1.0010751E+01  2.4303135E+01
 1.0022250E+01  2.4236086E+01
 1.0033751E+01  2.4216269E+01
 1.0045251E+01  2.4247896E+01
 1.0056750E+01  2.4241970E+01
 1.0068251E+01  2.4226219E+01
 1.0079750E+01  2.4151493E+01
 1.0091250E+01  2.4040230E+01
 1.0102751E+01  2.3968204E+01
 1.0114250E+01  2.3972168E+01
 1.0125751E+01  2.4062489E+01
 1.0137251E+01  2.4032707E+01
 1.0148750E+01  2.4000446E+01
 1.0160251E+01  2.3937576E+01
 1.0171750E+01  2.3940943E+01
 1.0183250E+01  2.3933619E+01
 1.0194751E+01  2.3870270E+01
 1.0206250E+01  2.3904757E+01
 1.0217751E+01  2.3880371E+01
 1.0229251E+01  2.3913702E+01
 1.0240750E+01  2.3875240E+01
 1.0252251E+01  2.3849670E+01
 1.0263750E+01  2.3807184E+01
 1.0275250E+01  2.3775587E+01
 1.0286751E+01  2.3763994E+01
 1.0298250E+01  2.3741179E+01
 1.0309751E+01  2.3726370E+01
 1.0321251E+01  2.3691225E+01
 1.0332750E+01  2.3686092E+01
 1.0344251E+01  2.3698137E+01
 1.0355750E+01  2.3734369E+01
 1.0367250E+01  2.3693508E+01
 1.0378751E+01  2.3633410E+01
 1.0390250E+01  2.3595879E+01
 1.0401751E+01  2.3595711E+01
 1.0413251E+01  2.3603464E+01
 1.0424750E+01  2.3604340E+01
 1.0436251E+01  2.3566729E+01
 1.0447750E+01  2.3542360E+01
 1.0459250E+01  2.3500589E+01
 1.0470751E+01  2.3469027E+01
 1.0482250E+01  2.3428963E+01
 1.0493751E+01  2.3388599E+01
 1.0505251E+01  2.3345791E+01
 1.0516750E+01  2.3349586E+01
 1.0528251E+01  2.3333233E+01
 1.0539750E+01  2.3364470E+01
 1.0551250E+01  2.3336351E+01
 1.0562751E+01  2.3350349E+01
 1.0574250E+01  2.3306183E+01
 1.0585751E+01  2.3287888E+01
 1.0597251E+01  2.3235506E+01
 1.0608750E+01  2.3254011E+01
 1.0620251E+01  2.3250589E+01
 1.0631750E+01  2.3270586E+01
 1.0643250E+01  2.3251341E+01
 1.0654751E+01  2.3223257E+01
 1.0666250E+01  2.3127922E+01
 1.0677751E+01  2.3069736E+01
 1.0689251E+01  2.2963938E+01
 1.0700750E+01  2.2983616E+01
 1.0712251E+01  2.2981474E+01
 1.0723750E+01  2.3040394E+01
 1.0735250E+01  2.2974966E+01
 1.0746751E+01  2.2933369E+01
 1.0758250E+01  2.2881596E+01
 1.0769751E+01  2.2876390E+01
 1.0781251E+01  2.2913805E+01
 1.0792750E+01  2.2926050E+01
 1.0804251E+01  2.2968603E+01
 1.0815750E+01  2.2970505E+01
 1.0827250E+01  2.3008554E+01
 1.0838751E+01  2.2944294E+01
 1.0850250E+01  2.2912371E+01
 1.0861751E+01  2.2873589E+01
 1.0873251E+01  2.2920116E+01
 1.0884750E+01  2.2873371E+01
 1.0896251E+01  2.2819311E+01
 1.0907750E+01  2.2808664E+01
 1.0919250E+01  2.2826702E+01
 1.0930751E+01  2.2893856E+01
 1.0942250E+01  2.2881502E+01
 1.0953751E+01  2.2877453E+01
 1.0965251E+01  2.2788063E+01
 1.0976750E+01  2.2720739E+01
 1.0988251E+01  2.2656490E+01
 1.0999750E+01  2.2620832E+01
 1.1011250E+01  2.2630276E+01
 1.1022751E+01  2.2632334E+01
 1.1034250E+01  2.2692656E+01
 1.1045751E+01  2.2661516E+01
 1.1057251E+01  2.2656118E+01
 1.1068750E+01  2.2623501E+01
 1.1080251E+01  2.2612577E+01
 1.1091750E+01  2.2591295E+01
 1.1103251E+01  2.2544659E+01
 1.1114751E+01  2.2565023E+01
 1.1126250E+01  2.2557711E+01
 1.1137751E+01  2.2596380E+01
 1.1149251E+01  2.2601954E+01
 1.1160750E+01  2.2628235E+01
 1.1172251E+01  2.2654573E+01
 1.1183750E+01  2.2657486E+01
 1.1195251E+01  2.2683496E+01
 1.1206751E+01  2.2653124E+01
 1.1218250E+01  2.2624353E+01
 1.1229751E+01  2.2539242E+01
 1.1241251E+01  2.2456057E+01
 1.1252750E+01  2.2392900E+01
 1.1264251E+01  2.2354870E+01
 1.1275750E+01  2.2375191E+01
 1.1287251E+01  2.2393780E+01
 1.1298751E+01  2.2424290E+01
 1.1310250E+01  2.2471668E+01
 1.1321751E+01  2.2490728E+01
 1.1333251E+01  2.2516808E+01
 1.1344750E+01  2.2535711E+01
 1.1356251E+01  2.2616215E+01
 1.1367750E+01  2.2715384E+01
 1.1379251E+01  2.2855211E+01
 1.1390751E+01  2.2886076E+01
 1.1402250E+01  2.3138323E+01
 1.1413751E+01  2.3104845E+01
 1.1425251E+01  2.3153530E+01
 1.1436750E+01  2.3035162E+01
 1.1448251E+01  2.2985481E+01
 1.1459750E+01  2.3041052E+01
 1.1471251E+01  2.2994331E+01
 1.1482751E+01  2.3039230E+01
 1.1494250E+01  2.3043808E+01
 1.1505751E+01  2.3119202E+01
 1.1517251E+01  2.3320799E+01
 1.1528750E+01  2.3671808E+01
 1.1540251E+01  2.4226036E+01
 1.1551750E+01  2.4993570E+01
 1.1563251E+01  2.6043907E+01
 1.1574751E+01  2.7227444E+01
 1.1586250E+01  2.8314564E+01
 1.1597751E+01  2.8803640E+01
 1.1609251E+01  2.8903145E+01
 1.1620750E+01  2.8302504E+01
 1.1632251E+01  2.7179773E+01
 1.1643750E+01  2.5884365E+01
 1.1655251E+01  2.4806654E+01
 1.1666751E+01  2.4108517E+01
 1.1678250E+01  2.3554455E+01
 1.1689751E+01  2.3180361E+01
 1.1701251E+01  2.3031708E+01
 1.1712750E+01  2.2871395E+01
 1.1724251E+01  2.2795082E+01
 1.1735750E+01  2.2739603E+01
 1.1747251E+01  2.2781748E+01
 1.1758751E+01  2.2784407E+01
 1.1770250E+01  2.2748440E+01
 1.1781751E+01  2.2690912E+01
 1.1793251E+01  2.2715889E+01
 1.1804750E+01  2.2764248E+01
 1.1816251E+01  2.2804764E+01
 1.1827750E+01  2.2841057E+01
 1.1839251E+01  2.2851698E+01
 1.1850751E+01  2.2817062E+01
 1.1862250E+01  2.2847153E+01
 1.1873751E+01  2.2869953E+01
 1.1885251E+01  2.2934959E+01
 1.1896750E+01  2.3076799E+01
 1.1908251E+01  2.3242468E+01
 1.1919750E+01  2.3699398E+01
 1.1931251E+01  2.4075325E+01
 1.1942751E+01  2.4595758E+01
 1.1954250E+01  2.6070127E+01
 1.1965751E+01  2.6602230E+01
 1.1977251E+01  2.7374353E+01
 1.1988750E+01  2.8153183E+01
 1.2000251E+01  2.7826258E+01
 1.2011750E+01  2.7843792E+01
 1.2023251E+01  2.6438883E+01
 1.2034751E+01  2.6146570E+01
 1.2046250E+01  2.5877451E+01
 1.2057751E+01  2.5480156E+01
 1.2069251E+01  2.6224953E+01
 1.2080750E+01  2.7066290E+01
 1.2092251E+01  2.7960064E+01
 1.2103750E+01  2.9021626E+01
 1.2115251E+01  2.9040260E+01
 1.2126751E+01  2.8720640E+01
 1.2138250E+01  2.7999699E+01
 1.2149751E+01  2.6697306E+01
 1.2161251E+01  2.5692553E+01
 1.2172750E+01  2.4524530E+01
 1.2184251E+01  2.3836460E+01
 1.2195750E+01  2.3514807E+01
 1.2207251E+01  2.3183493E+01
 1.2218751E+01  2.3100573E+01
 1.2230250E+01  2.3032866E+01
 1.2241751E+01  2.2991598E+01
 1.2253251E+01  2.2932877E+01
 1.2264750E+01  2.2922453E+01
 1.2276251E+01  2.2827984E+01
 1.2287750E+01  2.2828596E+01
 1.2299251E+01  2.2800632E+01
 1.2310751E+01  2.2809649E+01
 1.2322250E+01  2.2792610E+01
 1.2333751E+01  2.2791496E+01
 1.2345250E+01  2.2786034E+01
 1.2356750E+01  2.2796522E+01
 1.2368251E+01  2.2731447E+01
 1.2379750E+01  2.2717611E+01
 1.2391251E+01  2.2655424E+01
 1.2402751E+01  2.2653585E+01
 1.2414250E+01  2.2635782E+01
 1.2425751E+01  2.2611755E+01
 1.2437250E+01  2.2664181E+01
 1.2448750E+01  2.2723612E+01
 1.2460251E+01  2.2767864E+01
 1.2471750E+01  2.2763941E+01
 1.2483251E+01  2.2817097E+01
 1.2494751E+01  2.2855207E+01
 1.2506250E+01  2.2870258E+01
 1.2517751E+01  2.2804543E+01
 1.2529250E+01  2.2778881E+01
 1.2540751E+01  2.2782297E+01
 1.2552251E+01  2.2817865E+01
 1.2563750E+01  2.2855194E+01
 1.2575251E+01  2.2901970E+01
 1.2586751E+01  2.2939411E+01
 1.2598250E+01  2.2976223E+01
 1.2609751E+01  2.3011450E+01
 1.2621250E+01  2.3019520E+01
 1.2632751E+01  2.3036501E+01
 1.2644251E+01  2.3015041E+01
 1.2655750E+01  2.3003794E+01
 1.2667251E+01  2.2969936E+01
 1.2678751E+01  2.2948612E+01
 1.2690250E+01  2.2937311E+01
 1.2701751E+01  2.2939606E+01
 1.2713250E+01  2.3026861E+01
 1.2724751E+01  2.3041588E+01
 1.2736251E+01  2.3124310E+01
 1.2747750E+01  2.3105770E+01
 1.2759251E+01  2.3210489E+01
 1.2770751E+01  2.3246506E+01
 1.2782250E+01  2.3302078E+01
 1.2793751E+01  2.3259743E+01
 1.2805250E+01  2.3278677E+01
 1.2816751E+01  2.3321171E+01
 1.2828251E+01  2.3406612E+01
 1.2839750E+01  2.3456715E+01
 1.2851251E+01  2.3517733E+01
 1.2862751E+01  2.3617132E+01
 1.2874250E+01  2.3691118E+01
 1.2885751E+01  2.3752302E+01
 1.2897250E+01  2.3727816E+01
 1.2908751E+01  2.3780878E+01
 1.2920251E+01  2.3796743E+01
 1.2931750E+01  2.3915594E+01
 1.2943251E+01  2.3916265E+01
 1.2954751E+01  2.3988890E+01
 1.2966250E+01  2.4016048E+01
 1.2977751E+01  2.4098919E+01
 1.2989250E+01  2.4089331E+01
 1.3000751E+01  2.4130657E+01
 1.3012251E+01  2.4118029E+01
 1.3023750E+01  2.4207254E+01
 1.3035251E+01  2.4276220E+01
 1.3046751E+01  2.4371473E+01
 1.3058250E+01  2.4533899E+01
 1.3069751E+01  2.4620609E+01
 1.3081250E+01  2.4773678E+01
 1.3092751E+01  2.4847343E+01
 1.3104251E+01  2.4999884E+01
 1.3115750E+01  2.5140881E+01
 1.3127251E+01  2.5218136E+01
 1.3138751E+01  2.5298407E+01
 1.3150250E+01  2.5366533E+01
 1.3161751E+01  2.5429249E+01
 1.3173250E+01  2.5513004E+01
 1.3184751E+01  2.5582146E+01
 1.3196251E+01  2.5736773E+01
 1.3207750E+01  2.5921951E+01
 1.3219251E+01  2.6150391E+01
 1.3230751E+01  2.6306423E+01
 1.3242250E+01  2.6508766E+01
 1.3253751E+01  2.6650616E+01
 1.3265250E+01  2.6843657E+01
 1.3276751E+01  2.6975056E+01
 1.3288251E+01  2.7117275E+01
 1.3299750E+01  2.7182257E+01
 1.3311251E+01  2.7201458E+01
 1.3322751E+01  2.7266615E+01
 1.3334250E+01  2.7449600E+01
 1.3345751E+01  2.7648249E+01
 1.3357250E+01  2.7822453E+01
 1.3368751E+01  2.7918179E+01
 1.3380251E+01  2.8028257E+01
 1.3391750E+01  2.8117579E+01
 1.3403251E+01  2.8228739E+01
 1.3414751E+01  2.8331587E+01
 1.3426250E+01  2.8465572E+01
 1.3437751E+01  2.8605904E+01
 1.3449250E+01  2.8727554E+01
 1.3460751E+01  2.8825953E+01
 1.3472251E+01  2.8929440E+01
 1.3483750E+01  2.9060202E+01
 1.3495251E+01  2.9173738E+01
 1.3506751E+01  2.9349577E+01
 1.3518250E+01  2.9516130E+01
 1.3529751E+01  2.9652216E+01
 1.3541250E+01  2.9749262E+01
 1.3552751E+01  2.9809946E+01
 1.3564251E+01  2.9891668E+01
 1.3575750E+01  2.9930437E+01
 1.3587251E+01  2.9931713E+01
 1.3598751E+01  2.9989170E+01
 1.3610250E+01  3.0014097E+01
 1.3621751E+01  3.0059233E+01
 1.3633250E+01  3.0041265E+01
 1.3644751E+01  3.0032930E+01
 1.3656251E+01  3.0004414E+01
 1.3667750E+01  3.0029200E+01
 1.3679251E+01  2.9994829E+01
 1.3690751E+01  2.9982521E+01
 1.3702250E+01  2.9885998E+01
 1.3713751E+01  2.9872766E+01
 1.3725250E+01  2.9850609E+01
 1.3736751E+01  2.9892279E+01
 1.3748251E+01  2.9821653E+01
 1.3759750E+01  2.9859322E+01
 1.3771251E+01  2.9799881E+01
 1.3782751E+01  2.9869600E+01
 1.3794250E+01  2.9889807E+01
 1.3805751E+01  3.0036982E+01
 1.3817250E+01  3.0120520E+01
 1.3828751E+01  3.0198336E+01
 1.3840251E+01  3.0304445E+01
 1.3851750E+01  3.0528124E+01
 1.3863251E+01  3.0801895E+01
 1.3874751E+01  3.1454340E+01
 1.3886250E+01  3.2621582E+01
 1.3897751E+01  3.4323936E+01
 1.3909250E+01  3.7786163E+01
 1.3920751E+01  4.1259590E+01
 1.3932251E+01  4.6505634E+01
 1.3943750E+01  4.9157452E+01
 1.3955251E+01  5.4095966E+01
 1.3966751E+01  5.3023846E+01
 1.3978251E+01  5.3707504E+01
 1.3989751E+01  4.7126858E+01
 1.4001250E+01  4.3929184E+01
 1.4012751E+01  3.7276619E+01
 1.4024251E+01  3.4457966E+01
 1.4035750E+01  3.1520805E+01
 1.4047251E+01  3.0244656E+01
 1.4058751E+01  2.9426693E+01
 1.4070251E+01  2.8926504E+01
 1.4081751E+01  2.8627188E+01
 1.4093250E+01  2.8383213E+01
 1.4104751E+01  2.8171175E+01
 1.4116251E+01  2.7973961E+01
 1.4127750E+01  2.7758909E+01
 1.4139251E+01  2.7593502E+01
 1.4150751E+01  2.7427179E+01
 1.4162251E+01  2.7274897E+01
 1.4173751E+01  2.7136374E+01
 1.4185250E+01  2.7071833E+01
 1.4196751E+01  2.7004559E+01
 1.4208251E+01  2.6992916E+01
 1.4219750E+01  2.6959240E+01
 1.4231251E+01  2.6899475E+01
 1.4242751E+01  2.6816156E+01
 1.4254251E+01  2.6744759E+01
 1.4265751E+01  2.6687033E+01
 1.4277250E+01  2.6594412E+01
 1.4288751E+01  2.6535183E+01
 1.4300251E+01  2.6534012E+01
 1.4311750E+01  2.6492550E+01
 1.4323251E+01  2.6459991E+01
 1.4334751E+01  2.6432928E+01
 1.4346251E+01  2.6428749E+01
 1.4357751E+01  2.6446913E+01
 1.4369250E+01  2.6387089E+01
 1.4380751E+01  2.6341482E+01
 1.4392251E+01  2.6216791E+01
 1.4403750E+01  2.6121553E+01
 1.4415251E+01  2.6039310E+01
 1.4426751E+01  2.5977314E+01
 1.4438251E+01  2.5892172E+01
 1.4449751E+01  2.5847622E+01
 1.4461250E+01  2.5797752E+01
 1.4472751E+01  2.5796185E+01
 1.4484251E+01  2.5780546E+01
 1.4495750E+01  2.5801283E+01
 1.4507251E+01  2.5845797E+01
 1.4518751E+01  2.5789370E+01
 1.4530251E+01  2.5769617E+01
 1.4541751E+01  2.5745132E+01
 1.4553250E+01  2.5779549E+01
 1.4564751E+01  2.5766443E+01
 1.4576251E+01  2.5766285E+01
 1.4587750E+01  2.5779861E+01
 1.4599251E+01  2.5783777E+01
 1.4610751E+01  2.5762861E+01
 1.4622251E+01  2.5739161E+01
 1.4633751E+01  2.5672461E+01
 1.4645250E+01  2.5599739E+01
 1.4656751E+01  2.5501772E+01
 1.4668251E+01  2.5438587E+01
 1.4679750E+01  2.5377268E+01
 1.4691251E+01  2.5346170E+01
 1.4702751E+01  2.5308952E+01
 1.4714251E+01  2.5309021E+01
 1.4725751E+01  2.5261379E+01
 1.4737250E+01  2.5239958E+01
 1.4748751E+01  2.5217916E+01
 1.4760251E+01  2.5191479E+01
 1.4771750E+01  2.5173067E+01
 1.4783251E+01  2.5159830E+01
 1.4794751E+01  2.5214905E+01
 1.4806251E+01  2.5247129E+01
 1.4817751E+01  2.5259480E+01
 1.4829250E+01  2.5263449E+01
 1.4840751E+01  2.5283562E+01
 1.4852251E+01  2.5267071E+01
 1.4863750E+01  2.5194624E+01
 1.4875251E+01  2.5068750E+01
 1.4886751E+01  2.4983149E+01
 1.4898251E+01  2.5024023E+01
 1.4909751E+01  2.5089018E+01
 1.4921250E+01  2.5149870E+01
 1.4932751E+01  2.5132511E+01
 1.4944251E+01  2.5147898E+01
 1.4955750E+01  2.5083542E+01
 1.4967251E+01  2.5017488E+01
 1.4978751E+01  2.4961861E+01
 1.4990251E+01  2.4966370E+01
 1.5001751E+01  2.4982868E+01
 1.5013250E+01  2.5024151E+01
 1.5024751E+01  2.5089863E+01
 1.5036251E+01  2.5116114E+01
 1.5047750E+01  2.5070869E+01
 1.5059251E+01  2.5031055E+01
 1.5070751E+01  2.5000500E+01
 1.5082251E+01  2.4998455E+01
 1.5093751E+01  2.5038298E+01
 1.5105250E+01  2.5140676E+01
 1.5116751E+01  2.5291767E+01
 1.5128251E+01  2.5459078E+01
 1.5139750E+01  2.5711939E+01
 1.5151251E+01  2.5992748E+01
 1.5162751E+01  2.6468678E+01
 1.5174251E+01  2.6777704E+01
 1.5185751E+01  2.7084402E+01
 1.5197250E+01  2.7130699E+01
 1.5208751E+01  2.7081913E+01
 1.5220251E+01  2.6819225E+01
 1.5231750E+01  2.6332392E+01
 1.5243251E+01  2.5893423E+01
 1.5254751E+01  2.5503220E+01
 1.5266251E+01  2.5217358E+01
 1.5277751E+01  2.5055367E+01
 1.5289250E+01  2.4981617E+01
 1.5300751E+01  2.4907526E+01
 1.5312251E+01  2.4903305E+01
 1.5323750E+01  2.4885612E+01
 1.5335251E+01  2.4870012E+01
 1.5346751E+01  2.4858210E+01
 1.5358251E+01  2.4819838E+01
 1.5369751E+01  2.4815498E+01
 1.5381250E+01  2.4761208E+01
 1.5392751E+01  2.4731581E+01
 1.5404251E+01  2.4740252E+01
 1.5415751E+01  2.4735767E+01
 1.5427251E+01  2.4741596E+01
 1.5438751E+01  2.4744591E+01
 1.5450251E+01  2.4774359E+01
 1.5461751E+01  2.4775797E+01
 1.5473250E+01  2.4759581E+01
 1.5484751E+01  2.4778423E+01
 1.5496251E+01  2.4836090E+01
 1.5507751E+01  2.4832733E+01
 1.5519251E+01  2.4835997E+01
 1.5530751E+01  2.4758896E+01
 1.5542251E+01  2.4688627E+01
 1.5553751E+01  2.4597610E+01
 1.5565250E+01  2.4619162E+01
 1.5576751E+01  2.4647287E+01
 1.5588251E+01  2.4648804E+01
 1.5599751E+01  2.4620468E+01
 1.5611251E+01  2.4614223E+01
 1.5622751E+01  2.4638527E+01
 1.5634251E+01  2.4650211E+01
 1.5645751E+01  2.4641888E+01
 1.5657250E+01  2.4628151E+01
 1.5668751E+01  2.4624907E+01
 1.5680251E+01  2.4646921E+01
 1.5691751E+01  2.4679396E+01
 1.5703251E+01  2.4733795E+01
 1.5714751E+01  2.4783306E+01
 1.5726251E+01  2.4829775E+01
 1.5737751E+01  2.4809669E+01
 1.5749250E+01  2.4776712E+01
 1.5760751E+01  2.4745319E+01
 1.5772251E+01  2.4701418E+01
 1.5783751E+01  2.4680071E+01
 1.5795251E+01  2.4694378E+01
 1.5806751E+01  2.4740486E+01
 1.5818251E+01  2.4794064E+01
 1.5829751E+01  2.4787907E+01
 1.5841250E+01  2.4770578E+01
 1.5852751E+01  2.4725283E+01
 1.5864251E+01  2.4642361E+01
 1.5875751E+01  2.4684792E+01
 1.5887251E+01  2.4701807E+01
 1.5898750E+01  2.4787519E+01
 1.5910251E+01  2.4783331E+01
 1.5921751E+01  2.4804180E+01
 1.5933250E+01  2.4788252E+01
 1.5944751E+01  2.4764605E+01
 1.5956251E+01  2.4779564E+01
 1.5967751E+01  2.4759537E+01
 1.5979251E+01  2.4789324E+01
 1.5990750E+01  2.4802956E+01
 1.6002251E+01  2.4885221E+01
 1.6013750E+01  2.4909937E+01
 1.6025251E+01  2.4877220E+01
 1.6036751E+01  2.4871712E+01
 1.6048250E+01  2.4807529E+01
 1.6059752E+01  2.4804640E+01
 1.6071251E+01  2.4751585E+01
 1.6082750E+01  2.4787395E+01
 1.6094252E+01  2.4835592E+01
 1.6105751E+01  2.4921198E+01
 1.6117250E+01  2.4989487E+01
 1.6128750E+01  2.5009296E+01
 1.6140251E+01  2.5021206E+01
 1.6151751E+01  2.5019653E+01
 1.6163250E+01  2.5056551E+01
 1.6174751E+01  2.5019749E+01
 1.6186251E+01  2.5072758E+01
 1.6197750E+01  2.4991392E+01
 1.6209251E+01  2.5239498E+01
 1.6220751E+01  2.5293720E+01
 1.6232250E+01  2.5661446E+01
 1.6243752E+01  2.5805054E+01
 1.6255251E+01  2.6065428E+01
 1.6266750E+01  2.6271578E+01
 1.6278252E+01  2.6069674E+01
 1.6289751E+01  2.6090414E+01
 1.6301250E+01  2.5454992E+01
 1.6312750E+01  2.5494904E+01
 1.6324251E+01  2.5067713E+01
 1.6335751E+01  2.5142059E+01
 1.6347250E+01  2.4922598E+01
 1.6358751E+01  2.4913443E+01
 1.6370251E+01  2.4826832E+01
 1.6381750E+01  2.4787682E+01
 1.6393251E+01  2.4786095E+01
 1.6404751E+01  2.4839386E+01
 1.6416250E+01  2.4922123E+01
 1.6427752E+01  2.4903435E+01
 1.6439251E+01  2.4889862E+01
 1.6450750E+01  2.4860180E+01
 1.6462252E+01  2.4900545E+01
 1.6473751E+01  2.4920391E+01
 1.6485250E+01  2.4925064E+01
 1.6496750E+01  2.4900448E+01
 1.6508251E+01  2.4850332E+01
 1.6519751E+01  2.4817295E+01
 1.6531250E+01  2.4774000E+01
 1.6542751E+01  2.4747768E+01
 1.6554251E+01  2.4714714E+01
 1.6565750E+01  2.4674465E+01
 1.6577251E+01  2.4677015E+01
 1.6588751E+01  2.4674250E+01
 1.6600250E+01  2.4720928E+01
 1.6611752E+01  2.4773008E+01
 1.6623251E+01  2.4783134E+01
 1.6634750E+01  2.4798395E+01
 1.6646252E+01  2.4758821E+01
 1.6657751E+01  2.4759821E+01
 1.6669250E+01  2.4741528E+01
 1.6680750E+01  2.4676834E+01
 1.6692251E+01  2.4671238E+01
 1.6703751E+01  2.4608292E+01
 1.6715250E+01  2.4658022E+01
 1.6726751E+01  2.4608736E+01
 1.6738251E+01  2.4651756E+01
 1.6749750E+01  2.4624449E+01
 1.6761251E+01  2.4620674E+01
 1.6772751E+01  2.4605043E+01
 1.6784250E+01  2.4599407E+01
 1.6795752E+01  2.4629990E+01
 1.6807251E+01  2.4642281E+01
 1.6818750E+01  2.4642159E+01
 1.6830252E+01  2.4642973E+01
 1.6841751E+01  2.4612640E+01
 1.6853251E+01  2.4623013E+01
 1.6864750E+01  2.4641735E+01
 1.6876251E+01  2.4655518E+01
 1.6887751E+01  2.4651609E+01
 1.6899250E+01  2.4586399E+01
 1.6910751E+01  2.4595133E+01
 1.6922251E+01  2.4577974E+01
 1.6933750E+01  2.4575720E+01
 1.6945251E+01  2.4563251E+01
 1.6956751E+01  2.4543020E+01
 1.6968250E+01  2.4543564E+01
 1.6979752E+01  2.4530268E+01
 1.6991251E+01  2.4487797E+01
 1.7002750E+01  2.4448767E+01
 1.7014252E+01  2.4395611E+01
 1.7025751E+01  2.4408403E+01
 1.7037251E+01  2.4394390E+01
 1.7048750E+01  2.4392481E+01
 1.7060251E+01  2.4382721E+01
 1.7071751E+01  2.4434330E+01
 1.7083250E+01  2.4489159E+01
 1.7094751E+01  2.4499237E+01
 1.7106251E+01  2.4516815E+01
 1.7117750E+01  2.4510000E+01
 1.7129251E+01  2.4583979E+01
 1.7140751E+01  2.4568346E+01
 1.7152250E+01  2.4551533E+01
 1.7163752E+01  2.4470774E+01
 1.7175251E+01  2.4450890E+01
 1.7186750E+01  2.4456339E+01
 1.7198252E+01  2.4473103E+01
 1.7209751E+01  2.4476284E+01
 1.7221251E+01  2.4421896E+01
 1.7232750E+01  2.4353638E+01
 1.7244251E+01  2.4274790E+01
 1.7255751E+01  2.4229105E+01
 1.7267250E+01  2.4204561E+01
 1.7278751E+01  2.4146715E+01
 1.7290251E+01  2.4110500E+01
 1.7301750E+01  2.4095324E+01
 1.7313251E+01  2.4090069E+01
 1.7324751E+01  2.4116856E+01
 1.7336250E+01  2.4151026E+01
 1.7347752E+01  2.4221094E+01
 1.7359251E+01  2.4197401E+01
 1.7370750E+01  2.4185551E+01
 1.7382252E+01  2.4180086E+01
 1.7393751E+01  2.4201658E+01
 1.7405251E+01  2.4152348E+01
 1.7416750E+01  2.4126427E+01
 1.7428251E+01  2.4145374E+01
 1.7439751E+01  2.4148088E+01
 1.7451250E+01  2.4125002E+01
 1.7462751E+01  2.4114784E+01
 1.7474251E+01  2.4144833E+01
 1.7485750E+01  2.4178556E+01
 1.7497252E+01  2.4182999E+01
 1.7508751E+01  2.4138378E+01
 1.7520250E+01  2.4084959E+01
 1.7531752E+01  2.4065250E+01
 1.7543251E+01  2.4090607E+01
 1.7554750E+01  2.4087284E+01
 1.7566252E+01  2.4037767E+01
 1.7577751E+01  2.3977701E+01
 1.7589251E+01  2.3902252E+01
 1.7600750E+01  2.3935242E+01
 1.7612251E+01  2.3937984E+01
 1.7623751E+01  2.4013994E+01
 1.7635250E+01  2.3993818E+01
 1.7646751E+01  2.3996960E+01
 1.7658251E+01  2.3961113E+01
 1.7669750E+01  2.3970201E+01
 1.7681252E+01  2.4013617E+01
 1.7692751E+01  2.4051670E+01
 1.7704250E+01  2.4032604E+01
 1.7715752E+01  2.4019434E+01
 1.7727251E+01  2.3987452E+01
 1.7738750E+01  2.3975689E+01
 1.7750252E+01  2.3966745E+01
 1.7761751E+01  2.3985086E+01
 1.7773251E+01  2.3984797E+01
 1.7784750E+01  2.4012995E+01
 1.7796251E+01  2.3980463E+01
 1.7807751E+01  2.3927475E+01
 1.7819250E+01  2.3856239E+01
 1.7830751E+01  2.3805676E+01
 1.7842251E+01  2.3803989E+01
 1.7853750E+01  2.3814663E+01
 1.7865252E+01  2.3857101E+01
 1.7876751E+01  2.3895800E+01
 1.7888250E+01  2.3906603E+01
 1.7899752E+01  2.3939661E+01
 1.7911251E+01  2.4012569E+01
 1.7922750E+01  2.4113476E+01
 1.7934252E+01  2.4109203E+01
 1.7945751E+01  2.4116800E+01
 1.7957251E+01  2.4147636E+01
 1.7968750E+01  2.4205107E+01
 1.7980251E+01  2.4319614E+01
 1.7991751E+01  2.4560484E+01
 1.8003250E+01  2.4686625E+01
 1.8014751E+01  2.4839964E+01
 1.8026251E+01  2.4941525E+01
 1.8037750E+01  2.5080051E+01
 1.8049252E+01  2.5085606E+01
 1.8060751E+01  2.5308460E+01
 1.8072250E+01  2.5508030E+01
 1.8083752E+01  2.5764952E+01
 1.8095251E+01  2.5922468E+01
 1.8106750E+01  2.6068293E+01
 1.8118252E+01  2.6056673E+01
 1.8129751E+01  2.5898548E+01
 1.8141251E+01  2.5563181E+01
 1.8152750E+01  2.5140871E+01
 1.8164251E+01  2.4758858E+01
 1.8175751E+01  2.4470068E+01
 1.8187250E+01  2.4205786E+01
 1.8198751E+01  2.4044506E+01
 1.8210251E+01  2.3914505E+01
 1.8221750E+01  2.3825249E+01
 1.8233252E+01  2.3780262E+01
 1.8244751E+01  2.3728069E+01
 1.8256250E+01  2.3658834E+01
 1.8267752E+01  2.3595449E+01
 1.8279251E+01  2.3589926E+01
 1.8290751E+01  2.3611773E+01
 1.8302252E+01  2.3666397E+01
 1.8313751E+01  2.3678267E+01
 1.8325251E+01  2.3670502E+01
 1.8336750E+01  2.3625973E+01
 1.8348251E+01  2.3682795E+01
 1.8359751E+01  2.3759293E+01
 1.8371250E+01  2.3840275E+01
 1.8382751E+01  2.3861166E+01
 1.8394251E+01  2.3874868E+01
 1.8405750E+01  2.3886688E+01
 1.8417252E+01  2.3872238E+01
 1.8428751E+01  2.3813084E+01
 1.8440250E+01  2.3784485E+01
 1.8451752E+01  2.3715464E+01
 1.8463251E+01  2.3721025E+01
 1.8474751E+01  2.3703638E+01
 1.8486252E+01  2.3707306E+01
 1.8497751E+01  2.3666082E+01
 1.8509251E+01  2.3653921E+01
 1.8520750E+01  2.3630243E+01
 1.8532251E+01  2.3629419E+01
 1.8543751E+01  2.3653446E+01
 1.8555250E+01  2.3721952E+01
 1.8566751E+01  2.3785475E+01
 1.8578251E+01  2.3850763E+01
 1.8589750E+01  2.3832815E+01
 1.8601252E+01  2.3832109E+01
 1.8612751E+01  2.3794773E+01
 1.8624250E+01  2.3779268E+01
 1.8635752E+01  2.3767187E+01
 1.8647251E+01  2.3713230E+01
 1.8658751E+01  2.3664949E+01
 1.8670252E+01  2.3650995E+01
 1.8681751E+01  2.3713865E+01
 1.8693251E+01  2.3796751E+01
 1.8704750E+01  2.3828360E+01
 1.8716251E+01  2.3858343E+01
 1.8727751E+01  2.3864927E+01
 1.8739250E+01  2.3816782E+01
 1.8750751E+01  2.3726660E+01
 1.8762251E+01  2.3685337E+01
 1.8773750E+01  2.3642054E+01
 1.8785252E+01  2.3648993E+01
 1.8796751E+01  2.3649778E+01
 1.8808250E+01  2.3654104E+01
 1.8819752E+01  2.3674215E+01
 1.8831251E+01  2.3666487E+01
 1.8842751E+01  2.3706171E+01
 1.8854252E+01  2.3642965E+01
 1.8865751E+01  2.3629265E+01
 1.8877251E+01  2.3639486E+01
 1.8888750E+01  2.3736290E+01
 1.8900251E+01  2.3761448E+01
 1.8911751E+01  2.3771982E+01
 1.8923250E+01  2.3753304E+01
 1.8934752E+01  2.3739830E+01
 1.8946251E+01  2.3734215E+01
 1.8957750E+01  2.3721897E+01
 1.8969252E+01  2.3708467E+01
 1.8980751E+01  2.3672495E+01
 1.8992250E+01  2.3644793E+01
 1.9003752E+01  2.3619293E+01
 1.9015251E+01  2.3597738E+01
 1.9026751E+01  2.3613310E+01
 1.9038252E+01  2.3565525E+01
 1.9049751E+01  2.3570276E+01
 1.9061251E+01  2.3621588E+01
 1.9072750E+01  2.3690897E+01
 1.9084251E+01  2.3728683E+01
 1.9095751E+01  2.3717291E+01
 1.9107250E+01  2.3722862E+01
 1.9118752E+01  2.3657913E+01
 1.9130251E+01  2.3645647E+01
 1.9141750E+01  2.3608942E+01
 1.9153252E+01  2.3627338E+01
 1.9164751E+01  2.3598200E+01
 1.9176250E+01  2.3631138E+01
 1.9187752E+01  2.3637123E+01
 1.9199251E+01  2.3685890E+01
 1.9210751E+01  2.3683210E+01
 1.9222252E+01  2.3713337E+01
 1.9233751E+01  2.3678688E+01
 1.9245251E+01  2.3714989E+01
 1.9256750E+01  2.3754826E+01
 1.9268251E+01  2.3796808E+01
 1.9279751E+01  2.3756786E+01
 1.9291250E+01  2.3749603E+01
 1.9302752E+01  2.3726278E+01
 1.9314251E+01  2.3699688E+01
 1.9325750E+01  2.3688505E+01
 1.9337252E+01  2.3726395E+01
 1.9348751E+01  2.3737825E+01
 1.9360250E+01  2.3654718E+01
 1.9371752E+01  2.3660868E+01
 1.9383251E+01  2.3685886E+01
 1.9394751E+01  2.3733133E+01
 1.9406250E+01  2.3705095E+01
 1.9417751E+01  2.3702103E+01
 1.9429251E+01  2.3684477E+01
 1.9440750E+01  2.3742626E+01
 1.9452251E+01  2.3789593E+01
 1.9463751E+01  2.3836456E+01
 1.9475250E+01  2.3878132E+01
 1.9486752E+01  2.3863331E+01
 1.9498251E+01  2.3856688E+01
 1.9509750E+01  2.3833260E+01
 1.9521252E+01  2.3881046E+01
 1.9532751E+01  2.3932592E+01
 1.9544250E+01  2.3976557E+01
 1.9555752E+01  2.3997738E+01
 1.9567251E+01  2.4010033E+01
 1.9578751E+01  2.4043110E+01
 1.9590250E+01  2.4054094E+01
 1.9601751E+01  2.4065136E+01
 1.9613251E+01  2.4125874E+01
 1.9624750E+01  2.4208097E+01
 1.9636251E+01  2.4417046E+01
 1.9647751E+01  2.4598423E+01
 1.9659250E+01  2.5043823E+01
 1.9670752E+01  2.5428125E+01
 1.9682251E+01  2.6017900E+01
 1.9693750E+01  2.6981293E+01
 1.9705252E+01  2.7383606E+01
 1.9716751E+01  2.7837448E+01
 1.9728251E+01  2.7593014E+01
 1.9739752E+01  2.7387432E+01
 1.9751251E+01  2.6480059E+01
 1.9762751E+01  2.6094791E+01
 1.9774250E+01  2.5823793E+01
 1.9785751E+01  2.5653582E+01
 1.9797251E+01  2.5825054E+01
 1.9808750E+01  2.6046803E+01
 1.9820251E+01  2.6620029E+01
 1.9831751E+01  2.7238241E+01
 1.9843250E+01  2.7643570E+01
 1.9854752E+01  2.8335344E+01
 1.9866251E+01  2.8161951E+01
 1.9877750E+01  2.7989292E+01
 1.9889252E+01  2.7031179E+01
 1.9900751E+01  2.6518877E+01
 1.9912251E+01  2.5484692E+01
 1.9923752E+01  2.5010351E+01
 1.9935251E+01  2.4707073E+01
 1.9946751E+01  2.4463993E+01
 1.9958250E+01  2.4354919E+01
 1.9969751E+01  2.4246986E+01
 1.9981251E+01  2.4157434E+01
 1.9992750E+01  2.4082769E+01
 2.0004251E+01  2.4002123E+01
 2.0015751E+01  2.3951641E+01
 2.0027250E+01  2.3947088E+01
 2.0038752E+01  2.3938095E+01
 2.0050251E+01  2.3963743E+01
 2.0061750E+01  2.3906630E+01
 2.0073252E+01  2.3884815E+01
 2.0084751E+01  2.3818836E+01
 2.0096251E+01  2.3878593E+01
 2.0107752E+01  2.3840805E+01
 2.0119251E+01  2.3882099E+01
 2.0130751E+01  2.3862644E+01
 2.0142250E+01  2.3891150E+01
 2.0153751E+01  2.3887506E+01
 2.0165251E+01  2.3962788E+01
 2.0176750E+01  2.4003206E+01
 2.0188251E+01  2.4043526E+01
 2.0199751E+01  2.3968733E+01
 2.0211250E+01  2.3896799E+01
 2.0222752E+01  2.3861891E+01
 2.0234251E+01  2.3890955E+01
 2.0245750E+01  2.3937342E+01
 2.0257252E+01  2.3961735E+01
 2.0268751E+01  2.3978170E+01
 2.0280251E+01  2.3987730E+01
 2.0291752E+01  2.4006077E+01
 2.0303251E+01  2.3943300E+01
 2.0314751E+01  2.3868570E+01
 2.0326250E+01  2.3828287E+01
 2.0337751E+01  2.3859680E+01
 2.0349251E+01  2.3923386E+01
 2.0360750E+01  2.3980896E+01
 2.0372252E+01  2.4029684E+01
 2.0383751E+01  2.4030952E+01
 2.0395250E+01  2.4062277E+01
 2.0406752E+01  2.4028296E+01
 2.0418251E+01  2.3969580E+01
 2.0429750E+01  2.3935169E+01
 2.0441252E+01  2.3975590E+01
 2.0452751E+01  2.3977448E+01
 2.0464251E+01  2.3989780E+01
 2.0475752E+01  2.4025585E+01
 2.0487251E+01  2.4068363E+01
 2.0498751E+01  2.4031836E+01
 2.0510250E+01  2.3961588E+01
 2.0521751E+01  2.3907278E+01
 2.0533251E+01  2.3907007E+01
 2.0544750E+01  2.3930511E+01
 2.0556252E+01  2.3978235E+01
 2.0567751E+01  2.4004330E+01
 2.0579250E+01  2.4024450E+01
 2.0590752E+01  2.4100218E+01
 2.0602251E+01  2.4163986E+01
 2.0613750E+01  2.4174879E+01
 2.0625252E+01  2.4137573E+01
 2.0636751E+01  2.4126230E+01
 2.0648251E+01  2.4116697E+01
 2.0659752E+01  2.4161766E+01
 2.0671251E+01  2.4267918E+01
 2.0682751E+01  2.4443069E+01
 2.0694250E+01  2.4664717E+01
 2.0705751E+01  2.4960722E+01
 2.0717251E+01  2.5361584E+01
 2.0728750E+01  2.5893372E+01
 2.0740252E+01  2.6494831E+01
 2.0751751E+01  2.7079929E+01
 2.0763250E+01  2.7662363E+01
 2.0774752E+01  2.7979073E+01
 2.0786251E+01  2.8060019E+01
 2.0797750E+01  2.7711586E+01
 2.0809252E+01  2.7179253E+01
 2.0820751E+01  2.6407124E+01
 2.0832251E+01  2.5634100E+01
 2.0843752E+01  2.5148857E+01
 2.0855251E+01  2.4739878E+01
 2.0866751E+01  2.4567554E+01
 2.0878250E+01  2.4426264E+01
 2.0889751E+01  2.4356419E+01
 2.0901251E+01  2.4264704E+01
 2.0912750E+01  2.4194902E+01
 2.0924252E+01  2.4197746E+01
 2.0935751E+01  2.4199823E+01
 2.0947250E+01  2.4240921E+01
 2.0958752E+01  2.4181395E+01
 2.0970251E+01  2.4146109E+01
 2.0981750E+01  2.4116510E+01
 2.0993252E+01  2.4156164E+01
 2.1004751E+01  2.4148214E+01
 2.1016251E+01  2.4106567E+01
 2.1027752E+01  2.4119520E+01
 2.1039251E+01  2.4117552E+01
 2.1050751E+01  2.4098932E+01
 2.1062250E+01  2.4059370E+01
 2.1073751E+01  2.4052408E+01
 2.1085251E+01  2.4048456E+01
 2.1096750E+01  2.4065008E+01
 2.1108252E+01  2.4088251E+01
 2.1119751E+01  2.4058924E+01
 2.1131250E+01  2.4014927E+01
 2.1142752E+01  2.3946396E+01
 2.1154251E+01  2.3903524E+01
 2.1165751E+01  2.3881319E+01
 2.1177252E+01  2.3939514E+01
 2.1188751E+01  2.3995388E+01
 2.1200251E+01  2.4039278E+01
 2.1211752E+01  2.4035637E+01
 2.1223251E+01  2.4039640E+01
 2.1234751E+01  2.4039349E+01
 2.1246250E+01  2.4041704E+01
 2.1257751E+01  2.4084263E+01
 2.1269251E+01  2.4139326E+01
 2.1280750E+01  2.4173140E+01
 2.1292252E+01  2.4158163E+01
 2.1303751E+01  2.4118395E+01
 2.1315250E+01  2.4051712E+01
 2.1326752E+01  2.4034302E+01
 2.1338251E+01  2.4049374E+01
 2.1349751E+01  2.4088377E+01
 2.1361252E+01  2.4113407E+01
 2.1372751E+01  2.4149565E+01
 2.1384251E+01  2.4068962E+01
 2.1395752E+01  2.4020990E+01
 2.1407251E+01  2.3939486E+01
 2.1418751E+01  2.3967783E+01
 2.1430250E+01  2.3985991E+01
 2.1441751E+01  2.4017628E+01
 2.1453251E+01  2.4054573E+01
 2.1464750E+01  2.4061405E+01
 2.1476252E+01  2.4096718E+01
 2.1487751E+01  2.4124546E+01
 2.1499250E+01  2.4146643E+01
 2.1510752E+01  2.4138466E+01
 2.1522251E+01  2.4163141E+01
 2.1533751E+01  2.4188103E+01
 2.1545252E+01  2.4182571E+01
 2.1556751E+01  2.4163219E+01
 2.1568251E+01  2.4178274E+01
 2.1579752E+01  2.4218435E+01
 2.1591251E+01  2.4275354E+01
 2.1602751E+01  2.4331903E+01
 2.1614250E+01  2.4321880E+01
 2.1625751E+01  2.4309801E+01
 2.1637251E+01  2.4286049E+01
 2.1648750E+01  2.4293810E+01
 2.1660252E+01  2.4269081E+01
 2.1671751E+01  2.4276884E+01
 2.1683250E+01  2.4263885E+01
 2.1694752E+01  2.4264229E+01
 2.1706251E+01  2.4298437E+01
 2.1717751E+01  2.4349035E+01
 2.1729252E+01  2.4395512E+01
 2.1740751E+01  2.4400454E+01
 2.1752251E+01  2.4393261E+01
 2.1763752E+01  2.4385891E+01
 2.1775251E+01  2.4386541E+01
 2.1786751E+01  2.4372490E+01
 2.1798250E+01  2.4343365E+01
 2.1809752E+01  2.4347986E+01
 2.1821251E+01  2.4364477E+01
 2.1832750E+01  2.4343884E+01
 2.1844252E+01  2.4288853E+01
 2.1855751E+01  2.4263990E+01
 2.1867250E+01  2.4270973E+01
 2.1878752E+01  2.4277893E+01
 2.1890251E+01  2.4250242E+01
 2.1901751E+01  2.4261707E+01
 2.1913252E+01  2.4301632E+01
 2.1924751E+01  2.4365973E+01
 2.1936251E+01  2.4384918E+01
 2.1947752E+01  2.4382790E+01
 2.1959251E+01  2.4387693E+01
 2.1970751E+01  2.4392015E+01
 2.1982250E+01  2.4383789E+01
 2.1993752E+01  2.4382816E+01
 2.2005251E+01  2.4386292E+01
 2.2016750E+01  2.4419403E+01
 2.2028252E+01  2.4451620E+01
 2.2039751E+01  2.4462923E+01
 2.2051250E+01  2.4517937E+01
 2.2062752E+01  2.4480045E+01
 2.2074251E+01  2.4454851E+01
 2.2085751E+01  2.4422478E+01
 2.2097252E+01  2.4440838E+01
 2.2108751E+01  2.4505108E+01
 2.2120251E+01  2.4530685E+01
 2.2131752E+01  2.4551750E+01
 2.2143251E+01  2.4577085E+01
 2.2154751E+01  2.4562309E+01
 2.2166250E+01  2.4538067E+01
 2.2177752E+01  2.4507137E+01
 2.2189251E+01  2.4537880E+01
 2.2200750E+01  2.4584898E+01
 2.2212252E+01  2.4619947E+01
 2.2223751E+01  2.4632368E+01
 2.2235250E+01  2.4616598E+01
 2.2246752E+01  2.4591581E+01
 2.2258251E+01  2.4570198E+01
 2.2269751E+01  2.4603985E+01
 2.2281252E+01  2.4626587E+01
 2.2292751E+01  2.4663151E+01
 2.2304251E+01  2.4678452E+01
 2.2315752E+01  2.4682920E+01
 2.2327251E+01  2.4620720E+01
 2.2338751E+01  2.4613768E+01
 2.2350250E+01  2.4619368E+01
 2.2361752E+01  2.4664745E+01
 2.2373251E+01  2.4713636E+01
 2.2384750E+01  2.4729763E+01
 2.2396252E+01  2.4750765E+01
 2.2407751E+01  2.4663977E+01
 2.2419250E+01  2.4674198E+01
 2.2430752E+01  2.4697670E+01
 2.2442251E+01  2.4808722E+01
 2.2453751E+01  2.4827509E+01
 2.2465252E+01  2.4836229E+01
 2.2476751E+01  2.4815550E+01
 2.2488251E+01  2.4869377E+01
 2.2499752E+01  2.4914732E+01
 2.2511251E+01  2.4936449E+01
 2.2522751E+01  2.4973354E+01
 2.2534250E+01  2.4955439E+01
 2.2545752E+01  2.4992874E+01
 2.2557251E+01  2.4985779E+01
 2.2568750E+01  2.5006512E+01
 2.2580252E+01  2.4984425E+01
 2.2591751E+01  2.4958731E+01
 2.2603251E+01  2.4967192E+01
 2.2614752E+01  2.4999241E+01
 2.2626251E+01  2.5059742E+01
 2.2637751E+01  2.5125719E+01
 2.2649252E+01  2.5153786E+01
 2.2660751E+01  2.5164230E+01
 2.2672251E+01  2.5187201E+01
 2.2683752E+01  2.5273405E+01
 2.2695251E+01  2.5356133E+01
 2.2706751E+01  2.5344019E+01
 2.2718250E+01  2.5388626E+01
 2.2729752E+01  2.5374390E+01
 2.2741251E+01  2.5399982E+01
 2.2752750E+01  2.5406200E+01
 2.2764252E+01  2.5418228E+01
 2.2775751E+01  2.5412500E+01
 2.2787251E+01  2.5408665E+01
 2.2798752E+01  2.5444904E+01
 2.2810251E+01  2.5494020E+01
 2.2821751E+01  2.5563425E+01
 2.2833252E+01  2.5615841E+01
 2.2844751E+01  2.5656845E+01
 2.2856251E+01  2.5668737E+01
 2.2867750E+01  2.5738834E+01
 2.2879251E+01  2.5791069E+01
 2.2890751E+01  2.5886885E+01
 2.2902250E+01  2.5928942E+01
 2.2913752E+01  2.6045921E+01
 2.2925251E+01  2.6147881E+01
 2.2936750E+01  2.6200726E+01
 2.2948252E+01  2.6288918E+01
 2.2959751E+01  2.6292704E+01
 2.2971251E+01  2.6401087E+01
 2.2982752E+01  2.6447552E+01
 2.2994251E+01  2.6588814E+01
