F:\20151113_APS_34IDE\\Brian\Particle1\OCV\Data_0018.tif
2-Theta Angle (Degrees)
Intensity
       2000
 5.7500005E-03  0.0000000E+00
 1.7250001E-02  0.0000000E+00
 2.8750001E-02  0.0000000E+00
 4.0250003E-02  0.0000000E+00
 5.1750004E-02  0.0000000E+00
 6.3250005E-02  0.0000000E+00
 7.4750006E-02  0.0000000E+00
 8.6250007E-02  0.0000000E+00
 9.7750008E-02  0.0000000E+00
 1.0925001E-01  0.0000000E+00
 1.2075000E-01  0.0000000E+00
 1.3225001E-01  0.0000000E+00
 1.4375001E-01  0.0000000E+00
 1.5525001E-01  0.0000000E+00
 1.6675001E-01  0.0000000E+00
 1.7825001E-01  0.0000000E+00
 1.8975002E-01  0.0000000E+00
 2.0125002E-01  0.0000000E+00
 2.1275002E-01  0.0000000E+00
 2.2425000E-01  0.0000000E+00
 2.3575000E-01  0.0000000E+00
 2.4725001E-01  0.0000000E+00
 2.5875002E-01  0.0000000E+00
 2.7025002E-01  0.0000000E+00
 2.8175002E-01  0.0000000E+00
 2.9325002E-01  0.0000000E+00
 3.0475003E-01  0.0000000E+00
 3.1625003E-01  0.0000000E+00
 3.2775003E-01  0.0000000E+00
 3.3925003E-01  0.0000000E+00
 3.5075003E-01  0.0000000E+00
 3.6225003E-01  0.0000000E+00
 3.7375003E-01  0.0000000E+00
 3.8525003E-01  0.0000000E+00
 3.9675003E-01  0.0000000E+00
 4.0825003E-01  0.0000000E+00
 4.1975003E-01  0.0000000E+00
 4.3125004E-01  0.0000000E+00
 4.4275001E-01  0.0000000E+00
 4.5425001E-01  0.0000000E+00
 4.6575001E-01  0.0000000E+00
 4.7725001E-01  0.0000000E+00
 4.8875001E-01  0.0000000E+00
 5.0025004E-01  0.0000000E+00
 5.1175004E-01  0.0000000E+00
 5.2325004E-01  0.0000000E+00
 5.3475004E-01  0.0000000E+00
 5.4625005E-01  0.0000000E+00
 5.5775005E-01  0.0000000E+00
 5.6925005E-01  0.0000000E+00
 5.8075005E-01  0.0000000E+00
 5.9225005E-01  0.0000000E+00
 6.0375005E-01  0.0000000E+00
 6.1525005E-01  0.0000000E+00
 6.2675005E-01  0.0000000E+00
 6.3825005E-01  0.0000000E+00
 6.4975005E-01  0.0000000E+00
 6.6125005E-01  0.0000000E+00
 6.7275006E-01  0.0000000E+00
 6.8425006E-01  0.0000000E+00
 6.9575006E-01  0.0000000E+00
 7.0725006E-01  0.0000000E+00
 7.1875006E-01  0.0000000E+00
 7.3025006E-01  0.0000000E+00
 7.4175006E-01  0.0000000E+00
 7.5325006E-01  0.0000000E+00
 7.6475006E-01  0.0000000E+00
 7.7625006E-01  0.0000000E+00
 7.8775007E-01  0.0000000E+00
 7.9925007E-01  0.0000000E+00
 8.1075007E-01  0.0000000E+00
 8.2225007E-01  0.0000000E+00
 8.3375007E-01  0.0000000E+00
 8.4525007E-01  0.0000000E+00
 8.5675007E-01  0.0000000E+00
 8.6825007E-01  0.0000000E+00
 8.7975001E-01  0.0000000E+00
 8.9125001E-01  0.0000000E+00
 9.0275002E-01  0.0000000E+00
 9.1425002E-01  0.0000000E+00
 9.2575002E-01  0.0000000E+00
 9.3725002E-01  0.0000000E+00
 9.4875002E-01  0.0000000E+00
 9.6025002E-01  0.0000000E+00
 9.7175002E-01  0.0000000E+00
 9.8325002E-01  0.0000000E+00
 9.9475002E-01  0.0000000E+00
 1.0062500E+00  0.0000000E+00
 1.0177500E+00  0.0000000E+00
 1.0292500E+00  0.0000000E+00
 1.0407500E+00  0.0000000E+00
 1.0522500E+00  0.0000000E+00
 1.0637500E+00  0.0000000E+00
 1.0752500E+00  0.0000000E+00
 1.0867500E+00  0.0000000E+00
 1.0982500E+00  0.0000000E+00
 1.1097500E+00  0.0000000E+00
 1.1212500E+00  0.0000000E+00
 1.1327500E+00  0.0000000E+00
 1.1442500E+00  0.0000000E+00
 1.1557500E+00  0.0000000E+00
 1.1672500E+00  0.0000000E+00
 1.1787500E+00  0.0000000E+00
 1.1902500E+00  0.0000000E+00
 1.2017500E+00  0.0000000E+00
 1.2132500E+00  0.0000000E+00
 1.2247500E+00  0.0000000E+00
 1.2362500E+00  0.0000000E+00
 1.2477500E+00  0.0000000E+00
 1.2592500E+00  0.0000000E+00
 1.2707500E+00  0.0000000E+00
 1.2822500E+00  0.0000000E+00
 1.2937500E+00  0.0000000E+00
 1.3052500E+00  0.0000000E+00
 1.3167500E+00  0.0000000E+00
 1.3282501E+00  0.0000000E+00
 1.3397501E+00  0.0000000E+00
 1.3512501E+00  0.0000000E+00
 1.3627501E+00  0.0000000E+00
 1.3742501E+00  0.0000000E+00
 1.3857501E+00  0.0000000E+00
 1.3972501E+00  0.0000000E+00
 1.4087501E+00  0.0000000E+00
 1.4202501E+00  0.0000000E+00
 1.4317501E+00  0.0000000E+00
 1.4432501E+00  0.0000000E+00
 1.4547501E+00  0.0000000E+00
 1.4662501E+00  0.0000000E+00
 1.4777501E+00  0.0000000E+00
 1.4892501E+00  0.0000000E+00
 1.5007501E+00  0.0000000E+00
 1.5122501E+00  0.0000000E+00
 1.5237501E+00  0.0000000E+00
 1.5352501E+00  0.0000000E+00
 1.5467501E+00  0.0000000E+00
 1.5582501E+00  0.0000000E+00
 1.5697501E+00  0.0000000E+00
 1.5812501E+00  0.0000000E+00
 1.5927501E+00  0.0000000E+00
 1.6042501E+00  0.0000000E+00
 1.6157501E+00  0.0000000E+00
 1.6272501E+00  0.0000000E+00
 1.6387501E+00  0.0000000E+00
 1.6502501E+00  0.0000000E+00
 1.6617501E+00  0.0000000E+00
 1.6732501E+00  0.0000000E+00
 1.6847501E+00  0.0000000E+00
 1.6962501E+00  0.0000000E+00
 1.7077501E+00  0.0000000E+00
 1.7192501E+00  0.0000000E+00
 1.7307501E+00  0.0000000E+00
 1.7422501E+00  0.0000000E+00
 1.7537501E+00  0.0000000E+00
 1.7652501E+00  0.0000000E+00
 1.7767501E+00  0.0000000E+00
 1.7882501E+00  0.0000000E+00
 1.7997501E+00  0.0000000E+00
 1.8112501E+00  0.0000000E+00
 1.8227501E+00  0.0000000E+00
 1.8342501E+00  0.0000000E+00
 1.8457501E+00  0.0000000E+00
 1.8572501E+00  0.0000000E+00
 1.8687501E+00  0.0000000E+00
 1.8802501E+00  0.0000000E+00
 1.8917501E+00  0.0000000E+00
 1.9032501E+00  0.0000000E+00
 1.9147501E+00  0.0000000E+00
 1.9262501E+00  0.0000000E+00
 1.9377501E+00  0.0000000E+00
 1.9492501E+00  0.0000000E+00
 1.9607501E+00  0.0000000E+00
 1.9722501E+00  0.0000000E+00
 1.9837501E+00  0.0000000E+00
 1.9952501E+00  0.0000000E+00
 2.0067501E+00  0.0000000E+00
 2.0182500E+00  0.0000000E+00
 2.0297501E+00  0.0000000E+00
 2.0412500E+00  0.0000000E+00
 2.0527501E+00  0.0000000E+00
 2.0642500E+00  0.0000000E+00
 2.0757501E+00  0.0000000E+00
 2.0872500E+00  0.0000000E+00
 2.0987501E+00  0.0000000E+00
 2.1102500E+00  0.0000000E+00
 2.1217501E+00  0.0000000E+00
 2.1332500E+00  0.0000000E+00
 2.1447501E+00  0.0000000E+00
 2.1562500E+00  0.0000000E+00
 2.1677501E+00  0.0000000E+00
 2.1792500E+00  0.0000000E+00
 2.1907501E+00  0.0000000E+00
 2.2022500E+00  0.0000000E+00
 2.2137501E+00  0.0000000E+00
 2.2252500E+00  0.0000000E+00
 2.2367501E+00  0.0000000E+00
 2.2482500E+00  0.0000000E+00
 2.2597501E+00  0.0000000E+00
 2.2712500E+00  0.0000000E+00
 2.2827501E+00  0.0000000E+00
 2.2942500E+00  0.0000000E+00
 2.3057501E+00  0.0000000E+00
 2.3172500E+00  0.0000000E+00
 2.3287501E+00  0.0000000E+00
 2.3402500E+00  0.0000000E+00
 2.3517501E+00  0.0000000E+00
 2.3632500E+00  0.0000000E+00
 2.3747501E+00  0.0000000E+00
 2.3862500E+00  0.0000000E+00
 2.3977501E+00  0.0000000E+00
 2.4092500E+00  0.0000000E+00
 2.4207501E+00  0.0000000E+00
 2.4322500E+00  0.0000000E+00
 2.4437501E+00  0.0000000E+00
 2.4552500E+00  0.0000000E+00
 2.4667501E+00  0.0000000E+00
 2.4782500E+00  0.0000000E+00
 2.4897501E+00  0.0000000E+00
 2.5012500E+00  0.0000000E+00
 2.5127501E+00  0.0000000E+00
 2.5242500E+00  0.0000000E+00
 2.5357502E+00  0.0000000E+00
 2.5472500E+00  0.0000000E+00
 2.5587502E+00  0.0000000E+00
 2.5702500E+00  0.0000000E+00
 2.5817502E+00  0.0000000E+00
 2.5932500E+00  0.0000000E+00
 2.6047502E+00  0.0000000E+00
 2.6162500E+00  0.0000000E+00
 2.6277502E+00  0.0000000E+00
 2.6392500E+00  0.0000000E+00
 2.6507502E+00  0.0000000E+00
 2.6622500E+00  0.0000000E+00
 2.6737502E+00  0.0000000E+00
 2.6852500E+00  0.0000000E+00
 2.6967502E+00  0.0000000E+00
 2.7082500E+00  0.0000000E+00
 2.7197502E+00  0.0000000E+00
 2.7312500E+00  0.0000000E+00
 2.7427502E+00  0.0000000E+00
 2.7542500E+00  0.0000000E+00
 2.7657502E+00  0.0000000E+00
 2.7772501E+00  0.0000000E+00
 2.7887502E+00  0.0000000E+00
 2.8002501E+00  0.0000000E+00
 2.8117502E+00  0.0000000E+00
 2.8232501E+00  3.1037304E+01
 2.8347502E+00  3.2774483E+01
 2.8462501E+00  3.3254299E+01
 2.8577502E+00  3.3583652E+01
 2.8692501E+00  3.4268440E+01
 2.8807502E+00  3.4314205E+01
 2.8922501E+00  3.4709675E+01
 2.9037502E+00  3.4556355E+01
 2.9152501E+00  3.5022251E+01
 2.9267502E+00  3.5071018E+01
 2.9382501E+00  3.5086723E+01
 2.9497502E+00  3.5392559E+01
 2.9612501E+00  3.5461708E+01
 2.9727502E+00  3.5710438E+01
 2.9842501E+00  3.5759495E+01
 2.9957502E+00  3.6041222E+01
 3.0072501E+00  3.6292229E+01
 3.0187502E+00  3.6536793E+01
 3.0302501E+00  3.6696045E+01
 3.0417502E+00  3.6748680E+01
 3.0532501E+00  3.6412457E+01
 3.0647502E+00  3.5887436E+01
 3.0762501E+00  3.5796986E+01
 3.0877502E+00  3.5769157E+01
 3.0992501E+00  3.6087273E+01
 3.1107502E+00  3.6089874E+01
 3.1222501E+00  3.6356228E+01
 3.1337502E+00  3.6086082E+01
 3.1452501E+00  3.5782944E+01
 3.1567502E+00  3.5291862E+01
 3.1682501E+00  3.5047855E+01
 3.1797502E+00  3.5092834E+01
 3.1912501E+00  3.5182587E+01
 3.2027502E+00  3.5238861E+01
 3.2142501E+00  3.5679893E+01
 3.2257502E+00  3.5463249E+01
 3.2372501E+00  3.5511600E+01
 3.2487502E+00  3.5220818E+01
 3.2602501E+00  3.5421741E+01
 3.2717502E+00  3.5433926E+01
 3.2832501E+00  3.5359009E+01
 3.2947502E+00  3.5188839E+01
 3.3062501E+00  3.5197094E+01
 3.3177502E+00  3.5063118E+01
 3.3292501E+00  3.5150082E+01
 3.3407502E+00  3.4888321E+01
 3.3522501E+00  3.4732193E+01
 3.3637502E+00  3.4414307E+01
 3.3752501E+00  3.4114849E+01
 3.3867502E+00  3.3968132E+01
 3.3982501E+00  3.4004486E+01
 3.4097502E+00  3.3973686E+01
 3.4212501E+00  3.3902611E+01
 3.4327502E+00  3.3868549E+01
 3.4442501E+00  3.4003693E+01
 3.4557502E+00  3.4070518E+01
 3.4672501E+00  3.4138351E+01
 3.4787502E+00  3.3858475E+01
 3.4902501E+00  3.4149696E+01
 3.5017502E+00  3.4087276E+01
 3.5132501E+00  3.4191872E+01
 3.5247502E+00  3.4127636E+01
 3.5362501E+00  3.3973598E+01
 3.5477502E+00  3.3808971E+01
 3.5592501E+00  3.3479782E+01
 3.5707502E+00  3.3161015E+01
 3.5822501E+00  3.2968693E+01
 3.5937502E+00  3.2803879E+01
 3.6052501E+00  3.2801624E+01
 3.6167502E+00  3.2801968E+01
 3.6282501E+00  3.3020195E+01
 3.6397502E+00  3.2972878E+01
 3.6512501E+00  3.3021034E+01
 3.6627502E+00  3.3058437E+01
 3.6742501E+00  3.3137691E+01
 3.6857502E+00  3.3403488E+01
 3.6972501E+00  3.3524757E+01
 3.7087502E+00  3.3542191E+01
 3.7202501E+00  3.3511143E+01
 3.7317502E+00  3.3096886E+01
 3.7432501E+00  3.3248802E+01
 3.7547503E+00  3.3133324E+01
 3.7662501E+00  3.3371166E+01
 3.7777503E+00  3.3179649E+01
 3.7892501E+00  3.3180492E+01
 3.8007503E+00  3.3111225E+01
 3.8122501E+00  3.3072422E+01
 3.8237503E+00  3.2874775E+01
 3.8352501E+00  3.2629768E+01
 3.8467503E+00  3.2421028E+01
 3.8582501E+00  3.2473263E+01
 3.8697503E+00  3.2522549E+01
 3.8812501E+00  3.2634171E+01
 3.8927503E+00  3.2419708E+01
 3.9042501E+00  3.2306087E+01
 3.9157503E+00  3.2166534E+01
 3.9272501E+00  3.2116486E+01
 3.9387503E+00  3.1928350E+01
 3.9502501E+00  3.2061474E+01
 3.9617503E+00  3.2222050E+01
 3.9732502E+00  3.2346054E+01
 3.9847503E+00  3.2328331E+01
 3.9962502E+00  3.2278084E+01
 4.0077500E+00  3.2469276E+01
 4.0192504E+00  3.2487537E+01
 4.0307503E+00  3.2372002E+01
 4.0422502E+00  3.2366821E+01
 4.0537500E+00  3.2348782E+01
 4.0652504E+00  3.2431335E+01
 4.0767503E+00  3.2325882E+01
 4.0882502E+00  3.2322418E+01
 4.0997500E+00  3.2175381E+01
 4.1112504E+00  3.2009861E+01
 4.1227503E+00  3.1795448E+01
 4.1342502E+00  3.1809210E+01
 4.1457500E+00  3.2006771E+01
 4.1572504E+00  3.2234871E+01
 4.1687503E+00  3.2344986E+01
 4.1802502E+00  3.2323093E+01
 4.1917500E+00  3.2223660E+01
 4.2032504E+00  3.2262020E+01
 4.2147503E+00  3.2305260E+01
 4.2262502E+00  3.2498810E+01
 4.2377501E+00  3.2528095E+01
 4.2492504E+00  3.2499187E+01
 4.2607503E+00  3.2266232E+01
 4.2722502E+00  3.2245869E+01
 4.2837501E+00  3.2232094E+01
 4.2952504E+00  3.2348232E+01
 4.3067503E+00  3.2383785E+01
 4.3182502E+00  3.2540749E+01
 4.3297501E+00  3.2603832E+01
 4.3412504E+00  3.2698421E+01
 4.3527503E+00  3.2623009E+01
 4.3642502E+00  3.2616882E+01
 4.3757501E+00  3.2451801E+01
 4.3872504E+00  3.2383419E+01
 4.3987503E+00  3.2271778E+01
 4.4102502E+00  3.2291931E+01
 4.4217501E+00  3.2189171E+01
 4.4332504E+00  3.2242882E+01
 4.4447503E+00  3.2165367E+01
 4.4562502E+00  3.2259380E+01
 4.4677501E+00  3.2467617E+01
 4.4792504E+00  3.2674141E+01
 4.4907503E+00  3.2624374E+01
 4.5022502E+00  3.2513882E+01
 4.5137501E+00  3.2340134E+01
 4.5252504E+00  3.2488049E+01
 4.5367503E+00  3.2470348E+01
 4.5482502E+00  3.2492676E+01
 4.5597501E+00  3.2374847E+01
 4.5712504E+00  3.2470322E+01
 4.5827503E+00  3.2538204E+01
 4.5942502E+00  3.2708050E+01
 4.6057501E+00  3.2717270E+01
 4.6172504E+00  3.2687351E+01
 4.6287503E+00  3.2651268E+01
 4.6402502E+00  3.2624420E+01
 4.6517501E+00  3.2742752E+01
 4.6632504E+00  3.2911552E+01
 4.6747503E+00  3.3008511E+01
 4.6862502E+00  3.2993874E+01
 4.6977501E+00  3.2859844E+01
 4.7092505E+00  3.2868473E+01
 4.7207503E+00  3.2784496E+01
 4.7322502E+00  3.2683125E+01
 4.7437501E+00  3.2569595E+01
 4.7552505E+00  3.2484028E+01
 4.7667503E+00  3.2591862E+01
 4.7782502E+00  3.2539673E+01
 4.7897501E+00  3.2610027E+01
 4.8012505E+00  3.2508564E+01
 4.8127503E+00  3.2517395E+01
 4.8242502E+00  3.2598591E+01
 4.8357501E+00  3.2672951E+01
 4.8472505E+00  3.2782421E+01
 4.8587503E+00  3.2866627E+01
 4.8702502E+00  3.2768105E+01
 4.8817501E+00  3.2680206E+01
 4.8932505E+00  3.2523914E+01
 4.9047503E+00  3.2504627E+01
 4.9162502E+00  3.2559837E+01
 4.9277501E+00  3.2592789E+01
 4.9392505E+00  3.2562546E+01
 4.9507504E+00  3.2627968E+01
 4.9622502E+00  3.2671551E+01
 4.9737501E+00  3.2798927E+01
 4.9852505E+00  3.2871761E+01
 4.9967504E+00  3.2919899E+01
 5.0082502E+00  3.3017216E+01
 5.0197501E+00  3.3055187E+01
 5.0312505E+00  3.3130623E+01
 5.0427504E+00  3.3291958E+01
 5.0542502E+00  3.3343384E+01
 5.0657501E+00  3.3388428E+01
 5.0772505E+00  3.3438122E+01
 5.0887504E+00  3.3405796E+01
 5.1002502E+00  3.3439266E+01
 5.1117501E+00  3.3256565E+01
 5.1232505E+00  3.3294334E+01
 5.1347504E+00  3.3372505E+01
 5.1462502E+00  3.3741150E+01
 5.1577501E+00  3.3915253E+01
 5.1692505E+00  3.3914333E+01
 5.1807504E+00  3.3886044E+01
 5.1922503E+00  3.3806305E+01
 5.2037501E+00  3.3782612E+01
 5.2152505E+00  3.3746819E+01
 5.2267504E+00  3.3745373E+01
 5.2382503E+00  3.3939610E+01
 5.2497501E+00  3.3925957E+01
 5.2612505E+00  3.4058704E+01
 5.2727504E+00  3.4008846E+01
 5.2842503E+00  3.4041637E+01
 5.2957501E+00  3.4119450E+01
 5.3072500E+00  3.4186630E+01
 5.3187504E+00  3.4340843E+01
 5.3302503E+00  3.4353432E+01
 5.3417501E+00  3.4483875E+01
 5.3532500E+00  3.4478500E+01
 5.3647504E+00  3.4514763E+01
 5.3762503E+00  3.4506653E+01
 5.3877501E+00  3.4536587E+01
 5.3992500E+00  3.4510891E+01
 5.4107504E+00  3.4414547E+01
 5.4222503E+00  3.4422615E+01
 5.4337502E+00  3.4425598E+01
 5.4452500E+00  3.4460258E+01
 5.4567504E+00  3.4407360E+01
 5.4682503E+00  3.4363247E+01
 5.4797502E+00  3.4392635E+01
 5.4912500E+00  3.4307781E+01
 5.5027504E+00  3.4324665E+01
 5.5142503E+00  3.4307358E+01
 5.5257502E+00  3.4443977E+01
 5.5372500E+00  3.4520893E+01
 5.5487504E+00  3.4602070E+01
 5.5602503E+00  3.4717281E+01
 5.5717502E+00  3.4703300E+01
 5.5832500E+00  3.4707447E+01
 5.5947504E+00  3.4617149E+01
 5.6062503E+00  3.4757729E+01
 5.6177502E+00  3.4794506E+01
 5.6292500E+00  3.4922058E+01
 5.6407504E+00  3.4945663E+01
 5.6522503E+00  3.5015106E+01
 5.6637502E+00  3.5231625E+01
 5.6752501E+00  3.5384666E+01
 5.6867504E+00  3.5406940E+01
 5.6982503E+00  3.5362324E+01
 5.7097502E+00  3.5365139E+01
 5.7212501E+00  3.5443768E+01
 5.7327504E+00  3.5497025E+01
 5.7442503E+00  3.5509544E+01
 5.7557502E+00  3.5498032E+01
 5.7672501E+00  3.5558201E+01
 5.7787504E+00  3.5578415E+01
 5.7902503E+00  3.5718204E+01
 5.8017502E+00  3.5805305E+01
 5.8132501E+00  3.5857834E+01
 5.8247504E+00  3.5861034E+01
 5.8362503E+00  3.6037605E+01
 5.8477502E+00  3.6093468E+01
 5.8592501E+00  3.6300900E+01
 5.8707504E+00  3.6306602E+01
 5.8822503E+00  3.6421661E+01
 5.8937502E+00  3.6845524E+01
 5.9052501E+00  3.7043087E+01
 5.9167504E+00  3.7739475E+01
 5.9282503E+00  4.0061733E+01
 5.9397502E+00  4.0726559E+01
 5.9512501E+00  4.3937286E+01
 5.9627504E+00  4.6306667E+01
 5.9742503E+00  4.6943512E+01
 5.9857502E+00  4.7821995E+01
 5.9972501E+00  4.4636005E+01
 6.0087504E+00  4.3932636E+01
 6.0202503E+00  4.1517048E+01
 6.0317502E+00  3.9300034E+01
 6.0432501E+00  3.8678173E+01
 6.0547504E+00  3.7670654E+01
 6.0662503E+00  3.7356552E+01
 6.0777502E+00  3.7176853E+01
 6.0892501E+00  3.7058022E+01
 6.1007504E+00  3.6953045E+01
 6.1122503E+00  3.6844566E+01
 6.1237502E+00  3.6784153E+01
 6.1352501E+00  3.6748745E+01
 6.1467505E+00  3.6772129E+01
 6.1582503E+00  3.6826168E+01
 6.1697502E+00  3.6954437E+01
 6.1812501E+00  3.7038811E+01
 6.1927505E+00  3.7208168E+01
 6.2042503E+00  3.7209785E+01
 6.2157502E+00  3.7355194E+01
 6.2272501E+00  3.7428650E+01
 6.2387505E+00  3.7475117E+01
 6.2502503E+00  3.7552521E+01
 6.2617502E+00  3.7632870E+01
 6.2732501E+00  3.7795746E+01
 6.2847505E+00  3.7893688E+01
 6.2962503E+00  3.7889832E+01
 6.3077502E+00  3.7844387E+01
 6.3192501E+00  3.7826698E+01
 6.3307505E+00  3.7772301E+01
 6.3422503E+00  3.7808914E+01
 6.3537502E+00  3.7865498E+01
 6.3652501E+00  3.8030880E+01
 6.3767505E+00  3.8160603E+01
 6.3882504E+00  3.8233315E+01
 6.3997502E+00  3.8337994E+01
 6.4112501E+00  3.8454292E+01
 6.4227505E+00  3.8490509E+01
 6.4342504E+00  3.8480728E+01
 6.4457502E+00  3.8424774E+01
 6.4572501E+00  3.8432545E+01
 6.4687505E+00  3.8546879E+01
 6.4802504E+00  3.8663177E+01
 6.4917502E+00  3.8822117E+01
 6.5032501E+00  3.8977097E+01
 6.5147505E+00  3.9093513E+01
 6.5262504E+00  3.9197762E+01
 6.5377502E+00  3.9282879E+01
 6.5492501E+00  3.9331890E+01
 6.5607505E+00  3.9486660E+01
 6.5722504E+00  3.9506630E+01
 6.5837502E+00  3.9643482E+01
 6.5952501E+00  3.9693718E+01
 6.6067505E+00  3.9825680E+01
 6.6182504E+00  3.9888062E+01
 6.6297503E+00  4.0003582E+01
 6.6412501E+00  4.0009281E+01
 6.6527505E+00  4.0071224E+01
 6.6642504E+00  4.0088440E+01
 6.6757503E+00  4.0111130E+01
 6.6872501E+00  4.0143719E+01
 6.6987505E+00  4.0207458E+01
 6.7102504E+00  4.0275127E+01
 6.7217503E+00  4.0402775E+01
 6.7332501E+00  4.0457878E+01
 6.7447505E+00  4.0643715E+01
 6.7562504E+00  4.0732510E+01
 6.7677503E+00  4.0830761E+01
 6.7792501E+00  4.0921364E+01
 6.7907505E+00  4.0990021E+01
 6.8022504E+00  4.1087696E+01
 6.8137503E+00  4.1179756E+01
 6.8252501E+00  4.1297241E+01
 6.8367505E+00  4.1485809E+01
 6.8482504E+00  4.1553432E+01
 6.8597503E+00  4.1637379E+01
 6.8712502E+00  4.1553715E+01
 6.8827505E+00  4.1653080E+01
 6.8942504E+00  4.1629929E+01
 6.9057503E+00  4.1785656E+01
 6.9172502E+00  4.1813545E+01
 6.9287505E+00  4.1874229E+01
 6.9402504E+00  4.1922955E+01
 6.9517503E+00  4.1902500E+01
 6.9632502E+00  4.1925037E+01
 6.9747505E+00  4.1984840E+01
 6.9862504E+00  4.2090702E+01
 6.9977503E+00  4.2209511E+01
 7.0092502E+00  4.2236485E+01
 7.0207505E+00  4.2343994E+01
 7.0322504E+00  4.2542522E+01
 7.0437503E+00  4.2637241E+01
 7.0552502E+00  4.2612625E+01
 7.0667505E+00  4.2692608E+01
 7.0782504E+00  4.2719757E+01
 7.0897503E+00  4.2879730E+01
 7.1012502E+00  4.2833611E+01
 7.1127505E+00  4.2928547E+01
 7.1242504E+00  4.2958920E+01
 7.1357503E+00  4.2962433E+01
 7.1472502E+00  4.2936661E+01
 7.1587505E+00  4.2896992E+01
 7.1702504E+00  4.2994247E+01
 7.1817503E+00  4.3089626E+01
 7.1932502E+00  4.3170078E+01
 7.2047505E+00  4.3263531E+01
 7.2162504E+00  4.3325989E+01
 7.2277503E+00  4.3485435E+01
 7.2392502E+00  4.3612843E+01
 7.2507505E+00  4.3751705E+01
 7.2622504E+00  4.3760426E+01
 7.2737503E+00  4.3805767E+01
 7.2852502E+00  4.3803787E+01
 7.2967505E+00  4.3838589E+01
 7.3082504E+00  4.3785938E+01
 7.3197503E+00  4.3817059E+01
 7.3312502E+00  4.3890312E+01
 7.3427505E+00  4.3878330E+01
 7.3542504E+00  4.3899284E+01
 7.3657503E+00  4.3880245E+01
 7.3772502E+00  4.4016247E+01
 7.3887506E+00  4.4165096E+01
 7.4002504E+00  4.4569427E+01
 7.4117503E+00  4.5437965E+01
 7.4232502E+00  4.5483360E+01
 7.4347506E+00  4.5263031E+01
 7.4462504E+00  4.4296486E+01
 7.4577503E+00  4.4215279E+01
 7.4692502E+00  4.4159348E+01
 7.4807506E+00  4.4324326E+01
 7.4922504E+00  4.4391666E+01
 7.5037503E+00  4.4488056E+01
 7.5152502E+00  4.4605469E+01
 7.5267506E+00  4.4697464E+01
 7.5382504E+00  4.4724117E+01
 7.5497503E+00  4.4563873E+01
 7.5612502E+00  4.4454475E+01
 7.5727506E+00  4.4336735E+01
 7.5842505E+00  4.4383297E+01
 7.5957503E+00  4.4355278E+01
 7.6072502E+00  4.4493446E+01
 7.6187506E+00  4.4526203E+01
 7.6302505E+00  4.4522305E+01
 7.6417503E+00  4.4502853E+01
 7.6532502E+00  4.4431812E+01
 7.6647506E+00  4.4402912E+01
 7.6762505E+00  4.4330357E+01
 7.6877503E+00  4.4380836E+01
 7.6992502E+00  4.4321495E+01
 7.7107506E+00  4.4376743E+01
 7.7222505E+00  4.4381634E+01
 7.7337503E+00  4.4495804E+01
 7.7452502E+00  4.4409721E+01
 7.7567506E+00  4.4314426E+01
 7.7682505E+00  4.4208927E+01
 7.7797503E+00  4.4282581E+01
 7.7912502E+00  4.4340614E+01
 7.8027506E+00  4.4420940E+01
 7.8142505E+00  4.4452812E+01
 7.8257504E+00  4.4436573E+01
 7.8372502E+00  4.4391003E+01
 7.8487506E+00  4.4321644E+01
 7.8602505E+00  4.4331974E+01
 7.8717504E+00  4.4259575E+01
 7.8832502E+00  4.4168926E+01
 7.8947506E+00  4.4080101E+01
 7.9062505E+00  4.4114506E+01
 7.9177504E+00  4.4180195E+01
 7.9292502E+00  4.4260033E+01
 7.9407506E+00  4.4327347E+01
 7.9522505E+00  4.4276875E+01
 7.9637504E+00  4.4211575E+01
 7.9752502E+00  4.4114162E+01
 7.9867506E+00  4.4085640E+01
 7.9982505E+00  4.4014034E+01
 8.0097504E+00  4.3870972E+01
 8.0212507E+00  4.3783772E+01
 8.0327501E+00  4.3643814E+01
 8.0442505E+00  4.3516582E+01
 8.0557508E+00  4.3386528E+01
 8.0672503E+00  4.3268742E+01
 8.0787506E+00  4.3109158E+01
 8.0902500E+00  4.3057232E+01
 8.1017504E+00  4.2924156E+01
 8.1132507E+00  4.2890663E+01
 8.1247501E+00  4.2740936E+01
 8.1362505E+00  4.2613213E+01
 8.1477509E+00  4.2544247E+01
 8.1592503E+00  4.2398697E+01
 8.1707506E+00  4.2353470E+01
 8.1822500E+00  4.2236671E+01
 8.1937504E+00  4.2187397E+01
 8.2052507E+00  4.2055447E+01
 8.2167501E+00  4.1867851E+01
 8.2282505E+00  4.1733440E+01
 8.2397509E+00  4.1663506E+01
 8.2512503E+00  4.1642857E+01
 8.2627506E+00  4.1523354E+01
 8.2742500E+00  4.1434151E+01
 8.2857504E+00  4.1329254E+01
 8.2972507E+00  4.1155220E+01
 8.3087502E+00  4.1093002E+01
 8.3202505E+00  4.0935379E+01
 8.3317509E+00  4.0838215E+01
 8.3432503E+00  4.0634338E+01
 8.3547506E+00  4.0496170E+01
 8.3662500E+00  4.0389126E+01
 8.3777504E+00  4.0260941E+01
 8.3892508E+00  4.0107300E+01
 8.4007502E+00  3.9940014E+01
 8.4122505E+00  3.9722832E+01
 8.4237509E+00  3.9519798E+01
 8.4352503E+00  3.9301311E+01
 8.4467506E+00  3.9125847E+01
 8.4582500E+00  3.8936615E+01
 8.4697504E+00  3.8826889E+01
 8.4812508E+00  3.8626587E+01
 8.4927502E+00  3.8544659E+01
 8.5042505E+00  3.8363499E+01
 8.5157509E+00  3.8272427E+01
 8.5272503E+00  3.8062420E+01
 8.5387506E+00  3.7950344E+01
 8.5502501E+00  3.7685696E+01
 8.5617504E+00  3.7430237E+01
 8.5732508E+00  3.7143234E+01
 8.5847502E+00  3.6900887E+01
 8.5962505E+00  3.6698860E+01
 8.6077509E+00  3.6513081E+01
 8.6192503E+00  3.6458317E+01
 8.6307507E+00  3.6391239E+01
 8.6422501E+00  3.6245995E+01
 8.6537504E+00  3.6018265E+01
 8.6652508E+00  3.5786560E+01
 8.6767502E+00  3.5610943E+01
 8.6882505E+00  3.5473732E+01
 8.6997509E+00  3.5290337E+01
 8.7112503E+00  3.5047707E+01
 8.7227507E+00  3.4844551E+01
 8.7342501E+00  3.4680897E+01
 8.7457504E+00  3.4496552E+01
 8.7572508E+00  3.4285881E+01
 8.7687502E+00  3.4179035E+01
 8.7802505E+00  3.4057167E+01
 8.7917500E+00  3.3948380E+01
 8.8032503E+00  3.3776119E+01
 8.8147507E+00  3.3703175E+01
 8.8262501E+00  3.3535389E+01
 8.8377504E+00  3.3320683E+01
 8.8492508E+00  3.3090931E+01
 8.8607502E+00  3.2904034E+01
 8.8722506E+00  3.2782368E+01
 8.8837500E+00  3.2607864E+01
 8.8952503E+00  3.2490524E+01
 8.9067507E+00  3.2336418E+01
 8.9182501E+00  3.2182690E+01
 8.9297504E+00  3.1917578E+01
 8.9412508E+00  3.1705822E+01
 8.9527502E+00  3.1504908E+01
 8.9642506E+00  3.1428205E+01
 8.9757500E+00  3.1276962E+01
 8.9872503E+00  3.1222420E+01
 8.9987507E+00  3.1093647E+01
 9.0102501E+00  3.0947521E+01
 9.0217505E+00  3.0803139E+01
 9.0332508E+00  3.0658201E+01
 9.0447502E+00  3.0632917E+01
 9.0562506E+00  3.0480890E+01
 9.0677500E+00  3.0380407E+01
 9.0792503E+00  3.0169893E+01
 9.0907507E+00  3.0004398E+01
 9.1022501E+00  2.9851837E+01
 9.1137505E+00  2.9726292E+01
 9.1252508E+00  2.9643103E+01
 9.1367502E+00  2.9492657E+01
 9.1482506E+00  2.9500130E+01
 9.1597500E+00  2.9377127E+01
 9.1712503E+00  2.9273138E+01
 9.1827507E+00  2.9021406E+01
 9.1942501E+00  2.8877367E+01
 9.2057505E+00  2.8767469E+01
 9.2172508E+00  2.8705227E+01
 9.2287502E+00  2.8572821E+01
 9.2402506E+00  2.8488609E+01
 9.2517500E+00  2.8361853E+01
 9.2632504E+00  2.8357279E+01
 9.2747507E+00  2.8290934E+01
 9.2862501E+00  2.8206264E+01
 9.2977505E+00  2.8082985E+01
 9.3092508E+00  2.7967344E+01
 9.3207502E+00  2.7870922E+01
 9.3322506E+00  2.7816429E+01
 9.3437500E+00  2.7713076E+01
 9.3552504E+00  2.7661505E+01
 9.3667507E+00  2.7559839E+01
 9.3782501E+00  2.7513287E+01
 9.3897505E+00  2.7360033E+01
 9.4012508E+00  2.7254496E+01
 9.4127502E+00  2.7052950E+01
 9.4242506E+00  2.7024216E+01
 9.4357500E+00  2.6931545E+01
 9.4472504E+00  2.6943350E+01
 9.4587507E+00  2.6919413E+01
 9.4702501E+00  2.6871635E+01
 9.4817505E+00  2.6835711E+01
 9.4932508E+00  2.6755934E+01
 9.5047503E+00  2.6689791E+01
 9.5162506E+00  2.6595734E+01
 9.5277500E+00  2.6505016E+01
 9.5392504E+00  2.6418722E+01
 9.5507507E+00  2.6351721E+01
 9.5622501E+00  2.6229197E+01
 9.5737505E+00  2.6115398E+01
 9.5852509E+00  2.5991726E+01
 9.5967503E+00  2.6011066E+01
 9.6082506E+00  2.5980736E+01
 9.6197500E+00  2.6015209E+01
 9.6312504E+00  2.5980129E+01
 9.6427507E+00  2.5992540E+01
 9.6542501E+00  2.5922794E+01
 9.6657505E+00  2.5832012E+01
 9.6772509E+00  2.5658672E+01
 9.6887503E+00  2.5560909E+01
 9.7002506E+00  2.5407564E+01
 9.7117500E+00  2.5440664E+01
 9.7232504E+00  2.5400066E+01
 9.7347507E+00  2.5365416E+01
 9.7462502E+00  2.5310091E+01
 9.7577505E+00  2.5269781E+01
 9.7692509E+00  2.5321650E+01
 9.7807503E+00  2.5276720E+01
 9.7922506E+00  2.5231178E+01
 9.8037500E+00  2.5178345E+01
 9.8152504E+00  2.5151669E+01
 9.8267508E+00  2.5129190E+01
 9.8382502E+00  2.5081083E+01
 9.8497505E+00  2.5074120E+01
 9.8612509E+00  2.5010641E+01
 9.8727503E+00  2.4964390E+01
 9.8842506E+00  2.4890018E+01
 9.8957500E+00  2.4824776E+01
 9.9072504E+00  2.4732449E+01
 9.9187508E+00  2.4704576E+01
 9.9302502E+00  2.4656553E+01
 9.9417505E+00  2.4601444E+01
 9.9532509E+00  2.4462349E+01
 9.9647503E+00  2.4389536E+01
 9.9762506E+00  2.4365084E+01
 9.9877501E+00  2.4380657E+01
 9.9992504E+00  2.4360666E+01
 1.0010751E+01  2.4364561E+01
 1.0022250E+01  2.4320328E+01
 1.0033751E+01  2.4307119E+01
 1.0045251E+01  2.4255877E+01
 1.0056750E+01  2.4276825E+01
 1.0068251E+01  2.4250580E+01
 1.0079750E+01  2.4264286E+01
 1.0091250E+01  2.4204872E+01
 1.0102751E+01  2.4222897E+01
 1.0114250E+01  2.4193892E+01
 1.0125751E+01  2.4174707E+01
 1.0137251E+01  2.4126093E+01
 1.0148750E+01  2.4156202E+01
 1.0160251E+01  2.4184986E+01
 1.0171750E+01  2.4180063E+01
 1.0183250E+01  2.4111643E+01
 1.0194751E+01  2.4001783E+01
 1.0206250E+01  2.3952515E+01
 1.0217751E+01  2.3911293E+01
 1.0229251E+01  2.3955666E+01
 1.0240750E+01  2.3935677E+01
 1.0252251E+01  2.3870255E+01
 1.0263750E+01  2.3805523E+01
 1.0275250E+01  2.3735327E+01
 1.0286751E+01  2.3736065E+01
 1.0298250E+01  2.3753254E+01
 1.0309751E+01  2.3781063E+01
 1.0321251E+01  2.3790854E+01
 1.0332750E+01  2.3729225E+01
 1.0344251E+01  2.3652851E+01
 1.0355750E+01  2.3574646E+01
 1.0367250E+01  2.3526279E+01
 1.0378751E+01  2.3531549E+01
 1.0390250E+01  2.3604122E+01
 1.0401751E+01  2.3613844E+01
 1.0413251E+01  2.3592072E+01
 1.0424750E+01  2.3503569E+01
 1.0436251E+01  2.3481253E+01
 1.0447750E+01  2.3459156E+01
 1.0459250E+01  2.3465153E+01
 1.0470751E+01  2.3415052E+01
 1.0482250E+01  2.3421257E+01
 1.0493751E+01  2.3348497E+01
 1.0505251E+01  2.3351177E+01
 1.0516750E+01  2.3302538E+01
 1.0528251E+01  2.3231007E+01
 1.0539750E+01  2.3197445E+01
 1.0551250E+01  2.3166138E+01
 1.0562751E+01  2.3274027E+01
 1.0574250E+01  2.3249937E+01
 1.0585751E+01  2.3320156E+01
 1.0597251E+01  2.3259575E+01
 1.0608750E+01  2.3315102E+01
 1.0620251E+01  2.3277586E+01
 1.0631750E+01  2.3315344E+01
 1.0643250E+01  2.3302816E+01
 1.0654751E+01  2.3305973E+01
 1.0666250E+01  2.3285082E+01
 1.0677751E+01  2.3276979E+01
 1.0689251E+01  2.3206896E+01
 1.0700750E+01  2.3121763E+01
 1.0712251E+01  2.3027874E+01
 1.0723750E+01  2.3009007E+01
 1.0735250E+01  2.2956915E+01
 1.0746751E+01  2.2939684E+01
 1.0758250E+01  2.2865131E+01
 1.0769751E+01  2.2851290E+01
 1.0781251E+01  2.2834969E+01
 1.0792750E+01  2.2794771E+01
 1.0804251E+01  2.2798719E+01
 1.0815750E+01  2.2762453E+01
 1.0827250E+01  2.2795174E+01
 1.0838751E+01  2.2761993E+01
 1.0850250E+01  2.2735296E+01
 1.0861751E+01  2.2721746E+01
 1.0873251E+01  2.2726225E+01
 1.0884750E+01  2.2714777E+01
 1.0896251E+01  2.2689163E+01
 1.0907750E+01  2.2736654E+01
 1.0919250E+01  2.2732557E+01
 1.0930751E+01  2.2773640E+01
 1.0942250E+01  2.2753946E+01
 1.0953751E+01  2.2766016E+01
 1.0965251E+01  2.2702114E+01
 1.0976750E+01  2.2655909E+01
 1.0988251E+01  2.2605883E+01
 1.0999750E+01  2.2593037E+01
 1.1011250E+01  2.2602226E+01
 1.1022751E+01  2.2618515E+01
 1.1034250E+01  2.2640085E+01
 1.1045751E+01  2.2594461E+01
 1.1057251E+01  2.2616943E+01
 1.1068750E+01  2.2653399E+01
 1.1080251E+01  2.2690674E+01
 1.1091750E+01  2.2729713E+01
 1.1103251E+01  2.2778343E+01
 1.1114751E+01  2.2836525E+01
 1.1126250E+01  2.2895325E+01
 1.1137751E+01  2.2845987E+01
 1.1149251E+01  2.2811386E+01
 1.1160750E+01  2.2761694E+01
 1.1172251E+01  2.2743053E+01
 1.1183750E+01  2.2707067E+01
 1.1195251E+01  2.2700113E+01
 1.1206751E+01  2.2694473E+01
 1.1218250E+01  2.2662045E+01
 1.1229751E+01  2.2594997E+01
 1.1241251E+01  2.2587265E+01
 1.1252750E+01  2.2599121E+01
 1.1264251E+01  2.2599159E+01
 1.1275750E+01  2.2559881E+01
 1.1287251E+01  2.2501894E+01
 1.1298751E+01  2.2491554E+01
 1.1310250E+01  2.2508427E+01
 1.1321751E+01  2.2544962E+01
 1.1333251E+01  2.2553331E+01
 1.1344750E+01  2.2579586E+01
 1.1356251E+01  2.2691332E+01
 1.1367750E+01  2.2829931E+01
 1.1379251E+01  2.2895805E+01
 1.1390751E+01  2.2913120E+01
 1.1402250E+01  2.3163277E+01
 1.1413751E+01  2.3212105E+01
 1.1425251E+01  2.3215029E+01
 1.1436750E+01  2.3081192E+01
 1.1448251E+01  2.3033865E+01
 1.1459750E+01  2.3058737E+01
 1.1471251E+01  2.2921238E+01
 1.1482751E+01  2.2924627E+01
 1.1494250E+01  2.2988117E+01
 1.1505751E+01  2.3051077E+01
 1.1517251E+01  2.3274294E+01
 1.1528750E+01  2.3611284E+01
 1.1540251E+01  2.4038160E+01
 1.1551750E+01  2.4780842E+01
 1.1563251E+01  2.5426483E+01
 1.1574751E+01  2.6407139E+01
 1.1586250E+01  2.6895985E+01
 1.1597751E+01  2.7283346E+01
 1.1609251E+01  2.6849066E+01
 1.1620750E+01  2.6271288E+01
 1.1632251E+01  2.5372986E+01
 1.1643750E+01  2.4679682E+01
 1.1655251E+01  2.4094561E+01
 1.1666751E+01  2.3696100E+01
 1.1678250E+01  2.3411768E+01
 1.1689751E+01  2.3170349E+01
 1.1701251E+01  2.2973772E+01
 1.1712750E+01  2.2848301E+01
 1.1724251E+01  2.2724373E+01
 1.1735750E+01  2.2662107E+01
 1.1747251E+01  2.2674063E+01
 1.1758751E+01  2.2664400E+01
 1.1770250E+01  2.2654469E+01
 1.1781751E+01  2.2605089E+01
 1.1793251E+01  2.2632284E+01
 1.1804750E+01  2.2693424E+01
 1.1816251E+01  2.2735420E+01
 1.1827750E+01  2.2765732E+01
 1.1839251E+01  2.2734243E+01
 1.1850751E+01  2.2678934E+01
 1.1862250E+01  2.2649509E+01
 1.1873751E+01  2.2598972E+01
 1.1885251E+01  2.2632528E+01
 1.1896750E+01  2.2664560E+01
 1.1908251E+01  2.2776127E+01
 1.1919750E+01  2.2903173E+01
 1.1931251E+01  2.3010849E+01
 1.1942751E+01  2.3148418E+01
 1.1954250E+01  2.3266071E+01
 1.1965751E+01  2.3460888E+01
 1.1977251E+01  2.3681454E+01
 1.1988750E+01  2.3871195E+01
 1.2000251E+01  2.3900671E+01
 1.2011750E+01  2.3925913E+01
 1.2023251E+01  2.3917240E+01
 1.2034751E+01  2.4157896E+01
 1.2046250E+01  2.4776640E+01
 1.2057751E+01  2.5993788E+01
 1.2069251E+01  2.8030230E+01
 1.2080750E+01  3.0964367E+01
 1.2092251E+01  3.2900234E+01
 1.2103750E+01  3.3203522E+01
 1.2115251E+01  3.1484779E+01
 1.2126751E+01  2.9422930E+01
 1.2138250E+01  2.7521982E+01
 1.2149751E+01  2.5663074E+01
 1.2161251E+01  2.4512447E+01
 1.2172750E+01  2.3647446E+01
 1.2184251E+01  2.3365744E+01
 1.2195750E+01  2.3130819E+01
 1.2207251E+01  2.3059526E+01
 1.2218751E+01  2.3018528E+01
 1.2230250E+01  2.2976065E+01
 1.2241751E+01  2.2932491E+01
 1.2253251E+01  2.2829697E+01
 1.2264750E+01  2.2808622E+01
 1.2276251E+01  2.2757517E+01
 1.2287750E+01  2.2769583E+01
 1.2299251E+01  2.2762426E+01
 1.2310751E+01  2.2744381E+01
 1.2322250E+01  2.2715155E+01
 1.2333751E+01  2.2748039E+01
 1.2345250E+01  2.2716095E+01
 1.2356750E+01  2.2729340E+01
 1.2368251E+01  2.2745089E+01
 1.2379750E+01  2.2819107E+01
 1.2391251E+01  2.2809551E+01
 1.2402751E+01  2.2753414E+01
 1.2414250E+01  2.2719004E+01
 1.2425751E+01  2.2720657E+01
 1.2437250E+01  2.2709953E+01
 1.2448750E+01  2.2717772E+01
 1.2460251E+01  2.2686813E+01
 1.2471750E+01  2.2715992E+01
 1.2483251E+01  2.2753342E+01
 1.2494751E+01  2.2776545E+01
 1.2506250E+01  2.2713377E+01
 1.2517751E+01  2.2648479E+01
 1.2529250E+01  2.2672487E+01
 1.2540751E+01  2.2712269E+01
 1.2552251E+01  2.2786093E+01
 1.2563750E+01  2.2828533E+01
 1.2575251E+01  2.2910637E+01
 1.2586751E+01  2.2972536E+01
 1.2598250E+01  2.2962530E+01
 1.2609751E+01  2.2963984E+01
 1.2621250E+01  2.2943666E+01
 1.2632751E+01  2.2992153E+01
 1.2644251E+01  2.2944811E+01
 1.2655750E+01  2.2953815E+01
 1.2667251E+01  2.2961166E+01
 1.2678751E+01  2.3003740E+01
 1.2690250E+01  2.3019424E+01
 1.2701751E+01  2.3007215E+01
 1.2713250E+01  2.3083025E+01
 1.2724751E+01  2.3109634E+01
 1.2736251E+01  2.3163382E+01
 1.2747750E+01  2.3176891E+01
 1.2759251E+01  2.3203569E+01
 1.2770751E+01  2.3196936E+01
 1.2782250E+01  2.3273529E+01
 1.2793751E+01  2.3287434E+01
 1.2805250E+01  2.3367859E+01
 1.2816751E+01  2.3401476E+01
 1.2828251E+01  2.3529696E+01
 1.2839750E+01  2.3581915E+01
 1.2851251E+01  2.3607141E+01
 1.2862751E+01  2.3580132E+01
 1.2874250E+01  2.3595592E+01
 1.2885751E+01  2.3590271E+01
 1.2897250E+01  2.3607014E+01
 1.2908751E+01  2.3682014E+01
 1.2920251E+01  2.3744148E+01
 1.2931750E+01  2.3863565E+01
 1.2943251E+01  2.3909828E+01
 1.2954751E+01  2.3955902E+01
 1.2966250E+01  2.3955902E+01
 1.2977751E+01  2.4029934E+01
 1.2989250E+01  2.4072912E+01
 1.3000751E+01  2.4123615E+01
 1.3012251E+01  2.4178593E+01
 1.3023750E+01  2.4196150E+01
 1.3035251E+01  2.4279314E+01
 1.3046751E+01  2.4297316E+01
 1.3058250E+01  2.4414934E+01
 1.3069751E+01  2.4449545E+01
 1.3081250E+01  2.4577290E+01
 1.3092751E+01  2.4743988E+01
 1.3104251E+01  2.4945234E+01
 1.3115750E+01  2.5048792E+01
 1.3127251E+01  2.5161757E+01
 1.3138751E+01  2.5151178E+01
 1.3150250E+01  2.5213120E+01
 1.3161751E+01  2.5250622E+01
 1.3173250E+01  2.5445978E+01
 1.3184751E+01  2.5648277E+01
 1.3196251E+01  2.5871267E+01
 1.3207750E+01  2.6032459E+01
 1.3219251E+01  2.6176338E+01
 1.3230751E+01  2.6276115E+01
 1.3242250E+01  2.6390667E+01
 1.3253751E+01  2.6487328E+01
 1.3265250E+01  2.6637537E+01
 1.3276751E+01  2.6733753E+01
 1.3288251E+01  2.6839909E+01
 1.3299750E+01  2.6967537E+01
 1.3311251E+01  2.7137131E+01
 1.3322751E+01  2.7303429E+01
 1.3334250E+01  2.7475042E+01
 1.3345751E+01  2.7635942E+01
 1.3357250E+01  2.7826643E+01
 1.3368751E+01  2.7878765E+01
 1.3380251E+01  2.8056559E+01
 1.3391750E+01  2.8166327E+01
 1.3403251E+01  2.8398489E+01
 1.3414751E+01  2.8505571E+01
 1.3426250E+01  2.8664597E+01
 1.3437751E+01  2.8788424E+01
 1.3449250E+01  2.8861916E+01
 1.3460751E+01  2.8917610E+01
 1.3472251E+01  2.8928234E+01
 1.3483750E+01  2.9063898E+01
 1.3495251E+01  2.9109327E+01
 1.3506751E+01  2.9254307E+01
 1.3518250E+01  2.9357347E+01
 1.3529751E+01  2.9490059E+01
 1.3541250E+01  2.9568666E+01
 1.3552751E+01  2.9639467E+01
 1.3564251E+01  2.9753565E+01
 1.3575750E+01  2.9774771E+01
 1.3587251E+01  2.9760942E+01
 1.3598751E+01  2.9695807E+01
 1.3610250E+01  2.9745768E+01
 1.3621751E+01  2.9754400E+01
 1.3633250E+01  2.9786615E+01
 1.3644751E+01  2.9693094E+01
 1.3656251E+01  2.9697201E+01
 1.3667750E+01  2.9749880E+01
 1.3679251E+01  2.9864616E+01
 1.3690751E+01  2.9860723E+01
 1.3702250E+01  2.9800617E+01
 1.3713751E+01  2.9707981E+01
 1.3725250E+01  2.9662758E+01
 1.3736751E+01  2.9638420E+01
 1.3748251E+01  2.9605755E+01
 1.3759750E+01  2.9618307E+01
 1.3771251E+01  2.9628012E+01
 1.3782751E+01  2.9685619E+01
 1.3794250E+01  2.9682055E+01
 1.3805751E+01  2.9606878E+01
 1.3817250E+01  2.9560358E+01
 1.3828751E+01  2.9504280E+01
 1.3840251E+01  2.9573294E+01
 1.3851750E+01  2.9788662E+01
 1.3863251E+01  3.0065828E+01
 1.3874751E+01  3.0590958E+01
 1.3886250E+01  3.1218622E+01
 1.3897751E+01  3.2484550E+01
 1.3909250E+01  3.3982620E+01
 1.3920751E+01  3.5937626E+01
 1.3932251E+01  3.7631737E+01
 1.3943750E+01  3.9006477E+01
 1.3955251E+01  3.9495495E+01
 1.3966751E+01  3.8880966E+01
 1.3978251E+01  3.7415138E+01
 1.3989751E+01  3.5189629E+01
 1.4001250E+01  3.3188812E+01
 1.4012751E+01  3.1269445E+01
 1.4024251E+01  3.0055639E+01
 1.4035750E+01  2.9171675E+01
 1.4047251E+01  2.8647947E+01
 1.4058751E+01  2.8357273E+01
 1.4070251E+01  2.8176605E+01
 1.4081751E+01  2.7945501E+01
 1.4093250E+01  2.7802689E+01
 1.4104751E+01  2.7661484E+01
 1.4116251E+01  2.7595291E+01
 1.4127750E+01  2.7540365E+01
 1.4139251E+01  2.7547846E+01
 1.4150751E+01  2.7436865E+01
 1.4162251E+01  2.7295319E+01
 1.4173751E+01  2.7137329E+01
 1.4185250E+01  2.6998232E+01
 1.4196751E+01  2.6944033E+01
 1.4208251E+01  2.6848104E+01
 1.4219750E+01  2.6826788E+01
 1.4231251E+01  2.6687937E+01
 1.4242751E+01  2.6592348E+01
 1.4254251E+01  2.6501360E+01
 1.4265751E+01  2.6481466E+01
 1.4277250E+01  2.6411249E+01
 1.4288751E+01  2.6367346E+01
 1.4300251E+01  2.6288538E+01
 1.4311750E+01  2.6289753E+01
 1.4323251E+01  2.6262493E+01
 1.4334751E+01  2.6261293E+01
 1.4346251E+01  2.6274357E+01
 1.4357751E+01  2.6253307E+01
 1.4369250E+01  2.6176582E+01
 1.4380751E+01  2.6081648E+01
 1.4392251E+01  2.6065857E+01
 1.4403750E+01  2.6052172E+01
 1.4415251E+01  2.6063696E+01
 1.4426751E+01  2.6038336E+01
 1.4438251E+01  2.6068621E+01
 1.4449751E+01  2.6073908E+01
 1.4461250E+01  2.6027830E+01
 1.4472751E+01  2.5940756E+01
 1.4484251E+01  2.5871374E+01
 1.4495750E+01  2.5831951E+01
 1.4507251E+01  2.5810923E+01
 1.4518751E+01  2.5764502E+01
 1.4530251E+01  2.5725836E+01
 1.4541751E+01  2.5668961E+01
 1.4553250E+01  2.5621216E+01
 1.4564751E+01  2.5583126E+01
 1.4576251E+01  2.5544863E+01
 1.4587750E+01  2.5515314E+01
 1.4599251E+01  2.5492048E+01
 1.4610751E+01  2.5483276E+01
 1.4622251E+01  2.5482061E+01
 1.4633751E+01  2.5485331E+01
 1.4645250E+01  2.5488714E+01
 1.4656751E+01  2.5453598E+01
 1.4668251E+01  2.5410303E+01
 1.4679750E+01  2.5408461E+01
 1.4691251E+01  2.5427740E+01
 1.4702751E+01  2.5406996E+01
 1.4714251E+01  2.5326008E+01
 1.4725751E+01  2.5228401E+01
 1.4737250E+01  2.5145514E+01
 1.4748751E+01  2.5159901E+01
 1.4760251E+01  2.5138592E+01
 1.4771750E+01  2.5166855E+01
 1.4783251E+01  2.5156963E+01
 1.4794751E+01  2.5210594E+01
 1.4806251E+01  2.5245451E+01
 1.4817751E+01  2.5243828E+01
 1.4829250E+01  2.5221773E+01
 1.4840751E+01  2.5201965E+01
 1.4852251E+01  2.5185097E+01
 1.4863750E+01  2.5143229E+01
 1.4875251E+01  2.5065277E+01
 1.4886751E+01  2.5012054E+01
 1.4898251E+01  2.5031681E+01
 1.4909751E+01  2.5063135E+01
 1.4921250E+01  2.5051134E+01
 1.4932751E+01  2.4982025E+01
 1.4944251E+01  2.4949951E+01
 1.4955750E+01  2.4889658E+01
 1.4967251E+01  2.4848555E+01
 1.4978751E+01  2.4823730E+01
 1.4990251E+01  2.4824501E+01
 1.5001751E+01  2.4837902E+01
 1.5013250E+01  2.4887369E+01
 1.5024751E+01  2.4941208E+01
 1.5036251E+01  2.4900925E+01
 1.5047750E+01  2.4848560E+01
 1.5059251E+01  2.4841858E+01
 1.5070751E+01  2.4826651E+01
 1.5082251E+01  2.4825621E+01
 1.5093751E+01  2.4747541E+01
 1.5105250E+01  2.4812895E+01
 1.5116751E+01  2.4760685E+01
 1.5128251E+01  2.4847555E+01
 1.5139750E+01  2.4982248E+01
 1.5151251E+01  2.5210100E+01
 1.5162751E+01  2.5498716E+01
 1.5174251E+01  2.5784857E+01
 1.5185751E+01  2.6037813E+01
 1.5197250E+01  2.6152243E+01
 1.5208751E+01  2.6095222E+01
 1.5220251E+01  2.5912720E+01
 1.5231750E+01  2.5635962E+01
 1.5243251E+01  2.5315834E+01
 1.5254751E+01  2.5121981E+01
 1.5266251E+01  2.4881584E+01
 1.5277751E+01  2.4794851E+01
 1.5289250E+01  2.4722261E+01
 1.5300751E+01  2.4699053E+01
 1.5312251E+01  2.4720591E+01
 1.5323750E+01  2.4743383E+01
 1.5335251E+01  2.4794701E+01
 1.5346751E+01  2.4774445E+01
 1.5358251E+01  2.4731224E+01
 1.5369751E+01  2.4698248E+01
 1.5381250E+01  2.4690655E+01
 1.5392751E+01  2.4699505E+01
 1.5404251E+01  2.4693193E+01
 1.5415751E+01  2.4646700E+01
 1.5427251E+01  2.4632620E+01
 1.5438751E+01  2.4655308E+01
 1.5450251E+01  2.4678177E+01
 1.5461751E+01  2.4680532E+01
 1.5473250E+01  2.4572811E+01
 1.5484751E+01  2.4540102E+01
 1.5496251E+01  2.4527977E+01
 1.5507751E+01  2.4586723E+01
 1.5519251E+01  2.4642569E+01
 1.5530751E+01  2.4680311E+01
 1.5542251E+01  2.4647751E+01
 1.5553751E+01  2.4582224E+01
 1.5565250E+01  2.4598867E+01
 1.5576751E+01  2.4601391E+01
 1.5588251E+01  2.4677967E+01
 1.5599751E+01  2.4607700E+01
 1.5611251E+01  2.4643917E+01
 1.5622751E+01  2.4598957E+01
 1.5634251E+01  2.4586613E+01
 1.5645751E+01  2.4596682E+01
 1.5657250E+01  2.4541437E+01
 1.5668751E+01  2.4566643E+01
 1.5680251E+01  2.4534744E+01
 1.5691751E+01  2.4578371E+01
 1.5703251E+01  2.4642509E+01
 1.5714751E+01  2.4693817E+01
 1.5726251E+01  2.4768908E+01
 1.5737751E+01  2.4729002E+01
 1.5749250E+01  2.4691559E+01
 1.5760751E+01  2.4691931E+01
 1.5772251E+01  2.4723196E+01
 1.5783751E+01  2.4701374E+01
 1.5795251E+01  2.4663816E+01
 1.5806751E+01  2.4637367E+01
 1.5818251E+01  2.4620564E+01
 1.5829751E+01  2.4601288E+01
 1.5841250E+01  2.4596386E+01
 1.5852751E+01  2.4576843E+01
 1.5864251E+01  2.4542282E+01
 1.5875751E+01  2.4552282E+01
 1.5887251E+01  2.4578012E+01
 1.5898750E+01  2.4600410E+01
 1.5910251E+01  2.4624210E+01
 1.5921751E+01  2.4593641E+01
 1.5933250E+01  2.4557405E+01
 1.5944751E+01  2.4557701E+01
 1.5956251E+01  2.4630699E+01
 1.5967751E+01  2.4636427E+01
 1.5979251E+01  2.4639917E+01
 1.5990750E+01  2.4681673E+01
 1.6002251E+01  2.4687569E+01
 1.6013750E+01  2.4704433E+01
 1.6025251E+01  2.4692211E+01
 1.6036751E+01  2.4710768E+01
 1.6048250E+01  2.4694487E+01
 1.6059752E+01  2.4739599E+01
 1.6071251E+01  2.4753582E+01
 1.6082750E+01  2.4822279E+01
 1.6094252E+01  2.4857891E+01
 1.6105751E+01  2.4962791E+01
 1.6117250E+01  2.4957426E+01
 1.6128750E+01  2.4946295E+01
 1.6140251E+01  2.4949080E+01
 1.6151751E+01  2.4933928E+01
 1.6163250E+01  2.4975214E+01
 1.6174751E+01  2.4934847E+01
 1.6186251E+01  2.5067305E+01
 1.6197750E+01  2.5020615E+01
 1.6209251E+01  2.5233007E+01
 1.6220751E+01  2.5198948E+01
 1.6232250E+01  2.5423483E+01
 1.6243752E+01  2.5530899E+01
 1.6255251E+01  2.5724958E+01
 1.6266750E+01  2.5962721E+01
 1.6278252E+01  2.5795414E+01
 1.6289751E+01  2.5899553E+01
 1.6301250E+01  2.5375904E+01
 1.6312750E+01  2.5382113E+01
 1.6324251E+01  2.4921059E+01
 1.6335751E+01  2.4946278E+01
 1.6347250E+01  2.4748035E+01
 1.6358751E+01  2.4748762E+01
 1.6370251E+01  2.4672691E+01
 1.6381750E+01  2.4635048E+01
 1.6393251E+01  2.4628349E+01
 1.6404751E+01  2.4592548E+01
 1.6416250E+01  2.4613867E+01
 1.6427752E+01  2.4546341E+01
 1.6439251E+01  2.4573948E+01
 1.6450750E+01  2.4531944E+01
 1.6462252E+01  2.4567183E+01
 1.6473751E+01  2.4562588E+01
 1.6485250E+01  2.4650354E+01
 1.6496750E+01  2.4689476E+01
 1.6508251E+01  2.4729437E+01
 1.6519751E+01  2.4736931E+01
 1.6531250E+01  2.4717251E+01
 1.6542751E+01  2.4706488E+01
 1.6554251E+01  2.4605585E+01
 1.6565750E+01  2.4578983E+01
 1.6577251E+01  2.4512651E+01
 1.6588751E+01  2.4491657E+01
 1.6600250E+01  2.4496920E+01
 1.6611752E+01  2.4509418E+01
 1.6623251E+01  2.4532516E+01
 1.6634750E+01  2.4526711E+01
 1.6646252E+01  2.4544260E+01
 1.6657751E+01  2.4534563E+01
 1.6669250E+01  2.4528645E+01
 1.6680750E+01  2.4520292E+01
 1.6692251E+01  2.4518612E+01
 1.6703751E+01  2.4496567E+01
 1.6715250E+01  2.4490473E+01
 1.6726751E+01  2.4528349E+01
 1.6738251E+01  2.4543089E+01
 1.6749750E+01  2.4608034E+01
 1.6761251E+01  2.4589636E+01
 1.6772751E+01  2.4643295E+01
 1.6784250E+01  2.4568359E+01
 1.6795752E+01  2.4569908E+01
 1.6807251E+01  2.4570078E+01
 1.6818750E+01  2.4640198E+01
 1.6830252E+01  2.4638010E+01
 1.6841751E+01  2.4632940E+01
 1.6853251E+01  2.4618139E+01
 1.6864750E+01  2.4591555E+01
 1.6876251E+01  2.4547773E+01
 1.6887751E+01  2.4497238E+01
 1.6899250E+01  2.4473116E+01
 1.6910751E+01  2.4409117E+01
 1.6922251E+01  2.4398399E+01
 1.6933750E+01  2.4321251E+01
 1.6945251E+01  2.4285213E+01
 1.6956751E+01  2.4290108E+01
 1.6968250E+01  2.4295044E+01
 1.6979752E+01  2.4328438E+01
 1.6991251E+01  2.4329651E+01
 1.7002750E+01  2.4334936E+01
 1.7014252E+01  2.4307901E+01
 1.7025751E+01  2.4313538E+01
 1.7037251E+01  2.4317245E+01
 1.7048750E+01  2.4307812E+01
 1.7060251E+01  2.4283195E+01
 1.7071751E+01  2.4288622E+01
 1.7083250E+01  2.4280111E+01
 1.7094751E+01  2.4253456E+01
 1.7106251E+01  2.4225965E+01
 1.7117750E+01  2.4192595E+01
 1.7129251E+01  2.4153046E+01
 1.7140751E+01  2.4121208E+01
 1.7152250E+01  2.4075287E+01
 1.7163752E+01  2.4092285E+01
 1.7175251E+01  2.4079313E+01
 1.7186750E+01  2.4120977E+01
 1.7198252E+01  2.4111208E+01
 1.7209751E+01  2.4182554E+01
 1.7221251E+01  2.4175568E+01
 1.7232750E+01  2.4183599E+01
 1.7244251E+01  2.4135120E+01
 1.7255751E+01  2.4090038E+01
 1.7267250E+01  2.4049641E+01
 1.7278751E+01  2.4016134E+01
 1.7290251E+01  2.4011255E+01
 1.7301750E+01  2.4108969E+01
 1.7313251E+01  2.4117855E+01
 1.7324751E+01  2.4169769E+01
 1.7336250E+01  2.4145573E+01
 1.7347752E+01  2.4169477E+01
 1.7359251E+01  2.4159687E+01
 1.7370750E+01  2.4167664E+01
 1.7382252E+01  2.4146631E+01
 1.7393751E+01  2.4038588E+01
 1.7405251E+01  2.3952541E+01
 1.7416750E+01  2.3896551E+01
 1.7428251E+01  2.3942278E+01
 1.7439751E+01  2.3975536E+01
 1.7451250E+01  2.4012049E+01
 1.7462751E+01  2.4020426E+01
 1.7474251E+01  2.4075745E+01
 1.7485750E+01  2.4118374E+01
 1.7497252E+01  2.4121712E+01
 1.7508751E+01  2.4080801E+01
 1.7520250E+01  2.4028120E+01
 1.7531752E+01  2.4018040E+01
 1.7543251E+01  2.4057739E+01
 1.7554750E+01  2.4053024E+01
 1.7566252E+01  2.4016678E+01
 1.7577751E+01  2.3990826E+01
 1.7589251E+01  2.3917833E+01
 1.7600750E+01  2.3916721E+01
 1.7612251E+01  2.3859026E+01
 1.7623751E+01  2.3946627E+01
 1.7635250E+01  2.3923281E+01
 1.7646751E+01  2.3945383E+01
 1.7658251E+01  2.3898922E+01
 1.7669750E+01  2.3882700E+01
 1.7681252E+01  2.3858658E+01
 1.7692751E+01  2.3843739E+01
 1.7704250E+01  2.3771311E+01
 1.7715752E+01  2.3726360E+01
 1.7727251E+01  2.3680975E+01
 1.7738750E+01  2.3707405E+01
 1.7750252E+01  2.3732256E+01
 1.7761751E+01  2.3820004E+01
 1.7773251E+01  2.3890116E+01
 1.7784750E+01  2.3926327E+01
 1.7796251E+01  2.3978645E+01
 1.7807751E+01  2.3849321E+01
 1.7819250E+01  2.3832205E+01
 1.7830751E+01  2.3789724E+01
 1.7842251E+01  2.3893284E+01
 1.7853750E+01  2.3927471E+01
 1.7865252E+01  2.3924416E+01
 1.7876751E+01  2.3887703E+01
 1.7888250E+01  2.3785379E+01
 1.7899752E+01  2.3754246E+01
 1.7911251E+01  2.3770998E+01
 1.7922750E+01  2.3794182E+01
 1.7934252E+01  2.3825193E+01
 1.7945751E+01  2.3846653E+01
 1.7957251E+01  2.3861778E+01
 1.7968750E+01  2.3897465E+01
 1.7980251E+01  2.3918560E+01
 1.7991751E+01  2.4021807E+01
 1.8003250E+01  2.4127914E+01
 1.8014751E+01  2.4250944E+01
 1.8026251E+01  2.4309719E+01
 1.8037750E+01  2.4386978E+01
 1.8049252E+01  2.4443233E+01
 1.8060751E+01  2.4500683E+01
 1.8072250E+01  2.4478403E+01
 1.8083752E+01  2.4493692E+01
 1.8095251E+01  2.4483679E+01
 1.8106750E+01  2.4483429E+01
 1.8118252E+01  2.4438461E+01
 1.8129751E+01  2.4393148E+01
 1.8141251E+01  2.4337503E+01
 1.8152750E+01  2.4205158E+01
 1.8164251E+01  2.4089283E+01
 1.8175751E+01  2.3991030E+01
 1.8187250E+01  2.3902485E+01
 1.8198751E+01  2.3830334E+01
 1.8210251E+01  2.3747501E+01
 1.8221750E+01  2.3732712E+01
 1.8233252E+01  2.3674143E+01
 1.8244751E+01  2.3676622E+01
 1.8256250E+01  2.3668953E+01
 1.8267752E+01  2.3695766E+01
 1.8279251E+01  2.3712894E+01
 1.8290751E+01  2.3790686E+01
 1.8302252E+01  2.3799623E+01
 1.8313751E+01  2.3792881E+01
 1.8325251E+01  2.3772894E+01
 1.8336750E+01  2.3847836E+01
 1.8348251E+01  2.3890434E+01
 1.8359751E+01  2.3925539E+01
 1.8371250E+01  2.3874624E+01
 1.8382751E+01  2.3811010E+01
 1.8394251E+01  2.3795525E+01
 1.8405750E+01  2.3792549E+01
 1.8417252E+01  2.3781860E+01
 1.8428751E+01  2.3696857E+01
 1.8440250E+01  2.3633251E+01
 1.8451752E+01  2.3575615E+01
 1.8463251E+01  2.3592817E+01
 1.8474751E+01  2.3612068E+01
 1.8486252E+01  2.3603638E+01
 1.8497751E+01  2.3622534E+01
 1.8509251E+01  2.3655140E+01
 1.8520750E+01  2.3640841E+01
 1.8532251E+01  2.3585968E+01
 1.8543751E+01  2.3525143E+01
 1.8555250E+01  2.3590481E+01
 1.8566751E+01  2.3615557E+01
 1.8578251E+01  2.3685518E+01
 1.8589750E+01  2.3725969E+01
 1.8601252E+01  2.3734608E+01
 1.8612751E+01  2.3668552E+01
 1.8624250E+01  2.3630117E+01
 1.8635752E+01  2.3631266E+01
 1.8647251E+01  2.3600342E+01
 1.8658751E+01  2.3494368E+01
 1.8670252E+01  2.3467554E+01
 1.8681751E+01  2.3470654E+01
 1.8693251E+01  2.3541460E+01
 1.8704750E+01  2.3547121E+01
 1.8716251E+01  2.3566139E+01
 1.8727751E+01  2.3561638E+01
 1.8739250E+01  2.3530132E+01
 1.8750751E+01  2.3476547E+01
 1.8762251E+01  2.3517912E+01
 1.8773750E+01  2.3542889E+01
 1.8785252E+01  2.3556097E+01
 1.8796751E+01  2.3537323E+01
 1.8808250E+01  2.3548843E+01
 1.8819752E+01  2.3559603E+01
 1.8831251E+01  2.3560497E+01
 1.8842751E+01  2.3578075E+01
 1.8854252E+01  2.3520632E+01
 1.8865751E+01  2.3516329E+01
 1.8877251E+01  2.3521004E+01
 1.8888750E+01  2.3589067E+01
 1.8900251E+01  2.3604166E+01
 1.8911751E+01  2.3615782E+01
 1.8923250E+01  2.3669758E+01
 1.8934752E+01  2.3702545E+01
 1.8946251E+01  2.3751783E+01
 1.8957750E+01  2.3691557E+01
 1.8969252E+01  2.3628332E+01
 1.8980751E+01  2.3549213E+01
 1.8992250E+01  2.3521982E+01
 1.9003752E+01  2.3553532E+01
 1.9015251E+01  2.3567209E+01
 1.9026751E+01  2.3593082E+01
 1.9038252E+01  2.3620672E+01
 1.9049751E+01  2.3628851E+01
 1.9061251E+01  2.3639494E+01
 1.9072750E+01  2.3636814E+01
 1.9084251E+01  2.3623100E+01
 1.9095751E+01  2.3613405E+01
 1.9107250E+01  2.3614111E+01
 1.9118752E+01  2.3539036E+01
 1.9130251E+01  2.3568253E+01
 1.9141750E+01  2.3601839E+01
 1.9153252E+01  2.3653414E+01
 1.9164751E+01  2.3593719E+01
 1.9176250E+01  2.3510637E+01
 1.9187752E+01  2.3504343E+01
 1.9199251E+01  2.3489990E+01
 1.9210751E+01  2.3574175E+01
 1.9222252E+01  2.3538139E+01
 1.9233751E+01  2.3507065E+01
 1.9245251E+01  2.3522034E+01
 1.9256750E+01  2.3586678E+01
 1.9268251E+01  2.3624014E+01
 1.9279751E+01  2.3565693E+01
 1.9291250E+01  2.3538244E+01
 1.9302752E+01  2.3548531E+01
 1.9314251E+01  2.3563448E+01
 1.9325750E+01  2.3581724E+01
 1.9337252E+01  2.3593679E+01
 1.9348751E+01  2.3588852E+01
 1.9360250E+01  2.3637644E+01
 1.9371752E+01  2.3662695E+01
 1.9383251E+01  2.3687170E+01
 1.9394751E+01  2.3760109E+01
 1.9406250E+01  2.3764292E+01
 1.9417751E+01  2.3778524E+01
 1.9429251E+01  2.3728010E+01
 1.9440750E+01  2.3708549E+01
 1.9452251E+01  2.3669184E+01
 1.9463751E+01  2.3680788E+01
 1.9475250E+01  2.3697947E+01
 1.9486752E+01  2.3692123E+01
 1.9498251E+01  2.3728012E+01
 1.9509750E+01  2.3771000E+01
 1.9521252E+01  2.3891756E+01
 1.9532751E+01  2.3934786E+01
 1.9544250E+01  2.3971806E+01
 1.9555752E+01  2.3901131E+01
 1.9567251E+01  2.3888136E+01
 1.9578751E+01  2.3848850E+01
 1.9590250E+01  2.3862600E+01
 1.9601751E+01  2.3897074E+01
 1.9613251E+01  2.3971977E+01
 1.9624750E+01  2.4061291E+01
 1.9636251E+01  2.4146603E+01
 1.9647751E+01  2.4270920E+01
 1.9659250E+01  2.4535845E+01
 1.9670752E+01  2.4825846E+01
 1.9682251E+01  2.5415476E+01
 1.9693750E+01  2.5816790E+01
 1.9705252E+01  2.6426958E+01
 1.9716751E+01  2.6657551E+01
 1.9728251E+01  2.6629595E+01
 1.9739752E+01  2.6238798E+01
 1.9751251E+01  2.5797428E+01
 1.9762751E+01  2.5423925E+01
 1.9774250E+01  2.4989239E+01
 1.9785751E+01  2.4800945E+01
 1.9797251E+01  2.4648506E+01
 1.9808750E+01  2.4625341E+01
 1.9820251E+01  2.4793207E+01
 1.9831751E+01  2.5089556E+01
 1.9843250E+01  2.5358948E+01
 1.9854752E+01  2.5614128E+01
 1.9866251E+01  2.5697849E+01
 1.9877750E+01  2.5640587E+01
 1.9889252E+01  2.5422049E+01
 1.9900751E+01  2.5222485E+01
 1.9912251E+01  2.4910091E+01
 1.9923752E+01  2.4620230E+01
 1.9935251E+01  2.4344414E+01
 1.9946751E+01  2.4178745E+01
 1.9958250E+01  2.4019886E+01
 1.9969751E+01  2.4044338E+01
 1.9981251E+01  2.4017281E+01
 1.9992750E+01  2.4021299E+01
 2.0004251E+01  2.3959507E+01
 2.0015751E+01  2.3915527E+01
 2.0027250E+01  2.3935013E+01
 2.0038752E+01  2.3919722E+01
 2.0050251E+01  2.3919168E+01
 2.0061750E+01  2.3879789E+01
 2.0073252E+01  2.3849150E+01
 2.0084751E+01  2.3793173E+01
 2.0096251E+01  2.3786968E+01
 2.0107752E+01  2.3773575E+01
 2.0119251E+01  2.3763729E+01
 2.0130751E+01  2.3718229E+01
 2.0142250E+01  2.3755981E+01
 2.0153751E+01  2.3772272E+01
 2.0165251E+01  2.3804209E+01
 2.0176750E+01  2.3785622E+01
 2.0188251E+01  2.3798586E+01
 2.0199751E+01  2.3801191E+01
 2.0211250E+01  2.3825087E+01
 2.0222752E+01  2.3835812E+01
 2.0234251E+01  2.3853771E+01
 2.0245750E+01  2.3876255E+01
 2.0257252E+01  2.3870714E+01
 2.0268751E+01  2.3836281E+01
 2.0280251E+01  2.3863949E+01
 2.0291752E+01  2.3836006E+01
 2.0303251E+01  2.3790680E+01
 2.0314751E+01  2.3725052E+01
 2.0326250E+01  2.3711365E+01
 2.0337751E+01  2.3729511E+01
 2.0349251E+01  2.3769785E+01
 2.0360750E+01  2.3803955E+01
 2.0372252E+01  2.3820885E+01
 2.0383751E+01  2.3815317E+01
 2.0395250E+01  2.3843761E+01
 2.0406752E+01  2.3832975E+01
 2.0418251E+01  2.3846313E+01
 2.0429750E+01  2.3840239E+01
 2.0441252E+01  2.3807154E+01
 2.0452751E+01  2.3771801E+01
 2.0464251E+01  2.3785282E+01
 2.0475752E+01  2.3795088E+01
 2.0487251E+01  2.3772383E+01
 2.0498751E+01  2.3762865E+01
 2.0510250E+01  2.3741154E+01
 2.0521751E+01  2.3713152E+01
 2.0533251E+01  2.3669115E+01
 2.0544750E+01  2.3694897E+01
 2.0556252E+01  2.3739275E+01
 2.0567751E+01  2.3812542E+01
 2.0579250E+01  2.3781944E+01
 2.0590752E+01  2.3788635E+01
 2.0602251E+01  2.3780693E+01
 2.0613750E+01  2.3825586E+01
 2.0625252E+01  2.3877123E+01
 2.0636751E+01  2.3915342E+01
 2.0648251E+01  2.3941744E+01
 2.0659752E+01  2.3970989E+01
 2.0671251E+01  2.4083210E+01
 2.0682751E+01  2.4168911E+01
 2.0694250E+01  2.4284609E+01
 2.0705751E+01  2.4372541E+01
 2.0717251E+01  2.4554426E+01
 2.0728750E+01  2.4763237E+01
 2.0740252E+01  2.4992245E+01
 2.0751751E+01  2.5160460E+01
 2.0763250E+01  2.5202862E+01
 2.0774752E+01  2.5107656E+01
 2.0786251E+01  2.4887833E+01
 2.0797750E+01  2.4750799E+01
 2.0809252E+01  2.4556253E+01
 2.0820751E+01  2.4392172E+01
 2.0832251E+01  2.4268066E+01
 2.0843752E+01  2.4200357E+01
 2.0855251E+01  2.4140566E+01
 2.0866751E+01  2.4104710E+01
 2.0878250E+01  2.4060705E+01
 2.0889751E+01  2.4077578E+01
 2.0901251E+01  2.4045214E+01
 2.0912750E+01  2.4018866E+01
 2.0924252E+01  2.3957802E+01
 2.0935751E+01  2.3962584E+01
 2.0947250E+01  2.3951984E+01
 2.0958752E+01  2.3933123E+01
 2.0970251E+01  2.3958759E+01
 2.0981750E+01  2.4023241E+01
 2.0993252E+01  2.4034393E+01
 2.1004751E+01  2.4031782E+01
 2.1016251E+01  2.4001562E+01
 2.1027752E+01  2.4030722E+01
 2.1039251E+01  2.4008711E+01
 2.1050751E+01  2.3974316E+01
 2.1062250E+01  2.3991989E+01
 2.1073751E+01  2.3975454E+01
 2.1085251E+01  2.3942722E+01
 2.1096750E+01  2.3867701E+01
 2.1108252E+01  2.3862743E+01
 2.1119751E+01  2.3893921E+01
 2.1131250E+01  2.3945517E+01
 2.1142752E+01  2.3951618E+01
 2.1154251E+01  2.3913143E+01
 2.1165751E+01  2.3918961E+01
 2.1177252E+01  2.3980652E+01
 2.1188751E+01  2.3995634E+01
 2.1200251E+01  2.3986526E+01
 2.1211752E+01  2.3936333E+01
 2.1223251E+01  2.3892294E+01
 2.1234751E+01  2.3876104E+01
 2.1246250E+01  2.3870022E+01
 2.1257751E+01  2.3953516E+01
 2.1269251E+01  2.3973156E+01
 2.1280750E+01  2.4018688E+01
 2.1292252E+01  2.3996134E+01
 2.1303751E+01  2.4019979E+01
 2.1315250E+01  2.3963236E+01
 2.1326752E+01  2.3994480E+01
 2.1338251E+01  2.3970472E+01
 2.1349751E+01  2.3985500E+01
 2.1361252E+01  2.3985161E+01
 2.1372751E+01  2.4035500E+01
 2.1384251E+01  2.4001984E+01
 2.1395752E+01  2.3993088E+01
 2.1407251E+01  2.3999151E+01
 2.1418751E+01  2.4110966E+01
 2.1430250E+01  2.4193043E+01
 2.1441751E+01  2.4153721E+01
 2.1453251E+01  2.4080063E+01
 2.1464750E+01  2.4021530E+01
 2.1476252E+01  2.3994473E+01
 2.1487751E+01  2.4041904E+01
 2.1499250E+01  2.4079542E+01
 2.1510752E+01  2.4086357E+01
 2.1522251E+01  2.4068958E+01
 2.1533751E+01  2.4075605E+01
 2.1545252E+01  2.4062490E+01
 2.1556751E+01  2.4037157E+01
 2.1568251E+01  2.4041901E+01
 2.1579752E+01  2.4111916E+01
 2.1591251E+01  2.4163799E+01
 2.1602751E+01  2.4228760E+01
 2.1614250E+01  2.4192230E+01
 2.1625751E+01  2.4184389E+01
 2.1637251E+01  2.4137331E+01
 2.1648750E+01  2.4176443E+01
 2.1660252E+01  2.4198523E+01
 2.1671751E+01  2.4284681E+01
 2.1683250E+01  2.4297197E+01
 2.1694752E+01  2.4303938E+01
 2.1706251E+01  2.4296625E+01
 2.1717751E+01  2.4326374E+01
 2.1729252E+01  2.4316977E+01
 2.1740751E+01  2.4297995E+01
 2.1752251E+01  2.4253742E+01
 2.1763752E+01  2.4240437E+01
 2.1775251E+01  2.4246912E+01
 2.1786751E+01  2.4270798E+01
 2.1798250E+01  2.4238173E+01
 2.1809752E+01  2.4209105E+01
 2.1821251E+01  2.4202885E+01
 2.1832750E+01  2.4166491E+01
 2.1844252E+01  2.4154730E+01
 2.1855751E+01  2.4207306E+01
 2.1867250E+01  2.4222055E+01
 2.1878752E+01  2.4221882E+01
 2.1890251E+01  2.4182571E+01
 2.1901751E+01  2.4248144E+01
 2.1913252E+01  2.4257929E+01
 2.1924751E+01  2.4263861E+01
 2.1936251E+01  2.4192797E+01
 2.1947752E+01  2.4215714E+01
 2.1959251E+01  2.4270987E+01
 2.1970751E+01  2.4299488E+01
 2.1982250E+01  2.4299957E+01
 2.1993752E+01  2.4243246E+01
 2.2005251E+01  2.4206434E+01
 2.2016750E+01  2.4218561E+01
 2.2028252E+01  2.4218462E+01
 2.2039751E+01  2.4214951E+01
 2.2051250E+01  2.4249651E+01
 2.2062752E+01  2.4252903E+01
 2.2074251E+01  2.4300877E+01
 2.2085751E+01  2.4306629E+01
 2.2097252E+01  2.4304663E+01
 2.2108751E+01  2.4303801E+01
 2.2120251E+01  2.4345108E+01
 2.2131752E+01  2.4419020E+01
 2.2143251E+01  2.4413210E+01
 2.2154751E+01  2.4436911E+01
 2.2166250E+01  2.4454960E+01
 2.2177752E+01  2.4495184E+01
 2.2189251E+01  2.4521515E+01
 2.2200750E+01  2.4510633E+01
 2.2212252E+01  2.4473282E+01
 2.2223751E+01  2.4494139E+01
 2.2235250E+01  2.4507669E+01
 2.2246752E+01  2.4522509E+01
 2.2258251E+01  2.4476152E+01
 2.2269751E+01  2.4430580E+01
 2.2281252E+01  2.4392147E+01
 2.2292751E+01  2.4409012E+01
 2.2304251E+01  2.4495440E+01
 2.2315752E+01  2.4544975E+01
 2.2327251E+01  2.4585417E+01
 2.2338751E+01  2.4591782E+01
 2.2350250E+01  2.4612665E+01
 2.2361752E+01  2.4621735E+01
 2.2373251E+01  2.4665859E+01
 2.2384750E+01  2.4621506E+01
 2.2396252E+01  2.4605633E+01
 2.2407751E+01  2.4500208E+01
 2.2419250E+01  2.4440693E+01
 2.2430752E+01  2.4471573E+01
 2.2442251E+01  2.4566904E+01
 2.2453751E+01  2.4656055E+01
 2.2465252E+01  2.4709719E+01
 2.2476751E+01  2.4687855E+01
 2.2488251E+01  2.4736425E+01
 2.2499752E+01  2.4772402E+01
 2.2511251E+01  2.4830095E+01
 2.2522751E+01  2.4848743E+01
 2.2534250E+01  2.4876768E+01
 2.2545752E+01  2.4903214E+01
 2.2557251E+01  2.4842861E+01
 2.2568750E+01  2.4850281E+01
 2.2580252E+01  2.4875479E+01
 2.2591751E+01  2.4944874E+01
 2.2603251E+01  2.4982889E+01
 2.2614752E+01  2.4981245E+01
 2.2626251E+01  2.4996838E+01
 2.2637751E+01  2.4985889E+01
 2.2649252E+01  2.5010677E+01
 2.2660751E+01  2.5014067E+01
 2.2672251E+01  2.5075281E+01
 2.2683752E+01  2.5136469E+01
 2.2695251E+01  2.5193499E+01
 2.2706751E+01  2.5195591E+01
 2.2718250E+01  2.5223339E+01
 2.2729752E+01  2.5271687E+01
 2.2741251E+01  2.5310839E+01
 2.2752750E+01  2.5376911E+01
 2.2764252E+01  2.5412897E+01
 2.2775751E+01  2.5456621E+01
 2.2787251E+01  2.5459459E+01
 2.2798752E+01  2.5533819E+01
 2.2810251E+01  2.5593779E+01
 2.2821751E+01  2.5617413E+01
 2.2833252E+01  2.5667978E+01
 2.2844751E+01  2.5671530E+01
 2.2856251E+01  2.5759710E+01
 2.2867750E+01  2.5832758E+01
 2.2879251E+01  2.5924032E+01
 2.2890751E+01  2.5919241E+01
 2.2902250E+01  2.5981586E+01
 2.2913752E+01  2.6067642E+01
 2.2925251E+01  2.6129337E+01
 2.2936750E+01  2.6177608E+01
 2.2948252E+01  2.6222372E+01
 2.2959751E+01  2.6372086E+01
 2.2971251E+01  2.6523287E+01
 2.2982752E+01  2.6783369E+01
 2.2994251E+01  2.7076294E+01
