F:\20151113_APS_34IDE\\Brian\Particle1\OCV\Data_0060.tif
2-Theta Angle (Degrees)
Intensity
       2000
 5.7500005E-03  0.0000000E+00
 1.7250001E-02  0.0000000E+00
 2.8750001E-02  0.0000000E+00
 4.0250003E-02  0.0000000E+00
 5.1750004E-02  0.0000000E+00
 6.3250005E-02  0.0000000E+00
 7.4750006E-02  0.0000000E+00
 8.6250007E-02  0.0000000E+00
 9.7750008E-02  0.0000000E+00
 1.0925001E-01  0.0000000E+00
 1.2075000E-01  0.0000000E+00
 1.3225001E-01  0.0000000E+00
 1.4375001E-01  0.0000000E+00
 1.5525001E-01  0.0000000E+00
 1.6675001E-01  0.0000000E+00
 1.7825001E-01  0.0000000E+00
 1.8975002E-01  0.0000000E+00
 2.0125002E-01  0.0000000E+00
 2.1275002E-01  0.0000000E+00
 2.2425000E-01  0.0000000E+00
 2.3575000E-01  0.0000000E+00
 2.4725001E-01  0.0000000E+00
 2.5875002E-01  0.0000000E+00
 2.7025002E-01  0.0000000E+00
 2.8175002E-01  0.0000000E+00
 2.9325002E-01  0.0000000E+00
 3.0475003E-01  0.0000000E+00
 3.1625003E-01  0.0000000E+00
 3.2775003E-01  0.0000000E+00
 3.3925003E-01  0.0000000E+00
 3.5075003E-01  0.0000000E+00
 3.6225003E-01  0.0000000E+00
 3.7375003E-01  0.0000000E+00
 3.8525003E-01  0.0000000E+00
 3.9675003E-01  0.0000000E+00
 4.0825003E-01  0.0000000E+00
 4.1975003E-01  0.0000000E+00
 4.3125004E-01  0.0000000E+00
 4.4275001E-01  0.0000000E+00
 4.5425001E-01  0.0000000E+00
 4.6575001E-01  0.0000000E+00
 4.7725001E-01  0.0000000E+00
 4.8875001E-01  0.0000000E+00
 5.0025004E-01  0.0000000E+00
 5.1175004E-01  0.0000000E+00
 5.2325004E-01  0.0000000E+00
 5.3475004E-01  0.0000000E+00
 5.4625005E-01  0.0000000E+00
 5.5775005E-01  0.0000000E+00
 5.6925005E-01  0.0000000E+00
 5.8075005E-01  0.0000000E+00
 5.9225005E-01  0.0000000E+00
 6.0375005E-01  0.0000000E+00
 6.1525005E-01  0.0000000E+00
 6.2675005E-01  0.0000000E+00
 6.3825005E-01  0.0000000E+00
 6.4975005E-01  0.0000000E+00
 6.6125005E-01  0.0000000E+00
 6.7275006E-01  0.0000000E+00
 6.8425006E-01  0.0000000E+00
 6.9575006E-01  0.0000000E+00
 7.0725006E-01  0.0000000E+00
 7.1875006E-01  0.0000000E+00
 7.3025006E-01  0.0000000E+00
 7.4175006E-01  0.0000000E+00
 7.5325006E-01  0.0000000E+00
 7.6475006E-01  0.0000000E+00
 7.7625006E-01  0.0000000E+00
 7.8775007E-01  0.0000000E+00
 7.9925007E-01  0.0000000E+00
 8.1075007E-01  0.0000000E+00
 8.2225007E-01  0.0000000E+00
 8.3375007E-01  0.0000000E+00
 8.4525007E-01  0.0000000E+00
 8.5675007E-01  0.0000000E+00
 8.6825007E-01  0.0000000E+00
 8.7975001E-01  0.0000000E+00
 8.9125001E-01  0.0000000E+00
 9.0275002E-01  0.0000000E+00
 9.1425002E-01  0.0000000E+00
 9.2575002E-01  0.0000000E+00
 9.3725002E-01  0.0000000E+00
 9.4875002E-01  0.0000000E+00
 9.6025002E-01  0.0000000E+00
 9.7175002E-01  0.0000000E+00
 9.8325002E-01  0.0000000E+00
 9.9475002E-01  0.0000000E+00
 1.0062500E+00  0.0000000E+00
 1.0177500E+00  0.0000000E+00
 1.0292500E+00  0.0000000E+00
 1.0407500E+00  0.0000000E+00
 1.0522500E+00  0.0000000E+00
 1.0637500E+00  0.0000000E+00
 1.0752500E+00  0.0000000E+00
 1.0867500E+00  0.0000000E+00
 1.0982500E+00  0.0000000E+00
 1.1097500E+00  0.0000000E+00
 1.1212500E+00  0.0000000E+00
 1.1327500E+00  0.0000000E+00
 1.1442500E+00  0.0000000E+00
 1.1557500E+00  0.0000000E+00
 1.1672500E+00  0.0000000E+00
 1.1787500E+00  0.0000000E+00
 1.1902500E+00  0.0000000E+00
 1.2017500E+00  0.0000000E+00
 1.2132500E+00  0.0000000E+00
 1.2247500E+00  0.0000000E+00
 1.2362500E+00  0.0000000E+00
 1.2477500E+00  0.0000000E+00
 1.2592500E+00  0.0000000E+00
 1.2707500E+00  0.0000000E+00
 1.2822500E+00  0.0000000E+00
 1.2937500E+00  0.0000000E+00
 1.3052500E+00  0.0000000E+00
 1.3167500E+00  0.0000000E+00
 1.3282501E+00  0.0000000E+00
 1.3397501E+00  0.0000000E+00
 1.3512501E+00  0.0000000E+00
 1.3627501E+00  0.0000000E+00
 1.3742501E+00  0.0000000E+00
 1.3857501E+00  0.0000000E+00
 1.3972501E+00  0.0000000E+00
 1.4087501E+00  0.0000000E+00
 1.4202501E+00  0.0000000E+00
 1.4317501E+00  0.0000000E+00
 1.4432501E+00  0.0000000E+00
 1.4547501E+00  0.0000000E+00
 1.4662501E+00  0.0000000E+00
 1.4777501E+00  0.0000000E+00
 1.4892501E+00  0.0000000E+00
 1.5007501E+00  0.0000000E+00
 1.5122501E+00  0.0000000E+00
 1.5237501E+00  0.0000000E+00
 1.5352501E+00  0.0000000E+00
 1.5467501E+00  0.0000000E+00
 1.5582501E+00  0.0000000E+00
 1.5697501E+00  0.0000000E+00
 1.5812501E+00  0.0000000E+00
 1.5927501E+00  0.0000000E+00
 1.6042501E+00  0.0000000E+00
 1.6157501E+00  0.0000000E+00
 1.6272501E+00  0.0000000E+00
 1.6387501E+00  0.0000000E+00
 1.6502501E+00  0.0000000E+00
 1.6617501E+00  0.0000000E+00
 1.6732501E+00  0.0000000E+00
 1.6847501E+00  0.0000000E+00
 1.6962501E+00  0.0000000E+00
 1.7077501E+00  0.0000000E+00
 1.7192501E+00  0.0000000E+00
 1.7307501E+00  0.0000000E+00
 1.7422501E+00  0.0000000E+00
 1.7537501E+00  0.0000000E+00
 1.7652501E+00  0.0000000E+00
 1.7767501E+00  0.0000000E+00
 1.7882501E+00  0.0000000E+00
 1.7997501E+00  0.0000000E+00
 1.8112501E+00  0.0000000E+00
 1.8227501E+00  0.0000000E+00
 1.8342501E+00  0.0000000E+00
 1.8457501E+00  0.0000000E+00
 1.8572501E+00  0.0000000E+00
 1.8687501E+00  0.0000000E+00
 1.8802501E+00  0.0000000E+00
 1.8917501E+00  0.0000000E+00
 1.9032501E+00  0.0000000E+00
 1.9147501E+00  0.0000000E+00
 1.9262501E+00  0.0000000E+00
 1.9377501E+00  0.0000000E+00
 1.9492501E+00  0.0000000E+00
 1.9607501E+00  0.0000000E+00
 1.9722501E+00  0.0000000E+00
 1.9837501E+00  0.0000000E+00
 1.9952501E+00  0.0000000E+00
 2.0067501E+00  0.0000000E+00
 2.0182500E+00  0.0000000E+00
 2.0297501E+00  0.0000000E+00
 2.0412500E+00  0.0000000E+00
 2.0527501E+00  0.0000000E+00
 2.0642500E+00  0.0000000E+00
 2.0757501E+00  0.0000000E+00
 2.0872500E+00  0.0000000E+00
 2.0987501E+00  0.0000000E+00
 2.1102500E+00  0.0000000E+00
 2.1217501E+00  0.0000000E+00
 2.1332500E+00  0.0000000E+00
 2.1447501E+00  0.0000000E+00
 2.1562500E+00  0.0000000E+00
 2.1677501E+00  0.0000000E+00
 2.1792500E+00  0.0000000E+00
 2.1907501E+00  0.0000000E+00
 2.2022500E+00  0.0000000E+00
 2.2137501E+00  0.0000000E+00
 2.2252500E+00  0.0000000E+00
 2.2367501E+00  0.0000000E+00
 2.2482500E+00  0.0000000E+00
 2.2597501E+00  0.0000000E+00
 2.2712500E+00  0.0000000E+00
 2.2827501E+00  0.0000000E+00
 2.2942500E+00  0.0000000E+00
 2.3057501E+00  0.0000000E+00
 2.3172500E+00  0.0000000E+00
 2.3287501E+00  0.0000000E+00
 2.3402500E+00  0.0000000E+00
 2.3517501E+00  0.0000000E+00
 2.3632500E+00  0.0000000E+00
 2.3747501E+00  0.0000000E+00
 2.3862500E+00  0.0000000E+00
 2.3977501E+00  0.0000000E+00
 2.4092500E+00  0.0000000E+00
 2.4207501E+00  0.0000000E+00
 2.4322500E+00  0.0000000E+00
 2.4437501E+00  0.0000000E+00
 2.4552500E+00  0.0000000E+00
 2.4667501E+00  0.0000000E+00
 2.4782500E+00  0.0000000E+00
 2.4897501E+00  0.0000000E+00
 2.5012500E+00  0.0000000E+00
 2.5127501E+00  0.0000000E+00
 2.5242500E+00  0.0000000E+00
 2.5357502E+00  0.0000000E+00
 2.5472500E+00  0.0000000E+00
 2.5587502E+00  0.0000000E+00
 2.5702500E+00  0.0000000E+00
 2.5817502E+00  0.0000000E+00
 2.5932500E+00  0.0000000E+00
 2.6047502E+00  0.0000000E+00
 2.6162500E+00  0.0000000E+00
 2.6277502E+00  0.0000000E+00
 2.6392500E+00  0.0000000E+00
 2.6507502E+00  0.0000000E+00
 2.6622500E+00  0.0000000E+00
 2.6737502E+00  0.0000000E+00
 2.6852500E+00  0.0000000E+00
 2.6967502E+00  0.0000000E+00
 2.7082500E+00  0.0000000E+00
 2.7197502E+00  0.0000000E+00
 2.7312500E+00  0.0000000E+00
 2.7427502E+00  0.0000000E+00
 2.7542500E+00  0.0000000E+00
 2.7657502E+00  0.0000000E+00
 2.7772501E+00  0.0000000E+00
 2.7887502E+00  0.0000000E+00
 2.8002501E+00  0.0000000E+00
 2.8117502E+00  0.0000000E+00
 2.8232501E+00  3.8320992E+01
 2.8347502E+00  3.4812500E+01
 2.8462501E+00  3.3707512E+01
 2.8577502E+00  3.3321369E+01
 2.8692501E+00  3.3767963E+01
 2.8807502E+00  3.4445511E+01
 2.8922501E+00  3.4546707E+01
 2.9037502E+00  3.4176044E+01
 2.9152501E+00  3.3918430E+01
 2.9267502E+00  3.4022667E+01
 2.9382501E+00  3.4690170E+01
 2.9497502E+00  3.4916489E+01
 2.9612501E+00  3.4897793E+01
 2.9727502E+00  3.4608093E+01
 2.9842501E+00  3.4414555E+01
 2.9957502E+00  3.4399376E+01
 3.0072501E+00  3.4342323E+01
 3.0187502E+00  3.4334003E+01
 3.0302501E+00  3.4471760E+01
 3.0417502E+00  3.4842983E+01
 3.0532501E+00  3.4837051E+01
 3.0647502E+00  3.5029377E+01
 3.0762501E+00  3.5009495E+01
 3.0877502E+00  3.4791576E+01
 3.0992501E+00  3.4581444E+01
 3.1107502E+00  3.4191864E+01
 3.1222501E+00  3.4495758E+01
 3.1337502E+00  3.4761841E+01
 3.1452501E+00  3.4960812E+01
 3.1567502E+00  3.5126720E+01
 3.1682501E+00  3.5222946E+01
 3.1797502E+00  3.5472824E+01
 3.1912501E+00  3.5364624E+01
 3.2027502E+00  3.5302036E+01
 3.2142501E+00  3.5254967E+01
 3.2257502E+00  3.5096760E+01
 3.2372501E+00  3.5093231E+01
 3.2487502E+00  3.4463093E+01
 3.2602501E+00  3.4328434E+01
 3.2717502E+00  3.3824520E+01
 3.2832501E+00  3.3707710E+01
 3.2947502E+00  3.3779121E+01
 3.3062501E+00  3.4123341E+01
 3.3177502E+00  3.4480339E+01
 3.3292501E+00  3.4270657E+01
 3.3407502E+00  3.4168652E+01
 3.3522501E+00  3.3716850E+01
 3.3637502E+00  3.3952030E+01
 3.3752501E+00  3.3899319E+01
 3.3867502E+00  3.3970467E+01
 3.3982501E+00  3.4155773E+01
 3.4097502E+00  3.4075485E+01
 3.4212501E+00  3.4191521E+01
 3.4327502E+00  3.4139748E+01
 3.4442501E+00  3.4291847E+01
 3.4557502E+00  3.4445923E+01
 3.4672501E+00  3.4307091E+01
 3.4787502E+00  3.4345814E+01
 3.4902501E+00  3.4050503E+01
 3.5017502E+00  3.3930107E+01
 3.5132501E+00  3.3662979E+01
 3.5247502E+00  3.3547138E+01
 3.5362501E+00  3.3505383E+01
 3.5477502E+00  3.3202721E+01
 3.5592501E+00  3.3180767E+01
 3.5707502E+00  3.2830173E+01
 3.5822501E+00  3.2871342E+01
 3.5937502E+00  3.2624416E+01
 3.6052501E+00  3.2542473E+01
 3.6167502E+00  3.2479599E+01
 3.6282501E+00  3.2525402E+01
 3.6397502E+00  3.2520962E+01
 3.6512501E+00  3.2595921E+01
 3.6627502E+00  3.2477917E+01
 3.6742501E+00  3.2503517E+01
 3.6857502E+00  3.2556522E+01
 3.6972501E+00  3.2714954E+01
 3.7087502E+00  3.2692047E+01
 3.7202501E+00  3.2558189E+01
 3.7317502E+00  3.2381424E+01
 3.7432501E+00  3.2379696E+01
 3.7547503E+00  3.2492680E+01
 3.7662501E+00  3.2566944E+01
 3.7777503E+00  3.2652058E+01
 3.7892501E+00  3.2735664E+01
 3.8007503E+00  3.2594090E+01
 3.8122501E+00  3.2394417E+01
 3.8237503E+00  3.2206375E+01
 3.8352501E+00  3.2069813E+01
 3.8467503E+00  3.1967527E+01
 3.8582501E+00  3.1891119E+01
 3.8697503E+00  3.1913683E+01
 3.8812501E+00  3.2145573E+01
 3.8927503E+00  3.2112804E+01
 3.9042501E+00  3.2204891E+01
 3.9157503E+00  3.2174667E+01
 3.9272501E+00  3.2223949E+01
 3.9387503E+00  3.2352562E+01
 3.9502501E+00  3.2318439E+01
 3.9617503E+00  3.2340519E+01
 3.9732502E+00  3.2305374E+01
 3.9847503E+00  3.2296474E+01
 3.9962502E+00  3.2403748E+01
 4.0077500E+00  3.2361713E+01
 4.0192504E+00  3.2360435E+01
 4.0307503E+00  3.2152218E+01
 4.0422502E+00  3.1937172E+01
 4.0537500E+00  3.1882553E+01
 4.0652504E+00  3.1800514E+01
 4.0767503E+00  3.1756540E+01
 4.0882502E+00  3.1881828E+01
 4.0997500E+00  3.1936077E+01
 4.1112504E+00  3.2151379E+01
 4.1227503E+00  3.2031124E+01
 4.1342502E+00  3.2075729E+01
 4.1457500E+00  3.2253681E+01
 4.1572504E+00  3.2340332E+01
 4.1687503E+00  3.2342499E+01
 4.1802502E+00  3.2197662E+01
 4.1917500E+00  3.2254871E+01
 4.2032504E+00  3.1994553E+01
 4.2147503E+00  3.1822826E+01
 4.2262502E+00  3.1467892E+01
 4.2377501E+00  3.1388275E+01
 4.2492504E+00  3.1422785E+01
 4.2607503E+00  3.1659986E+01
 4.2722502E+00  3.1788124E+01
 4.2837501E+00  3.2020802E+01
 4.2952504E+00  3.2058624E+01
 4.3067503E+00  3.2115387E+01
 4.3182502E+00  3.1974516E+01
 4.3297501E+00  3.1810204E+01
 4.3412504E+00  3.1760908E+01
 4.3527503E+00  3.1837706E+01
 4.3642502E+00  3.1655712E+01
 4.3757501E+00  3.1771250E+01
 4.3872504E+00  3.1763290E+01
 4.3987503E+00  3.2030460E+01
 4.4102502E+00  3.2081799E+01
 4.4217501E+00  3.1989897E+01
 4.4332504E+00  3.1865103E+01
 4.4447503E+00  3.1747948E+01
 4.4562502E+00  3.1742764E+01
 4.4677501E+00  3.1895683E+01
 4.4792504E+00  3.2098156E+01
 4.4907503E+00  3.2156338E+01
 4.5022502E+00  3.2252380E+01
 4.5137501E+00  3.2223053E+01
 4.5252504E+00  3.2403194E+01
 4.5367503E+00  3.2456551E+01
 4.5482502E+00  3.2628319E+01
 4.5597501E+00  3.2577305E+01
 4.5712504E+00  3.2641331E+01
 4.5827503E+00  3.2539101E+01
 4.5942502E+00  3.2581493E+01
 4.6057501E+00  3.2465233E+01
 4.6172504E+00  3.2300869E+01
 4.6287503E+00  3.2172852E+01
 4.6402502E+00  3.2200924E+01
 4.6517501E+00  3.2424103E+01
 4.6632504E+00  3.2579430E+01
 4.6747503E+00  3.2749905E+01
 4.6862502E+00  3.2779255E+01
 4.6977501E+00  3.2864731E+01
 4.7092505E+00  3.2931740E+01
 4.7207503E+00  3.2855705E+01
 4.7322502E+00  3.2706173E+01
 4.7437501E+00  3.2403324E+01
 4.7552505E+00  3.2239140E+01
 4.7667503E+00  3.2212597E+01
 4.7782502E+00  3.2350403E+01
 4.7897501E+00  3.2404083E+01
 4.8012505E+00  3.2475452E+01
 4.8127503E+00  3.2410095E+01
 4.8242502E+00  3.2389618E+01
 4.8357501E+00  3.2386070E+01
 4.8472505E+00  3.2404678E+01
 4.8587503E+00  3.2542480E+01
 4.8702502E+00  3.2561604E+01
 4.8817501E+00  3.2568356E+01
 4.8932505E+00  3.2511097E+01
 4.9047503E+00  3.2386456E+01
 4.9162502E+00  3.2362457E+01
 4.9277501E+00  3.2352768E+01
 4.9392505E+00  3.2392036E+01
 4.9507504E+00  3.2443626E+01
 4.9622502E+00  3.2451855E+01
 4.9737501E+00  3.2595051E+01
 4.9852505E+00  3.2724361E+01
 4.9967504E+00  3.2886818E+01
 5.0082502E+00  3.2953461E+01
 5.0197501E+00  3.2919674E+01
 5.0312505E+00  3.2938133E+01
 5.0427504E+00  3.2925964E+01
 5.0542502E+00  3.2937107E+01
 5.0657501E+00  3.2932987E+01
 5.0772505E+00  3.2924793E+01
 5.0887504E+00  3.3133339E+01
 5.1002502E+00  3.3208843E+01
 5.1117501E+00  3.3235081E+01
 5.1232505E+00  3.3246082E+01
 5.1347504E+00  3.3341309E+01
 5.1462502E+00  3.3409000E+01
 5.1577501E+00  3.3427727E+01
 5.1692505E+00  3.3338356E+01
 5.1807504E+00  3.3368649E+01
 5.1922503E+00  3.3477795E+01
 5.2037501E+00  3.3521923E+01
 5.2152505E+00  3.3717590E+01
 5.2267504E+00  3.3668167E+01
 5.2382503E+00  3.3692230E+01
 5.2497501E+00  3.3667004E+01
 5.2612505E+00  3.3608334E+01
 5.2727504E+00  3.3711609E+01
 5.2842503E+00  3.3794758E+01
 5.2957501E+00  3.3965015E+01
 5.3072500E+00  3.4009174E+01
 5.3187504E+00  3.4073067E+01
 5.3302503E+00  3.4069653E+01
 5.3417501E+00  3.4065159E+01
 5.3532500E+00  3.4085445E+01
 5.3647504E+00  3.4212532E+01
 5.3762503E+00  3.4283043E+01
 5.3877501E+00  3.4457527E+01
 5.3992500E+00  3.4477074E+01
 5.4107504E+00  3.4547543E+01
 5.4222503E+00  3.4502060E+01
 5.4337502E+00  3.4366760E+01
 5.4452500E+00  3.4495361E+01
 5.4567504E+00  3.4548717E+01
 5.4682503E+00  3.4704681E+01
 5.4797502E+00  3.4728642E+01
 5.4912500E+00  3.4636799E+01
 5.5027504E+00  3.4541885E+01
 5.5142503E+00  3.4562645E+01
 5.5257502E+00  3.4597649E+01
 5.5372500E+00  3.4755295E+01
 5.5487504E+00  3.4795883E+01
 5.5602503E+00  3.4865654E+01
 5.5717502E+00  3.4925282E+01
 5.5832500E+00  3.4994465E+01
 5.5947504E+00  3.5144588E+01
 5.6062503E+00  3.5246086E+01
 5.6177502E+00  3.5159496E+01
 5.6292500E+00  3.5059258E+01
 5.6407504E+00  3.5011051E+01
 5.6522503E+00  3.5164078E+01
 5.6637502E+00  3.5457993E+01
 5.6752501E+00  3.5710171E+01
 5.6867504E+00  3.5851555E+01
 5.6982503E+00  3.5860394E+01
 5.7097502E+00  3.5828075E+01
 5.7212501E+00  3.5772793E+01
 5.7327504E+00  3.5847698E+01
 5.7442503E+00  3.5910526E+01
 5.7557502E+00  3.5995045E+01
 5.7672501E+00  3.6063885E+01
 5.7787504E+00  3.6187393E+01
 5.7902503E+00  3.6393223E+01
 5.8017502E+00  3.6595520E+01
 5.8132501E+00  3.6720463E+01
 5.8247504E+00  3.6873600E+01
 5.8362503E+00  3.6956936E+01
 5.8477502E+00  3.7232613E+01
 5.8592501E+00  3.7337746E+01
 5.8707504E+00  3.7894413E+01
 5.8822503E+00  3.8146725E+01
 5.8937502E+00  3.9393921E+01
 5.9052501E+00  4.0333435E+01
 5.9167504E+00  4.3368793E+01
 5.9282503E+00  4.6706436E+01
 5.9397502E+00  5.3796062E+01
 5.9512501E+00  6.1616039E+01
 5.9627504E+00  7.6047722E+01
 5.9742503E+00  8.4389450E+01
 5.9857502E+00  9.6818451E+01
 5.9972501E+00  9.9146248E+01
 6.0087504E+00  9.4064674E+01
 6.0202503E+00  8.4240601E+01
 6.0317502E+00  6.8641243E+01
 6.0432501E+00  5.9808033E+01
 6.0547504E+00  5.0032215E+01
 6.0662503E+00  4.3647434E+01
 6.0777502E+00  4.1469086E+01
 6.0892501E+00  3.9592976E+01
 6.1007504E+00  3.8643932E+01
 6.1122503E+00  3.8189602E+01
 6.1237502E+00  3.7884209E+01
 6.1352501E+00  3.7690014E+01
 6.1467505E+00  3.7590923E+01
 6.1582503E+00  3.7638325E+01
 6.1697502E+00  3.7552750E+01
 6.1812501E+00  3.7597763E+01
 6.1927505E+00  3.7500011E+01
 6.2042503E+00  3.7571964E+01
 6.2157502E+00  3.7619232E+01
 6.2272501E+00  3.7670265E+01
 6.2387505E+00  3.7622089E+01
 6.2502503E+00  3.7542183E+01
 6.2617502E+00  3.7460960E+01
 6.2732501E+00  3.7539654E+01
 6.2847505E+00  3.7551037E+01
 6.2962503E+00  3.7640400E+01
 6.3077502E+00  3.7720646E+01
 6.3192501E+00  3.7758327E+01
 6.3307505E+00  3.7910282E+01
 6.3422503E+00  3.7948891E+01
 6.3537502E+00  3.8024914E+01
 6.3652501E+00  3.8031860E+01
 6.3767505E+00  3.8062756E+01
 6.3882504E+00  3.8101044E+01
 6.3997502E+00  3.8125984E+01
 6.4112501E+00  3.8109188E+01
 6.4227505E+00  3.8119862E+01
 6.4342504E+00  3.8178402E+01
 6.4457502E+00  3.8217522E+01
 6.4572501E+00  3.8259365E+01
 6.4687505E+00  3.8373402E+01
 6.4802504E+00  3.8494160E+01
 6.4917502E+00  3.8752911E+01
 6.5032501E+00  3.8903667E+01
 6.5147505E+00  3.9084911E+01
 6.5262504E+00  3.9073486E+01
 6.5377502E+00  3.9161869E+01
 6.5492501E+00  3.9169289E+01
 6.5607505E+00  3.9390491E+01
 6.5722504E+00  3.9362511E+01
 6.5837502E+00  3.9458221E+01
 6.5952501E+00  3.9396042E+01
 6.6067505E+00  3.9539310E+01
 6.6182504E+00  3.9655888E+01
 6.6297503E+00  3.9764801E+01
 6.6412501E+00  3.9871788E+01
 6.6527505E+00  3.9847015E+01
 6.6642504E+00  3.9876736E+01
 6.6757503E+00  3.9785919E+01
 6.6872501E+00  3.9722328E+01
 6.6987505E+00  3.9690742E+01
 6.7102504E+00  3.9796581E+01
 6.7217503E+00  3.9895092E+01
 6.7332501E+00  4.0126148E+01
 6.7447505E+00  4.0188782E+01
 6.7562504E+00  4.0421631E+01
 6.7677503E+00  4.0557964E+01
 6.7792501E+00  4.0635757E+01
 6.7907505E+00  4.0711662E+01
 6.8022504E+00  4.0746403E+01
 6.8137503E+00  4.0893211E+01
 6.8252501E+00  4.1021721E+01
 6.8367505E+00  4.1147667E+01
 6.8482504E+00  4.1241203E+01
 6.8597503E+00  4.1265251E+01
 6.8712502E+00  4.1342140E+01
 6.8827505E+00  4.1396553E+01
 6.8942504E+00  4.1500538E+01
 6.9057503E+00  4.1555035E+01
 6.9172502E+00  4.1597351E+01
 6.9287505E+00  4.1653690E+01
 6.9402504E+00  4.1734493E+01
 6.9517503E+00  4.1954147E+01
 6.9632502E+00  4.2121891E+01
 6.9747505E+00  4.2248482E+01
 6.9862504E+00  4.2220657E+01
 6.9977503E+00  4.2187954E+01
 7.0092502E+00  4.2163418E+01
 7.0207505E+00  4.2199059E+01
 7.0322504E+00  4.2311737E+01
 7.0437503E+00  4.2311134E+01
 7.0552502E+00  4.2432602E+01
 7.0667505E+00  4.2498837E+01
 7.0782504E+00  4.2625168E+01
 7.0897503E+00  4.2716137E+01
 7.1012502E+00  4.2680073E+01
 7.1127505E+00  4.2789948E+01
 7.1242504E+00  4.2820999E+01
 7.1357503E+00  4.2949211E+01
 7.1472502E+00  4.2927124E+01
 7.1587505E+00  4.3004879E+01
 7.1702504E+00  4.3063534E+01
 7.1817503E+00  4.3033463E+01
 7.1932502E+00  4.3038445E+01
 7.2047505E+00  4.3042103E+01
 7.2162504E+00  4.3124947E+01
 7.2277503E+00  4.3197098E+01
 7.2392502E+00  4.3093159E+01
 7.2507505E+00  4.3203533E+01
 7.2622504E+00  4.3101372E+01
 7.2737503E+00  4.3174904E+01
 7.2852502E+00  4.3179146E+01
 7.2967505E+00  4.3248318E+01
 7.3082504E+00  4.3322216E+01
 7.3197503E+00  4.3482159E+01
 7.3312502E+00  4.3568138E+01
 7.3427505E+00  4.3721142E+01
 7.3542504E+00  4.3771080E+01
 7.3657503E+00  4.3790653E+01
 7.3772502E+00  4.3789391E+01
 7.3887506E+00  4.3698711E+01
 7.4002504E+00  4.3786373E+01
 7.4117503E+00  4.3783833E+01
 7.4232502E+00  4.3758743E+01
 7.4347506E+00  4.3706413E+01
 7.4462504E+00  4.3723732E+01
 7.4577503E+00  4.3745907E+01
 7.4692502E+00  4.3705791E+01
 7.4807506E+00  4.3672798E+01
 7.4922504E+00  4.3643024E+01
 7.5037503E+00  4.3559059E+01
 7.5152502E+00  4.3513218E+01
 7.5267506E+00  4.3505199E+01
 7.5382504E+00  4.3558624E+01
 7.5497503E+00  4.3607079E+01
 7.5612502E+00  4.3757587E+01
 7.5727506E+00  4.3871990E+01
 7.5842505E+00  4.3900085E+01
 7.5957503E+00  4.3869602E+01
 7.6072502E+00  4.3916988E+01
 7.6187506E+00  4.4047260E+01
 7.6302505E+00  4.4139885E+01
 7.6417503E+00  4.4230206E+01
 7.6532502E+00  4.4174934E+01
 7.6647506E+00  4.4092369E+01
 7.6762505E+00  4.4005524E+01
 7.6877503E+00  4.3919060E+01
 7.6992502E+00  4.4000301E+01
 7.7107506E+00  4.3989777E+01
 7.7222505E+00  4.4469559E+01
 7.7337503E+00  4.4627766E+01
 7.7452502E+00  4.5565800E+01
 7.7567506E+00  4.5293156E+01
 7.7682505E+00  4.5454201E+01
 7.7797503E+00  4.4525715E+01
 7.7912502E+00  4.4438141E+01
 7.8027506E+00  4.4079659E+01
 7.8142505E+00  4.4064838E+01
 7.8257504E+00  4.3909359E+01
 7.8372502E+00  4.3909729E+01
 7.8487506E+00  4.3768276E+01
 7.8602505E+00  4.3739532E+01
 7.8717504E+00  4.3576492E+01
 7.8832502E+00  4.3412510E+01
 7.8947506E+00  4.3370602E+01
 7.9062505E+00  4.3413296E+01
 7.9177504E+00  4.3499634E+01
 7.9292502E+00  4.3519814E+01
 7.9407506E+00  4.3557213E+01
 7.9522505E+00  4.3498371E+01
 7.9637504E+00  4.3421703E+01
 7.9752502E+00  4.3249882E+01
 7.9867506E+00  4.3195831E+01
 7.9982505E+00  4.3121330E+01
 8.0097504E+00  4.3027000E+01
 8.0212507E+00  4.2874557E+01
 8.0327501E+00  4.2833015E+01
 8.0442505E+00  4.2823250E+01
 8.0557508E+00  4.2904392E+01
 8.0672503E+00  4.2945915E+01
 8.0787506E+00  4.2942177E+01
 8.0902500E+00  4.2919586E+01
 8.1017504E+00  4.2757339E+01
 8.1132507E+00  4.2565662E+01
 8.1247501E+00  4.2299576E+01
 8.1362505E+00  4.2166336E+01
 8.1477509E+00  4.2044960E+01
 8.1592503E+00  4.1933411E+01
 8.1707506E+00  4.1835049E+01
 8.1822500E+00  4.1697777E+01
 8.1937504E+00  4.1680916E+01
 8.2052507E+00  4.1597618E+01
 8.2167501E+00  4.1601185E+01
 8.2282505E+00  4.1470001E+01
 8.2397509E+00  4.1329655E+01
 8.2512503E+00  4.1177505E+01
 8.2627506E+00  4.1030033E+01
 8.2742500E+00  4.0910603E+01
 8.2857504E+00  4.0735897E+01
 8.2972507E+00  4.0628651E+01
 8.3087502E+00  4.0473053E+01
 8.3202505E+00  4.0389271E+01
 8.3317509E+00  4.0197651E+01
 8.3432503E+00  4.0059052E+01
 8.3547506E+00  3.9942223E+01
 8.3662500E+00  3.9801384E+01
 8.3777504E+00  3.9598499E+01
 8.3892508E+00  3.9422848E+01
 8.4007502E+00  3.9256783E+01
 8.4122505E+00  3.9078640E+01
 8.4237509E+00  3.8813953E+01
 8.4352503E+00  3.8561371E+01
 8.4467506E+00  3.8335743E+01
 8.4582500E+00  3.8129032E+01
 8.4697504E+00  3.7974094E+01
 8.4812508E+00  3.7784386E+01
 8.4927502E+00  3.7670979E+01
 8.5042505E+00  3.7574345E+01
 8.5157509E+00  3.7558712E+01
 8.5272503E+00  3.7426620E+01
 8.5387506E+00  3.7341648E+01
 8.5502501E+00  3.7067646E+01
 8.5617504E+00  3.6809265E+01
 8.5732508E+00  3.6496517E+01
 8.5847502E+00  3.6255116E+01
 8.5962505E+00  3.6036293E+01
 8.6077509E+00  3.5829876E+01
 8.6192503E+00  3.5739651E+01
 8.6307507E+00  3.5637108E+01
 8.6422501E+00  3.5483372E+01
 8.6537504E+00  3.5291187E+01
 8.6652508E+00  3.5006939E+01
 8.6767502E+00  3.4846825E+01
 8.6882505E+00  3.4692032E+01
 8.6997509E+00  3.4561481E+01
 8.7112503E+00  3.4398056E+01
 8.7227507E+00  3.4192570E+01
 8.7342501E+00  3.3993073E+01
 8.7457504E+00  3.3749729E+01
 8.7572508E+00  3.3465206E+01
 8.7687502E+00  3.3319962E+01
 8.7802505E+00  3.3229271E+01
 8.7917500E+00  3.3134666E+01
 8.8032503E+00  3.3058136E+01
 8.8147507E+00  3.2891758E+01
 8.8262501E+00  3.2813969E+01
 8.8377504E+00  3.2746857E+01
 8.8492508E+00  3.2673412E+01
 8.8607502E+00  3.2622318E+01
 8.8722506E+00  3.2509029E+01
 8.8837500E+00  3.2365772E+01
 8.8952503E+00  3.2177563E+01
 8.9067507E+00  3.1921144E+01
 8.9182501E+00  3.1706709E+01
 8.9297504E+00  3.1475428E+01
 8.9412508E+00  3.1335575E+01
 8.9527502E+00  3.1252474E+01
 8.9642506E+00  3.1130096E+01
 8.9757500E+00  3.0949169E+01
 8.9872503E+00  3.0698891E+01
 8.9987507E+00  3.0501144E+01
 9.0102501E+00  3.0334272E+01
 9.0217505E+00  3.0259184E+01
 9.0332508E+00  3.0198906E+01
 9.0447502E+00  3.0198282E+01
 9.0562506E+00  3.0082911E+01
 9.0677500E+00  3.0024015E+01
 9.0792503E+00  2.9889729E+01
 9.0907507E+00  2.9757977E+01
 9.1022501E+00  2.9557528E+01
 9.1137505E+00  2.9416344E+01
 9.1252508E+00  2.9279709E+01
 9.1367502E+00  2.9115776E+01
 9.1482506E+00  2.9006483E+01
 9.1597500E+00  2.8915707E+01
 9.1712503E+00  2.8853277E+01
 9.1827507E+00  2.8782818E+01
 9.1942501E+00  2.8684017E+01
 9.2057505E+00  2.8588043E+01
 9.2172508E+00  2.8515228E+01
 9.2287502E+00  2.8385288E+01
 9.2402506E+00  2.8305573E+01
 9.2517500E+00  2.8151793E+01
 9.2632504E+00  2.8045208E+01
 9.2747507E+00  2.7936991E+01
 9.2862501E+00  2.7793921E+01
 9.2977505E+00  2.7694880E+01
 9.3092508E+00  2.7552439E+01
 9.3207502E+00  2.7460844E+01
 9.3322506E+00  2.7376034E+01
 9.3437500E+00  2.7340765E+01
 9.3552504E+00  2.7222040E+01
 9.3667507E+00  2.7159325E+01
 9.3782501E+00  2.7016470E+01
 9.3897505E+00  2.6940983E+01
 9.4012508E+00  2.6838097E+01
 9.4127502E+00  2.6747377E+01
 9.4242506E+00  2.6684935E+01
 9.4357500E+00  2.6612906E+01
 9.4472504E+00  2.6570345E+01
 9.4587507E+00  2.6482719E+01
 9.4702501E+00  2.6468712E+01
 9.4817505E+00  2.6434689E+01
 9.4932508E+00  2.6424791E+01
 9.5047503E+00  2.6335268E+01
 9.5162506E+00  2.6284861E+01
 9.5277500E+00  2.6230837E+01
 9.5392504E+00  2.6188019E+01
 9.5507507E+00  2.6099920E+01
 9.5622501E+00  2.6079069E+01
 9.5737505E+00  2.6014074E+01
 9.5852509E+00  2.5990232E+01
 9.5967503E+00  2.5945471E+01
 9.6082506E+00  2.5892954E+01
 9.6197500E+00  2.5813160E+01
 9.6312504E+00  2.5656574E+01
 9.6427507E+00  2.5515690E+01
 9.6542501E+00  2.5397982E+01
 9.6657505E+00  2.5343262E+01
 9.6772509E+00  2.5308022E+01
 9.6887503E+00  2.5246380E+01
 9.7002506E+00  2.5221817E+01
 9.7117500E+00  2.5262358E+01
 9.7232504E+00  2.5341572E+01
 9.7347507E+00  2.5345804E+01
 9.7462502E+00  2.5319365E+01
 9.7577505E+00  2.5200308E+01
 9.7692509E+00  2.5170475E+01
 9.7807503E+00  2.5089174E+01
 9.7922506E+00  2.5051289E+01
 9.8037500E+00  2.5018579E+01
 9.8152504E+00  2.4983511E+01
 9.8267508E+00  2.4951231E+01
 9.8382502E+00  2.4911366E+01
 9.8497505E+00  2.4844404E+01
 9.8612509E+00  2.4753815E+01
 9.8727503E+00  2.4680588E+01
 9.8842506E+00  2.4566296E+01
 9.8957500E+00  2.4528006E+01
 9.9072504E+00  2.4480816E+01
 9.9187508E+00  2.4523819E+01
 9.9302502E+00  2.4588505E+01
 9.9417505E+00  2.4621790E+01
 9.9532509E+00  2.4600832E+01
 9.9647503E+00  2.4600224E+01
 9.9762506E+00  2.4516163E+01
 9.9877501E+00  2.4433123E+01
 9.9992504E+00  2.4296871E+01
 1.0010751E+01  2.4215509E+01
 1.0022250E+01  2.4165085E+01
 1.0033751E+01  2.4122269E+01
 1.0045251E+01  2.4093231E+01
 1.0056750E+01  2.4060699E+01
 1.0068251E+01  2.4039246E+01
 1.0079750E+01  2.3999239E+01
 1.0091250E+01  2.3924841E+01
 1.0102751E+01  2.3869244E+01
 1.0114250E+01  2.3826550E+01
 1.0125751E+01  2.3845087E+01
 1.0137251E+01  2.3834532E+01
 1.0148750E+01  2.3911892E+01
 1.0160251E+01  2.3992331E+01
 1.0171750E+01  2.4066851E+01
 1.0183250E+01  2.4009182E+01
 1.0194751E+01  2.3903976E+01
 1.0206250E+01  2.3811415E+01
 1.0217751E+01  2.3756666E+01
 1.0229251E+01  2.3688009E+01
 1.0240750E+01  2.3618681E+01
 1.0252251E+01  2.3538605E+01
 1.0263750E+01  2.3498245E+01
 1.0275250E+01  2.3502499E+01
 1.0286751E+01  2.3513226E+01
 1.0298250E+01  2.3534058E+01
 1.0309751E+01  2.3527498E+01
 1.0321251E+01  2.3540497E+01
 1.0332750E+01  2.3568527E+01
 1.0344251E+01  2.3599184E+01
 1.0355750E+01  2.3634216E+01
 1.0367250E+01  2.3623251E+01
 1.0378751E+01  2.3590042E+01
 1.0390250E+01  2.3515648E+01
 1.0401751E+01  2.3482386E+01
 1.0413251E+01  2.3407385E+01
 1.0424750E+01  2.3372765E+01
 1.0436251E+01  2.3351160E+01
 1.0447750E+01  2.3364616E+01
 1.0459250E+01  2.3324474E+01
 1.0470751E+01  2.3332626E+01
 1.0482250E+01  2.3332529E+01
 1.0493751E+01  2.3418900E+01
 1.0505251E+01  2.3389875E+01
 1.0516750E+01  2.3365572E+01
 1.0528251E+01  2.3254662E+01
 1.0539750E+01  2.3168331E+01
 1.0551250E+01  2.3095152E+01
 1.0562751E+01  2.3057261E+01
 1.0574250E+01  2.2972858E+01
 1.0585751E+01  2.2963711E+01
 1.0597251E+01  2.2893198E+01
 1.0608750E+01  2.2939093E+01
 1.0620251E+01  2.2875935E+01
 1.0631750E+01  2.2920599E+01
 1.0643250E+01  2.2939865E+01
 1.0654751E+01  2.3011003E+01
 1.0666250E+01  2.3070868E+01
 1.0677751E+01  2.3021187E+01
 1.0689251E+01  2.3013193E+01
 1.0700750E+01  2.2976748E+01
 1.0712251E+01  2.2991556E+01
 1.0723750E+01  2.2986534E+01
 1.0735250E+01  2.2917429E+01
 1.0746751E+01  2.2910604E+01
 1.0758250E+01  2.2883350E+01
 1.0769751E+01  2.2900482E+01
 1.0781251E+01  2.2907223E+01
 1.0792750E+01  2.2878487E+01
 1.0804251E+01  2.2843685E+01
 1.0815750E+01  2.2790646E+01
 1.0827250E+01  2.2775604E+01
 1.0838751E+01  2.2775955E+01
 1.0850250E+01  2.2739542E+01
 1.0861751E+01  2.2768600E+01
 1.0873251E+01  2.2826639E+01
 1.0884750E+01  2.2909332E+01
 1.0896251E+01  2.2897341E+01
 1.0907750E+01  2.2911245E+01
 1.0919250E+01  2.2913574E+01
 1.0930751E+01  2.2936272E+01
 1.0942250E+01  2.2826349E+01
 1.0953751E+01  2.2797607E+01
 1.0965251E+01  2.2712093E+01
 1.0976750E+01  2.2732803E+01
 1.0988251E+01  2.2663776E+01
 1.0999750E+01  2.2693287E+01
 1.1011250E+01  2.2704163E+01
 1.1022751E+01  2.2752464E+01
 1.1034250E+01  2.2763371E+01
 1.1045751E+01  2.2751535E+01
 1.1057251E+01  2.2746073E+01
 1.1068750E+01  2.2751280E+01
 1.1080251E+01  2.2711452E+01
 1.1091750E+01  2.2657669E+01
 1.1103251E+01  2.2592918E+01
 1.1114751E+01  2.2601259E+01
 1.1126250E+01  2.2647707E+01
 1.1137751E+01  2.2641611E+01
 1.1149251E+01  2.2637302E+01
 1.1160750E+01  2.2573814E+01
 1.1172251E+01  2.2505110E+01
 1.1183750E+01  2.2465647E+01
 1.1195251E+01  2.2428152E+01
 1.1206751E+01  2.2457727E+01
 1.1218250E+01  2.2444927E+01
 1.1229751E+01  2.2476677E+01
 1.1241251E+01  2.2494976E+01
 1.1252750E+01  2.2489796E+01
 1.1264251E+01  2.2480635E+01
 1.1275750E+01  2.2444708E+01
 1.1287251E+01  2.2483376E+01
 1.1298751E+01  2.2435316E+01
 1.1310250E+01  2.2490452E+01
 1.1321751E+01  2.2459183E+01
 1.1333251E+01  2.2485575E+01
 1.1344750E+01  2.2478012E+01
 1.1356251E+01  2.2515488E+01
 1.1367750E+01  2.2624203E+01
 1.1379251E+01  2.2667530E+01
 1.1390751E+01  2.2728212E+01
 1.1402250E+01  2.2833090E+01
 1.1413751E+01  2.2862602E+01
 1.1425251E+01  2.2889309E+01
 1.1436750E+01  2.2839895E+01
 1.1448251E+01  2.2876068E+01
 1.1459750E+01  2.2925142E+01
 1.1471251E+01  2.2984301E+01
 1.1482751E+01  2.2983440E+01
 1.1494250E+01  2.3008198E+01
 1.1505751E+01  2.3070499E+01
 1.1517251E+01  2.3269056E+01
 1.1528750E+01  2.3663090E+01
 1.1540251E+01  2.4197102E+01
 1.1551750E+01  2.5153500E+01
 1.1563251E+01  2.6085991E+01
 1.1574751E+01  2.7873184E+01
 1.1586250E+01  2.8897955E+01
 1.1597751E+01  3.0697594E+01
 1.1609251E+01  3.0477720E+01
 1.1620750E+01  3.0357534E+01
 1.1632251E+01  2.8427477E+01
 1.1643750E+01  2.6896572E+01
 1.1655251E+01  2.5224955E+01
 1.1666751E+01  2.4087519E+01
 1.1678250E+01  2.3438705E+01
 1.1689751E+01  2.3061460E+01
 1.1701251E+01  2.2912371E+01
 1.1712750E+01  2.2870426E+01
 1.1724251E+01  2.2857712E+01
 1.1735750E+01  2.2851334E+01
 1.1747251E+01  2.2857430E+01
 1.1758751E+01  2.2806976E+01
 1.1770250E+01  2.2821815E+01
 1.1781751E+01  2.2777967E+01
 1.1793251E+01  2.2810564E+01
 1.1804750E+01  2.2809092E+01
 1.1816251E+01  2.2884951E+01
 1.1827750E+01  2.2980757E+01
 1.1839251E+01  2.3048441E+01
 1.1850751E+01  2.3078505E+01
 1.1862250E+01  2.3083477E+01
 1.1873751E+01  2.3134758E+01
 1.1885251E+01  2.3171789E+01
 1.1896750E+01  2.3303293E+01
 1.1908251E+01  2.3478182E+01
 1.1919750E+01  2.3828093E+01
 1.1931251E+01  2.4574327E+01
 1.1942751E+01  2.5427975E+01
 1.1954250E+01  2.7402529E+01
 1.1965751E+01  2.8686556E+01
 1.1977251E+01  3.1725281E+01
 1.1988750E+01  3.2086922E+01
 1.2000251E+01  3.3946938E+01
 1.2011750E+01  3.1763384E+01
 1.2023251E+01  3.1054230E+01
 1.2034751E+01  2.8413784E+01
 1.2046250E+01  2.8137053E+01
 1.2057751E+01  2.8192413E+01
 1.2069251E+01  2.9823965E+01
 1.2080750E+01  3.4820030E+01
 1.2092251E+01  4.1772686E+01
 1.2103750E+01  4.7283730E+01
 1.2115251E+01  5.9018181E+01
 1.2126751E+01  6.4950226E+01
 1.2138250E+01  6.5552612E+01
 1.2149751E+01  5.8105354E+01
 1.2161251E+01  4.9588852E+01
 1.2172750E+01  4.2855736E+01
 1.2184251E+01  3.3401932E+01
 1.2195750E+01  2.8368729E+01
 1.2207251E+01  2.6366503E+01
 1.2218751E+01  2.4854536E+01
 1.2230250E+01  2.4111578E+01
 1.2241751E+01  2.3870392E+01
 1.2253251E+01  2.3641054E+01
 1.2264750E+01  2.3571003E+01
 1.2276251E+01  2.3456690E+01
 1.2287750E+01  2.3400415E+01
 1.2299251E+01  2.3342791E+01
 1.2310751E+01  2.3308283E+01
 1.2322250E+01  2.3206861E+01
 1.2333751E+01  2.3152750E+01
 1.2345250E+01  2.3085367E+01
 1.2356750E+01  2.3052479E+01
 1.2368251E+01  2.2924463E+01
 1.2379750E+01  2.2853611E+01
 1.2391251E+01  2.2833006E+01
 1.2402751E+01  2.2857738E+01
 1.2414250E+01  2.2915258E+01
 1.2425751E+01  2.2902386E+01
 1.2437250E+01  2.2933922E+01
 1.2448750E+01  2.2860964E+01
 1.2460251E+01  2.2885015E+01
 1.2471750E+01  2.2936401E+01
 1.2483251E+01  2.2980354E+01
 1.2494751E+01  2.2940895E+01
 1.2506250E+01  2.2840023E+01
 1.2517751E+01  2.2794909E+01
 1.2529250E+01  2.2851593E+01
 1.2540751E+01  2.2928888E+01
 1.2552251E+01  2.2950106E+01
 1.2563750E+01  2.2915798E+01
 1.2575251E+01  2.2906092E+01
 1.2586751E+01  2.2922804E+01
 1.2598250E+01  2.2932346E+01
 1.2609751E+01  2.2933294E+01
 1.2621250E+01  2.2931435E+01
 1.2632751E+01  2.2942902E+01
 1.2644251E+01  2.2902611E+01
 1.2655750E+01  2.2910786E+01
 1.2667251E+01  2.2898067E+01
 1.2678751E+01  2.2914923E+01
 1.2690250E+01  2.2904047E+01
 1.2701751E+01  2.2934696E+01
 1.2713250E+01  2.2982738E+01
 1.2724751E+01  2.3032871E+01
 1.2736251E+01  2.3055904E+01
 1.2747750E+01  2.3084047E+01
 1.2759251E+01  2.3163391E+01
 1.2770751E+01  2.3167131E+01
 1.2782250E+01  2.3196440E+01
 1.2793751E+01  2.3132666E+01
 1.2805250E+01  2.3171740E+01
 1.2816751E+01  2.3199455E+01
 1.2828251E+01  2.3315948E+01
 1.2839750E+01  2.3351612E+01
 1.2851251E+01  2.3434593E+01
 1.2862751E+01  2.3452286E+01
 1.2874250E+01  2.3502916E+01
 1.2885751E+01  2.3482912E+01
 1.2897250E+01  2.3497358E+01
 1.2908751E+01  2.3536896E+01
 1.2920251E+01  2.3589798E+01
 1.2931750E+01  2.3638929E+01
 1.2943251E+01  2.3629555E+01
 1.2954751E+01  2.3628517E+01
 1.2966250E+01  2.3659563E+01
 1.2977751E+01  2.3721407E+01
 1.2989250E+01  2.3778290E+01
 1.3000751E+01  2.3845919E+01
 1.3012251E+01  2.3986860E+01
 1.3023750E+01  2.4135475E+01
 1.3035251E+01  2.4253908E+01
 1.3046751E+01  2.4311172E+01
 1.3058250E+01  2.4385864E+01
 1.3069751E+01  2.4399969E+01
 1.3081250E+01  2.4456747E+01
 1.3092751E+01  2.4543518E+01
 1.3104251E+01  2.4725193E+01
 1.3115750E+01  2.4925367E+01
 1.3127251E+01  2.5090300E+01
 1.3138751E+01  2.5221724E+01
 1.3150250E+01  2.5278118E+01
 1.3161751E+01  2.5358585E+01
 1.3173250E+01  2.5456465E+01
 1.3184751E+01  2.5577301E+01
 1.3196251E+01  2.5644207E+01
 1.3207750E+01  2.5821581E+01
 1.3219251E+01  2.5964834E+01
 1.3230751E+01  2.6185495E+01
 1.3242250E+01  2.6316051E+01
 1.3253751E+01  2.6451954E+01
 1.3265250E+01  2.6570700E+01
 1.3276751E+01  2.6690229E+01
 1.3288251E+01  2.6811682E+01
 1.3299750E+01  2.6872038E+01
 1.3311251E+01  2.6942562E+01
 1.3322751E+01  2.7010700E+01
 1.3334250E+01  2.7231443E+01
 1.3345751E+01  2.7350080E+01
 1.3357250E+01  2.7593399E+01
 1.3368751E+01  2.7665722E+01
 1.3380251E+01  2.7844294E+01
 1.3391750E+01  2.7941809E+01
 1.3403251E+01  2.8088923E+01
 1.3414751E+01  2.8206503E+01
 1.3426250E+01  2.8328203E+01
 1.3437751E+01  2.8527283E+01
 1.3449250E+01  2.8674829E+01
 1.3460751E+01  2.8826603E+01
 1.3472251E+01  2.8861382E+01
 1.3483750E+01  2.8982580E+01
 1.3495251E+01  2.9057537E+01
 1.3506751E+01  2.9196779E+01
 1.3518250E+01  2.9327969E+01
 1.3529751E+01  2.9411222E+01
 1.3541250E+01  2.9488823E+01
 1.3552751E+01  2.9473066E+01
 1.3564251E+01  2.9546068E+01
 1.3575750E+01  2.9551744E+01
 1.3587251E+01  2.9618666E+01
 1.3598751E+01  2.9692223E+01
 1.3610250E+01  2.9727240E+01
 1.3621751E+01  2.9754807E+01
 1.3633250E+01  2.9742586E+01
 1.3644751E+01  2.9734571E+01
 1.3656251E+01  2.9732462E+01
 1.3667750E+01  2.9720434E+01
 1.3679251E+01  2.9693226E+01
 1.3690751E+01  2.9641468E+01
 1.3702250E+01  2.9560791E+01
 1.3713751E+01  2.9534605E+01
 1.3725250E+01  2.9628376E+01
 1.3736751E+01  2.9586845E+01
 1.3748251E+01  2.9610970E+01
 1.3759750E+01  2.9527016E+01
 1.3771251E+01  2.9562431E+01
 1.3782751E+01  2.9489780E+01
 1.3794250E+01  2.9451124E+01
 1.3805751E+01  2.9400040E+01
 1.3817250E+01  2.9413902E+01
 1.3828751E+01  2.9398880E+01
 1.3840251E+01  2.9464455E+01
 1.3851750E+01  2.9592915E+01
 1.3863251E+01  2.9817450E+01
 1.3874751E+01  3.0320093E+01
 1.3886250E+01  3.1021551E+01
 1.3897751E+01  3.2493835E+01
 1.3909250E+01  3.4345512E+01
 1.3920751E+01  3.6779320E+01
 1.3932251E+01  3.9148258E+01
 1.3943750E+01  4.1802509E+01
 1.3955251E+01  4.2979279E+01
 1.3966751E+01  4.2739002E+01
 1.3978251E+01  4.0641479E+01
 1.3989751E+01  3.7695713E+01
 1.4001250E+01  3.4911377E+01
 1.4012751E+01  3.2248257E+01
 1.4024251E+01  3.0620275E+01
 1.4035750E+01  2.9391632E+01
 1.4047251E+01  2.8746586E+01
 1.4058751E+01  2.8318859E+01
 1.4070251E+01  2.8079372E+01
 1.4081751E+01  2.7815058E+01
 1.4093250E+01  2.7691826E+01
 1.4104751E+01  2.7583099E+01
 1.4116251E+01  2.7543360E+01
 1.4127750E+01  2.7466787E+01
 1.4139251E+01  2.7380482E+01
 1.4150751E+01  2.7250477E+01
 1.4162251E+01  2.7119852E+01
 1.4173751E+01  2.6965750E+01
 1.4185250E+01  2.6900494E+01
 1.4196751E+01  2.6823900E+01
 1.4208251E+01  2.6805454E+01
 1.4219750E+01  2.6771889E+01
 1.4231251E+01  2.6725761E+01
 1.4242751E+01  2.6678953E+01
 1.4254251E+01  2.6648523E+01
 1.4265751E+01  2.6604347E+01
 1.4277250E+01  2.6534739E+01
 1.4288751E+01  2.6434355E+01
 1.4300251E+01  2.6370022E+01
 1.4311750E+01  2.6312014E+01
 1.4323251E+01  2.6365227E+01
 1.4334751E+01  2.6323330E+01
 1.4346251E+01  2.6278051E+01
 1.4357751E+01  2.6073826E+01
 1.4369250E+01  2.6046970E+01
 1.4380751E+01  2.5998831E+01
 1.4392251E+01  2.6023096E+01
 1.4403750E+01  2.6046173E+01
 1.4415251E+01  2.6044920E+01
 1.4426751E+01  2.6021749E+01
 1.4438251E+01  2.5982901E+01
 1.4449751E+01  2.5969994E+01
 1.4461250E+01  2.5896717E+01
 1.4472751E+01  2.5830601E+01
 1.4484251E+01  2.5757605E+01
 1.4495750E+01  2.5706675E+01
 1.4507251E+01  2.5645311E+01
 1.4518751E+01  2.5601482E+01
 1.4530251E+01  2.5619690E+01
 1.4541751E+01  2.5621582E+01
 1.4553250E+01  2.5636976E+01
 1.4564751E+01  2.5590235E+01
 1.4576251E+01  2.5566622E+01
 1.4587750E+01  2.5504707E+01
 1.4599251E+01  2.5456955E+01
 1.4610751E+01  2.5386646E+01
 1.4622251E+01  2.5341274E+01
 1.4633751E+01  2.5345755E+01
 1.4645250E+01  2.5302223E+01
 1.4656751E+01  2.5250216E+01
 1.4668251E+01  2.5157164E+01
 1.4679750E+01  2.5164843E+01
 1.4691251E+01  2.5211485E+01
 1.4702751E+01  2.5273777E+01
 1.4714251E+01  2.5283712E+01
 1.4725751E+01  2.5287151E+01
 1.4737250E+01  2.5187561E+01
 1.4748751E+01  2.5136299E+01
 1.4760251E+01  2.5047455E+01
 1.4771750E+01  2.5043800E+01
 1.4783251E+01  2.5051134E+01
 1.4794751E+01  2.5063745E+01
 1.4806251E+01  2.5064741E+01
 1.4817751E+01  2.5010738E+01
 1.4829250E+01  2.5029375E+01
 1.4840751E+01  2.5027288E+01
 1.4852251E+01  2.5020056E+01
 1.4863750E+01  2.4987604E+01
 1.4875251E+01  2.4938595E+01
 1.4886751E+01  2.4972879E+01
 1.4898251E+01  2.4994011E+01
 1.4909751E+01  2.5031576E+01
 1.4921250E+01  2.4981213E+01
 1.4932751E+01  2.4941687E+01
 1.4944251E+01  2.4892929E+01
 1.4955750E+01  2.4887953E+01
 1.4967251E+01  2.4826355E+01
 1.4978751E+01  2.4817661E+01
 1.4990251E+01  2.4796255E+01
 1.5001751E+01  2.4860580E+01
 1.5013250E+01  2.4881491E+01
 1.5024751E+01  2.4915150E+01
 1.5036251E+01  2.4889273E+01
 1.5047750E+01  2.4894569E+01
 1.5059251E+01  2.4876211E+01
 1.5070751E+01  2.4924162E+01
 1.5082251E+01  2.4958811E+01
 1.5093751E+01  2.5066221E+01
 1.5105250E+01  2.5208599E+01
 1.5116751E+01  2.5413704E+01
 1.5128251E+01  2.5655872E+01
 1.5139750E+01  2.6177437E+01
 1.5151251E+01  2.6942806E+01
 1.5162751E+01  2.7903475E+01
 1.5174251E+01  2.8753031E+01
 1.5185751E+01  2.9257822E+01
 1.5197250E+01  2.9432476E+01
 1.5208751E+01  2.9217407E+01
 1.5220251E+01  2.8693939E+01
 1.5231750E+01  2.7915325E+01
 1.5243251E+01  2.7051041E+01
 1.5254751E+01  2.6375885E+01
 1.5266251E+01  2.5692236E+01
 1.5277751E+01  2.5345377E+01
 1.5289250E+01  2.5105528E+01
 1.5300751E+01  2.4946072E+01
 1.5312251E+01  2.4858147E+01
 1.5323750E+01  2.4801249E+01
 1.5335251E+01  2.4812553E+01
 1.5346751E+01  2.4803041E+01
 1.5358251E+01  2.4830015E+01
 1.5369751E+01  2.4844955E+01
 1.5381250E+01  2.4774265E+01
 1.5392751E+01  2.4664726E+01
 1.5404251E+01  2.4594442E+01
 1.5415751E+01  2.4502781E+01
 1.5427251E+01  2.4460629E+01
 1.5438751E+01  2.4453276E+01
 1.5450251E+01  2.4497826E+01
 1.5461751E+01  2.4575338E+01
 1.5473250E+01  2.4615925E+01
 1.5484751E+01  2.4654491E+01
 1.5496251E+01  2.4628286E+01
 1.5507751E+01  2.4617752E+01
 1.5519251E+01  2.4617001E+01
 1.5530751E+01  2.4590109E+01
 1.5542251E+01  2.4593998E+01
 1.5553751E+01  2.4574829E+01
 1.5565250E+01  2.4548195E+01
 1.5576751E+01  2.4524364E+01
 1.5588251E+01  2.4492056E+01
 1.5599751E+01  2.4480526E+01
 1.5611251E+01  2.4439322E+01
 1.5622751E+01  2.4402473E+01
 1.5634251E+01  2.4381449E+01
 1.5645751E+01  2.4458233E+01
 1.5657250E+01  2.4578230E+01
 1.5668751E+01  2.4701942E+01
 1.5680251E+01  2.4732141E+01
 1.5691751E+01  2.4769754E+01
 1.5703251E+01  2.4757078E+01
 1.5714751E+01  2.4758686E+01
 1.5726251E+01  2.4711235E+01
 1.5737751E+01  2.4599979E+01
 1.5749250E+01  2.4524145E+01
 1.5760751E+01  2.4545162E+01
 1.5772251E+01  2.4643175E+01
 1.5783751E+01  2.4697227E+01
 1.5795251E+01  2.4687717E+01
 1.5806751E+01  2.4719017E+01
 1.5818251E+01  2.4714159E+01
 1.5829751E+01  2.4733908E+01
 1.5841250E+01  2.4685307E+01
 1.5852751E+01  2.4655313E+01
 1.5864251E+01  2.4605427E+01
 1.5875751E+01  2.4569633E+01
 1.5887251E+01  2.4607618E+01
 1.5898750E+01  2.4620243E+01
 1.5910251E+01  2.4694874E+01
 1.5921751E+01  2.4717918E+01
 1.5933250E+01  2.4738577E+01
 1.5944751E+01  2.4680408E+01
 1.5956251E+01  2.4645906E+01
 1.5967751E+01  2.4619337E+01
 1.5979251E+01  2.4593275E+01
 1.5990750E+01  2.4608456E+01
 1.6002251E+01  2.4624302E+01
 1.6013750E+01  2.4675486E+01
 1.6025251E+01  2.4706377E+01
 1.6036751E+01  2.4779259E+01
 1.6048250E+01  2.4803425E+01
 1.6059752E+01  2.4807884E+01
 1.6071251E+01  2.4717720E+01
 1.6082750E+01  2.4710228E+01
 1.6094252E+01  2.4653925E+01
 1.6105751E+01  2.4737995E+01
 1.6117250E+01  2.4793884E+01
 1.6128750E+01  2.4857641E+01
 1.6140251E+01  2.4885527E+01
 1.6151751E+01  2.4892370E+01
 1.6163250E+01  2.4977795E+01
 1.6174751E+01  2.4937569E+01
 1.6186251E+01  2.5103510E+01
 1.6197750E+01  2.5038231E+01
 1.6209251E+01  2.5435438E+01
 1.6220751E+01  2.5436220E+01
 1.6232250E+01  2.5920904E+01
 1.6243752E+01  2.6057613E+01
 1.6255251E+01  2.6326960E+01
 1.6266750E+01  2.6507034E+01
 1.6278252E+01  2.6198917E+01
 1.6289751E+01  2.6240995E+01
 1.6301250E+01  2.5518532E+01
 1.6312750E+01  2.5571077E+01
 1.6324251E+01  2.5070047E+01
 1.6335751E+01  2.5183535E+01
 1.6347250E+01  2.4976027E+01
 1.6358751E+01  2.4973230E+01
 1.6370251E+01  2.4876694E+01
 1.6381750E+01  2.4843269E+01
 1.6393251E+01  2.4832247E+01
 1.6404751E+01  2.4724640E+01
 1.6416250E+01  2.4690859E+01
 1.6427752E+01  2.4603605E+01
 1.6439251E+01  2.4641640E+01
 1.6450750E+01  2.4614660E+01
 1.6462252E+01  2.4660595E+01
 1.6473751E+01  2.4671265E+01
 1.6485250E+01  2.4725821E+01
 1.6496750E+01  2.4711918E+01
 1.6508251E+01  2.4705271E+01
 1.6519751E+01  2.4697046E+01
 1.6531250E+01  2.4693529E+01
 1.6542751E+01  2.4733177E+01
 1.6554251E+01  2.4721569E+01
 1.6565750E+01  2.4744745E+01
 1.6577251E+01  2.4695946E+01
 1.6588751E+01  2.4648643E+01
 1.6600250E+01  2.4632025E+01
 1.6611752E+01  2.4614258E+01
 1.6623251E+01  2.4529694E+01
 1.6634750E+01  2.4509033E+01
 1.6646252E+01  2.4515591E+01
 1.6657751E+01  2.4564020E+01
 1.6669250E+01  2.4559570E+01
 1.6680750E+01  2.4524269E+01
 1.6692251E+01  2.4562370E+01
 1.6703751E+01  2.4513100E+01
 1.6715250E+01  2.4569130E+01
 1.6726751E+01  2.4545515E+01
 1.6738251E+01  2.4611660E+01
 1.6749750E+01  2.4593948E+01
 1.6761251E+01  2.4598314E+01
 1.6772751E+01  2.4566242E+01
 1.6784250E+01  2.4539831E+01
 1.6795752E+01  2.4495565E+01
 1.6807251E+01  2.4482504E+01
 1.6818750E+01  2.4468946E+01
 1.6830252E+01  2.4401501E+01
 1.6841751E+01  2.4350365E+01
 1.6853251E+01  2.4323654E+01
 1.6864750E+01  2.4322613E+01
 1.6876251E+01  2.4315315E+01
 1.6887751E+01  2.4265438E+01
 1.6899250E+01  2.4267159E+01
 1.6910751E+01  2.4299942E+01
 1.6922251E+01  2.4379684E+01
 1.6933750E+01  2.4404940E+01
 1.6945251E+01  2.4410646E+01
 1.6956751E+01  2.4393684E+01
 1.6968250E+01  2.4402342E+01
 1.6979752E+01  2.4428263E+01
 1.6991251E+01  2.4438686E+01
 1.7002750E+01  2.4427906E+01
 1.7014252E+01  2.4414787E+01
 1.7025751E+01  2.4404144E+01
 1.7037251E+01  2.4359411E+01
 1.7048750E+01  2.4306160E+01
 1.7060251E+01  2.4240986E+01
 1.7071751E+01  2.4248404E+01
 1.7083250E+01  2.4256468E+01
 1.7094751E+01  2.4286608E+01
 1.7106251E+01  2.4270420E+01
 1.7117750E+01  2.4247782E+01
 1.7129251E+01  2.4260164E+01
 1.7140751E+01  2.4244175E+01
 1.7152250E+01  2.4219660E+01
 1.7163752E+01  2.4197056E+01
 1.7175251E+01  2.4188065E+01
 1.7186750E+01  2.4165466E+01
 1.7198252E+01  2.4138716E+01
 1.7209751E+01  2.4117846E+01
 1.7221251E+01  2.4124634E+01
 1.7232750E+01  2.4156662E+01
 1.7244251E+01  2.4178913E+01
 1.7255751E+01  2.4134596E+01
 1.7267250E+01  2.4107479E+01
 1.7278751E+01  2.4110201E+01
 1.7290251E+01  2.4118668E+01
 1.7301750E+01  2.4133196E+01
 1.7313251E+01  2.4102448E+01
 1.7324751E+01  2.4087580E+01
 1.7336250E+01  2.4055044E+01
 1.7347752E+01  2.4064283E+01
 1.7359251E+01  2.4063974E+01
 1.7370750E+01  2.4068567E+01
 1.7382252E+01  2.4035553E+01
 1.7393751E+01  2.4005413E+01
 1.7405251E+01  2.3997948E+01
 1.7416750E+01  2.4032732E+01
 1.7428251E+01  2.4110870E+01
 1.7439751E+01  2.4150686E+01
 1.7451250E+01  2.4202646E+01
 1.7462751E+01  2.4180313E+01
 1.7474251E+01  2.4157799E+01
 1.7485750E+01  2.4086105E+01
 1.7497252E+01  2.4012007E+01
 1.7508751E+01  2.3988470E+01
 1.7520250E+01  2.3966003E+01
 1.7531752E+01  2.3976639E+01
 1.7543251E+01  2.3976143E+01
 1.7554750E+01  2.3974020E+01
 1.7566252E+01  2.3988960E+01
 1.7577751E+01  2.3953939E+01
 1.7589251E+01  2.3934675E+01
 1.7600750E+01  2.3917776E+01
 1.7612251E+01  2.3954380E+01
 1.7623751E+01  2.3981405E+01
 1.7635250E+01  2.3940710E+01
 1.7646751E+01  2.3917051E+01
 1.7658251E+01  2.3876640E+01
 1.7669750E+01  2.3869215E+01
 1.7681252E+01  2.3842085E+01
 1.7692751E+01  2.3844923E+01
 1.7704250E+01  2.3888002E+01
 1.7715752E+01  2.3918909E+01
 1.7727251E+01  2.3939167E+01
 1.7738750E+01  2.3885834E+01
 1.7750252E+01  2.3862579E+01
 1.7761751E+01  2.3831905E+01
 1.7773251E+01  2.3850748E+01
 1.7784750E+01  2.3864414E+01
 1.7796251E+01  2.3934874E+01
 1.7807751E+01  2.3929527E+01
 1.7819250E+01  2.3934561E+01
 1.7830751E+01  2.3927614E+01
 1.7842251E+01  2.3938093E+01
 1.7853750E+01  2.3957745E+01
 1.7865252E+01  2.3978153E+01
 1.7876751E+01  2.3998894E+01
 1.7888250E+01  2.3958183E+01
 1.7899752E+01  2.3957119E+01
 1.7911251E+01  2.3996090E+01
 1.7922750E+01  2.4043879E+01
 1.7934252E+01  2.4046829E+01
 1.7945751E+01  2.4066450E+01
 1.7957251E+01  2.4133097E+01
 1.7968750E+01  2.4343239E+01
 1.7980251E+01  2.4568796E+01
 1.7991751E+01  2.5003098E+01
 1.8003250E+01  2.5484987E+01
 1.8014751E+01  2.5864862E+01
 1.8026251E+01  2.6195404E+01
 1.8037750E+01  2.6405420E+01
 1.8049252E+01  2.6525822E+01
 1.8060751E+01  2.6833574E+01
 1.8072250E+01  2.7084461E+01
 1.8083752E+01  2.7627001E+01
 1.8095251E+01  2.8192680E+01
 1.8106750E+01  2.8301249E+01
 1.8118252E+01  2.8876049E+01
 1.8129751E+01  2.8500284E+01
 1.8141251E+01  2.8276150E+01
 1.8152750E+01  2.6981127E+01
 1.8164251E+01  2.6285749E+01
 1.8175751E+01  2.5597067E+01
 1.8187250E+01  2.4799154E+01
 1.8198751E+01  2.4553701E+01
 1.8210251E+01  2.4297216E+01
 1.8221750E+01  2.4183704E+01
 1.8233252E+01  2.4053263E+01
 1.8244751E+01  2.3954216E+01
 1.8256250E+01  2.3932308E+01
 1.8267752E+01  2.3871866E+01
 1.8279251E+01  2.3803402E+01
 1.8290751E+01  2.3807837E+01
 1.8302252E+01  2.3772556E+01
 1.8313751E+01  2.3781824E+01
 1.8325251E+01  2.3781952E+01
 1.8336750E+01  2.3829655E+01
 1.8348251E+01  2.3848173E+01
 1.8359751E+01  2.3820404E+01
 1.8371250E+01  2.3819111E+01
 1.8382751E+01  2.3815731E+01
 1.8394251E+01  2.3899313E+01
 1.8405750E+01  2.3908373E+01
 1.8417252E+01  2.3896669E+01
 1.8428751E+01  2.3812748E+01
 1.8440250E+01  2.3790884E+01
 1.8451752E+01  2.3750862E+01
 1.8463251E+01  2.3726564E+01
 1.8474751E+01  2.3729980E+01
 1.8486252E+01  2.3810225E+01
 1.8497751E+01  2.3806288E+01
 1.8509251E+01  2.3863733E+01
 1.8520750E+01  2.3744326E+01
 1.8532251E+01  2.3766703E+01
 1.8543751E+01  2.3701050E+01
 1.8555250E+01  2.3710293E+01
 1.8566751E+01  2.3725138E+01
 1.8578251E+01  2.3767878E+01
 1.8589750E+01  2.3787096E+01
 1.8601252E+01  2.3758202E+01
 1.8612751E+01  2.3739754E+01
 1.8624250E+01  2.3699497E+01
 1.8635752E+01  2.3728304E+01
 1.8647251E+01  2.3685101E+01
 1.8658751E+01  2.3672344E+01
 1.8670252E+01  2.3608667E+01
 1.8681751E+01  2.3645893E+01
 1.8693251E+01  2.3676588E+01
 1.8704750E+01  2.3699242E+01
 1.8716251E+01  2.3691996E+01
 1.8727751E+01  2.3645126E+01
 1.8739250E+01  2.3615442E+01
 1.8750751E+01  2.3573830E+01
 1.8762251E+01  2.3557455E+01
 1.8773750E+01  2.3509914E+01
 1.8785252E+01  2.3512772E+01
 1.8796751E+01  2.3536861E+01
 1.8808250E+01  2.3540409E+01
 1.8819752E+01  2.3544779E+01
 1.8831251E+01  2.3540415E+01
 1.8842751E+01  2.3568342E+01
 1.8854252E+01  2.3570177E+01
 1.8865751E+01  2.3589973E+01
 1.8877251E+01  2.3584799E+01
 1.8888750E+01  2.3579641E+01
 1.8900251E+01  2.3580727E+01
 1.8911751E+01  2.3612329E+01
 1.8923250E+01  2.3617540E+01
 1.8934752E+01  2.3644575E+01
 1.8946251E+01  2.3680994E+01
 1.8957750E+01  2.3705460E+01
 1.8969252E+01  2.3677546E+01
 1.8980751E+01  2.3693747E+01
 1.8992250E+01  2.3660917E+01
 1.9003752E+01  2.3656906E+01
 1.9015251E+01  2.3634415E+01
 1.9026751E+01  2.3649719E+01
 1.9038252E+01  2.3622078E+01
 1.9049751E+01  2.3604870E+01
 1.9061251E+01  2.3601965E+01
 1.9072750E+01  2.3591705E+01
 1.9084251E+01  2.3535954E+01
 1.9095751E+01  2.3521687E+01
 1.9107250E+01  2.3531143E+01
 1.9118752E+01  2.3564945E+01
 1.9130251E+01  2.3619143E+01
 1.9141750E+01  2.3677906E+01
 1.9153252E+01  2.3736710E+01
 1.9164751E+01  2.3701069E+01
 1.9176250E+01  2.3662838E+01
 1.9187752E+01  2.3638954E+01
 1.9199251E+01  2.3632357E+01
 1.9210751E+01  2.3643297E+01
 1.9222252E+01  2.3599791E+01
 1.9233751E+01  2.3607401E+01
 1.9245251E+01  2.3643513E+01
 1.9256750E+01  2.3712751E+01
 1.9268251E+01  2.3674072E+01
 1.9279751E+01  2.3606503E+01
 1.9291250E+01  2.3585661E+01
 1.9302752E+01  2.3600855E+01
 1.9314251E+01  2.3667158E+01
 1.9325750E+01  2.3672092E+01
 1.9337252E+01  2.3679096E+01
 1.9348751E+01  2.3688358E+01
 1.9360250E+01  2.3725456E+01
 1.9371752E+01  2.3769754E+01
 1.9383251E+01  2.3771286E+01
 1.9394751E+01  2.3825928E+01
 1.9406250E+01  2.3856762E+01
 1.9417751E+01  2.3912020E+01
 1.9429251E+01  2.3905859E+01
 1.9440750E+01  2.3900198E+01
 1.9452251E+01  2.3885836E+01
 1.9463751E+01  2.3888844E+01
 1.9475250E+01  2.3906065E+01
 1.9486752E+01  2.3885288E+01
 1.9498251E+01  2.3874107E+01
 1.9509750E+01  2.3866302E+01
 1.9521252E+01  2.3922375E+01
 1.9532751E+01  2.3931162E+01
 1.9544250E+01  2.3965120E+01
 1.9555752E+01  2.3968431E+01
 1.9567251E+01  2.3961239E+01
 1.9578751E+01  2.4063248E+01
 1.9590250E+01  2.4090654E+01
 1.9601751E+01  2.4221222E+01
 1.9613251E+01  2.4359051E+01
 1.9624750E+01  2.4507240E+01
 1.9636251E+01  2.4913906E+01
 1.9647751E+01  2.5144541E+01
 1.9659250E+01  2.6326773E+01
 1.9670752E+01  2.7325617E+01
 1.9682251E+01  2.9104959E+01
 1.9693750E+01  3.1014469E+01
 1.9705252E+01  3.1528217E+01
 1.9716751E+01  3.2664986E+01
 1.9728251E+01  3.0514122E+01
 1.9739752E+01  3.0198162E+01
 1.9751251E+01  2.8048355E+01
 1.9762751E+01  2.7403330E+01
 1.9774250E+01  2.6638636E+01
 1.9785751E+01  2.6311125E+01
 1.9797251E+01  2.6455599E+01
 1.9808750E+01  2.6743937E+01
 1.9820251E+01  2.7404375E+01
 1.9831751E+01  2.8377228E+01
 1.9843250E+01  2.8814257E+01
 1.9854752E+01  2.9342936E+01
 1.9866251E+01  2.9113680E+01
 1.9877750E+01  2.8643953E+01
 1.9889252E+01  2.7492023E+01
 1.9900751E+01  2.6988247E+01
 1.9912251E+01  2.6431700E+01
 1.9923752E+01  2.5717957E+01
 1.9935251E+01  2.5360512E+01
 1.9946751E+01  2.4873312E+01
 1.9958250E+01  2.4554508E+01
 1.9969751E+01  2.4370771E+01
 1.9981251E+01  2.4206957E+01
 1.9992750E+01  2.4164299E+01
 2.0004251E+01  2.4093826E+01
 2.0015751E+01  2.4116987E+01
 2.0027250E+01  2.4063629E+01
 2.0038752E+01  2.4038849E+01
 2.0050251E+01  2.4035278E+01
 2.0061750E+01  2.3972857E+01
 2.0073252E+01  2.3942884E+01
 2.0084751E+01  2.3891483E+01
 2.0096251E+01  2.3944700E+01
 2.0107752E+01  2.3909323E+01
 2.0119251E+01  2.3950407E+01
 2.0130751E+01  2.3957653E+01
 2.0142250E+01  2.3942663E+01
 2.0153751E+01  2.3950617E+01
 2.0165251E+01  2.3920561E+01
 2.0176750E+01  2.3917755E+01
 2.0188251E+01  2.3843592E+01
 2.0199751E+01  2.3837702E+01
 2.0211250E+01  2.3816004E+01
 2.0222752E+01  2.3809681E+01
 2.0234251E+01  2.3832003E+01
 2.0245750E+01  2.3868011E+01
 2.0257252E+01  2.3885975E+01
 2.0268751E+01  2.3852018E+01
 2.0280251E+01  2.3851830E+01
 2.0291752E+01  2.3853380E+01
 2.0303251E+01  2.3838392E+01
 2.0314751E+01  2.3819000E+01
 2.0326250E+01  2.3802341E+01
 2.0337751E+01  2.3761541E+01
 2.0349251E+01  2.3745348E+01
 2.0360750E+01  2.3722677E+01
 2.0372252E+01  2.3732334E+01
 2.0383751E+01  2.3718111E+01
 2.0395250E+01  2.3747255E+01
 2.0406752E+01  2.3815454E+01
 2.0418251E+01  2.3967468E+01
 2.0429750E+01  2.4037539E+01
 2.0441252E+01  2.4080845E+01
 2.0452751E+01  2.4062994E+01
 2.0464251E+01  2.4067276E+01
 2.0475752E+01  2.3973326E+01
 2.0487251E+01  2.3951757E+01
 2.0498751E+01  2.3920147E+01
 2.0510250E+01  2.3859154E+01
 2.0521751E+01  2.3862797E+01
 2.0533251E+01  2.3918365E+01
 2.0544750E+01  2.3950840E+01
 2.0556252E+01  2.3958677E+01
 2.0567751E+01  2.3952015E+01
 2.0579250E+01  2.3919758E+01
 2.0590752E+01  2.3882813E+01
 2.0602251E+01  2.3912977E+01
 2.0613750E+01  2.3976576E+01
 2.0625252E+01  2.4067688E+01
 2.0636751E+01  2.4109255E+01
 2.0648251E+01  2.4149168E+01
 2.0659752E+01  2.4143618E+01
 2.0671251E+01  2.4228342E+01
 2.0682751E+01  2.4361973E+01
 2.0694250E+01  2.4587593E+01
 2.0705751E+01  2.4896791E+01
 2.0717251E+01  2.5329132E+01
 2.0728750E+01  2.5799103E+01
 2.0740252E+01  2.6206758E+01
 2.0751751E+01  2.6542078E+01
 2.0763250E+01  2.6720533E+01
 2.0774752E+01  2.6755564E+01
 2.0786251E+01  2.6500158E+01
 2.0797750E+01  2.6122210E+01
 2.0809252E+01  2.5626009E+01
 2.0820751E+01  2.5119146E+01
 2.0832251E+01  2.4760328E+01
 2.0843752E+01  2.4509888E+01
 2.0855251E+01  2.4405216E+01
 2.0866751E+01  2.4309322E+01
 2.0878250E+01  2.4252127E+01
 2.0889751E+01  2.4173773E+01
 2.0901251E+01  2.4142363E+01
 2.0912750E+01  2.4092699E+01
 2.0924252E+01  2.4053818E+01
 2.0935751E+01  2.4052252E+01
 2.0947250E+01  2.4082640E+01
 2.0958752E+01  2.4044825E+01
 2.0970251E+01  2.4023413E+01
 2.0981750E+01  2.4020033E+01
 2.0993252E+01  2.4211208E+01
 2.1004751E+01  2.4227987E+01
 2.1016251E+01  2.4292868E+01
 2.1027752E+01  2.4245153E+01
 2.1039251E+01  2.4270798E+01
 2.1050751E+01  2.4046761E+01
 2.1062250E+01  2.3988096E+01
 2.1073751E+01  2.3963545E+01
 2.1085251E+01  2.3972511E+01
 2.1096750E+01  2.3906429E+01
 2.1108252E+01  2.3927055E+01
 2.1119751E+01  2.3980576E+01
 2.1131250E+01  2.4068569E+01
 2.1142752E+01  2.4044962E+01
 2.1154251E+01  2.3973246E+01
 2.1165751E+01  2.3919321E+01
 2.1177252E+01  2.3922792E+01
 2.1188751E+01  2.3978323E+01
 2.1200251E+01  2.4006920E+01
 2.1211752E+01  2.4061411E+01
 2.1223251E+01  2.4032284E+01
 2.1234751E+01  2.4067554E+01
 2.1246250E+01  2.4072498E+01
 2.1257751E+01  2.4087748E+01
 2.1269251E+01  2.4060621E+01
 2.1280750E+01  2.4061621E+01
 2.1292252E+01  2.4057966E+01
 2.1303751E+01  2.4030653E+01
 2.1315250E+01  2.3965405E+01
 2.1326752E+01  2.3943272E+01
 2.1338251E+01  2.3984339E+01
 2.1349751E+01  2.4039419E+01
 2.1361252E+01  2.4097654E+01
 2.1372751E+01  2.4140278E+01
 2.1384251E+01  2.4102604E+01
 2.1395752E+01  2.4047937E+01
 2.1407251E+01  2.3966990E+01
 2.1418751E+01  2.3934422E+01
 2.1430250E+01  2.3928608E+01
 2.1441751E+01  2.3904942E+01
 2.1453251E+01  2.3973154E+01
 2.1464750E+01  2.4007311E+01
 2.1476252E+01  2.4012993E+01
 2.1487751E+01  2.4024635E+01
 2.1499250E+01  2.4031357E+01
 2.1510752E+01  2.4065775E+01
 2.1522251E+01  2.4108732E+01
 2.1533751E+01  2.4180094E+01
 2.1545252E+01  2.4185938E+01
 2.1556751E+01  2.4130096E+01
 2.1568251E+01  2.4068684E+01
 2.1579752E+01  2.4070692E+01
 2.1591251E+01  2.4055637E+01
 2.1602751E+01  2.4120346E+01
 2.1614250E+01  2.4131180E+01
 2.1625751E+01  2.4187611E+01
 2.1637251E+01  2.4161976E+01
 2.1648750E+01  2.4175926E+01
 2.1660252E+01  2.4173618E+01
 2.1671751E+01  2.4197584E+01
 2.1683250E+01  2.4189016E+01
 2.1694752E+01  2.4154579E+01
 2.1706251E+01  2.4176708E+01
 2.1717751E+01  2.4168701E+01
 2.1729252E+01  2.4193060E+01
 2.1740751E+01  2.4178741E+01
 2.1752251E+01  2.4157042E+01
 2.1763752E+01  2.4132210E+01
 2.1775251E+01  2.4099865E+01
 2.1786751E+01  2.4119196E+01
 2.1798250E+01  2.4137793E+01
 2.1809752E+01  2.4201626E+01
 2.1821251E+01  2.4272383E+01
 2.1832750E+01  2.4294670E+01
 2.1844252E+01  2.4326670E+01
 2.1855751E+01  2.4335646E+01
 2.1867250E+01  2.4323530E+01
 2.1878752E+01  2.4293583E+01
 2.1890251E+01  2.4266090E+01
 2.1901751E+01  2.4285387E+01
 2.1913252E+01  2.4313251E+01
 2.1924751E+01  2.4350348E+01
 2.1936251E+01  2.4336828E+01
 2.1947752E+01  2.4317963E+01
 2.1959251E+01  2.4273174E+01
 2.1970751E+01  2.4287830E+01
 2.1982250E+01  2.4280340E+01
 2.1993752E+01  2.4321058E+01
 2.2005251E+01  2.4335581E+01
 2.2016750E+01  2.4346432E+01
 2.2028252E+01  2.4345930E+01
 2.2039751E+01  2.4317366E+01
 2.2051250E+01  2.4328192E+01
 2.2062752E+01  2.4326675E+01
 2.2074251E+01  2.4367504E+01
 2.2085751E+01  2.4333914E+01
 2.2097252E+01  2.4353725E+01
 2.2108751E+01  2.4437342E+01
 2.2120251E+01  2.4541538E+01
 2.2131752E+01  2.4646992E+01
 2.2143251E+01  2.4638742E+01
 2.2154751E+01  2.4592348E+01
 2.2166250E+01  2.4558420E+01
 2.2177752E+01  2.4577295E+01
 2.2189251E+01  2.4549696E+01
 2.2200750E+01  2.4542278E+01
 2.2212252E+01  2.4501247E+01
 2.2223751E+01  2.4509863E+01
 2.2235250E+01  2.4503790E+01
 2.2246752E+01  2.4545681E+01
 2.2258251E+01  2.4546734E+01
 2.2269751E+01  2.4552006E+01
 2.2281252E+01  2.4533272E+01
 2.2292751E+01  2.4559965E+01
 2.2304251E+01  2.4605124E+01
 2.2315752E+01  2.4622526E+01
 2.2327251E+01  2.4600887E+01
 2.2338751E+01  2.4623367E+01
 2.2350250E+01  2.4664074E+01
 2.2361752E+01  2.4701698E+01
 2.2373251E+01  2.4660614E+01
 2.2384750E+01  2.4627253E+01
 2.2396252E+01  2.4602398E+01
 2.2407751E+01  2.4597061E+01
 2.2419250E+01  2.4590277E+01
 2.2430752E+01  2.4660662E+01
 2.2442251E+01  2.4745157E+01
 2.2453751E+01  2.4790865E+01
 2.2465252E+01  2.4748755E+01
 2.2476751E+01  2.4693937E+01
 2.2488251E+01  2.4701534E+01
 2.2499752E+01  2.4750566E+01
 2.2511251E+01  2.4790148E+01
 2.2522751E+01  2.4835892E+01
 2.2534250E+01  2.4847029E+01
 2.2545752E+01  2.4868547E+01
 2.2557251E+01  2.4856239E+01
 2.2568750E+01  2.4838572E+01
 2.2580252E+01  2.4817665E+01
 2.2591751E+01  2.4800604E+01
 2.2603251E+01  2.4787304E+01
 2.2614752E+01  2.4881084E+01
 2.2626251E+01  2.4880844E+01
 2.2637751E+01  2.4887905E+01
 2.2649252E+01  2.4910656E+01
 2.2660751E+01  2.4997171E+01
 2.2672251E+01  2.5051888E+01
 2.2683752E+01  2.5071186E+01
 2.2695251E+01  2.5128372E+01
 2.2706751E+01  2.5132816E+01
 2.2718250E+01  2.5196014E+01
 2.2729752E+01  2.5216194E+01
 2.2741251E+01  2.5264338E+01
 2.2752750E+01  2.5282551E+01
 2.2764252E+01  2.5303141E+01
 2.2775751E+01  2.5321684E+01
 2.2787251E+01  2.5331196E+01
 2.2798752E+01  2.5374134E+01
 2.2810251E+01  2.5425493E+01
 2.2821751E+01  2.5456554E+01
 2.2833252E+01  2.5504604E+01
 2.2844751E+01  2.5507214E+01
 2.2856251E+01  2.5513983E+01
 2.2867750E+01  2.5563774E+01
 2.2879251E+01  2.5629866E+01
 2.2890751E+01  2.5728411E+01
 2.2902250E+01  2.5783661E+01
 2.2913752E+01  2.5892729E+01
 2.2925251E+01  2.5984800E+01
 2.2936750E+01  2.6000677E+01
 2.2948252E+01  2.6071459E+01
 2.2959751E+01  2.6090998E+01
 2.2971251E+01  2.6259281E+01
 2.2982752E+01  2.6351789E+01
 2.2994251E+01  2.6459824E+01
