F:\20151113_APS_34IDE\\Brian\Particle1\OCV\Data_0098.tif
2-Theta Angle (Degrees)
Intensity
       2000
 5.7500005E-03  0.0000000E+00
 1.7250001E-02  0.0000000E+00
 2.8750001E-02  0.0000000E+00
 4.0250003E-02  0.0000000E+00
 5.1750004E-02  0.0000000E+00
 6.3250005E-02  0.0000000E+00
 7.4750006E-02  0.0000000E+00
 8.6250007E-02  0.0000000E+00
 9.7750008E-02  0.0000000E+00
 1.0925001E-01  0.0000000E+00
 1.2075000E-01  0.0000000E+00
 1.3225001E-01  0.0000000E+00
 1.4375001E-01  0.0000000E+00
 1.5525001E-01  0.0000000E+00
 1.6675001E-01  0.0000000E+00
 1.7825001E-01  0.0000000E+00
 1.8975002E-01  0.0000000E+00
 2.0125002E-01  0.0000000E+00
 2.1275002E-01  0.0000000E+00
 2.2425000E-01  0.0000000E+00
 2.3575000E-01  0.0000000E+00
 2.4725001E-01  0.0000000E+00
 2.5875002E-01  0.0000000E+00
 2.7025002E-01  0.0000000E+00
 2.8175002E-01  0.0000000E+00
 2.9325002E-01  0.0000000E+00
 3.0475003E-01  0.0000000E+00
 3.1625003E-01  0.0000000E+00
 3.2775003E-01  0.0000000E+00
 3.3925003E-01  0.0000000E+00
 3.5075003E-01  0.0000000E+00
 3.6225003E-01  0.0000000E+00
 3.7375003E-01  0.0000000E+00
 3.8525003E-01  0.0000000E+00
 3.9675003E-01  0.0000000E+00
 4.0825003E-01  0.0000000E+00
 4.1975003E-01  0.0000000E+00
 4.3125004E-01  0.0000000E+00
 4.4275001E-01  0.0000000E+00
 4.5425001E-01  0.0000000E+00
 4.6575001E-01  0.0000000E+00
 4.7725001E-01  0.0000000E+00
 4.8875001E-01  0.0000000E+00
 5.0025004E-01  0.0000000E+00
 5.1175004E-01  0.0000000E+00
 5.2325004E-01  0.0000000E+00
 5.3475004E-01  0.0000000E+00
 5.4625005E-01  0.0000000E+00
 5.5775005E-01  0.0000000E+00
 5.6925005E-01  0.0000000E+00
 5.8075005E-01  0.0000000E+00
 5.9225005E-01  0.0000000E+00
 6.0375005E-01  0.0000000E+00
 6.1525005E-01  0.0000000E+00
 6.2675005E-01  0.0000000E+00
 6.3825005E-01  0.0000000E+00
 6.4975005E-01  0.0000000E+00
 6.6125005E-01  0.0000000E+00
 6.7275006E-01  0.0000000E+00
 6.8425006E-01  0.0000000E+00
 6.9575006E-01  0.0000000E+00
 7.0725006E-01  0.0000000E+00
 7.1875006E-01  0.0000000E+00
 7.3025006E-01  0.0000000E+00
 7.4175006E-01  0.0000000E+00
 7.5325006E-01  0.0000000E+00
 7.6475006E-01  0.0000000E+00
 7.7625006E-01  0.0000000E+00
 7.8775007E-01  0.0000000E+00
 7.9925007E-01  0.0000000E+00
 8.1075007E-01  0.0000000E+00
 8.2225007E-01  0.0000000E+00
 8.3375007E-01  0.0000000E+00
 8.4525007E-01  0.0000000E+00
 8.5675007E-01  0.0000000E+00
 8.6825007E-01  0.0000000E+00
 8.7975001E-01  0.0000000E+00
 8.9125001E-01  0.0000000E+00
 9.0275002E-01  0.0000000E+00
 9.1425002E-01  0.0000000E+00
 9.2575002E-01  0.0000000E+00
 9.3725002E-01  0.0000000E+00
 9.4875002E-01  0.0000000E+00
 9.6025002E-01  0.0000000E+00
 9.7175002E-01  0.0000000E+00
 9.8325002E-01  0.0000000E+00
 9.9475002E-01  0.0000000E+00
 1.0062500E+00  0.0000000E+00
 1.0177500E+00  0.0000000E+00
 1.0292500E+00  0.0000000E+00
 1.0407500E+00  0.0000000E+00
 1.0522500E+00  0.0000000E+00
 1.0637500E+00  0.0000000E+00
 1.0752500E+00  0.0000000E+00
 1.0867500E+00  0.0000000E+00
 1.0982500E+00  0.0000000E+00
 1.1097500E+00  0.0000000E+00
 1.1212500E+00  0.0000000E+00
 1.1327500E+00  0.0000000E+00
 1.1442500E+00  0.0000000E+00
 1.1557500E+00  0.0000000E+00
 1.1672500E+00  0.0000000E+00
 1.1787500E+00  0.0000000E+00
 1.1902500E+00  0.0000000E+00
 1.2017500E+00  0.0000000E+00
 1.2132500E+00  0.0000000E+00
 1.2247500E+00  0.0000000E+00
 1.2362500E+00  0.0000000E+00
 1.2477500E+00  0.0000000E+00
 1.2592500E+00  0.0000000E+00
 1.2707500E+00  0.0000000E+00
 1.2822500E+00  0.0000000E+00
 1.2937500E+00  0.0000000E+00
 1.3052500E+00  0.0000000E+00
 1.3167500E+00  0.0000000E+00
 1.3282501E+00  0.0000000E+00
 1.3397501E+00  0.0000000E+00
 1.3512501E+00  0.0000000E+00
 1.3627501E+00  0.0000000E+00
 1.3742501E+00  0.0000000E+00
 1.3857501E+00  0.0000000E+00
 1.3972501E+00  0.0000000E+00
 1.4087501E+00  0.0000000E+00
 1.4202501E+00  0.0000000E+00
 1.4317501E+00  0.0000000E+00
 1.4432501E+00  0.0000000E+00
 1.4547501E+00  0.0000000E+00
 1.4662501E+00  0.0000000E+00
 1.4777501E+00  0.0000000E+00
 1.4892501E+00  0.0000000E+00
 1.5007501E+00  0.0000000E+00
 1.5122501E+00  0.0000000E+00
 1.5237501E+00  0.0000000E+00
 1.5352501E+00  0.0000000E+00
 1.5467501E+00  0.0000000E+00
 1.5582501E+00  0.0000000E+00
 1.5697501E+00  0.0000000E+00
 1.5812501E+00  0.0000000E+00
 1.5927501E+00  0.0000000E+00
 1.6042501E+00  0.0000000E+00
 1.6157501E+00  0.0000000E+00
 1.6272501E+00  0.0000000E+00
 1.6387501E+00  0.0000000E+00
 1.6502501E+00  0.0000000E+00
 1.6617501E+00  0.0000000E+00
 1.6732501E+00  0.0000000E+00
 1.6847501E+00  0.0000000E+00
 1.6962501E+00  0.0000000E+00
 1.7077501E+00  0.0000000E+00
 1.7192501E+00  0.0000000E+00
 1.7307501E+00  0.0000000E+00
 1.7422501E+00  0.0000000E+00
 1.7537501E+00  0.0000000E+00
 1.7652501E+00  0.0000000E+00
 1.7767501E+00  0.0000000E+00
 1.7882501E+00  0.0000000E+00
 1.7997501E+00  0.0000000E+00
 1.8112501E+00  0.0000000E+00
 1.8227501E+00  0.0000000E+00
 1.8342501E+00  0.0000000E+00
 1.8457501E+00  0.0000000E+00
 1.8572501E+00  0.0000000E+00
 1.8687501E+00  0.0000000E+00
 1.8802501E+00  0.0000000E+00
 1.8917501E+00  0.0000000E+00
 1.9032501E+00  0.0000000E+00
 1.9147501E+00  0.0000000E+00
 1.9262501E+00  0.0000000E+00
 1.9377501E+00  0.0000000E+00
 1.9492501E+00  0.0000000E+00
 1.9607501E+00  0.0000000E+00
 1.9722501E+00  0.0000000E+00
 1.9837501E+00  0.0000000E+00
 1.9952501E+00  0.0000000E+00
 2.0067501E+00  0.0000000E+00
 2.0182500E+00  0.0000000E+00
 2.0297501E+00  0.0000000E+00
 2.0412500E+00  0.0000000E+00
 2.0527501E+00  0.0000000E+00
 2.0642500E+00  0.0000000E+00
 2.0757501E+00  0.0000000E+00
 2.0872500E+00  0.0000000E+00
 2.0987501E+00  0.0000000E+00
 2.1102500E+00  0.0000000E+00
 2.1217501E+00  0.0000000E+00
 2.1332500E+00  0.0000000E+00
 2.1447501E+00  0.0000000E+00
 2.1562500E+00  0.0000000E+00
 2.1677501E+00  0.0000000E+00
 2.1792500E+00  0.0000000E+00
 2.1907501E+00  0.0000000E+00
 2.2022500E+00  0.0000000E+00
 2.2137501E+00  0.0000000E+00
 2.2252500E+00  0.0000000E+00
 2.2367501E+00  0.0000000E+00
 2.2482500E+00  0.0000000E+00
 2.2597501E+00  0.0000000E+00
 2.2712500E+00  0.0000000E+00
 2.2827501E+00  0.0000000E+00
 2.2942500E+00  0.0000000E+00
 2.3057501E+00  0.0000000E+00
 2.3172500E+00  0.0000000E+00
 2.3287501E+00  0.0000000E+00
 2.3402500E+00  0.0000000E+00
 2.3517501E+00  0.0000000E+00
 2.3632500E+00  0.0000000E+00
 2.3747501E+00  0.0000000E+00
 2.3862500E+00  0.0000000E+00
 2.3977501E+00  0.0000000E+00
 2.4092500E+00  0.0000000E+00
 2.4207501E+00  0.0000000E+00
 2.4322500E+00  0.0000000E+00
 2.4437501E+00  0.0000000E+00
 2.4552500E+00  0.0000000E+00
 2.4667501E+00  0.0000000E+00
 2.4782500E+00  0.0000000E+00
 2.4897501E+00  0.0000000E+00
 2.5012500E+00  0.0000000E+00
 2.5127501E+00  0.0000000E+00
 2.5242500E+00  0.0000000E+00
 2.5357502E+00  0.0000000E+00
 2.5472500E+00  0.0000000E+00
 2.5587502E+00  0.0000000E+00
 2.5702500E+00  0.0000000E+00
 2.5817502E+00  0.0000000E+00
 2.5932500E+00  0.0000000E+00
 2.6047502E+00  0.0000000E+00
 2.6162500E+00  0.0000000E+00
 2.6277502E+00  0.0000000E+00
 2.6392500E+00  0.0000000E+00
 2.6507502E+00  0.0000000E+00
 2.6622500E+00  0.0000000E+00
 2.6737502E+00  0.0000000E+00
 2.6852500E+00  0.0000000E+00
 2.6967502E+00  0.0000000E+00
 2.7082500E+00  0.0000000E+00
 2.7197502E+00  0.0000000E+00
 2.7312500E+00  0.0000000E+00
 2.7427502E+00  0.0000000E+00
 2.7542500E+00  0.0000000E+00
 2.7657502E+00  0.0000000E+00
 2.7772501E+00  0.0000000E+00
 2.7887502E+00  0.0000000E+00
 2.8002501E+00  0.0000000E+00
 2.8117502E+00  0.0000000E+00
 2.8232501E+00  3.2958786E+01
 2.8347502E+00  3.3946793E+01
 2.8462501E+00  3.4577114E+01
 2.8577502E+00  3.4795929E+01
 2.8692501E+00  3.5147564E+01
 2.8807502E+00  3.5805698E+01
 2.8922501E+00  3.5923340E+01
 2.9037502E+00  3.6378426E+01
 2.9152501E+00  3.6444630E+01
 2.9267502E+00  3.6752773E+01
 2.9382501E+00  3.6674046E+01
 2.9497502E+00  3.6714863E+01
 2.9612501E+00  3.6602581E+01
 2.9727502E+00  3.6549683E+01
 2.9842501E+00  3.6209873E+01
 2.9957502E+00  3.6374310E+01
 3.0072501E+00  3.6396328E+01
 3.0187502E+00  3.6404556E+01
 3.0302501E+00  3.6247368E+01
 3.0417502E+00  3.6119148E+01
 3.0532501E+00  3.6107746E+01
 3.0647502E+00  3.5958630E+01
 3.0762501E+00  3.5718292E+01
 3.0877502E+00  3.6021679E+01
 3.0992501E+00  3.5813740E+01
 3.1107502E+00  3.5799282E+01
 3.1222501E+00  3.5419880E+01
 3.1337502E+00  3.5595119E+01
 3.1452501E+00  3.5835781E+01
 3.1567502E+00  3.5927559E+01
 3.1682501E+00  3.5845707E+01
 3.1797502E+00  3.5752686E+01
 3.1912501E+00  3.5863811E+01
 3.2027502E+00  3.6066124E+01
 3.2142501E+00  3.6019413E+01
 3.2257502E+00  3.6100586E+01
 3.2372501E+00  3.6133423E+01
 3.2487502E+00  3.6248444E+01
 3.2602501E+00  3.6507797E+01
 3.2717502E+00  3.6382454E+01
 3.2832501E+00  3.6467705E+01
 3.2947502E+00  3.6273224E+01
 3.3062501E+00  3.6480965E+01
 3.3177502E+00  3.6356266E+01
 3.3292501E+00  3.6192566E+01
 3.3407502E+00  3.6007614E+01
 3.3522501E+00  3.6017517E+01
 3.3637502E+00  3.6197849E+01
 3.3752501E+00  3.5946228E+01
 3.3867502E+00  3.5978558E+01
 3.3982501E+00  3.5636021E+01
 3.4097502E+00  3.5360558E+01
 3.4212501E+00  3.5260227E+01
 3.4327502E+00  3.5099186E+01
 3.4442501E+00  3.4957050E+01
 3.4557502E+00  3.4747925E+01
 3.4672501E+00  3.4649822E+01
 3.4787502E+00  3.4615101E+01
 3.4902501E+00  3.4561447E+01
 3.5017502E+00  3.4043732E+01
 3.5132501E+00  3.3895176E+01
 3.5247502E+00  3.3702850E+01
 3.5362501E+00  3.3722351E+01
 3.5477502E+00  3.3874649E+01
 3.5592501E+00  3.3993904E+01
 3.5707502E+00  3.3826077E+01
 3.5822501E+00  3.3870731E+01
 3.5937502E+00  3.3710773E+01
 3.6052501E+00  3.3711246E+01
 3.6167502E+00  3.3720604E+01
 3.6282501E+00  3.3892258E+01
 3.6397502E+00  3.4095974E+01
 3.6512501E+00  3.4090271E+01
 3.6627502E+00  3.3936440E+01
 3.6742501E+00  3.3697300E+01
 3.6857502E+00  3.3463455E+01
 3.6972501E+00  3.3214115E+01
 3.7087502E+00  3.3191250E+01
 3.7202501E+00  3.3310043E+01
 3.7317502E+00  3.3316021E+01
 3.7432501E+00  3.3335114E+01
 3.7547503E+00  3.3300976E+01
 3.7662501E+00  3.3459042E+01
 3.7777503E+00  3.3422348E+01
 3.7892501E+00  3.3447456E+01
 3.8007503E+00  3.3238651E+01
 3.8122501E+00  3.3333664E+01
 3.8237503E+00  3.3147404E+01
 3.8352501E+00  3.3139774E+01
 3.8467503E+00  3.2987297E+01
 3.8582501E+00  3.2902645E+01
 3.8697503E+00  3.2865341E+01
 3.8812501E+00  3.2961571E+01
 3.8927503E+00  3.3121204E+01
 3.9042501E+00  3.3232300E+01
 3.9157503E+00  3.3287476E+01
 3.9272501E+00  3.3322887E+01
 3.9387503E+00  3.3523129E+01
 3.9502501E+00  3.3761642E+01
 3.9617503E+00  3.3942165E+01
 3.9732502E+00  3.3971840E+01
 3.9847503E+00  3.3764980E+01
 3.9962502E+00  3.3686550E+01
 4.0077500E+00  3.3416550E+01
 4.0192504E+00  3.3134960E+01
 4.0307503E+00  3.2914803E+01
 4.0422502E+00  3.2858273E+01
 4.0537500E+00  3.2712368E+01
 4.0652504E+00  3.2519115E+01
 4.0767503E+00  3.2271015E+01
 4.0882502E+00  3.2352253E+01
 4.0997500E+00  3.2365807E+01
 4.1112504E+00  3.2460209E+01
 4.1227503E+00  3.2551083E+01
 4.1342502E+00  3.2691811E+01
 4.1457500E+00  3.2796406E+01
 4.1572504E+00  3.2662758E+01
 4.1687503E+00  3.2563381E+01
 4.1802502E+00  3.2442371E+01
 4.1917500E+00  3.2714157E+01
 4.2032504E+00  3.2763844E+01
 4.2147503E+00  3.2957108E+01
 4.2262502E+00  3.2909435E+01
 4.2377501E+00  3.2783188E+01
 4.2492504E+00  3.2578102E+01
 4.2607503E+00  3.2378891E+01
 4.2722502E+00  3.2208179E+01
 4.2837501E+00  3.2150383E+01
 4.2952504E+00  3.1895054E+01
 4.3067503E+00  3.2005585E+01
 4.3182502E+00  3.2028008E+01
 4.3297501E+00  3.2326756E+01
 4.3412504E+00  3.2342419E+01
 4.3527503E+00  3.2539890E+01
 4.3642502E+00  3.2473034E+01
 4.3757501E+00  3.2444164E+01
 4.3872504E+00  3.2424488E+01
 4.3987503E+00  3.2497536E+01
 4.4102502E+00  3.2751438E+01
 4.4217501E+00  3.2832970E+01
 4.4332504E+00  3.2900665E+01
 4.4447503E+00  3.2809086E+01
 4.4562502E+00  3.2751797E+01
 4.4677501E+00  3.2770802E+01
 4.4792504E+00  3.2843597E+01
 4.4907503E+00  3.2962791E+01
 4.5022502E+00  3.3118732E+01
 4.5137501E+00  3.3175793E+01
 4.5252504E+00  3.3369793E+01
 4.5367503E+00  3.3272545E+01
 4.5482502E+00  3.3359486E+01
 4.5597501E+00  3.3195160E+01
 4.5712504E+00  3.3194473E+01
 4.5827503E+00  3.3159679E+01
 4.5942502E+00  3.3317802E+01
 4.6057501E+00  3.3368839E+01
 4.6172504E+00  3.3545441E+01
 4.6287503E+00  3.3643536E+01
 4.6402502E+00  3.3644989E+01
 4.6517501E+00  3.3609318E+01
 4.6632504E+00  3.3574905E+01
 4.6747503E+00  3.3511608E+01
 4.6862502E+00  3.3570549E+01
 4.6977501E+00  3.3440819E+01
 4.7092505E+00  3.3562531E+01
 4.7207503E+00  3.3466522E+01
 4.7322502E+00  3.3273060E+01
 4.7437501E+00  3.3116726E+01
 4.7552505E+00  3.2984962E+01
 4.7667503E+00  3.3063290E+01
 4.7782502E+00  3.3008846E+01
 4.7897501E+00  3.2938168E+01
 4.8012505E+00  3.2931953E+01
 4.8127503E+00  3.2893456E+01
 4.8242502E+00  3.2952202E+01
 4.8357501E+00  3.2918930E+01
 4.8472505E+00  3.2964088E+01
 4.8587503E+00  3.3103275E+01
 4.8702502E+00  3.3214855E+01
 4.8817501E+00  3.3326183E+01
 4.8932505E+00  3.3319565E+01
 4.9047503E+00  3.3332005E+01
 4.9162502E+00  3.3280815E+01
 4.9277501E+00  3.3218643E+01
 4.9392505E+00  3.3175411E+01
 4.9507504E+00  3.3140064E+01
 4.9622502E+00  3.3125076E+01
 4.9737501E+00  3.3111004E+01
 4.9852505E+00  3.3184975E+01
 4.9967504E+00  3.3328835E+01
 5.0082502E+00  3.3464130E+01
 5.0197501E+00  3.3464260E+01
 5.0312505E+00  3.3512974E+01
 5.0427504E+00  3.3577152E+01
 5.0542502E+00  3.3669437E+01
 5.0657501E+00  3.3688190E+01
 5.0772505E+00  3.3732204E+01
 5.0887504E+00  3.3869343E+01
 5.1002502E+00  3.4053928E+01
 5.1117501E+00  3.4059834E+01
 5.1232505E+00  3.4019680E+01
 5.1347504E+00  3.4038048E+01
 5.1462502E+00  3.4058239E+01
 5.1577501E+00  3.4094826E+01
 5.1692505E+00  3.4119831E+01
 5.1807504E+00  3.4251736E+01
 5.1922503E+00  3.4433693E+01
 5.2037501E+00  3.4418560E+01
 5.2152505E+00  3.4229538E+01
 5.2267504E+00  3.4146187E+01
 5.2382503E+00  3.4125084E+01
 5.2497501E+00  3.4103203E+01
 5.2612505E+00  3.4213528E+01
 5.2727504E+00  3.4165951E+01
 5.2842503E+00  3.4358818E+01
 5.2957501E+00  3.4324474E+01
 5.3072500E+00  3.4442463E+01
 5.3187504E+00  3.4623215E+01
 5.3302503E+00  3.4700645E+01
 5.3417501E+00  3.4711597E+01
 5.3532500E+00  3.4733910E+01
 5.3647504E+00  3.4808884E+01
 5.3762503E+00  3.4981415E+01
 5.3877501E+00  3.5051105E+01
 5.3992500E+00  3.5138500E+01
 5.4107504E+00  3.5059021E+01
 5.4222503E+00  3.4983829E+01
 5.4337502E+00  3.4853043E+01
 5.4452500E+00  3.4856735E+01
 5.4567504E+00  3.4938477E+01
 5.4682503E+00  3.4937202E+01
 5.4797502E+00  3.4978149E+01
 5.4912500E+00  3.4859180E+01
 5.5027504E+00  3.4870689E+01
 5.5142503E+00  3.4902576E+01
 5.5257502E+00  3.4945713E+01
 5.5372500E+00  3.5077133E+01
 5.5487504E+00  3.5046368E+01
 5.5602503E+00  3.5255623E+01
 5.5717502E+00  3.5350246E+01
 5.5832500E+00  3.5523693E+01
 5.5947504E+00  3.5601749E+01
 5.6062503E+00  3.5671017E+01
 5.6177502E+00  3.5679161E+01
 5.6292500E+00  3.5662521E+01
 5.6407504E+00  3.5593689E+01
 5.6522503E+00  3.5578194E+01
 5.6637502E+00  3.5700302E+01
 5.6752501E+00  3.5794624E+01
 5.6867504E+00  3.5780285E+01
 5.6982503E+00  3.5669296E+01
 5.7097502E+00  3.5613388E+01
 5.7212501E+00  3.5599262E+01
 5.7327504E+00  3.5749508E+01
 5.7442503E+00  3.5737316E+01
 5.7557502E+00  3.5817356E+01
 5.7672501E+00  3.5915436E+01
 5.7787504E+00  3.5964146E+01
 5.7902503E+00  3.6128258E+01
 5.8017502E+00  3.6081734E+01
 5.8132501E+00  3.6144730E+01
 5.8247504E+00  3.6176838E+01
 5.8362503E+00  3.6205406E+01
 5.8477502E+00  3.6286518E+01
 5.8592501E+00  3.6259842E+01
 5.8707504E+00  3.6316891E+01
 5.8822503E+00  3.6312145E+01
 5.8937502E+00  3.6383415E+01
 5.9052501E+00  3.6433315E+01
 5.9167504E+00  3.6626022E+01
 5.9282503E+00  3.6959488E+01
 5.9397502E+00  3.7534561E+01
 5.9512501E+00  3.8145733E+01
 5.9627504E+00  3.9098125E+01
 5.9742503E+00  3.9801670E+01
 5.9857502E+00  4.0019783E+01
 5.9972501E+00  3.9708920E+01
 6.0087504E+00  3.9036087E+01
 6.0202503E+00  3.8567944E+01
 6.0317502E+00  3.7962975E+01
 6.0432501E+00  3.7560226E+01
 6.0547504E+00  3.7298187E+01
 6.0662503E+00  3.7299831E+01
 6.0777502E+00  3.7205750E+01
 6.0892501E+00  3.7152115E+01
 6.1007504E+00  3.6979275E+01
 6.1122503E+00  3.6915943E+01
 6.1237502E+00  3.6888203E+01
 6.1352501E+00  3.6946934E+01
 6.1467505E+00  3.7028778E+01
 6.1582503E+00  3.7160404E+01
 6.1697502E+00  3.7232353E+01
 6.1812501E+00  3.7291058E+01
 6.1927505E+00  3.7337227E+01
 6.2042503E+00  3.7339386E+01
 6.2157502E+00  3.7487846E+01
 6.2272501E+00  3.7594643E+01
 6.2387505E+00  3.7739403E+01
 6.2502503E+00  3.7808750E+01
 6.2617502E+00  3.7908558E+01
 6.2732501E+00  3.7979233E+01
 6.2847505E+00  3.8069225E+01
 6.2962503E+00  3.8082043E+01
 6.3077502E+00  3.8098354E+01
 6.3192501E+00  3.8032761E+01
 6.3307505E+00  3.7990997E+01
 6.3422503E+00  3.7978970E+01
 6.3537502E+00  3.8189625E+01
 6.3652501E+00  3.8331367E+01
 6.3767505E+00  3.8559174E+01
 6.3882504E+00  3.8632607E+01
 6.3997502E+00  3.8725597E+01
 6.4112501E+00  3.8784531E+01
 6.4227505E+00  3.8889927E+01
 6.4342504E+00  3.9031143E+01
 6.4457502E+00  3.9127666E+01
 6.4572501E+00  3.9069126E+01
 6.4687505E+00  3.8988857E+01
 6.4802504E+00  3.8968990E+01
 6.4917502E+00  3.9006992E+01
 6.5032501E+00  3.9337872E+01
 6.5147505E+00  3.9591667E+01
 6.5262504E+00  3.9841274E+01
 6.5377502E+00  3.9991833E+01
 6.5492501E+00  3.9990170E+01
 6.5607505E+00  4.0075863E+01
 6.5722504E+00  4.0049473E+01
 6.5837502E+00  4.0125839E+01
 6.5952501E+00  4.0176998E+01
 6.6067505E+00  4.0223888E+01
 6.6182504E+00  4.0269081E+01
 6.6297503E+00  4.0354893E+01
 6.6412501E+00  4.0443165E+01
 6.6527505E+00  4.0563644E+01
 6.6642504E+00  4.0667358E+01
 6.6757503E+00  4.0647579E+01
 6.6872501E+00  4.0646492E+01
 6.6987505E+00  4.0675892E+01
 6.7102504E+00  4.0850658E+01
 6.7217503E+00  4.0969490E+01
 6.7332501E+00  4.1047367E+01
 6.7447505E+00  4.1102955E+01
 6.7562504E+00  4.1178757E+01
 6.7677503E+00  4.1288765E+01
 6.7792501E+00  4.1320988E+01
 6.7907505E+00  4.1402061E+01
 6.8022504E+00  4.1422134E+01
 6.8137503E+00  4.1590595E+01
 6.8252501E+00  4.1743408E+01
 6.8367505E+00  4.1964172E+01
 6.8482504E+00  4.2119724E+01
 6.8597503E+00  4.2299156E+01
 6.8712502E+00  4.2439167E+01
 6.8827505E+00  4.2474884E+01
 6.8942504E+00  4.2496696E+01
 6.9057503E+00  4.2400986E+01
 6.9172502E+00  4.2448452E+01
 6.9287505E+00  4.2391186E+01
 6.9402504E+00  4.2563358E+01
 6.9517503E+00  4.2639439E+01
 6.9632502E+00  4.2754845E+01
 6.9747505E+00  4.2885654E+01
 6.9862504E+00  4.2932697E+01
 6.9977503E+00  4.3074726E+01
 7.0092502E+00  4.2994423E+01
 7.0207505E+00  4.3071426E+01
 7.0322504E+00  4.3075531E+01
 7.0437503E+00  4.3157642E+01
 7.0552502E+00  4.3187485E+01
 7.0667505E+00  4.3137466E+01
 7.0782504E+00  4.3196259E+01
 7.0897503E+00  4.3231361E+01
 7.1012502E+00  4.3319073E+01
 7.1127505E+00  4.3452026E+01
 7.1242504E+00  4.3668873E+01
 7.1357503E+00  4.3799164E+01
 7.1472502E+00  4.3843277E+01
 7.1587505E+00  4.3739231E+01
 7.1702504E+00  4.3845520E+01
 7.1817503E+00  4.3790451E+01
 7.1932502E+00  4.3925793E+01
 7.2047505E+00  4.3990135E+01
 7.2162504E+00  4.4077660E+01
 7.2277503E+00  4.4088066E+01
 7.2392502E+00  4.4051151E+01
 7.2507505E+00  4.4097103E+01
 7.2622504E+00  4.4186996E+01
 7.2737503E+00  4.4259003E+01
 7.2852502E+00  4.4359310E+01
 7.2967505E+00  4.4425816E+01
 7.3082504E+00  4.4467674E+01
 7.3197503E+00  4.4588081E+01
 7.3312502E+00  4.4587673E+01
 7.3427505E+00  4.4632465E+01
 7.3542504E+00  4.4642921E+01
 7.3657503E+00  4.4719082E+01
 7.3772502E+00  4.4837543E+01
 7.3887506E+00  4.4810383E+01
 7.4002504E+00  4.4770821E+01
 7.4117503E+00  4.4738720E+01
 7.4232502E+00  4.4613922E+01
 7.4347506E+00  4.4549400E+01
 7.4462504E+00  4.4498688E+01
 7.4577503E+00  4.4541191E+01
 7.4692502E+00  4.4622662E+01
 7.4807506E+00  4.4630928E+01
 7.4922504E+00  4.4743000E+01
 7.5037503E+00  4.4771732E+01
 7.5152502E+00  4.4753635E+01
 7.5267506E+00  4.4810215E+01
 7.5382504E+00  4.4827065E+01
 7.5497503E+00  4.4847111E+01
 7.5612502E+00  4.4827129E+01
 7.5727506E+00  4.4815193E+01
 7.5842505E+00  4.4800430E+01
 7.5957503E+00  4.4771721E+01
 7.6072502E+00  4.4759274E+01
 7.6187506E+00  4.4720703E+01
 7.6302505E+00  4.4672001E+01
 7.6417503E+00  4.4624180E+01
 7.6532502E+00  4.4612247E+01
 7.6647506E+00  4.4576035E+01
 7.6762505E+00  4.4620285E+01
 7.6877503E+00  4.4716064E+01
 7.6992502E+00  4.4810932E+01
 7.7107506E+00  4.4883030E+01
 7.7222505E+00  4.4915554E+01
 7.7337503E+00  4.4968086E+01
 7.7452502E+00  4.4915878E+01
 7.7567506E+00  4.4972446E+01
 7.7682505E+00  4.4930153E+01
 7.7797503E+00  4.5030434E+01
 7.7912502E+00  4.5043987E+01
 7.8027506E+00  4.5043812E+01
 7.8142505E+00  4.4957710E+01
 7.8257504E+00  4.4778328E+01
 7.8372502E+00  4.4702660E+01
 7.8487506E+00  4.4575386E+01
 7.8602505E+00  4.4599716E+01
 7.8717504E+00  4.4557438E+01
 7.8832502E+00  4.4555309E+01
 7.8947506E+00  4.4541218E+01
 7.9062505E+00  4.4479748E+01
 7.9177504E+00  4.4424629E+01
 7.9292502E+00  4.4377098E+01
 7.9407506E+00  4.4293270E+01
 7.9522505E+00  4.4235703E+01
 7.9637504E+00  4.4129169E+01
 7.9752502E+00  4.4163902E+01
 7.9867506E+00  4.4168941E+01
 7.9982505E+00  4.4220417E+01
 8.0097504E+00  4.4127464E+01
 8.0212507E+00  4.4171486E+01
 8.0327501E+00  4.4188896E+01
 8.0442505E+00  4.4225922E+01
 8.0557508E+00  4.4103283E+01
 8.0672503E+00  4.3985775E+01
 8.0787506E+00  4.3823395E+01
 8.0902500E+00  4.3712112E+01
 8.1017504E+00  4.3485306E+01
 8.1132507E+00  4.3395336E+01
 8.1247501E+00  4.3287090E+01
 8.1362505E+00  4.3197399E+01
 8.1477509E+00  4.3055210E+01
 8.1592503E+00  4.2967136E+01
 8.1707506E+00  4.2889339E+01
 8.1822500E+00  4.2834515E+01
 8.1937504E+00  4.2743931E+01
 8.2052507E+00  4.2640240E+01
 8.2167501E+00  4.2475864E+01
 8.2282505E+00  4.2270279E+01
 8.2397509E+00  4.2074562E+01
 8.2512503E+00  4.1982201E+01
 8.2627506E+00  4.1871216E+01
 8.2742500E+00  4.1748123E+01
 8.2857504E+00  4.1621456E+01
 8.2972507E+00  4.1479729E+01
 8.3087502E+00  4.1396027E+01
 8.3202505E+00  4.1298931E+01
 8.3317509E+00  4.1212128E+01
 8.3432503E+00  4.1075031E+01
 8.3547506E+00  4.0904938E+01
 8.3662500E+00  4.0765709E+01
 8.3777504E+00  4.0580158E+01
 8.3892508E+00  4.0406284E+01
 8.4007502E+00  4.0212654E+01
 8.4122505E+00  4.0040020E+01
 8.4237509E+00  3.9864681E+01
 8.4352503E+00  3.9661572E+01
 8.4467506E+00  3.9411880E+01
 8.4582500E+00  3.9124390E+01
 8.4697504E+00  3.8867428E+01
 8.4812508E+00  3.8716053E+01
 8.4927502E+00  3.8487713E+01
 8.5042505E+00  3.8300583E+01
 8.5157509E+00  3.8102219E+01
 8.5272503E+00  3.7891678E+01
 8.5387506E+00  3.7735142E+01
 8.5502501E+00  3.7516621E+01
 8.5617504E+00  3.7454403E+01
 8.5732508E+00  3.7330940E+01
 8.5847502E+00  3.7180275E+01
 8.5962505E+00  3.7051624E+01
 8.6077509E+00  3.6790688E+01
 8.6192503E+00  3.6641689E+01
 8.6307507E+00  3.6454407E+01
 8.6422501E+00  3.6305302E+01
 8.6537504E+00  3.6171555E+01
 8.6652508E+00  3.5969284E+01
 8.6767502E+00  3.5775032E+01
 8.6882505E+00  3.5569096E+01
 8.6997509E+00  3.5407753E+01
 8.7112503E+00  3.5272945E+01
 8.7227507E+00  3.5106392E+01
 8.7342501E+00  3.4987255E+01
 8.7457504E+00  3.4734695E+01
 8.7572508E+00  3.4536705E+01
 8.7687502E+00  3.4281746E+01
 8.7802505E+00  3.4124737E+01
 8.7917500E+00  3.3903374E+01
 8.8032503E+00  3.3666531E+01
 8.8147507E+00  3.3527142E+01
 8.8262501E+00  3.3397171E+01
 8.8377504E+00  3.3305393E+01
 8.8492508E+00  3.3222534E+01
 8.8607502E+00  3.3094673E+01
 8.8722506E+00  3.3026554E+01
 8.8837500E+00  3.2870037E+01
 8.8952503E+00  3.2699795E+01
 8.9067507E+00  3.2550446E+01
 8.9182501E+00  3.2369663E+01
 8.9297504E+00  3.2166451E+01
 8.9412508E+00  3.1876831E+01
 8.9527502E+00  3.1642445E+01
 8.9642506E+00  3.1502569E+01
 8.9757500E+00  3.1433727E+01
 8.9872503E+00  3.1400394E+01
 8.9987507E+00  3.1319008E+01
 9.0102501E+00  3.1216894E+01
 9.0217505E+00  3.0973248E+01
 9.0332508E+00  3.0878736E+01
 9.0447502E+00  3.0749508E+01
 9.0562506E+00  3.0623657E+01
 9.0677500E+00  3.0569403E+01
 9.0792503E+00  3.0444540E+01
 9.0907507E+00  3.0325521E+01
 9.1022501E+00  3.0041948E+01
 9.1137505E+00  2.9824875E+01
 9.1252508E+00  2.9642857E+01
 9.1367502E+00  2.9502575E+01
 9.1482506E+00  2.9416338E+01
 9.1597500E+00  2.9347008E+01
 9.1712503E+00  2.9226997E+01
 9.1827507E+00  2.9119740E+01
 9.1942501E+00  2.8992098E+01
 9.2057505E+00  2.8860426E+01
 9.2172508E+00  2.8632570E+01
 9.2287502E+00  2.8448837E+01
 9.2402506E+00  2.8285460E+01
 9.2517500E+00  2.8180006E+01
 9.2632504E+00  2.8106817E+01
 9.2747507E+00  2.8013681E+01
 9.2862501E+00  2.7911570E+01
 9.2977505E+00  2.7758221E+01
 9.3092508E+00  2.7683870E+01
 9.3207502E+00  2.7636847E+01
 9.3322506E+00  2.7622053E+01
 9.3437500E+00  2.7550129E+01
 9.3552504E+00  2.7457823E+01
 9.3667507E+00  2.7352356E+01
 9.3782501E+00  2.7247869E+01
 9.3897505E+00  2.7180092E+01
 9.4012508E+00  2.7138895E+01
 9.4127502E+00  2.7077372E+01
 9.4242506E+00  2.7059807E+01
 9.4357500E+00  2.6991837E+01
 9.4472504E+00  2.6929897E+01
 9.4587507E+00  2.6920240E+01
 9.4702501E+00  2.6923447E+01
 9.4817505E+00  2.6959253E+01
 9.4932508E+00  2.6875383E+01
 9.5047503E+00  2.6774351E+01
 9.5162506E+00  2.6631807E+01
 9.5277500E+00  2.6476458E+01
 9.5392504E+00  2.6357725E+01
 9.5507507E+00  2.6280699E+01
 9.5622501E+00  2.6196693E+01
 9.5737505E+00  2.6108341E+01
 9.5852509E+00  2.5995720E+01
 9.5967503E+00  2.5947304E+01
 9.6082506E+00  2.5916401E+01
 9.6197500E+00  2.5859972E+01
 9.6312504E+00  2.5874483E+01
 9.6427507E+00  2.5870483E+01
 9.6542501E+00  2.5817921E+01
 9.6657505E+00  2.5704863E+01
 9.6772509E+00  2.5536646E+01
 9.6887503E+00  2.5439169E+01
 9.7002506E+00  2.5363075E+01
 9.7117500E+00  2.5336617E+01
 9.7232504E+00  2.5316374E+01
 9.7347507E+00  2.5287979E+01
 9.7462502E+00  2.5261976E+01
 9.7577505E+00  2.5233046E+01
 9.7692509E+00  2.5236698E+01
 9.7807503E+00  2.5244406E+01
 9.7922506E+00  2.5261641E+01
 9.8037500E+00  2.5284975E+01
 9.8152504E+00  2.5212938E+01
 9.8267508E+00  2.5168385E+01
 9.8382502E+00  2.5082115E+01
 9.8497505E+00  2.5044998E+01
 9.8612509E+00  2.4986837E+01
 9.8727503E+00  2.4902134E+01
 9.8842506E+00  2.4837465E+01
 9.8957500E+00  2.4755358E+01
 9.9072504E+00  2.4675879E+01
 9.9187508E+00  2.4639404E+01
 9.9302502E+00  2.4626173E+01
 9.9417505E+00  2.4618877E+01
 9.9532509E+00  2.4542580E+01
 9.9647503E+00  2.4498032E+01
 9.9762506E+00  2.4515146E+01
 9.9877501E+00  2.4519476E+01
 9.9992504E+00  2.4492838E+01
 1.0010751E+01  2.4424114E+01
 1.0022250E+01  2.4429533E+01
 1.0033751E+01  2.4439453E+01
 1.0045251E+01  2.4383936E+01
 1.0056750E+01  2.4307896E+01
 1.0068251E+01  2.4148537E+01
 1.0079750E+01  2.4089170E+01
 1.0091250E+01  2.3949202E+01
 1.0102751E+01  2.3956982E+01
 1.0114250E+01  2.3930141E+01
 1.0125751E+01  2.3984852E+01
 1.0137251E+01  2.3997156E+01
 1.0148750E+01  2.3985977E+01
 1.0160251E+01  2.4032063E+01
 1.0171750E+01  2.4016804E+01
 1.0183250E+01  2.4023937E+01
 1.0194751E+01  2.3944431E+01
 1.0206250E+01  2.3902321E+01
 1.0217751E+01  2.3909330E+01
 1.0229251E+01  2.3907932E+01
 1.0240750E+01  2.3921698E+01
 1.0252251E+01  2.3836920E+01
 1.0263750E+01  2.3769970E+01
 1.0275250E+01  2.3723761E+01
 1.0286751E+01  2.3705717E+01
 1.0298250E+01  2.3672468E+01
 1.0309751E+01  2.3669113E+01
 1.0321251E+01  2.3595890E+01
 1.0332750E+01  2.3544230E+01
 1.0344251E+01  2.3437378E+01
 1.0355750E+01  2.3438627E+01
 1.0367250E+01  2.3404751E+01
 1.0378751E+01  2.3465719E+01
 1.0390250E+01  2.3480104E+01
 1.0401751E+01  2.3529049E+01
 1.0413251E+01  2.3481865E+01
 1.0424750E+01  2.3428175E+01
 1.0436251E+01  2.3370346E+01
 1.0447750E+01  2.3314941E+01
 1.0459250E+01  2.3291929E+01
 1.0470751E+01  2.3295097E+01
 1.0482250E+01  2.3335520E+01
 1.0493751E+01  2.3379591E+01
 1.0505251E+01  2.3383728E+01
 1.0516750E+01  2.3366436E+01
 1.0528251E+01  2.3276417E+01
 1.0539750E+01  2.3208454E+01
 1.0551250E+01  2.3138206E+01
 1.0562751E+01  2.3136097E+01
 1.0574250E+01  2.3099434E+01
 1.0585751E+01  2.3101349E+01
 1.0597251E+01  2.3035051E+01
 1.0608750E+01  2.3033951E+01
 1.0620251E+01  2.2921045E+01
 1.0631750E+01  2.2914097E+01
 1.0643250E+01  2.2859322E+01
 1.0654751E+01  2.2877251E+01
 1.0666250E+01  2.2885756E+01
 1.0677751E+01  2.2880709E+01
 1.0689251E+01  2.2926405E+01
 1.0700750E+01  2.2963049E+01
 1.0712251E+01  2.2970209E+01
 1.0723750E+01  2.2980165E+01
 1.0735250E+01  2.2946543E+01
 1.0746751E+01  2.2945305E+01
 1.0758250E+01  2.2887087E+01
 1.0769751E+01  2.2879194E+01
 1.0781251E+01  2.2905985E+01
 1.0792750E+01  2.2938114E+01
 1.0804251E+01  2.2924616E+01
 1.0815750E+01  2.2881601E+01
 1.0827250E+01  2.2843977E+01
 1.0838751E+01  2.2823717E+01
 1.0850250E+01  2.2826174E+01
 1.0861751E+01  2.2834558E+01
 1.0873251E+01  2.2859577E+01
 1.0884750E+01  2.2840849E+01
 1.0896251E+01  2.2827459E+01
 1.0907750E+01  2.2877932E+01
 1.0919250E+01  2.2931540E+01
 1.0930751E+01  2.2926208E+01
 1.0942250E+01  2.2860546E+01
 1.0953751E+01  2.2861572E+01
 1.0965251E+01  2.2850708E+01
 1.0976750E+01  2.2878954E+01
 1.0988251E+01  2.2825977E+01
 1.0999750E+01  2.2810812E+01
 1.1011250E+01  2.2729866E+01
 1.1022751E+01  2.2691780E+01
 1.1034250E+01  2.2678444E+01
 1.1045751E+01  2.2604164E+01
 1.1057251E+01  2.2543604E+01
 1.1068750E+01  2.2494640E+01
 1.1080251E+01  2.2518799E+01
 1.1091750E+01  2.2568911E+01
 1.1103251E+01  2.2576136E+01
 1.1114751E+01  2.2605326E+01
 1.1126250E+01  2.2623394E+01
 1.1137751E+01  2.2601664E+01
 1.1149251E+01  2.2602737E+01
 1.1160750E+01  2.2558258E+01
 1.1172251E+01  2.2493715E+01
 1.1183750E+01  2.2402452E+01
 1.1195251E+01  2.2317825E+01
 1.1206751E+01  2.2321915E+01
 1.1218250E+01  2.2367233E+01
 1.1229751E+01  2.2395962E+01
 1.1241251E+01  2.2447573E+01
 1.1252750E+01  2.2414248E+01
 1.1264251E+01  2.2440407E+01
 1.1275750E+01  2.2401636E+01
 1.1287251E+01  2.2424053E+01
 1.1298751E+01  2.2402027E+01
 1.1310250E+01  2.2453571E+01
 1.1321751E+01  2.2472424E+01
 1.1333251E+01  2.2483234E+01
 1.1344750E+01  2.2452103E+01
 1.1356251E+01  2.2486752E+01
 1.1367750E+01  2.2492781E+01
 1.1379251E+01  2.2517647E+01
 1.1390751E+01  2.2565113E+01
 1.1402250E+01  2.2676683E+01
 1.1413751E+01  2.2680466E+01
 1.1425251E+01  2.2626520E+01
 1.1436750E+01  2.2596687E+01
 1.1448251E+01  2.2618744E+01
 1.1459750E+01  2.2632225E+01
 1.1471251E+01  2.2626085E+01
 1.1482751E+01  2.2637625E+01
 1.1494250E+01  2.2642643E+01
 1.1505751E+01  2.2602659E+01
 1.1517251E+01  2.2663218E+01
 1.1528750E+01  2.2782766E+01
 1.1540251E+01  2.3104239E+01
 1.1551750E+01  2.3392773E+01
 1.1563251E+01  2.3990252E+01
 1.1574751E+01  2.4274380E+01
 1.1586250E+01  2.5038227E+01
 1.1597751E+01  2.4860254E+01
 1.1609251E+01  2.5056601E+01
 1.1620750E+01  2.4219101E+01
 1.1632251E+01  2.4017147E+01
 1.1643750E+01  2.3288939E+01
 1.1655251E+01  2.3045155E+01
 1.1666751E+01  2.2692516E+01
 1.1678250E+01  2.2618168E+01
 1.1689751E+01  2.2510048E+01
 1.1701251E+01  2.2444929E+01
 1.1712750E+01  2.2388887E+01
 1.1724251E+01  2.2336332E+01
 1.1735750E+01  2.2303745E+01
 1.1747251E+01  2.2281578E+01
 1.1758751E+01  2.2361814E+01
 1.1770250E+01  2.2374453E+01
 1.1781751E+01  2.2443563E+01
 1.1793251E+01  2.2407860E+01
 1.1804750E+01  2.2448402E+01
 1.1816251E+01  2.2426188E+01
 1.1827750E+01  2.2413712E+01
 1.1839251E+01  2.2388340E+01
 1.1850751E+01  2.2370277E+01
 1.1862250E+01  2.2382479E+01
 1.1873751E+01  2.2366432E+01
 1.1885251E+01  2.2386639E+01
 1.1896750E+01  2.2413336E+01
 1.1908251E+01  2.2438835E+01
 1.1919750E+01  2.2486584E+01
 1.1931251E+01  2.2474512E+01
 1.1942751E+01  2.2506668E+01
 1.1954250E+01  2.2514774E+01
 1.1965751E+01  2.2575212E+01
 1.1977251E+01  2.2668203E+01
 1.1988750E+01  2.2684202E+01
 1.2000251E+01  2.2683058E+01
 1.2011750E+01  2.2620214E+01
 1.2023251E+01  2.2591869E+01
 1.2034751E+01  2.2598885E+01
 1.2046250E+01  2.2577888E+01
 1.2057751E+01  2.2591759E+01
 1.2069251E+01  2.2606081E+01
 1.2080750E+01  2.2686714E+01
 1.2092251E+01  2.2782352E+01
 1.2103750E+01  2.2865101E+01
 1.2115251E+01  2.2866459E+01
 1.2126751E+01  2.2841805E+01
 1.2138250E+01  2.2789392E+01
 1.2149751E+01  2.2713135E+01
 1.2161251E+01  2.2621712E+01
 1.2172750E+01  2.2500324E+01
 1.2184251E+01  2.2425301E+01
 1.2195750E+01  2.2294024E+01
 1.2207251E+01  2.2250380E+01
 1.2218751E+01  2.2188160E+01
 1.2230250E+01  2.2228209E+01
 1.2241751E+01  2.2222610E+01
 1.2253251E+01  2.2302824E+01
 1.2264750E+01  2.2370213E+01
 1.2276251E+01  2.2418894E+01
 1.2287750E+01  2.2476591E+01
 1.2299251E+01  2.2473053E+01
 1.2310751E+01  2.2527559E+01
 1.2322250E+01  2.2490522E+01
 1.2333751E+01  2.2492491E+01
 1.2345250E+01  2.2506226E+01
 1.2356750E+01  2.2529497E+01
 1.2368251E+01  2.2562733E+01
 1.2379750E+01  2.2537479E+01
 1.2391251E+01  2.2550724E+01
 1.2402751E+01  2.2526354E+01
 1.2414250E+01  2.2555792E+01
 1.2425751E+01  2.2556664E+01
 1.2437250E+01  2.2518230E+01
 1.2448750E+01  2.2554684E+01
 1.2460251E+01  2.2557489E+01
 1.2471750E+01  2.2635818E+01
 1.2483251E+01  2.2627256E+01
 1.2494751E+01  2.2653362E+01
 1.2506250E+01  2.2665730E+01
 1.2517751E+01  2.2633745E+01
 1.2529250E+01  2.2638212E+01
 1.2540751E+01  2.2643768E+01
 1.2552251E+01  2.2662516E+01
 1.2563750E+01  2.2673203E+01
 1.2575251E+01  2.2651026E+01
 1.2586751E+01  2.2698950E+01
 1.2598250E+01  2.2700081E+01
 1.2609751E+01  2.2739326E+01
 1.2621250E+01  2.2805088E+01
 1.2632751E+01  2.2831787E+01
 1.2644251E+01  2.2869730E+01
 1.2655750E+01  2.2836901E+01
 1.2667251E+01  2.2829538E+01
 1.2678751E+01  2.2820215E+01
 1.2690250E+01  2.2781008E+01
 1.2701751E+01  2.2829487E+01
 1.2713250E+01  2.2888426E+01
 1.2724751E+01  2.2960367E+01
 1.2736251E+01  2.2981543E+01
 1.2747750E+01  2.2977703E+01
 1.2759251E+01  2.3031178E+01
 1.2770751E+01  2.3050098E+01
 1.2782250E+01  2.3119656E+01
 1.2793751E+01  2.3114161E+01
 1.2805250E+01  2.3219198E+01
 1.2816751E+01  2.3210102E+01
 1.2828251E+01  2.3234524E+01
 1.2839750E+01  2.3215002E+01
 1.2851251E+01  2.3324188E+01
 1.2862751E+01  2.3357273E+01
 1.2874250E+01  2.3423227E+01
 1.2885751E+01  2.3453516E+01
 1.2897250E+01  2.3544163E+01
 1.2908751E+01  2.3568203E+01
 1.2920251E+01  2.3609266E+01
 1.2931750E+01  2.3681028E+01
 1.2943251E+01  2.3768726E+01
 1.2954751E+01  2.3839779E+01
 1.2966250E+01  2.3910482E+01
 1.2977751E+01  2.4010424E+01
 1.2989250E+01  2.4048006E+01
 1.3000751E+01  2.4057255E+01
 1.3012251E+01  2.4037807E+01
 1.3023750E+01  2.4048698E+01
 1.3035251E+01  2.4148716E+01
 1.3046751E+01  2.4218582E+01
 1.3058250E+01  2.4354578E+01
 1.3069751E+01  2.4417770E+01
 1.3081250E+01  2.4525402E+01
 1.3092751E+01  2.4641834E+01
 1.3104251E+01  2.4853914E+01
 1.3115750E+01  2.5197157E+01
 1.3127251E+01  2.5339626E+01
 1.3138751E+01  2.6859125E+01
 1.3150250E+01  2.7442915E+01
 1.3161751E+01  2.7546347E+01
 1.3173250E+01  2.6116327E+01
 1.3184751E+01  2.5729176E+01
 1.3196251E+01  2.5824924E+01
 1.3207750E+01  2.5902855E+01
 1.3219251E+01  2.6028057E+01
 1.3230751E+01  2.6201050E+01
 1.3242250E+01  2.6390844E+01
 1.3253751E+01  2.6497877E+01
 1.3265250E+01  2.6620956E+01
 1.3276751E+01  2.6748522E+01
 1.3288251E+01  2.6893406E+01
 1.3299750E+01  2.7084103E+01
 1.3311251E+01  2.7189745E+01
 1.3322751E+01  2.7320505E+01
 1.3334250E+01  2.7421091E+01
 1.3345751E+01  2.7581690E+01
 1.3357250E+01  2.7710505E+01
 1.3368751E+01  2.7777088E+01
 1.3380251E+01  2.7926441E+01
 1.3391750E+01  2.8076513E+01
 1.3403251E+01  2.8293484E+01
 1.3414751E+01  2.8465166E+01
 1.3426250E+01  2.8609356E+01
 1.3437751E+01  2.8748201E+01
 1.3449250E+01  2.8874968E+01
 1.3460751E+01  2.8980724E+01
 1.3472251E+01  2.9084688E+01
 1.3483750E+01  2.9164316E+01
 1.3495251E+01  2.9287914E+01
 1.3506751E+01  2.9414928E+01
 1.3518250E+01  2.9544445E+01
 1.3529751E+01  2.9587893E+01
 1.3541250E+01  2.9677135E+01
 1.3552751E+01  2.9729137E+01
 1.3564251E+01  2.9825275E+01
 1.3575750E+01  2.9802841E+01
 1.3587251E+01  2.9832905E+01
 1.3598751E+01  2.9861433E+01
 1.3610250E+01  2.9851372E+01
 1.3621751E+01  2.9878597E+01
 1.3633250E+01  2.9849567E+01
 1.3644751E+01  2.9877468E+01
 1.3656251E+01  2.9821245E+01
 1.3667750E+01  2.9805204E+01
 1.3679251E+01  2.9750557E+01
 1.3690751E+01  2.9671738E+01
 1.3702250E+01  2.9625507E+01
 1.3713751E+01  2.9603031E+01
 1.3725250E+01  2.9562706E+01
 1.3736751E+01  2.9544704E+01
 1.3748251E+01  2.9527380E+01
 1.3759750E+01  2.9559444E+01
 1.3771251E+01  2.9512823E+01
 1.3782751E+01  2.9440006E+01
 1.3794250E+01  2.9351824E+01
 1.3805751E+01  2.9295546E+01
 1.3817250E+01  2.9219439E+01
 1.3828751E+01  2.9169485E+01
 1.3840251E+01  2.9119429E+01
 1.3851750E+01  2.9099161E+01
 1.3863251E+01  2.9105196E+01
 1.3874751E+01  2.9137466E+01
 1.3886250E+01  2.9302923E+01
 1.3897751E+01  2.9516062E+01
 1.3909250E+01  2.9801668E+01
 1.3920751E+01  3.0078638E+01
 1.3932251E+01  3.0411978E+01
 1.3943750E+01  3.0617788E+01
 1.3955251E+01  3.0797270E+01
 1.3966751E+01  3.0717739E+01
 1.3978251E+01  3.0476465E+01
 1.3989751E+01  2.9948259E+01
 1.4001250E+01  2.9455008E+01
 1.4012751E+01  2.8903330E+01
 1.4024251E+01  2.8433270E+01
 1.4035750E+01  2.8011377E+01
 1.4047251E+01  2.7795847E+01
 1.4058751E+01  2.7625292E+01
 1.4070251E+01  2.7564297E+01
 1.4081751E+01  2.7434399E+01
 1.4093250E+01  2.7384977E+01
 1.4104751E+01  2.7319031E+01
 1.4116251E+01  2.7307947E+01
 1.4127750E+01  2.7233736E+01
 1.4139251E+01  2.7153389E+01
 1.4150751E+01  2.7029314E+01
 1.4162251E+01  2.6963686E+01
 1.4173751E+01  2.6833082E+01
 1.4185250E+01  2.6793339E+01
 1.4196751E+01  2.6765606E+01
 1.4208251E+01  2.6753445E+01
 1.4219750E+01  2.6801216E+01
 1.4231251E+01  2.6811239E+01
 1.4242751E+01  2.6799910E+01
 1.4254251E+01  2.6693224E+01
 1.4265751E+01  2.6572678E+01
 1.4277250E+01  2.6445938E+01
 1.4288751E+01  2.6332191E+01
 1.4300251E+01  2.6277540E+01
 1.4311750E+01  2.6244480E+01
 1.4323251E+01  2.6190968E+01
 1.4334751E+01  2.6154091E+01
 1.4346251E+01  2.6165098E+01
 1.4357751E+01  2.6169754E+01
 1.4369250E+01  2.6169207E+01
 1.4380751E+01  2.6126375E+01
 1.4392251E+01  2.6086552E+01
 1.4403750E+01  2.5985474E+01
 1.4415251E+01  2.5910563E+01
 1.4426751E+01  2.5839842E+01
 1.4438251E+01  2.5833963E+01
 1.4449751E+01  2.5796707E+01
 1.4461250E+01  2.5780315E+01
 1.4472751E+01  2.5732430E+01
 1.4484251E+01  2.5743292E+01
 1.4495750E+01  2.5722395E+01
 1.4507251E+01  2.5720490E+01
 1.4518751E+01  2.5693819E+01
 1.4530251E+01  2.5673359E+01
 1.4541751E+01  2.5615314E+01
 1.4553250E+01  2.5571848E+01
 1.4564751E+01  2.5565939E+01
 1.4576251E+01  2.5559843E+01
 1.4587750E+01  2.5495180E+01
 1.4599251E+01  2.5434370E+01
 1.4610751E+01  2.5403797E+01
 1.4622251E+01  2.5405502E+01
 1.4633751E+01  2.5392872E+01
 1.4645250E+01  2.5436649E+01
 1.4656751E+01  2.5394730E+01
 1.4668251E+01  2.5390699E+01
 1.4679750E+01  2.5278524E+01
 1.4691251E+01  2.5281929E+01
 1.4702751E+01  2.5240547E+01
 1.4714251E+01  2.5233395E+01
 1.4725751E+01  2.5208439E+01
 1.4737250E+01  2.5157984E+01
 1.4748751E+01  2.5116045E+01
 1.4760251E+01  2.5051210E+01
 1.4771750E+01  2.5037733E+01
 1.4783251E+01  2.5019569E+01
 1.4794751E+01  2.5040718E+01
 1.4806251E+01  2.5035320E+01
 1.4817751E+01  2.5073841E+01
 1.4829250E+01  2.5089489E+01
 1.4840751E+01  2.5123222E+01
 1.4852251E+01  2.5113190E+01
 1.4863750E+01  2.5070225E+01
 1.4875251E+01  2.5002201E+01
 1.4886751E+01  2.4969465E+01
 1.4898251E+01  2.4946489E+01
 1.4909751E+01  2.4958376E+01
 1.4921250E+01  2.4928822E+01
 1.4932751E+01  2.4895363E+01
 1.4944251E+01  2.4794641E+01
 1.4955750E+01  2.4758633E+01
 1.4967251E+01  2.4742834E+01
 1.4978751E+01  2.4786758E+01
 1.4990251E+01  2.4769178E+01
 1.5001751E+01  2.4804951E+01
 1.5013250E+01  2.4824656E+01
 1.5024751E+01  2.4823332E+01
 1.5036251E+01  2.4792044E+01
 1.5047750E+01  2.4770151E+01
 1.5059251E+01  2.4779650E+01
 1.5070751E+01  2.4766056E+01
 1.5082251E+01  2.4705328E+01
 1.5093751E+01  2.4679331E+01
 1.5105250E+01  2.4698172E+01
 1.5116751E+01  2.4721819E+01
 1.5128251E+01  2.4723673E+01
 1.5139750E+01  2.4771486E+01
 1.5151251E+01  2.4887400E+01
 1.5162751E+01  2.4964441E+01
 1.5174251E+01  2.5029367E+01
 1.5185751E+01  2.5104689E+01
 1.5197250E+01  2.5199398E+01
 1.5208751E+01  2.5242046E+01
 1.5220251E+01  2.5222162E+01
 1.5231750E+01  2.5115679E+01
 1.5243251E+01  2.4992823E+01
 1.5254751E+01  2.4868906E+01
 1.5266251E+01  2.4755779E+01
 1.5277751E+01  2.4699831E+01
 1.5289250E+01  2.4716745E+01
 1.5300751E+01  2.4728598E+01
 1.5312251E+01  2.4726339E+01
 1.5323750E+01  2.4674374E+01
 1.5335251E+01  2.4713736E+01
 1.5346751E+01  2.4692995E+01
 1.5358251E+01  2.4669012E+01
 1.5369751E+01  2.4622686E+01
 1.5381250E+01  2.4632862E+01
 1.5392751E+01  2.4602987E+01
 1.5404251E+01  2.4554279E+01
 1.5415751E+01  2.4519440E+01
 1.5427251E+01  2.4559483E+01
 1.5438751E+01  2.4573439E+01
 1.5450251E+01  2.4596157E+01
 1.5461751E+01  2.4591381E+01
 1.5473250E+01  2.4587299E+01
 1.5484751E+01  2.4541010E+01
 1.5496251E+01  2.4502596E+01
 1.5507751E+01  2.4471516E+01
 1.5519251E+01  2.4511271E+01
 1.5530751E+01  2.4544279E+01
 1.5542251E+01  2.4546169E+01
 1.5553751E+01  2.4479795E+01
 1.5565250E+01  2.4455933E+01
 1.5576751E+01  2.4414122E+01
 1.5588251E+01  2.4454868E+01
 1.5599751E+01  2.4392424E+01
 1.5611251E+01  2.4370180E+01
 1.5622751E+01  2.4328955E+01
 1.5634251E+01  2.4343489E+01
 1.5645751E+01  2.4442873E+01
 1.5657250E+01  2.4467268E+01
 1.5668751E+01  2.4574837E+01
 1.5680251E+01  2.4544411E+01
 1.5691751E+01  2.4584221E+01
 1.5703251E+01  2.4575127E+01
 1.5714751E+01  2.4569977E+01
 1.5726251E+01  2.4538467E+01
 1.5737751E+01  2.4478853E+01
 1.5749250E+01  2.4539360E+01
 1.5760751E+01  2.4561184E+01
 1.5772251E+01  2.4620733E+01
 1.5783751E+01  2.4579702E+01
 1.5795251E+01  2.4597433E+01
 1.5806751E+01  2.4610569E+01
 1.5818251E+01  2.4646206E+01
 1.5829751E+01  2.4672295E+01
 1.5841250E+01  2.4636890E+01
 1.5852751E+01  2.4639194E+01
 1.5864251E+01  2.4606049E+01
 1.5875751E+01  2.4613115E+01
 1.5887251E+01  2.4668171E+01
 1.5898750E+01  2.4675953E+01
 1.5910251E+01  2.4721540E+01
 1.5921751E+01  2.4655346E+01
 1.5933250E+01  2.4700958E+01
 1.5944751E+01  2.4654596E+01
 1.5956251E+01  2.4693851E+01
 1.5967751E+01  2.4693304E+01
 1.5979251E+01  2.4770981E+01
 1.5990750E+01  2.4817093E+01
 1.6002251E+01  2.4791212E+01
 1.6013750E+01  2.4768002E+01
 1.6025251E+01  2.4735752E+01
 1.6036751E+01  2.4761700E+01
 1.6048250E+01  2.4800144E+01
 1.6059752E+01  2.4819613E+01
 1.6071251E+01  2.4809778E+01
 1.6082750E+01  2.4795235E+01
 1.6094252E+01  2.4754663E+01
 1.6105751E+01  2.4773031E+01
 1.6117250E+01  2.4786316E+01
 1.6128750E+01  2.4814184E+01
 1.6140251E+01  2.4851845E+01
 1.6151751E+01  2.4829346E+01
 1.6163250E+01  2.4899055E+01
 1.6174751E+01  2.4835468E+01
 1.6186251E+01  2.4927423E+01
 1.6197750E+01  2.4857309E+01
 1.6209251E+01  2.4980968E+01
 1.6220751E+01  2.4924580E+01
 1.6232250E+01  2.5011080E+01
 1.6243752E+01  2.5039484E+01
 1.6255251E+01  2.5154848E+01
 1.6266750E+01  2.5331915E+01
 1.6278252E+01  2.5254889E+01
 1.6289751E+01  2.5391069E+01
 1.6301250E+01  2.5093035E+01
 1.6312750E+01  2.5236830E+01
 1.6324251E+01  2.4949490E+01
 1.6335751E+01  2.4995369E+01
 1.6347250E+01  2.4782642E+01
 1.6358751E+01  2.4771742E+01
 1.6370251E+01  2.4652620E+01
 1.6381750E+01  2.4623823E+01
 1.6393251E+01  2.4608191E+01
 1.6404751E+01  2.4687065E+01
 1.6416250E+01  2.4710312E+01
 1.6427752E+01  2.4754084E+01
 1.6439251E+01  2.4745010E+01
 1.6450750E+01  2.4707508E+01
 1.6462252E+01  2.4639532E+01
 1.6473751E+01  2.4583714E+01
 1.6485250E+01  2.4593073E+01
 1.6496750E+01  2.4537436E+01
 1.6508251E+01  2.4490604E+01
 1.6519751E+01  2.4429163E+01
 1.6531250E+01  2.4455721E+01
 1.6542751E+01  2.4504009E+01
 1.6554251E+01  2.4544905E+01
 1.6565750E+01  2.4562567E+01
 1.6577251E+01  2.4574213E+01
 1.6588751E+01  2.4565884E+01
 1.6600250E+01  2.4600248E+01
 1.6611752E+01  2.4619118E+01
 1.6623251E+01  2.4583950E+01
 1.6634750E+01  2.4517338E+01
 1.6646252E+01  2.4443853E+01
 1.6657751E+01  2.4456671E+01
 1.6669250E+01  2.4464901E+01
 1.6680750E+01  2.4496847E+01
 1.6692251E+01  2.4549894E+01
 1.6703751E+01  2.4525433E+01
 1.6715250E+01  2.4478540E+01
 1.6726751E+01  2.4367943E+01
 1.6738251E+01  2.4350874E+01
 1.6749750E+01  2.4358561E+01
 1.6761251E+01  2.4390680E+01
 1.6772751E+01  2.4402199E+01
 1.6784250E+01  2.4395245E+01
 1.6795752E+01  2.4409727E+01
 1.6807251E+01  2.4418070E+01
 1.6818750E+01  2.4391891E+01
 1.6830252E+01  2.4336901E+01
 1.6841751E+01  2.4334911E+01
 1.6853251E+01  2.4335798E+01
 1.6864750E+01  2.4366074E+01
 1.6876251E+01  2.4367201E+01
 1.6887751E+01  2.4371115E+01
 1.6899250E+01  2.4328505E+01
 1.6910751E+01  2.4283627E+01
 1.6922251E+01  2.4284439E+01
 1.6933750E+01  2.4294744E+01
 1.6945251E+01  2.4292213E+01
 1.6956751E+01  2.4256903E+01
 1.6968250E+01  2.4217587E+01
 1.6979752E+01  2.4180651E+01
 1.6991251E+01  2.4182735E+01
 1.7002750E+01  2.4175579E+01
 1.7014252E+01  2.4178926E+01
 1.7025751E+01  2.4175076E+01
 1.7037251E+01  2.4156536E+01
 1.7048750E+01  2.4195457E+01
 1.7060251E+01  2.4149389E+01
 1.7071751E+01  2.4136934E+01
 1.7083250E+01  2.4070786E+01
 1.7094751E+01  2.4073893E+01
 1.7106251E+01  2.4102627E+01
 1.7117750E+01  2.4113806E+01
 1.7129251E+01  2.4162807E+01
 1.7140751E+01  2.4130352E+01
 1.7152250E+01  2.4113914E+01
 1.7163752E+01  2.4126961E+01
 1.7175251E+01  2.4169924E+01
 1.7186750E+01  2.4226685E+01
 1.7198252E+01  2.4250639E+01
 1.7209751E+01  2.4248352E+01
 1.7221251E+01  2.4201431E+01
 1.7232750E+01  2.4112558E+01
 1.7244251E+01  2.4094875E+01
 1.7255751E+01  2.4012224E+01
 1.7267250E+01  2.3969427E+01
 1.7278751E+01  2.3969292E+01
 1.7290251E+01  2.4023804E+01
 1.7301750E+01  2.4059227E+01
 1.7313251E+01  2.4050013E+01
 1.7324751E+01  2.4038343E+01
 1.7336250E+01  2.4076172E+01
 1.7347752E+01  2.4071718E+01
 1.7359251E+01  2.4080137E+01
 1.7370750E+01  2.3991230E+01
 1.7382252E+01  2.3927641E+01
 1.7393751E+01  2.3851166E+01
 1.7405251E+01  2.3798082E+01
 1.7416750E+01  2.3788143E+01
 1.7428251E+01  2.3822771E+01
 1.7439751E+01  2.3818214E+01
 1.7451250E+01  2.3844284E+01
 1.7462751E+01  2.3832664E+01
 1.7474251E+01  2.3870230E+01
 1.7485750E+01  2.3861509E+01
 1.7497252E+01  2.3863905E+01
 1.7508751E+01  2.3855219E+01
 1.7520250E+01  2.3814342E+01
 1.7531752E+01  2.3786772E+01
 1.7543251E+01  2.3818678E+01
 1.7554750E+01  2.3818998E+01
 1.7566252E+01  2.3793417E+01
 1.7577751E+01  2.3735737E+01
 1.7589251E+01  2.3708883E+01
 1.7600750E+01  2.3726801E+01
 1.7612251E+01  2.3703733E+01
 1.7623751E+01  2.3732321E+01
 1.7635250E+01  2.3725437E+01
 1.7646751E+01  2.3725515E+01
 1.7658251E+01  2.3690784E+01
 1.7669750E+01  2.3660204E+01
 1.7681252E+01  2.3651310E+01
 1.7692751E+01  2.3679394E+01
 1.7704250E+01  2.3653460E+01
 1.7715752E+01  2.3681063E+01
 1.7727251E+01  2.3625208E+01
 1.7738750E+01  2.3656057E+01
 1.7750252E+01  2.3654617E+01
 1.7761751E+01  2.3700748E+01
 1.7773251E+01  2.3737530E+01
 1.7784750E+01  2.3781572E+01
 1.7796251E+01  2.3842796E+01
 1.7807751E+01  2.3825525E+01
 1.7819250E+01  2.3790295E+01
 1.7830751E+01  2.3738895E+01
 1.7842251E+01  2.3733347E+01
 1.7853750E+01  2.3680079E+01
 1.7865252E+01  2.3624104E+01
 1.7876751E+01  2.3626556E+01
 1.7888250E+01  2.3626801E+01
 1.7899752E+01  2.3657299E+01
 1.7911251E+01  2.3673056E+01
 1.7922750E+01  2.3732155E+01
 1.7934252E+01  2.3700729E+01
 1.7945751E+01  2.3679888E+01
 1.7957251E+01  2.3628607E+01
 1.7968750E+01  2.3634146E+01
 1.7980251E+01  2.3630644E+01
 1.7991751E+01  2.3692709E+01
 1.8003250E+01  2.3763275E+01
 1.8014751E+01  2.3784685E+01
 1.8026251E+01  2.3777079E+01
 1.8037750E+01  2.3739300E+01
 1.8049252E+01  2.3770607E+01
 1.8060751E+01  2.3804075E+01
 1.8072250E+01  2.3825382E+01
 1.8083752E+01  2.3854691E+01
 1.8095251E+01  2.3878990E+01
 1.8106750E+01  2.3909075E+01
 1.8118252E+01  2.3891417E+01
 1.8129751E+01  2.3817785E+01
 1.8141251E+01  2.3711615E+01
 1.8152750E+01  2.3622738E+01
 1.8164251E+01  2.3581900E+01
 1.8175751E+01  2.3532005E+01
 1.8187250E+01  2.3492487E+01
 1.8198751E+01  2.3503258E+01
 1.8210251E+01  2.3500307E+01
 1.8221750E+01  2.3471260E+01
 1.8233252E+01  2.3448349E+01
 1.8244751E+01  2.3430174E+01
 1.8256250E+01  2.3404480E+01
 1.8267752E+01  2.3398373E+01
 1.8279251E+01  2.3445667E+01
 1.8290751E+01  2.3438946E+01
 1.8302252E+01  2.3477152E+01
 1.8313751E+01  2.3436060E+01
 1.8325251E+01  2.3466440E+01
 1.8336750E+01  2.3416271E+01
 1.8348251E+01  2.3449457E+01
 1.8359751E+01  2.3401102E+01
 1.8371250E+01  2.3408876E+01
 1.8382751E+01  2.3353426E+01
 1.8394251E+01  2.3365892E+01
 1.8405750E+01  2.3354712E+01
 1.8417252E+01  2.3336950E+01
 1.8428751E+01  2.3344364E+01
 1.8440250E+01  2.3389322E+01
 1.8451752E+01  2.3462944E+01
 1.8463251E+01  2.3486942E+01
 1.8474751E+01  2.3507114E+01
 1.8486252E+01  2.3521698E+01
 1.8497751E+01  2.3553352E+01
 1.8509251E+01  2.3550146E+01
 1.8520750E+01  2.3486914E+01
 1.8532251E+01  2.3462652E+01
 1.8543751E+01  2.3441109E+01
 1.8555250E+01  2.3389212E+01
 1.8566751E+01  2.3357975E+01
 1.8578251E+01  2.3371193E+01
 1.8589750E+01  2.3433723E+01
 1.8601252E+01  2.3443781E+01
 1.8612751E+01  2.3435469E+01
 1.8624250E+01  2.3419565E+01
 1.8635752E+01  2.3438128E+01
 1.8647251E+01  2.3425095E+01
 1.8658751E+01  2.3401384E+01
 1.8670252E+01  2.3423521E+01
 1.8681751E+01  2.3467585E+01
 1.8693251E+01  2.3500114E+01
 1.8704750E+01  2.3522411E+01
 1.8716251E+01  2.3563255E+01
 1.8727751E+01  2.3509480E+01
 1.8739250E+01  2.3499201E+01
 1.8750751E+01  2.3405691E+01
 1.8762251E+01  2.3352192E+01
 1.8773750E+01  2.3308508E+01
 1.8785252E+01  2.3335224E+01
 1.8796751E+01  2.3405649E+01
 1.8808250E+01  2.3391535E+01
 1.8819752E+01  2.3368271E+01
 1.8831251E+01  2.3304979E+01
 1.8842751E+01  2.3326752E+01
 1.8854252E+01  2.3330778E+01
 1.8865751E+01  2.3361351E+01
 1.8877251E+01  2.3384523E+01
 1.8888750E+01  2.3412359E+01
 1.8900251E+01  2.3472912E+01
 1.8911751E+01  2.3497089E+01
 1.8923250E+01  2.3551041E+01
 1.8934752E+01  2.3579163E+01
 1.8946251E+01  2.3617596E+01
 1.8957750E+01  2.3575361E+01
 1.8969252E+01  2.3467478E+01
 1.8980751E+01  2.3407541E+01
 1.8992250E+01  2.3358988E+01
 1.9003752E+01  2.3376528E+01
 1.9015251E+01  2.3369473E+01
 1.9026751E+01  2.3400270E+01
 1.9038252E+01  2.3390892E+01
 1.9049751E+01  2.3365459E+01
 1.9061251E+01  2.3383528E+01
 1.9072750E+01  2.3410969E+01
 1.9084251E+01  2.3422911E+01
 1.9095751E+01  2.3373875E+01
 1.9107250E+01  2.3396757E+01
 1.9118752E+01  2.3394045E+01
 1.9130251E+01  2.3481419E+01
 1.9141750E+01  2.3477016E+01
 1.9153252E+01  2.3491018E+01
 1.9164751E+01  2.3443386E+01
 1.9176250E+01  2.3419741E+01
 1.9187752E+01  2.3425592E+01
 1.9199251E+01  2.3420321E+01
 1.9210751E+01  2.3436182E+01
 1.9222252E+01  2.3409786E+01
 1.9233751E+01  2.3393995E+01
 1.9245251E+01  2.3412348E+01
 1.9256750E+01  2.3458229E+01
 1.9268251E+01  2.3486418E+01
 1.9279751E+01  2.3484381E+01
 1.9291250E+01  2.3482706E+01
 1.9302752E+01  2.3518717E+01
 1.9314251E+01  2.3517691E+01
 1.9325750E+01  2.3560371E+01
 1.9337252E+01  2.3570210E+01
 1.9348751E+01  2.3593452E+01
 1.9360250E+01  2.3519218E+01
 1.9371752E+01  2.3505514E+01
 1.9383251E+01  2.3506596E+01
 1.9394751E+01  2.3528210E+01
 1.9406250E+01  2.3519938E+01
 1.9417751E+01  2.3531097E+01
 1.9429251E+01  2.3509474E+01
 1.9440750E+01  2.3487640E+01
 1.9452251E+01  2.3480753E+01
 1.9463751E+01  2.3472330E+01
 1.9475250E+01  2.3445009E+01
 1.9486752E+01  2.3424866E+01
 1.9498251E+01  2.3390089E+01
 1.9509750E+01  2.3411200E+01
 1.9521252E+01  2.3421757E+01
 1.9532751E+01  2.3482199E+01
 1.9544250E+01  2.3493015E+01
 1.9555752E+01  2.3510695E+01
 1.9567251E+01  2.3499533E+01
 1.9578751E+01  2.3482420E+01
 1.9590250E+01  2.3446539E+01
 1.9601751E+01  2.3449091E+01
 1.9613251E+01  2.3468792E+01
 1.9624750E+01  2.3493313E+01
 1.9636251E+01  2.3555061E+01
 1.9647751E+01  2.3590660E+01
 1.9659250E+01  2.3719933E+01
 1.9670752E+01  2.3810268E+01
 1.9682251E+01  2.3922777E+01
 1.9693750E+01  2.3977222E+01
 1.9705252E+01  2.4088785E+01
 1.9716751E+01  2.4176104E+01
 1.9728251E+01  2.4173594E+01
 1.9739752E+01  2.4120131E+01
 1.9751251E+01  2.4072186E+01
 1.9762751E+01  2.4014181E+01
 1.9774250E+01  2.3939129E+01
 1.9785751E+01  2.3894341E+01
 1.9797251E+01  2.3858728E+01
 1.9808750E+01  2.3869284E+01
 1.9820251E+01  2.3897404E+01
 1.9831751E+01  2.4038351E+01
 1.9843250E+01  2.4073906E+01
 1.9854752E+01  2.4145796E+01
 1.9866251E+01  2.4109507E+01
 1.9877750E+01  2.4087677E+01
 1.9889252E+01  2.3989624E+01
 1.9900751E+01  2.3902109E+01
 1.9912251E+01  2.3803955E+01
 1.9923752E+01  2.3716774E+01
 1.9935251E+01  2.3679573E+01
 1.9946751E+01  2.3636341E+01
 1.9958250E+01  2.3609652E+01
 1.9969751E+01  2.3606829E+01
 1.9981251E+01  2.3577833E+01
 1.9992750E+01  2.3601885E+01
 2.0004251E+01  2.3544456E+01
 2.0015751E+01  2.3524191E+01
 2.0027250E+01  2.3478708E+01
 2.0038752E+01  2.3482866E+01
 2.0050251E+01  2.3471872E+01
 2.0061750E+01  2.3473547E+01
 2.0073252E+01  2.3513090E+01
 2.0084751E+01  2.3543749E+01
 2.0096251E+01  2.3615120E+01
 2.0107752E+01  2.3672132E+01
 2.0119251E+01  2.3734251E+01
 2.0130751E+01  2.3719261E+01
 2.0142250E+01  2.3645939E+01
 2.0153751E+01  2.3632147E+01
 2.0165251E+01  2.3643114E+01
 2.0176750E+01  2.3645533E+01
 2.0188251E+01  2.3587107E+01
 2.0199751E+01  2.3539335E+01
 2.0211250E+01  2.3544727E+01
 2.0222752E+01  2.3563560E+01
 2.0234251E+01  2.3532183E+01
 2.0245750E+01  2.3518059E+01
 2.0257252E+01  2.3532494E+01
 2.0268751E+01  2.3532974E+01
 2.0280251E+01  2.3559204E+01
 2.0291752E+01  2.3551357E+01
 2.0303251E+01  2.3558813E+01
 2.0314751E+01  2.3553633E+01
 2.0326250E+01  2.3598127E+01
 2.0337751E+01  2.3622583E+01
 2.0349251E+01  2.3586084E+01
 2.0360750E+01  2.3547157E+01
 2.0372252E+01  2.3489374E+01
 2.0383751E+01  2.3477360E+01
 2.0395250E+01  2.3487377E+01
 2.0406752E+01  2.3568628E+01
 2.0418251E+01  2.3606976E+01
 2.0429750E+01  2.3657915E+01
 2.0441252E+01  2.3692793E+01
 2.0452751E+01  2.3760111E+01
 2.0464251E+01  2.3763586E+01
 2.0475752E+01  2.3763676E+01
 2.0487251E+01  2.3719772E+01
 2.0498751E+01  2.3684481E+01
 2.0510250E+01  2.3606113E+01
 2.0521751E+01  2.3571074E+01
 2.0533251E+01  2.3521938E+01
 2.0544750E+01  2.3555658E+01
 2.0556252E+01  2.3586760E+01
 2.0567751E+01  2.3608864E+01
 2.0579250E+01  2.3620377E+01
 2.0590752E+01  2.3712681E+01
 2.0602251E+01  2.3782570E+01
 2.0613750E+01  2.3872747E+01
 2.0625252E+01  2.3836411E+01
 2.0636751E+01  2.3837196E+01
 2.0648251E+01  2.3737501E+01
 2.0659752E+01  2.3754801E+01
 2.0671251E+01  2.3765110E+01
 2.0682751E+01  2.3808558E+01
 2.0694250E+01  2.3785004E+01
 2.0705751E+01  2.3855579E+01
 2.0717251E+01  2.3911097E+01
 2.0728750E+01  2.3995697E+01
 2.0740252E+01  2.4068697E+01
 2.0751751E+01  2.4136654E+01
 2.0763250E+01  2.4168423E+01
 2.0774752E+01  2.4138638E+01
 2.0786251E+01  2.4091560E+01
 2.0797750E+01  2.3988003E+01
 2.0809252E+01  2.3864525E+01
 2.0820751E+01  2.3767532E+01
 2.0832251E+01  2.3680447E+01
 2.0843752E+01  2.3658913E+01
 2.0855251E+01  2.3670933E+01
 2.0866751E+01  2.3695053E+01
 2.0878250E+01  2.3725328E+01
 2.0889751E+01  2.3743084E+01
 2.0901251E+01  2.3790083E+01
 2.0912750E+01  2.3786591E+01
 2.0924252E+01  2.3769640E+01
 2.0935751E+01  2.3733215E+01
 2.0947250E+01  2.3723272E+01
 2.0958752E+01  2.3710089E+01
 2.0970251E+01  2.3720509E+01
 2.0981750E+01  2.3739611E+01
 2.0993252E+01  2.3727001E+01
 2.1004751E+01  2.3772566E+01
 2.1016251E+01  2.3815119E+01
 2.1027752E+01  2.3883694E+01
 2.1039251E+01  2.3880518E+01
 2.1050751E+01  2.3835135E+01
 2.1062250E+01  2.3761353E+01
 2.1073751E+01  2.3774269E+01
 2.1085251E+01  2.3763397E+01
 2.1096750E+01  2.3767424E+01
 2.1108252E+01  2.3773895E+01
 2.1119751E+01  2.3810587E+01
 2.1131250E+01  2.3793417E+01
 2.1142752E+01  2.3734995E+01
 2.1154251E+01  2.3679443E+01
 2.1165751E+01  2.3675198E+01
 2.1177252E+01  2.3677952E+01
 2.1188751E+01  2.3675283E+01
 2.1200251E+01  2.3706398E+01
 2.1211752E+01  2.3729469E+01
 2.1223251E+01  2.3697660E+01
 2.1234751E+01  2.3686501E+01
 2.1246250E+01  2.3728052E+01
 2.1257751E+01  2.3787573E+01
 2.1269251E+01  2.3769247E+01
 2.1280750E+01  2.3740562E+01
 2.1292252E+01  2.3739733E+01
 2.1303751E+01  2.3762007E+01
 2.1315250E+01  2.3791334E+01
 2.1326752E+01  2.3832451E+01
 2.1338251E+01  2.3822580E+01
 2.1349751E+01  2.3795296E+01
 2.1361252E+01  2.3793306E+01
 2.1372751E+01  2.3862528E+01
 2.1384251E+01  2.3866800E+01
 2.1395752E+01  2.3885077E+01
 2.1407251E+01  2.3999212E+01
 2.1418751E+01  2.4077595E+01
 2.1430250E+01  2.4112810E+01
 2.1441751E+01  2.3973028E+01
 2.1453251E+01  2.3894741E+01
 2.1464750E+01  2.3829216E+01
 2.1476252E+01  2.3817781E+01
 2.1487751E+01  2.3839663E+01
 2.1499250E+01  2.3848892E+01
 2.1510752E+01  2.3851954E+01
 2.1522251E+01  2.3845274E+01
 2.1533751E+01  2.3861752E+01
 2.1545252E+01  2.3850132E+01
 2.1556751E+01  2.3870785E+01
 2.1568251E+01  2.3875937E+01
 2.1579752E+01  2.3932367E+01
 2.1591251E+01  2.3946033E+01
 2.1602751E+01  2.3988804E+01
 2.1614250E+01  2.3966385E+01
 2.1625751E+01  2.3953856E+01
 2.1637251E+01  2.3960705E+01
 2.1648750E+01  2.3976145E+01
 2.1660252E+01  2.3997229E+01
 2.1671751E+01  2.4004711E+01
 2.1683250E+01  2.4028841E+01
 2.1694752E+01  2.4020573E+01
 2.1706251E+01  2.4037144E+01
 2.1717751E+01  2.4059381E+01
 2.1729252E+01  2.4051071E+01
 2.1740751E+01  2.4019899E+01
 2.1752251E+01  2.3987658E+01
 2.1763752E+01  2.3961082E+01
 2.1775251E+01  2.3956701E+01
 2.1786751E+01  2.3934551E+01
 2.1798250E+01  2.3930418E+01
 2.1809752E+01  2.3878977E+01
 2.1821251E+01  2.3933622E+01
 2.1832750E+01  2.3955910E+01
 2.1844252E+01  2.4005175E+01
 2.1855751E+01  2.4034191E+01
 2.1867250E+01  2.4103905E+01
 2.1878752E+01  2.4123428E+01
 2.1890251E+01  2.4117699E+01
 2.1901751E+01  2.4124794E+01
 2.1913252E+01  2.4107521E+01
 2.1924751E+01  2.4084503E+01
 2.1936251E+01  2.4098240E+01
 2.1947752E+01  2.4120790E+01
 2.1959251E+01  2.4121752E+01
 2.1970751E+01  2.4098919E+01
 2.1982250E+01  2.4038754E+01
 2.1993752E+01  2.4022255E+01
 2.2005251E+01  2.4055847E+01
 2.2016750E+01  2.4135666E+01
 2.2028252E+01  2.4163416E+01
 2.2039751E+01  2.4198540E+01
 2.2051250E+01  2.4205566E+01
 2.2062752E+01  2.4191582E+01
 2.2074251E+01  2.4131351E+01
 2.2085751E+01  2.4107809E+01
 2.2097252E+01  2.4100510E+01
 2.2108751E+01  2.4109934E+01
 2.2120251E+01  2.4186508E+01
 2.2131752E+01  2.4260305E+01
 2.2143251E+01  2.4299076E+01
 2.2154751E+01  2.4293205E+01
 2.2166250E+01  2.4279846E+01
 2.2177752E+01  2.4275021E+01
 2.2189251E+01  2.4252098E+01
 2.2200750E+01  2.4230204E+01
 2.2212252E+01  2.4203529E+01
 2.2223751E+01  2.4213203E+01
 2.2235250E+01  2.4250427E+01
 2.2246752E+01  2.4277016E+01
 2.2258251E+01  2.4307020E+01
 2.2269751E+01  2.4302582E+01
 2.2281252E+01  2.4323826E+01
 2.2292751E+01  2.4339565E+01
 2.2304251E+01  2.4383009E+01
 2.2315752E+01  2.4402918E+01
 2.2327251E+01  2.4404222E+01
 2.2338751E+01  2.4394958E+01
 2.2350250E+01  2.4368202E+01
 2.2361752E+01  2.4316723E+01
 2.2373251E+01  2.4300007E+01
 2.2384750E+01  2.4281754E+01
 2.2396252E+01  2.4321981E+01
 2.2407751E+01  2.4330973E+01
 2.2419250E+01  2.4356375E+01
 2.2430752E+01  2.4342049E+01
 2.2442251E+01  2.4378450E+01
 2.2453751E+01  2.4397844E+01
 2.2465252E+01  2.4444658E+01
 2.2476751E+01  2.4453850E+01
 2.2488251E+01  2.4524611E+01
 2.2499752E+01  2.4564680E+01
 2.2511251E+01  2.4647312E+01
 2.2522751E+01  2.4695883E+01
 2.2534250E+01  2.4705576E+01
 2.2545752E+01  2.4684933E+01
 2.2557251E+01  2.4688007E+01
 2.2568750E+01  2.4692942E+01
 2.2580252E+01  2.4714605E+01
 2.2591751E+01  2.4742287E+01
 2.2603251E+01  2.4730806E+01
 2.2614752E+01  2.4750374E+01
 2.2626251E+01  2.4763290E+01
 2.2637751E+01  2.4762146E+01
 2.2649252E+01  2.4767765E+01
 2.2660751E+01  2.4775829E+01
 2.2672251E+01  2.4835318E+01
 2.2683752E+01  2.4906322E+01
 2.2695251E+01  2.5023743E+01
 2.2706751E+01  2.4998354E+01
 2.2718250E+01  2.5013611E+01
 2.2729752E+01  2.5021305E+01
 2.2741251E+01  2.5093033E+01
 2.2752750E+01  2.5116302E+01
 2.2764252E+01  2.5126829E+01
 2.2775751E+01  2.5077368E+01
 2.2787251E+01  2.5050638E+01
 2.2798752E+01  2.5088631E+01
 2.2810251E+01  2.5159458E+01
 2.2821751E+01  2.5202646E+01
 2.2833252E+01  2.5244955E+01
 2.2844751E+01  2.5289299E+01
 2.2856251E+01  2.5287525E+01
 2.2867750E+01  2.5371756E+01
 2.2879251E+01  2.5442055E+01
 2.2890751E+01  2.5520460E+01
 2.2902250E+01  2.5554125E+01
 2.2913752E+01  2.5621277E+01
 2.2925251E+01  2.5663603E+01
 2.2936750E+01  2.5712133E+01
 2.2948252E+01  2.5799900E+01
 2.2959751E+01  2.5854906E+01
 2.2971251E+01  2.5958258E+01
 2.2982752E+01  2.6041031E+01
 2.2994251E+01  2.6130243E+01
