F:\20151113_APS_34IDE\\Brian\Particle1\OCV\Data_0107.tif
2-Theta Angle (Degrees)
Intensity
       2000
 5.7500005E-03  0.0000000E+00
 1.7250001E-02  0.0000000E+00
 2.8750001E-02  0.0000000E+00
 4.0250003E-02  0.0000000E+00
 5.1750004E-02  0.0000000E+00
 6.3250005E-02  0.0000000E+00
 7.4750006E-02  0.0000000E+00
 8.6250007E-02  0.0000000E+00
 9.7750008E-02  0.0000000E+00
 1.0925001E-01  0.0000000E+00
 1.2075000E-01  0.0000000E+00
 1.3225001E-01  0.0000000E+00
 1.4375001E-01  0.0000000E+00
 1.5525001E-01  0.0000000E+00
 1.6675001E-01  0.0000000E+00
 1.7825001E-01  0.0000000E+00
 1.8975002E-01  0.0000000E+00
 2.0125002E-01  0.0000000E+00
 2.1275002E-01  0.0000000E+00
 2.2425000E-01  0.0000000E+00
 2.3575000E-01  0.0000000E+00
 2.4725001E-01  0.0000000E+00
 2.5875002E-01  0.0000000E+00
 2.7025002E-01  0.0000000E+00
 2.8175002E-01  0.0000000E+00
 2.9325002E-01  0.0000000E+00
 3.0475003E-01  0.0000000E+00
 3.1625003E-01  0.0000000E+00
 3.2775003E-01  0.0000000E+00
 3.3925003E-01  0.0000000E+00
 3.5075003E-01  0.0000000E+00
 3.6225003E-01  0.0000000E+00
 3.7375003E-01  0.0000000E+00
 3.8525003E-01  0.0000000E+00
 3.9675003E-01  0.0000000E+00
 4.0825003E-01  0.0000000E+00
 4.1975003E-01  0.0000000E+00
 4.3125004E-01  0.0000000E+00
 4.4275001E-01  0.0000000E+00
 4.5425001E-01  0.0000000E+00
 4.6575001E-01  0.0000000E+00
 4.7725001E-01  0.0000000E+00
 4.8875001E-01  0.0000000E+00
 5.0025004E-01  0.0000000E+00
 5.1175004E-01  0.0000000E+00
 5.2325004E-01  0.0000000E+00
 5.3475004E-01  0.0000000E+00
 5.4625005E-01  0.0000000E+00
 5.5775005E-01  0.0000000E+00
 5.6925005E-01  0.0000000E+00
 5.8075005E-01  0.0000000E+00
 5.9225005E-01  0.0000000E+00
 6.0375005E-01  0.0000000E+00
 6.1525005E-01  0.0000000E+00
 6.2675005E-01  0.0000000E+00
 6.3825005E-01  0.0000000E+00
 6.4975005E-01  0.0000000E+00
 6.6125005E-01  0.0000000E+00
 6.7275006E-01  0.0000000E+00
 6.8425006E-01  0.0000000E+00
 6.9575006E-01  0.0000000E+00
 7.0725006E-01  0.0000000E+00
 7.1875006E-01  0.0000000E+00
 7.3025006E-01  0.0000000E+00
 7.4175006E-01  0.0000000E+00
 7.5325006E-01  0.0000000E+00
 7.6475006E-01  0.0000000E+00
 7.7625006E-01  0.0000000E+00
 7.8775007E-01  0.0000000E+00
 7.9925007E-01  0.0000000E+00
 8.1075007E-01  0.0000000E+00
 8.2225007E-01  0.0000000E+00
 8.3375007E-01  0.0000000E+00
 8.4525007E-01  0.0000000E+00
 8.5675007E-01  0.0000000E+00
 8.6825007E-01  0.0000000E+00
 8.7975001E-01  0.0000000E+00
 8.9125001E-01  0.0000000E+00
 9.0275002E-01  0.0000000E+00
 9.1425002E-01  0.0000000E+00
 9.2575002E-01  0.0000000E+00
 9.3725002E-01  0.0000000E+00
 9.4875002E-01  0.0000000E+00
 9.6025002E-01  0.0000000E+00
 9.7175002E-01  0.0000000E+00
 9.8325002E-01  0.0000000E+00
 9.9475002E-01  0.0000000E+00
 1.0062500E+00  0.0000000E+00
 1.0177500E+00  0.0000000E+00
 1.0292500E+00  0.0000000E+00
 1.0407500E+00  0.0000000E+00
 1.0522500E+00  0.0000000E+00
 1.0637500E+00  0.0000000E+00
 1.0752500E+00  0.0000000E+00
 1.0867500E+00  0.0000000E+00
 1.0982500E+00  0.0000000E+00
 1.1097500E+00  0.0000000E+00
 1.1212500E+00  0.0000000E+00
 1.1327500E+00  0.0000000E+00
 1.1442500E+00  0.0000000E+00
 1.1557500E+00  0.0000000E+00
 1.1672500E+00  0.0000000E+00
 1.1787500E+00  0.0000000E+00
 1.1902500E+00  0.0000000E+00
 1.2017500E+00  0.0000000E+00
 1.2132500E+00  0.0000000E+00
 1.2247500E+00  0.0000000E+00
 1.2362500E+00  0.0000000E+00
 1.2477500E+00  0.0000000E+00
 1.2592500E+00  0.0000000E+00
 1.2707500E+00  0.0000000E+00
 1.2822500E+00  0.0000000E+00
 1.2937500E+00  0.0000000E+00
 1.3052500E+00  0.0000000E+00
 1.3167500E+00  0.0000000E+00
 1.3282501E+00  0.0000000E+00
 1.3397501E+00  0.0000000E+00
 1.3512501E+00  0.0000000E+00
 1.3627501E+00  0.0000000E+00
 1.3742501E+00  0.0000000E+00
 1.3857501E+00  0.0000000E+00
 1.3972501E+00  0.0000000E+00
 1.4087501E+00  0.0000000E+00
 1.4202501E+00  0.0000000E+00
 1.4317501E+00  0.0000000E+00
 1.4432501E+00  0.0000000E+00
 1.4547501E+00  0.0000000E+00
 1.4662501E+00  0.0000000E+00
 1.4777501E+00  0.0000000E+00
 1.4892501E+00  0.0000000E+00
 1.5007501E+00  0.0000000E+00
 1.5122501E+00  0.0000000E+00
 1.5237501E+00  0.0000000E+00
 1.5352501E+00  0.0000000E+00
 1.5467501E+00  0.0000000E+00
 1.5582501E+00  0.0000000E+00
 1.5697501E+00  0.0000000E+00
 1.5812501E+00  0.0000000E+00
 1.5927501E+00  0.0000000E+00
 1.6042501E+00  0.0000000E+00
 1.6157501E+00  0.0000000E+00
 1.6272501E+00  0.0000000E+00
 1.6387501E+00  0.0000000E+00
 1.6502501E+00  0.0000000E+00
 1.6617501E+00  0.0000000E+00
 1.6732501E+00  0.0000000E+00
 1.6847501E+00  0.0000000E+00
 1.6962501E+00  0.0000000E+00
 1.7077501E+00  0.0000000E+00
 1.7192501E+00  0.0000000E+00
 1.7307501E+00  0.0000000E+00
 1.7422501E+00  0.0000000E+00
 1.7537501E+00  0.0000000E+00
 1.7652501E+00  0.0000000E+00
 1.7767501E+00  0.0000000E+00
 1.7882501E+00  0.0000000E+00
 1.7997501E+00  0.0000000E+00
 1.8112501E+00  0.0000000E+00
 1.8227501E+00  0.0000000E+00
 1.8342501E+00  0.0000000E+00
 1.8457501E+00  0.0000000E+00
 1.8572501E+00  0.0000000E+00
 1.8687501E+00  0.0000000E+00
 1.8802501E+00  0.0000000E+00
 1.8917501E+00  0.0000000E+00
 1.9032501E+00  0.0000000E+00
 1.9147501E+00  0.0000000E+00
 1.9262501E+00  0.0000000E+00
 1.9377501E+00  0.0000000E+00
 1.9492501E+00  0.0000000E+00
 1.9607501E+00  0.0000000E+00
 1.9722501E+00  0.0000000E+00
 1.9837501E+00  0.0000000E+00
 1.9952501E+00  0.0000000E+00
 2.0067501E+00  0.0000000E+00
 2.0182500E+00  0.0000000E+00
 2.0297501E+00  0.0000000E+00
 2.0412500E+00  0.0000000E+00
 2.0527501E+00  0.0000000E+00
 2.0642500E+00  0.0000000E+00
 2.0757501E+00  0.0000000E+00
 2.0872500E+00  0.0000000E+00
 2.0987501E+00  0.0000000E+00
 2.1102500E+00  0.0000000E+00
 2.1217501E+00  0.0000000E+00
 2.1332500E+00  0.0000000E+00
 2.1447501E+00  0.0000000E+00
 2.1562500E+00  0.0000000E+00
 2.1677501E+00  0.0000000E+00
 2.1792500E+00  0.0000000E+00
 2.1907501E+00  0.0000000E+00
 2.2022500E+00  0.0000000E+00
 2.2137501E+00  0.0000000E+00
 2.2252500E+00  0.0000000E+00
 2.2367501E+00  0.0000000E+00
 2.2482500E+00  0.0000000E+00
 2.2597501E+00  0.0000000E+00
 2.2712500E+00  0.0000000E+00
 2.2827501E+00  0.0000000E+00
 2.2942500E+00  0.0000000E+00
 2.3057501E+00  0.0000000E+00
 2.3172500E+00  0.0000000E+00
 2.3287501E+00  0.0000000E+00
 2.3402500E+00  0.0000000E+00
 2.3517501E+00  0.0000000E+00
 2.3632500E+00  0.0000000E+00
 2.3747501E+00  0.0000000E+00
 2.3862500E+00  0.0000000E+00
 2.3977501E+00  0.0000000E+00
 2.4092500E+00  0.0000000E+00
 2.4207501E+00  0.0000000E+00
 2.4322500E+00  0.0000000E+00
 2.4437501E+00  0.0000000E+00
 2.4552500E+00  0.0000000E+00
 2.4667501E+00  0.0000000E+00
 2.4782500E+00  0.0000000E+00
 2.4897501E+00  0.0000000E+00
 2.5012500E+00  0.0000000E+00
 2.5127501E+00  0.0000000E+00
 2.5242500E+00  0.0000000E+00
 2.5357502E+00  0.0000000E+00
 2.5472500E+00  0.0000000E+00
 2.5587502E+00  0.0000000E+00
 2.5702500E+00  0.0000000E+00
 2.5817502E+00  0.0000000E+00
 2.5932500E+00  0.0000000E+00
 2.6047502E+00  0.0000000E+00
 2.6162500E+00  0.0000000E+00
 2.6277502E+00  0.0000000E+00
 2.6392500E+00  0.0000000E+00
 2.6507502E+00  0.0000000E+00
 2.6622500E+00  0.0000000E+00
 2.6737502E+00  0.0000000E+00
 2.6852500E+00  0.0000000E+00
 2.6967502E+00  0.0000000E+00
 2.7082500E+00  0.0000000E+00
 2.7197502E+00  0.0000000E+00
 2.7312500E+00  0.0000000E+00
 2.7427502E+00  0.0000000E+00
 2.7542500E+00  0.0000000E+00
 2.7657502E+00  0.0000000E+00
 2.7772501E+00  0.0000000E+00
 2.7887502E+00  0.0000000E+00
 2.8002501E+00  0.0000000E+00
 2.8117502E+00  0.0000000E+00
 2.8232501E+00  3.0807371E+01
 2.8347502E+00  3.0902622E+01
 2.8462501E+00  3.2295444E+01
 2.8577502E+00  3.2576103E+01
 2.8692501E+00  3.3088123E+01
 2.8807502E+00  3.3370377E+01
 2.8922501E+00  3.3890209E+01
 2.9037502E+00  3.4586998E+01
 2.9152501E+00  3.4897282E+01
 2.9267502E+00  3.5362267E+01
 2.9382501E+00  3.5340687E+01
 2.9497502E+00  3.5349323E+01
 2.9612501E+00  3.4998863E+01
 2.9727502E+00  3.4669853E+01
 2.9842501E+00  3.4609322E+01
 2.9957502E+00  3.5117683E+01
 3.0072501E+00  3.5623009E+01
 3.0187502E+00  3.5756908E+01
 3.0302501E+00  3.5965679E+01
 3.0417502E+00  3.5897217E+01
 3.0532501E+00  3.6097828E+01
 3.0647502E+00  3.5744537E+01
 3.0762501E+00  3.5462021E+01
 3.0877502E+00  3.5070992E+01
 3.0992501E+00  3.4865913E+01
 3.1107502E+00  3.4626503E+01
 3.1222501E+00  3.4673386E+01
 3.1337502E+00  3.4356407E+01
 3.1452501E+00  3.4498417E+01
 3.1567502E+00  3.4390766E+01
 3.1682501E+00  3.4709705E+01
 3.1797502E+00  3.5074764E+01
 3.1912501E+00  3.5504932E+01
 3.2027502E+00  3.5687046E+01
 3.2142501E+00  3.5517414E+01
 3.2257502E+00  3.5133110E+01
 3.2372501E+00  3.4715210E+01
 3.2487502E+00  3.4386902E+01
 3.2602501E+00  3.4197701E+01
 3.2717502E+00  3.4084476E+01
 3.2832501E+00  3.4055519E+01
 3.2947502E+00  3.4032337E+01
 3.3062501E+00  3.4205624E+01
 3.3177502E+00  3.4141605E+01
 3.3292501E+00  3.4238800E+01
 3.3407502E+00  3.4297703E+01
 3.3522501E+00  3.4687439E+01
 3.3637502E+00  3.4722385E+01
 3.3752501E+00  3.4849056E+01
 3.3867502E+00  3.4589931E+01
 3.3982501E+00  3.4639977E+01
 3.4097502E+00  3.4362694E+01
 3.4212501E+00  3.4083565E+01
 3.4327502E+00  3.4069256E+01
 3.4442501E+00  3.3890774E+01
 3.4557502E+00  3.4291424E+01
 3.4672501E+00  3.4205959E+01
 3.4787502E+00  3.4597748E+01
 3.4902501E+00  3.4771252E+01
 3.5017502E+00  3.4754219E+01
 3.5132501E+00  3.4787643E+01
 3.5247502E+00  3.4816441E+01
 3.5362501E+00  3.4657890E+01
 3.5477502E+00  3.4537476E+01
 3.5592501E+00  3.4364452E+01
 3.5707502E+00  3.4155514E+01
 3.5822501E+00  3.3932892E+01
 3.5937502E+00  3.3728214E+01
 3.6052501E+00  3.3500515E+01
 3.6167502E+00  3.3554768E+01
 3.6282501E+00  3.3267319E+01
 3.6397502E+00  3.3210472E+01
 3.6512501E+00  3.3096428E+01
 3.6627502E+00  3.3040306E+01
 3.6742501E+00  3.3083611E+01
 3.6857502E+00  3.3072056E+01
 3.6972501E+00  3.3064926E+01
 3.7087502E+00  3.2980350E+01
 3.7202501E+00  3.2795223E+01
 3.7317502E+00  3.2673717E+01
 3.7432501E+00  3.2827164E+01
 3.7547503E+00  3.2923241E+01
 3.7662501E+00  3.3089317E+01
 3.7777503E+00  3.3154823E+01
 3.7892501E+00  3.2857044E+01
 3.8007503E+00  3.2769287E+01
 3.8122501E+00  3.2589951E+01
 3.8237503E+00  3.2807232E+01
 3.8352501E+00  3.3050667E+01
 3.8467503E+00  3.3138569E+01
 3.8582501E+00  3.3349743E+01
 3.8697503E+00  3.3322632E+01
 3.8812501E+00  3.3193119E+01
 3.8927503E+00  3.2962276E+01
 3.9042501E+00  3.2674538E+01
 3.9157503E+00  3.2629623E+01
 3.9272501E+00  3.2744366E+01
 3.9387503E+00  3.2924870E+01
 3.9502501E+00  3.2919704E+01
 3.9617503E+00  3.3075497E+01
 3.9732502E+00  3.3156467E+01
 3.9847503E+00  3.3333614E+01
 3.9962502E+00  3.3386406E+01
 4.0077500E+00  3.3232338E+01
 4.0192504E+00  3.3172203E+01
 4.0307503E+00  3.2880146E+01
 4.0422502E+00  3.2706165E+01
 4.0537500E+00  3.2449730E+01
 4.0652504E+00  3.2332382E+01
 4.0767503E+00  3.2225307E+01
 4.0882502E+00  3.2362919E+01
 4.0997500E+00  3.2619232E+01
 4.1112504E+00  3.2751423E+01
 4.1227503E+00  3.2793987E+01
 4.1342502E+00  3.2557426E+01
 4.1457500E+00  3.2422539E+01
 4.1572504E+00  3.2244656E+01
 4.1687503E+00  3.2173187E+01
 4.1802502E+00  3.2046459E+01
 4.1917500E+00  3.2118111E+01
 4.2032504E+00  3.2142365E+01
 4.2147503E+00  3.2293186E+01
 4.2262502E+00  3.2325932E+01
 4.2377501E+00  3.2321877E+01
 4.2492504E+00  3.2248314E+01
 4.2607503E+00  3.2241566E+01
 4.2722502E+00  3.2193623E+01
 4.2837501E+00  3.2199879E+01
 4.2952504E+00  3.2053062E+01
 4.3067503E+00  3.2099018E+01
 4.3182502E+00  3.2270359E+01
 4.3297501E+00  3.2439373E+01
 4.3412504E+00  3.2497051E+01
 4.3527503E+00  3.2422684E+01
 4.3642502E+00  3.2440277E+01
 4.3757501E+00  3.2336246E+01
 4.3872504E+00  3.2330193E+01
 4.3987503E+00  3.2250500E+01
 4.4102502E+00  3.2374432E+01
 4.4217501E+00  3.2390194E+01
 4.4332504E+00  3.2441143E+01
 4.4447503E+00  3.2283905E+01
 4.4562502E+00  3.2314697E+01
 4.4677501E+00  3.2347588E+01
 4.4792504E+00  3.2464481E+01
 4.4907503E+00  3.2451904E+01
 4.5022502E+00  3.2461178E+01
 4.5137501E+00  3.2331585E+01
 4.5252504E+00  3.2324177E+01
 4.5367503E+00  3.2229839E+01
 4.5482502E+00  3.2247498E+01
 4.5597501E+00  3.2199841E+01
 4.5712504E+00  3.2094215E+01
 4.5827503E+00  3.2142555E+01
 4.5942502E+00  3.2180683E+01
 4.6057501E+00  3.2307487E+01
 4.6172504E+00  3.2291195E+01
 4.6287503E+00  3.2386894E+01
 4.6402502E+00  3.2512928E+01
 4.6517501E+00  3.2580811E+01
 4.6632504E+00  3.2678391E+01
 4.6747503E+00  3.2685818E+01
 4.6862502E+00  3.2865009E+01
 4.6977501E+00  3.2947720E+01
 4.7092505E+00  3.3063499E+01
 4.7207503E+00  3.3154942E+01
 4.7322502E+00  3.3073532E+01
 4.7437501E+00  3.2977531E+01
 4.7552505E+00  3.2680080E+01
 4.7667503E+00  3.2674503E+01
 4.7782502E+00  3.2578182E+01
 4.7897501E+00  3.2665138E+01
 4.8012505E+00  3.2617851E+01
 4.8127503E+00  3.2705330E+01
 4.8242502E+00  3.2804295E+01
 4.8357501E+00  3.2804741E+01
 4.8472505E+00  3.2863319E+01
 4.8587503E+00  3.2795219E+01
 4.8702502E+00  3.2813389E+01
 4.8817501E+00  3.2834736E+01
 4.8932505E+00  3.2768356E+01
 4.9047503E+00  3.2805115E+01
 4.9162502E+00  3.2877419E+01
 4.9277501E+00  3.2954769E+01
 4.9392505E+00  3.3005871E+01
 4.9507504E+00  3.3009918E+01
 4.9622502E+00  3.2897041E+01
 4.9737501E+00  3.2798973E+01
 4.9852505E+00  3.2759560E+01
 4.9967504E+00  3.2887886E+01
 5.0082502E+00  3.2985134E+01
 5.0197501E+00  3.3131973E+01
 5.0312505E+00  3.3215294E+01
 5.0427504E+00  3.3475189E+01
 5.0542502E+00  3.3431187E+01
 5.0657501E+00  3.3379395E+01
 5.0772505E+00  3.3292595E+01
 5.0887504E+00  3.3211052E+01
 5.1002502E+00  3.3264050E+01
 5.1117501E+00  3.3271603E+01
 5.1232505E+00  3.3327438E+01
 5.1347504E+00  3.3503803E+01
 5.1462502E+00  3.3582642E+01
 5.1577501E+00  3.3697971E+01
 5.1692505E+00  3.3772457E+01
 5.1807504E+00  3.3776112E+01
 5.1922503E+00  3.3889080E+01
 5.2037501E+00  3.3900291E+01
 5.2152505E+00  3.3950153E+01
 5.2267504E+00  3.3978989E+01
 5.2382503E+00  3.3958199E+01
 5.2497501E+00  3.3966492E+01
 5.2612505E+00  3.4056892E+01
 5.2727504E+00  3.3964138E+01
 5.2842503E+00  3.3998096E+01
 5.2957501E+00  3.3948124E+01
 5.3072500E+00  3.3993797E+01
 5.3187504E+00  3.4135838E+01
 5.3302503E+00  3.4163822E+01
 5.3417501E+00  3.4305454E+01
 5.3532500E+00  3.4201530E+01
 5.3647504E+00  3.4129646E+01
 5.3762503E+00  3.4157089E+01
 5.3877501E+00  3.4257999E+01
 5.3992500E+00  3.4348770E+01
 5.4107504E+00  3.4344444E+01
 5.4222503E+00  3.4360722E+01
 5.4337502E+00  3.4319012E+01
 5.4452500E+00  3.4392311E+01
 5.4567504E+00  3.4425392E+01
 5.4682503E+00  3.4558441E+01
 5.4797502E+00  3.4652016E+01
 5.4912500E+00  3.4563854E+01
 5.5027504E+00  3.4609352E+01
 5.5142503E+00  3.4609787E+01
 5.5257502E+00  3.4787910E+01
 5.5372500E+00  3.4883015E+01
 5.5487504E+00  3.5096359E+01
 5.5602503E+00  3.5103756E+01
 5.5717502E+00  3.5284569E+01
 5.5832500E+00  3.5207405E+01
 5.5947504E+00  3.5436855E+01
 5.6062503E+00  3.5490162E+01
 5.6177502E+00  3.5571255E+01
 5.6292500E+00  3.5476131E+01
 5.6407504E+00  3.5421139E+01
 5.6522503E+00  3.5284901E+01
 5.6637502E+00  3.5545620E+01
 5.6752501E+00  3.5506969E+01
 5.6867504E+00  3.5624180E+01
 5.6982503E+00  3.5453030E+01
 5.7097502E+00  3.5470642E+01
 5.7212501E+00  3.5551353E+01
 5.7327504E+00  3.5613552E+01
 5.7442503E+00  3.5690399E+01
 5.7557502E+00  3.5715527E+01
 5.7672501E+00  3.5694736E+01
 5.7787504E+00  3.5709988E+01
 5.7902503E+00  3.5916645E+01
 5.8017502E+00  3.5954407E+01
 5.8132501E+00  3.6270615E+01
 5.8247504E+00  3.6338280E+01
 5.8362503E+00  3.6735756E+01
 5.8477502E+00  3.6703445E+01
 5.8592501E+00  3.7136654E+01
 5.8707504E+00  3.7115574E+01
 5.8822503E+00  3.7917435E+01
 5.8937502E+00  3.7887642E+01
 5.9052501E+00  3.9300732E+01
 5.9167504E+00  3.9662670E+01
 5.9282503E+00  4.3576191E+01
 5.9397502E+00  4.6640263E+01
 5.9512501E+00  5.8319462E+01
 5.9627504E+00  6.3933582E+01
 5.9742503E+00  8.0653519E+01
 5.9857502E+00  7.8307816E+01
 5.9972501E+00  8.6943092E+01
 6.0087504E+00  7.2395416E+01
 6.0202503E+00  7.1102074E+01
 6.0317502E+00  5.5575695E+01
 6.0432501E+00  5.1743511E+01
 6.0547504E+00  4.3575672E+01
 6.0662503E+00  4.1700199E+01
 6.0777502E+00  3.9149597E+01
 6.0892501E+00  3.8512932E+01
 6.1007504E+00  3.7913773E+01
 6.1122503E+00  3.7609341E+01
 6.1237502E+00  3.7362633E+01
 6.1352501E+00  3.7097546E+01
 6.1467505E+00  3.7051826E+01
 6.1582503E+00  3.7018730E+01
 6.1697502E+00  3.7128117E+01
 6.1812501E+00  3.7151863E+01
 6.1927505E+00  3.7452599E+01
 6.2042503E+00  3.7533619E+01
 6.2157502E+00  3.7731579E+01
 6.2272501E+00  3.7696148E+01
 6.2387505E+00  3.7720066E+01
 6.2502503E+00  3.7671936E+01
 6.2617502E+00  3.7725029E+01
 6.2732501E+00  3.7819607E+01
 6.2847505E+00  3.7901203E+01
 6.2962503E+00  3.7851799E+01
 6.3077502E+00  3.7855438E+01
 6.3192501E+00  3.7864769E+01
 6.3307505E+00  3.7937809E+01
 6.3422503E+00  3.7925251E+01
 6.3537502E+00  3.7999878E+01
 6.3652501E+00  3.8046848E+01
 6.3767505E+00  3.8014973E+01
 6.3882504E+00  3.8123116E+01
 6.3997502E+00  3.8225460E+01
 6.4112501E+00  3.8518250E+01
 6.4227505E+00  3.8642952E+01
 6.4342504E+00  3.8762676E+01
 6.4457502E+00  3.8817192E+01
 6.4572501E+00  3.8851131E+01
 6.4687505E+00  3.8819260E+01
 6.4802504E+00  3.8835461E+01
 6.4917502E+00  3.8745380E+01
 6.5032501E+00  3.8897182E+01
 6.5147505E+00  3.8966713E+01
 6.5262504E+00  3.9143482E+01
 6.5377502E+00  3.9240913E+01
 6.5492501E+00  3.9300251E+01
 6.5607505E+00  3.9370663E+01
 6.5722504E+00  3.9447632E+01
 6.5837502E+00  3.9562279E+01
 6.5952501E+00  3.9630318E+01
 6.6067505E+00  3.9726170E+01
 6.6182504E+00  3.9809845E+01
 6.6297503E+00  3.9913757E+01
 6.6412501E+00  3.9867699E+01
 6.6527505E+00  3.9881763E+01
 6.6642504E+00  3.9939510E+01
 6.6757503E+00  4.0029240E+01
 6.6872501E+00  4.0039890E+01
 6.6987505E+00  4.0083065E+01
 6.7102504E+00  4.0146423E+01
 6.7217503E+00  4.0227158E+01
 6.7332501E+00  4.0338367E+01
 6.7447505E+00  4.0394157E+01
 6.7562504E+00  4.0558086E+01
 6.7677503E+00  4.0620735E+01
 6.7792501E+00  4.0720421E+01
 6.7907505E+00  4.0777977E+01
 6.8022504E+00  4.0828564E+01
 6.8137503E+00  4.1047150E+01
 6.8252501E+00  4.1045010E+01
 6.8367505E+00  4.1185547E+01
 6.8482504E+00  4.1302395E+01
 6.8597503E+00  4.1580097E+01
 6.8712502E+00  4.1687744E+01
 6.8827505E+00  4.1819466E+01
 6.8942504E+00  4.1804096E+01
 6.9057503E+00  4.1901321E+01
 6.9172502E+00  4.1866936E+01
 6.9287505E+00  4.1904297E+01
 6.9402504E+00  4.1984444E+01
 6.9517503E+00  4.1939552E+01
 6.9632502E+00  4.1917988E+01
 6.9747505E+00  4.1926460E+01
 6.9862504E+00  4.1924019E+01
 6.9977503E+00  4.1919579E+01
 7.0092502E+00  4.1952450E+01
 7.0207505E+00  4.2065197E+01
 7.0322504E+00  4.2311790E+01
 7.0437503E+00  4.2364845E+01
 7.0552502E+00  4.2404675E+01
 7.0667505E+00  4.2474491E+01
 7.0782504E+00  4.2397961E+01
 7.0897503E+00  4.2556488E+01
 7.1012502E+00  4.2541225E+01
 7.1127505E+00  4.2666996E+01
 7.1242504E+00  4.2802883E+01
 7.1357503E+00  4.2893711E+01
 7.1472502E+00  4.3093735E+01
 7.1587505E+00  4.3153988E+01
 7.1702504E+00  4.3241024E+01
 7.1817503E+00  4.3319195E+01
 7.1932502E+00  4.3312557E+01
 7.2047505E+00  4.3415310E+01
 7.2162504E+00  4.3411465E+01
 7.2277503E+00  4.3478035E+01
 7.2392502E+00  4.3413960E+01
 7.2507505E+00  4.3371952E+01
 7.2622504E+00  4.3343410E+01
 7.2737503E+00  4.3412441E+01
 7.2852502E+00  4.3472027E+01
 7.2967505E+00  4.3525425E+01
 7.3082504E+00  4.3529030E+01
 7.3197503E+00  4.3669910E+01
 7.3312502E+00  4.3674603E+01
 7.3427505E+00  4.3734344E+01
 7.3542504E+00  4.3702675E+01
 7.3657503E+00  4.3747196E+01
 7.3772502E+00  4.3741169E+01
 7.3887506E+00  4.3711880E+01
 7.4002504E+00  4.3775654E+01
 7.4117503E+00  4.3712036E+01
 7.4232502E+00  4.3735718E+01
 7.4347506E+00  4.3644520E+01
 7.4462504E+00  4.3739014E+01
 7.4577503E+00  4.3800705E+01
 7.4692502E+00  4.3783859E+01
 7.4807506E+00  4.3769741E+01
 7.4922504E+00  4.3783413E+01
 7.5037503E+00  4.3789902E+01
 7.5152502E+00  4.3811584E+01
 7.5267506E+00  4.3726479E+01
 7.5382504E+00  4.3749298E+01
 7.5497503E+00  4.3775799E+01
 7.5612502E+00  4.3890560E+01
 7.5727506E+00  4.3905869E+01
 7.5842505E+00  4.3885715E+01
 7.5957503E+00  4.3851376E+01
 7.6072502E+00  4.3823063E+01
 7.6187506E+00  4.3864716E+01
 7.6302505E+00  4.3866352E+01
 7.6417503E+00  4.3917507E+01
 7.6532502E+00  4.3874447E+01
 7.6647506E+00  4.3883217E+01
 7.6762505E+00  4.3895885E+01
 7.6877503E+00  4.3979294E+01
 7.6992502E+00  4.3949242E+01
 7.7107506E+00  4.4012901E+01
 7.7222505E+00  4.4049908E+01
 7.7337503E+00  4.4137424E+01
 7.7452502E+00  4.4146057E+01
 7.7567506E+00  4.4237843E+01
 7.7682505E+00  4.4182636E+01
 7.7797503E+00  4.4158886E+01
 7.7912502E+00  4.4047554E+01
 7.8027506E+00  4.3959721E+01
 7.8142505E+00  4.3946915E+01
 7.8257504E+00  4.3954620E+01
 7.8372502E+00  4.3918362E+01
 7.8487506E+00  4.3829456E+01
 7.8602505E+00  4.3685593E+01
 7.8717504E+00  4.3473309E+01
 7.8832502E+00  4.3384991E+01
 7.8947506E+00  4.3244740E+01
 7.9062505E+00  4.3343056E+01
 7.9177504E+00  4.3329132E+01
 7.9292502E+00  4.3418648E+01
 7.9407506E+00  4.3439465E+01
 7.9522505E+00  4.3400795E+01
 7.9637504E+00  4.3309319E+01
 7.9752502E+00  4.3125416E+01
 7.9867506E+00  4.3024326E+01
 7.9982505E+00  4.2903172E+01
 8.0097504E+00  4.2922684E+01
 8.0212507E+00  4.2888149E+01
 8.0327501E+00  4.2856285E+01
 8.0442505E+00  4.2790417E+01
 8.0557508E+00  4.2754585E+01
 8.0672503E+00  4.2599674E+01
 8.0787506E+00  4.2515961E+01
 8.0902500E+00  4.2496712E+01
 8.1017504E+00  4.2499615E+01
 8.1132507E+00  4.2492760E+01
 8.1247501E+00  4.2351353E+01
 8.1362505E+00  4.2259701E+01
 8.1477509E+00  4.1991924E+01
 8.1592503E+00  4.1760002E+01
 8.1707506E+00  4.1491016E+01
 8.1822500E+00  4.1463036E+01
 8.1937504E+00  4.1362206E+01
 8.2052507E+00  4.1387543E+01
 8.2167501E+00  4.1255894E+01
 8.2282505E+00  4.1224422E+01
 8.2397509E+00  4.1096012E+01
 8.2512503E+00  4.1044758E+01
 8.2627506E+00  4.0883595E+01
 8.2742500E+00  4.0735249E+01
 8.2857504E+00  4.0612885E+01
 8.2972507E+00  4.0485107E+01
 8.3087502E+00  4.0375870E+01
 8.3202505E+00  4.0200478E+01
 8.3317509E+00  4.0035088E+01
 8.3432503E+00  3.9861908E+01
 8.3547506E+00  3.9665607E+01
 8.3662500E+00  3.9607140E+01
 8.3777504E+00  3.9525368E+01
 8.3892508E+00  3.9424393E+01
 8.4007502E+00  3.9230560E+01
 8.4122505E+00  3.9069199E+01
 8.4237509E+00  3.8886284E+01
 8.4352503E+00  3.8716820E+01
 8.4467506E+00  3.8516174E+01
 8.4582500E+00  3.8383114E+01
 8.4697504E+00  3.8269093E+01
 8.4812508E+00  3.8142319E+01
 8.4927502E+00  3.7871067E+01
 8.5042505E+00  3.7675179E+01
 8.5157509E+00  3.7530365E+01
 8.5272503E+00  3.7437862E+01
 8.5387506E+00  3.7255463E+01
 8.5502501E+00  3.7014427E+01
 8.5617504E+00  3.6876297E+01
 8.5732508E+00  3.6717419E+01
 8.5847502E+00  3.6490891E+01
 8.5962505E+00  3.6299500E+01
 8.6077509E+00  3.6065578E+01
 8.6192503E+00  3.5991627E+01
 8.6307507E+00  3.5821754E+01
 8.6422501E+00  3.5671970E+01
 8.6537504E+00  3.5431503E+01
 8.6652508E+00  3.5232800E+01
 8.6767502E+00  3.5017563E+01
 8.6882505E+00  3.4858425E+01
 8.6997509E+00  3.4711529E+01
 8.7112503E+00  3.4483589E+01
 8.7227507E+00  3.4360821E+01
 8.7342501E+00  3.4140610E+01
 8.7457504E+00  3.3952114E+01
 8.7572508E+00  3.3767433E+01
 8.7687502E+00  3.3626934E+01
 8.7802505E+00  3.3529507E+01
 8.7917500E+00  3.3350258E+01
 8.8032503E+00  3.3098225E+01
 8.8147507E+00  3.3031975E+01
 8.8262501E+00  3.2840809E+01
 8.8377504E+00  3.2761238E+01
 8.8492508E+00  3.2604839E+01
 8.8607502E+00  3.2539669E+01
 8.8722506E+00  3.2378345E+01
 8.8837500E+00  3.2209641E+01
 8.8952503E+00  3.1983875E+01
 8.9067507E+00  3.1807201E+01
 8.9182501E+00  3.1599310E+01
 8.9297504E+00  3.1418493E+01
 8.9412508E+00  3.1320421E+01
 8.9527502E+00  3.1198446E+01
 8.9642506E+00  3.1131252E+01
 8.9757500E+00  3.0942442E+01
 8.9872503E+00  3.0713100E+01
 8.9987507E+00  3.0531895E+01
 9.0102501E+00  3.0354301E+01
 9.0217505E+00  3.0231392E+01
 9.0332508E+00  3.0084812E+01
 9.0447502E+00  2.9946449E+01
 9.0562506E+00  2.9844061E+01
 9.0677500E+00  2.9733454E+01
 9.0792503E+00  2.9607292E+01
 9.0907507E+00  2.9476076E+01
 9.1022501E+00  2.9328053E+01
 9.1137505E+00  2.9221039E+01
 9.1252508E+00  2.9066875E+01
 9.1367502E+00  2.8971109E+01
 9.1482506E+00  2.8943098E+01
 9.1597500E+00  2.8860714E+01
 9.1712503E+00  2.8736135E+01
 9.1827507E+00  2.8552557E+01
 9.1942501E+00  2.8445923E+01
 9.2057505E+00  2.8258841E+01
 9.2172508E+00  2.8150459E+01
 9.2287502E+00  2.7994194E+01
 9.2402506E+00  2.7889647E+01
 9.2517500E+00  2.7789721E+01
 9.2632504E+00  2.7757954E+01
 9.2747507E+00  2.7721811E+01
 9.2862501E+00  2.7714312E+01
 9.2977505E+00  2.7644144E+01
 9.3092508E+00  2.7589270E+01
 9.3207502E+00  2.7447647E+01
 9.3322506E+00  2.7305151E+01
 9.3437500E+00  2.7164330E+01
 9.3552504E+00  2.7023781E+01
 9.3667507E+00  2.6904333E+01
 9.3782501E+00  2.6832771E+01
 9.3897505E+00  2.6791101E+01
 9.4012508E+00  2.6705330E+01
 9.4127502E+00  2.6623682E+01
 9.4242506E+00  2.6531696E+01
 9.4357500E+00  2.6518866E+01
 9.4472504E+00  2.6456934E+01
 9.4587507E+00  2.6409309E+01
 9.4702501E+00  2.6325617E+01
 9.4817505E+00  2.6339554E+01
 9.4932508E+00  2.6220995E+01
 9.5047503E+00  2.6182959E+01
 9.5162506E+00  2.6073313E+01
 9.5277500E+00  2.6036667E+01
 9.5392504E+00  2.5956354E+01
 9.5507507E+00  2.5918438E+01
 9.5622501E+00  2.5916178E+01
 9.5737505E+00  2.5876186E+01
 9.5852509E+00  2.5773924E+01
 9.5967503E+00  2.5662149E+01
 9.6082506E+00  2.5608438E+01
 9.6197500E+00  2.5578426E+01
 9.6312504E+00  2.5526745E+01
 9.6427507E+00  2.5414660E+01
 9.6542501E+00  2.5293749E+01
 9.6657505E+00  2.5224163E+01
 9.6772509E+00  2.5114233E+01
 9.6887503E+00  2.5058159E+01
 9.7002506E+00  2.4943951E+01
 9.7117500E+00  2.4897032E+01
 9.7232504E+00  2.4849535E+01
 9.7347507E+00  2.4824409E+01
 9.7462502E+00  2.4792509E+01
 9.7577505E+00  2.4715353E+01
 9.7692509E+00  2.4674686E+01
 9.7807503E+00  2.4604029E+01
 9.7922506E+00  2.4596884E+01
 9.8037500E+00  2.4587566E+01
 9.8152504E+00  2.4555109E+01
 9.8267508E+00  2.4497162E+01
 9.8382502E+00  2.4455688E+01
 9.8497505E+00  2.4470402E+01
 9.8612509E+00  2.4485462E+01
 9.8727503E+00  2.4496050E+01
 9.8842506E+00  2.4440569E+01
 9.8957500E+00  2.4396481E+01
 9.9072504E+00  2.4273512E+01
 9.9187508E+00  2.4302141E+01
 9.9302502E+00  2.4265085E+01
 9.9417505E+00  2.4311440E+01
 9.9532509E+00  2.4235746E+01
 9.9647503E+00  2.4164814E+01
 9.9762506E+00  2.4051258E+01
 9.9877501E+00  2.3961590E+01
 9.9992504E+00  2.3916826E+01
 1.0010751E+01  2.3837095E+01
 1.0022250E+01  2.3805668E+01
 1.0033751E+01  2.3791296E+01
 1.0045251E+01  2.3871622E+01
 1.0056750E+01  2.3857056E+01
 1.0068251E+01  2.3841539E+01
 1.0079750E+01  2.3733374E+01
 1.0091250E+01  2.3697062E+01
 1.0102751E+01  2.3663008E+01
 1.0114250E+01  2.3594755E+01
 1.0125751E+01  2.3623104E+01
 1.0137251E+01  2.3608532E+01
 1.0148750E+01  2.3636200E+01
 1.0160251E+01  2.3638151E+01
 1.0171750E+01  2.3607199E+01
 1.0183250E+01  2.3591763E+01
 1.0194751E+01  2.3510908E+01
 1.0206250E+01  2.3453176E+01
 1.0217751E+01  2.3397924E+01
 1.0229251E+01  2.3397926E+01
 1.0240750E+01  2.3396132E+01
 1.0252251E+01  2.3310797E+01
 1.0263750E+01  2.3309681E+01
 1.0275250E+01  2.3248419E+01
 1.0286751E+01  2.3313799E+01
 1.0298250E+01  2.3290699E+01
 1.0309751E+01  2.3341774E+01
 1.0321251E+01  2.3375324E+01
 1.0332750E+01  2.3382200E+01
 1.0344251E+01  2.3366295E+01
 1.0355750E+01  2.3347679E+01
 1.0367250E+01  2.3304773E+01
 1.0378751E+01  2.3275677E+01
 1.0390250E+01  2.3297180E+01
 1.0401751E+01  2.3262844E+01
 1.0413251E+01  2.3216078E+01
 1.0424750E+01  2.3067448E+01
 1.0436251E+01  2.2997677E+01
 1.0447750E+01  2.2966970E+01
 1.0459250E+01  2.3000401E+01
 1.0470751E+01  2.3045406E+01
 1.0482250E+01  2.3072048E+01
 1.0493751E+01  2.3095116E+01
 1.0505251E+01  2.3061447E+01
 1.0516750E+01  2.3055637E+01
 1.0528251E+01  2.2981535E+01
 1.0539750E+01  2.2979439E+01
 1.0551250E+01  2.2993267E+01
 1.0562751E+01  2.3071220E+01
 1.0574250E+01  2.3085020E+01
 1.0585751E+01  2.3044481E+01
 1.0597251E+01  2.2981037E+01
 1.0608750E+01  2.2900597E+01
 1.0620251E+01  2.2880636E+01
 1.0631750E+01  2.2832212E+01
 1.0643250E+01  2.2809027E+01
 1.0654751E+01  2.2761137E+01
 1.0666250E+01  2.2676340E+01
 1.0677751E+01  2.2611746E+01
 1.0689251E+01  2.2580967E+01
 1.0700750E+01  2.2610991E+01
 1.0712251E+01  2.2686621E+01
 1.0723750E+01  2.2700014E+01
 1.0735250E+01  2.2689146E+01
 1.0746751E+01  2.2639917E+01
 1.0758250E+01  2.2538691E+01
 1.0769751E+01  2.2476915E+01
 1.0781251E+01  2.2443874E+01
 1.0792750E+01  2.2440897E+01
 1.0804251E+01  2.2452221E+01
 1.0815750E+01  2.2459591E+01
 1.0827250E+01  2.2517399E+01
 1.0838751E+01  2.2553328E+01
 1.0850250E+01  2.2576681E+01
 1.0861751E+01  2.2557896E+01
 1.0873251E+01  2.2568628E+01
 1.0884750E+01  2.2531780E+01
 1.0896251E+01  2.2477404E+01
 1.0907750E+01  2.2419756E+01
 1.0919250E+01  2.2410419E+01
 1.0930751E+01  2.2426334E+01
 1.0942250E+01  2.2484982E+01
 1.0953751E+01  2.2460596E+01
 1.0965251E+01  2.2436214E+01
 1.0976750E+01  2.2427969E+01
 1.0988251E+01  2.2457148E+01
 1.0999750E+01  2.2410843E+01
 1.1011250E+01  2.2296970E+01
 1.1022751E+01  2.2216522E+01
 1.1034250E+01  2.2247442E+01
 1.1045751E+01  2.2282209E+01
 1.1057251E+01  2.2263468E+01
 1.1068750E+01  2.2242676E+01
 1.1080251E+01  2.2250719E+01
 1.1091750E+01  2.2257923E+01
 1.1103251E+01  2.2326216E+01
 1.1114751E+01  2.2315556E+01
 1.1126250E+01  2.2386583E+01
 1.1137751E+01  2.2341000E+01
 1.1149251E+01  2.2313457E+01
 1.1160750E+01  2.2301237E+01
 1.1172251E+01  2.2291290E+01
 1.1183750E+01  2.2312601E+01
 1.1195251E+01  2.2285513E+01
 1.1206751E+01  2.2272364E+01
 1.1218250E+01  2.2246433E+01
 1.1229751E+01  2.2222229E+01
 1.1241251E+01  2.2260389E+01
 1.1252750E+01  2.2259979E+01
 1.1264251E+01  2.2240471E+01
 1.1275750E+01  2.2176271E+01
 1.1287251E+01  2.2163294E+01
 1.1298751E+01  2.2207764E+01
 1.1310250E+01  2.2242643E+01
 1.1321751E+01  2.2302324E+01
 1.1333251E+01  2.2286837E+01
 1.1344750E+01  2.2339491E+01
 1.1356251E+01  2.2332235E+01
 1.1367750E+01  2.2416559E+01
 1.1379251E+01  2.2423187E+01
 1.1390751E+01  2.2466339E+01
 1.1402250E+01  2.2586617E+01
 1.1413751E+01  2.2618986E+01
 1.1425251E+01  2.2640310E+01
 1.1436750E+01  2.2571957E+01
 1.1448251E+01  2.2583910E+01
 1.1459750E+01  2.2592930E+01
 1.1471251E+01  2.2573282E+01
 1.1482751E+01  2.2585354E+01
 1.1494250E+01  2.2655416E+01
 1.1505751E+01  2.2786705E+01
 1.1517251E+01  2.3014153E+01
 1.1528750E+01  2.3394724E+01
 1.1540251E+01  2.3920523E+01
 1.1551750E+01  2.4579220E+01
 1.1563251E+01  2.5256939E+01
 1.1574751E+01  2.6066805E+01
 1.1586250E+01  2.6490372E+01
 1.1597751E+01  2.6481194E+01
 1.1609251E+01  2.5982904E+01
 1.1620750E+01  2.5311329E+01
 1.1632251E+01  2.4724768E+01
 1.1643750E+01  2.4005608E+01
 1.1655251E+01  2.3515039E+01
 1.1666751E+01  2.2973652E+01
 1.1678250E+01  2.2629431E+01
 1.1689751E+01  2.2390720E+01
 1.1701251E+01  2.2316599E+01
 1.1712750E+01  2.2311731E+01
 1.1724251E+01  2.2291561E+01
 1.1735750E+01  2.2314976E+01
 1.1747251E+01  2.2341051E+01
 1.1758751E+01  2.2343004E+01
 1.1770250E+01  2.2260324E+01
 1.1781751E+01  2.2189625E+01
 1.1793251E+01  2.2126980E+01
 1.1804750E+01  2.2151985E+01
 1.1816251E+01  2.2175974E+01
 1.1827750E+01  2.2215872E+01
 1.1839251E+01  2.2204063E+01
 1.1850751E+01  2.2132969E+01
 1.1862250E+01  2.2109135E+01
 1.1873751E+01  2.2114614E+01
 1.1885251E+01  2.2187355E+01
 1.1896750E+01  2.2257780E+01
 1.1908251E+01  2.2288706E+01
 1.1919750E+01  2.2347719E+01
 1.1931251E+01  2.2419327E+01
 1.1942751E+01  2.2441769E+01
 1.1954250E+01  2.2510609E+01
 1.1965751E+01  2.2544235E+01
 1.1977251E+01  2.2708265E+01
 1.1988750E+01  2.2776592E+01
 1.2000251E+01  2.2809774E+01
 1.2011750E+01  2.2813066E+01
 1.2023251E+01  2.2803930E+01
 1.2034751E+01  2.2854334E+01
 1.2046250E+01  2.2883314E+01
 1.2057751E+01  2.3023001E+01
 1.2069251E+01  2.3116077E+01
 1.2080750E+01  2.3286703E+01
 1.2092251E+01  2.3343113E+01
 1.2103750E+01  2.3488466E+01
 1.2115251E+01  2.3373032E+01
 1.2126751E+01  2.3292379E+01
 1.2138250E+01  2.3027264E+01
 1.2149751E+01  2.2884596E+01
 1.2161251E+01  2.2672064E+01
 1.2172750E+01  2.2581713E+01
 1.2184251E+01  2.2490488E+01
 1.2195750E+01  2.2385714E+01
 1.2207251E+01  2.2261049E+01
 1.2218751E+01  2.2146584E+01
 1.2230250E+01  2.2191128E+01
 1.2241751E+01  2.2260107E+01
 1.2253251E+01  2.2368311E+01
 1.2264750E+01  2.2393349E+01
 1.2276251E+01  2.2375193E+01
 1.2287750E+01  2.2355801E+01
 1.2299251E+01  2.2328617E+01
 1.2310751E+01  2.2424568E+01
 1.2322250E+01  2.2409435E+01
 1.2333751E+01  2.2452040E+01
 1.2345250E+01  2.2389112E+01
 1.2356750E+01  2.2422840E+01
 1.2368251E+01  2.2338972E+01
 1.2379750E+01  2.2327036E+01
 1.2391251E+01  2.2237352E+01
 1.2402751E+01  2.2234526E+01
 1.2414250E+01  2.2216999E+01
 1.2425751E+01  2.2271479E+01
 1.2437250E+01  2.2317968E+01
 1.2448750E+01  2.2335772E+01
 1.2460251E+01  2.2392300E+01
 1.2471750E+01  2.2458437E+01
 1.2483251E+01  2.2540367E+01
 1.2494751E+01  2.2539268E+01
 1.2506250E+01  2.2552376E+01
 1.2517751E+01  2.2517715E+01
 1.2529250E+01  2.2525923E+01
 1.2540751E+01  2.2506187E+01
 1.2552251E+01  2.2528036E+01
 1.2563750E+01  2.2516573E+01
 1.2575251E+01  2.2489931E+01
 1.2586751E+01  2.2527872E+01
 1.2598250E+01  2.2543367E+01
 1.2609751E+01  2.2615316E+01
 1.2621250E+01  2.2635584E+01
 1.2632751E+01  2.2668064E+01
 1.2644251E+01  2.2642811E+01
 1.2655750E+01  2.2638235E+01
 1.2667251E+01  2.2695816E+01
 1.2678751E+01  2.2735529E+01
 1.2690250E+01  2.2732643E+01
 1.2701751E+01  2.2753319E+01
 1.2713250E+01  2.2819843E+01
 1.2724751E+01  2.2837645E+01
 1.2736251E+01  2.2834904E+01
 1.2747750E+01  2.2776825E+01
 1.2759251E+01  2.2798290E+01
 1.2770751E+01  2.2777220E+01
 1.2782250E+01  2.2832558E+01
 1.2793751E+01  2.2814745E+01
 1.2805250E+01  2.2881777E+01
 1.2816751E+01  2.2975624E+01
 1.2828251E+01  2.3078772E+01
 1.2839750E+01  2.3138971E+01
 1.2851251E+01  2.3181732E+01
 1.2862751E+01  2.3213833E+01
 1.2874250E+01  2.3237005E+01
 1.2885751E+01  2.3207928E+01
 1.2897250E+01  2.3223389E+01
 1.2908751E+01  2.3264309E+01
 1.2920251E+01  2.3290209E+01
 1.2931750E+01  2.3381237E+01
 1.2943251E+01  2.3464901E+01
 1.2954751E+01  2.3560612E+01
 1.2966250E+01  2.3627165E+01
 1.2977751E+01  2.3668417E+01
 1.2989250E+01  2.3683361E+01
 1.3000751E+01  2.3670902E+01
 1.3012251E+01  2.3634590E+01
 1.3023750E+01  2.3678583E+01
 1.3035251E+01  2.3784288E+01
 1.3046751E+01  2.3898809E+01
 1.3058250E+01  2.4033180E+01
 1.3069751E+01  2.4058407E+01
 1.3081250E+01  2.4149437E+01
 1.3092751E+01  2.4205452E+01
 1.3104251E+01  2.4383030E+01
 1.3115750E+01  2.4548769E+01
 1.3127251E+01  2.4706146E+01
 1.3138751E+01  2.4823692E+01
 1.3150250E+01  2.4983801E+01
 1.3161751E+01  2.5112066E+01
 1.3173250E+01  2.5235756E+01
 1.3184751E+01  2.5379385E+01
 1.3196251E+01  2.5554609E+01
 1.3207750E+01  2.5757370E+01
 1.3219251E+01  2.5902487E+01
 1.3230751E+01  2.6062338E+01
 1.3242250E+01  2.6203474E+01
 1.3253751E+01  2.6316896E+01
 1.3265250E+01  2.6380066E+01
 1.3276751E+01  2.6456253E+01
 1.3288251E+01  2.6538736E+01
 1.3299750E+01  2.6704575E+01
 1.3311251E+01  2.6764511E+01
 1.3322751E+01  2.6953621E+01
 1.3334250E+01  2.7124910E+01
 1.3345751E+01  2.7334692E+01
 1.3357250E+01  2.7474478E+01
 1.3368751E+01  2.7570951E+01
 1.3380251E+01  2.7686785E+01
 1.3391750E+01  2.7777054E+01
 1.3403251E+01  2.7903931E+01
 1.3414751E+01  2.8006104E+01
 1.3426250E+01  2.8109203E+01
 1.3437751E+01  2.8230059E+01
 1.3449250E+01  2.8388920E+01
 1.3460751E+01  2.8476881E+01
 1.3472251E+01  2.8553288E+01
 1.3483750E+01  2.8665562E+01
 1.3495251E+01  2.8795292E+01
 1.3506751E+01  2.9007246E+01
 1.3518250E+01  2.9112186E+01
 1.3529751E+01  2.9266344E+01
 1.3541250E+01  2.9289991E+01
 1.3552751E+01  2.9432079E+01
 1.3564251E+01  2.9458691E+01
 1.3575750E+01  2.9500517E+01
 1.3587251E+01  2.9473682E+01
 1.3598751E+01  2.9495853E+01
 1.3610250E+01  2.9528957E+01
 1.3621751E+01  2.9561789E+01
 1.3633250E+01  2.9566414E+01
 1.3644751E+01  2.9513639E+01
 1.3656251E+01  2.9491070E+01
 1.3667750E+01  2.9499269E+01
 1.3679251E+01  2.9569887E+01
 1.3690751E+01  2.9577169E+01
 1.3702250E+01  2.9555588E+01
 1.3713751E+01  2.9496859E+01
 1.3725250E+01  2.9464350E+01
 1.3736751E+01  2.9505449E+01
 1.3748251E+01  2.9512693E+01
 1.3759750E+01  2.9562860E+01
 1.3771251E+01  2.9631464E+01
 1.3782751E+01  2.9652363E+01
 1.3794250E+01  2.9690674E+01
 1.3805751E+01  2.9706568E+01
 1.3817250E+01  2.9782143E+01
 1.3828751E+01  2.9891939E+01
 1.3840251E+01  3.0086239E+01
 1.3851750E+01  3.0420641E+01
 1.3863251E+01  3.1232798E+01
 1.3874751E+01  3.2171169E+01
 1.3886250E+01  3.3789375E+01
 1.3897751E+01  3.6343140E+01
 1.3909250E+01  3.9202286E+01
 1.3920751E+01  4.2698463E+01
 1.3932251E+01  4.5348625E+01
 1.3943750E+01  4.9133331E+01
 1.3955251E+01  5.0217106E+01
 1.3966751E+01  5.1182636E+01
 1.3978251E+01  4.9894062E+01
 1.3989751E+01  4.7137165E+01
 1.4001250E+01  4.3880394E+01
 1.4012751E+01  3.9222630E+01
 1.4024251E+01  3.6087978E+01
 1.4035750E+01  3.2453007E+01
 1.4047251E+01  3.0761936E+01
 1.4058751E+01  2.9713129E+01
 1.4070251E+01  2.8949377E+01
 1.4081751E+01  2.8569965E+01
 1.4093250E+01  2.8254692E+01
 1.4104751E+01  2.7962276E+01
 1.4116251E+01  2.7772030E+01
 1.4127750E+01  2.7593155E+01
 1.4139251E+01  2.7429607E+01
 1.4150751E+01  2.7288193E+01
 1.4162251E+01  2.7171106E+01
 1.4173751E+01  2.7081753E+01
 1.4185250E+01  2.6958687E+01
 1.4196751E+01  2.6821699E+01
 1.4208251E+01  2.6764603E+01
 1.4219750E+01  2.6700188E+01
 1.4231251E+01  2.6631144E+01
 1.4242751E+01  2.6539701E+01
 1.4254251E+01  2.6501949E+01
 1.4265751E+01  2.6466623E+01
 1.4277250E+01  2.6366409E+01
 1.4288751E+01  2.6300600E+01
 1.4300251E+01  2.6233759E+01
 1.4311750E+01  2.6216949E+01
 1.4323251E+01  2.6140644E+01
 1.4334751E+01  2.6132227E+01
 1.4346251E+01  2.6131863E+01
 1.4357751E+01  2.6109913E+01
 1.4369250E+01  2.6060339E+01
 1.4380751E+01  2.5950127E+01
 1.4392251E+01  2.5839275E+01
 1.4403750E+01  2.5738459E+01
 1.4415251E+01  2.5693872E+01
 1.4426751E+01  2.5658640E+01
 1.4438251E+01  2.5632553E+01
 1.4449751E+01  2.5597069E+01
 1.4461250E+01  2.5595449E+01
 1.4472751E+01  2.5520151E+01
 1.4484251E+01  2.5487425E+01
 1.4495750E+01  2.5453146E+01
 1.4507251E+01  2.5437424E+01
 1.4518751E+01  2.5375120E+01
 1.4530251E+01  2.5386360E+01
 1.4541751E+01  2.5398186E+01
 1.4553250E+01  2.5401974E+01
 1.4564751E+01  2.5357613E+01
 1.4576251E+01  2.5298494E+01
 1.4587750E+01  2.5249704E+01
 1.4599251E+01  2.5176367E+01
 1.4610751E+01  2.5184639E+01
 1.4622251E+01  2.5143166E+01
 1.4633751E+01  2.5078012E+01
 1.4645250E+01  2.5058615E+01
 1.4656751E+01  2.5018990E+01
 1.4668251E+01  2.5015253E+01
 1.4679750E+01  2.4994526E+01
 1.4691251E+01  2.5023590E+01
 1.4702751E+01  2.5032335E+01
 1.4714251E+01  2.5032906E+01
 1.4725751E+01  2.4934504E+01
 1.4737250E+01  2.4926004E+01
 1.4748751E+01  2.4862692E+01
 1.4760251E+01  2.4923969E+01
 1.4771750E+01  2.4903242E+01
 1.4783251E+01  2.4903120E+01
 1.4794751E+01  2.4918530E+01
 1.4806251E+01  2.4913404E+01
 1.4817751E+01  2.4858253E+01
 1.4829250E+01  2.4800507E+01
 1.4840751E+01  2.4766125E+01
 1.4852251E+01  2.4722893E+01
 1.4863750E+01  2.4644089E+01
 1.4875251E+01  2.4592079E+01
 1.4886751E+01  2.4581202E+01
 1.4898251E+01  2.4605486E+01
 1.4909751E+01  2.4608240E+01
 1.4921250E+01  2.4586798E+01
 1.4932751E+01  2.4590532E+01
 1.4944251E+01  2.4572592E+01
 1.4955750E+01  2.4617706E+01
 1.4967251E+01  2.4598753E+01
 1.4978751E+01  2.4672606E+01
 1.4990251E+01  2.4679991E+01
 1.5001751E+01  2.4719793E+01
 1.5013250E+01  2.4755079E+01
 1.5024751E+01  2.4814800E+01
 1.5036251E+01  2.4783169E+01
 1.5047750E+01  2.4720627E+01
 1.5059251E+01  2.4712563E+01
 1.5070751E+01  2.4750612E+01
 1.5082251E+01  2.4749161E+01
 1.5093751E+01  2.4829304E+01
 1.5105250E+01  2.4942978E+01
 1.5116751E+01  2.5066256E+01
 1.5128251E+01  2.5254572E+01
 1.5139750E+01  2.5510038E+01
 1.5151251E+01  2.6096502E+01
 1.5162751E+01  2.6672802E+01
 1.5174251E+01  2.7273218E+01
 1.5185751E+01  2.7706928E+01
 1.5197250E+01  2.7882744E+01
 1.5208751E+01  2.7909908E+01
 1.5220251E+01  2.7618216E+01
 1.5231750E+01  2.7125088E+01
 1.5243251E+01  2.6566174E+01
 1.5254751E+01  2.6005566E+01
 1.5266251E+01  2.5557581E+01
 1.5277751E+01  2.5247662E+01
 1.5289250E+01  2.4990780E+01
 1.5300751E+01  2.4820562E+01
 1.5312251E+01  2.4692940E+01
 1.5323750E+01  2.4579260E+01
 1.5335251E+01  2.4545275E+01
 1.5346751E+01  2.4506912E+01
 1.5358251E+01  2.4537540E+01
 1.5369751E+01  2.4565533E+01
 1.5381250E+01  2.4555861E+01
 1.5392751E+01  2.4547443E+01
 1.5404251E+01  2.4485161E+01
 1.5415751E+01  2.4420210E+01
 1.5427251E+01  2.4329264E+01
 1.5438751E+01  2.4318302E+01
 1.5450251E+01  2.4338404E+01
 1.5461751E+01  2.4418467E+01
 1.5473250E+01  2.4422943E+01
 1.5484751E+01  2.4448853E+01
 1.5496251E+01  2.4419958E+01
 1.5507751E+01  2.4431713E+01
 1.5519251E+01  2.4429001E+01
 1.5530751E+01  2.4424734E+01
 1.5542251E+01  2.4368561E+01
 1.5553751E+01  2.4346891E+01
 1.5565250E+01  2.4364992E+01
 1.5576751E+01  2.4367527E+01
 1.5588251E+01  2.4341908E+01
 1.5599751E+01  2.4320719E+01
 1.5611251E+01  2.4317242E+01
 1.5622751E+01  2.4306355E+01
 1.5634251E+01  2.4299160E+01
 1.5645751E+01  2.4335785E+01
 1.5657250E+01  2.4363527E+01
 1.5668751E+01  2.4416368E+01
 1.5680251E+01  2.4465202E+01
 1.5691751E+01  2.4499283E+01
 1.5703251E+01  2.4508421E+01
 1.5714751E+01  2.4467230E+01
 1.5726251E+01  2.4485563E+01
 1.5737751E+01  2.4394020E+01
 1.5749250E+01  2.4404833E+01
 1.5760751E+01  2.4335222E+01
 1.5772251E+01  2.4331793E+01
 1.5783751E+01  2.4301046E+01
 1.5795251E+01  2.4301781E+01
 1.5806751E+01  2.4363550E+01
 1.5818251E+01  2.4354002E+01
 1.5829751E+01  2.4362917E+01
 1.5841250E+01  2.4342190E+01
 1.5852751E+01  2.4389029E+01
 1.5864251E+01  2.4414791E+01
 1.5875751E+01  2.4418806E+01
 1.5887251E+01  2.4394337E+01
 1.5898750E+01  2.4384489E+01
 1.5910251E+01  2.4398674E+01
 1.5921751E+01  2.4414072E+01
 1.5933250E+01  2.4474058E+01
 1.5944751E+01  2.4443436E+01
 1.5956251E+01  2.4448694E+01
 1.5967751E+01  2.4411922E+01
 1.5979251E+01  2.4432953E+01
 1.5990750E+01  2.4520060E+01
 1.6002251E+01  2.4475925E+01
 1.6013750E+01  2.4460821E+01
 1.6025251E+01  2.4392012E+01
 1.6036751E+01  2.4476534E+01
 1.6048250E+01  2.4527485E+01
 1.6059752E+01  2.4612162E+01
 1.6071251E+01  2.4561983E+01
 1.6082750E+01  2.4602776E+01
 1.6094252E+01  2.4539839E+01
 1.6105751E+01  2.4650793E+01
 1.6117250E+01  2.4623466E+01
 1.6128750E+01  2.4684460E+01
 1.6140251E+01  2.4714457E+01
 1.6151751E+01  2.4705322E+01
 1.6163250E+01  2.4748865E+01
 1.6174751E+01  2.4682510E+01
 1.6186251E+01  2.4812559E+01
 1.6197750E+01  2.4773397E+01
 1.6209251E+01  2.5026728E+01
 1.6220751E+01  2.5009060E+01
 1.6232250E+01  2.5219307E+01
 1.6243752E+01  2.5285133E+01
 1.6255251E+01  2.5418396E+01
 1.6266750E+01  2.5544077E+01
 1.6278252E+01  2.5366638E+01
 1.6289751E+01  2.5456572E+01
 1.6301250E+01  2.5042643E+01
 1.6312750E+01  2.5089890E+01
 1.6324251E+01  2.4725483E+01
 1.6335751E+01  2.4728979E+01
 1.6347250E+01  2.4551970E+01
 1.6358751E+01  2.4505117E+01
 1.6370251E+01  2.4418360E+01
 1.6381750E+01  2.4360582E+01
 1.6393251E+01  2.4397312E+01
 1.6404751E+01  2.4445723E+01
 1.6416250E+01  2.4535173E+01
 1.6427752E+01  2.4490677E+01
 1.6439251E+01  2.4475065E+01
 1.6450750E+01  2.4405243E+01
 1.6462252E+01  2.4402700E+01
 1.6473751E+01  2.4354158E+01
 1.6485250E+01  2.4371881E+01
 1.6496750E+01  2.4320688E+01
 1.6508251E+01  2.4344740E+01
 1.6519751E+01  2.4408720E+01
 1.6531250E+01  2.4527876E+01
 1.6542751E+01  2.4882051E+01
 1.6554251E+01  2.5081079E+01
 1.6565750E+01  2.5074247E+01
 1.6577251E+01  2.4768997E+01
 1.6588751E+01  2.4478951E+01
 1.6600250E+01  2.4388266E+01
 1.6611752E+01  2.4331440E+01
 1.6623251E+01  2.4276421E+01
 1.6634750E+01  2.4304697E+01
 1.6646252E+01  2.4304327E+01
 1.6657751E+01  2.4358837E+01
 1.6669250E+01  2.4343147E+01
 1.6680750E+01  2.4331469E+01
 1.6692251E+01  2.4310148E+01
 1.6703751E+01  2.4303923E+01
 1.6715250E+01  2.4310146E+01
 1.6726751E+01  2.4339592E+01
 1.6738251E+01  2.4314899E+01
 1.6749750E+01  2.4345579E+01
 1.6761251E+01  2.4261187E+01
 1.6772751E+01  2.4243427E+01
 1.6784250E+01  2.4190527E+01
 1.6795752E+01  2.4207600E+01
 1.6807251E+01  2.4201160E+01
 1.6818750E+01  2.4195658E+01
 1.6830252E+01  2.4189491E+01
 1.6841751E+01  2.4180780E+01
 1.6853251E+01  2.4156187E+01
 1.6864750E+01  2.4126204E+01
 1.6876251E+01  2.4132544E+01
 1.6887751E+01  2.4112238E+01
 1.6899250E+01  2.4112085E+01
 1.6910751E+01  2.4068790E+01
 1.6922251E+01  2.4089323E+01
 1.6933750E+01  2.4078020E+01
 1.6945251E+01  2.4079660E+01
 1.6956751E+01  2.4051165E+01
 1.6968250E+01  2.4035498E+01
 1.6979752E+01  2.4051762E+01
 1.6991251E+01  2.4050217E+01
 1.7002750E+01  2.4061937E+01
 1.7014252E+01  2.4084000E+01
 1.7025751E+01  2.4069241E+01
 1.7037251E+01  2.4030554E+01
 1.7048750E+01  2.3956320E+01
 1.7060251E+01  2.3911144E+01
 1.7071751E+01  2.3880762E+01
 1.7083250E+01  2.3877241E+01
 1.7094751E+01  2.3875780E+01
 1.7106251E+01  2.3854862E+01
 1.7117750E+01  2.3847342E+01
 1.7129251E+01  2.3927614E+01
 1.7140751E+01  2.3945658E+01
 1.7152250E+01  2.3931692E+01
 1.7163752E+01  2.3900509E+01
 1.7175251E+01  2.3948841E+01
 1.7186750E+01  2.3998327E+01
 1.7198252E+01  2.4026005E+01
 1.7209751E+01  2.4056520E+01
 1.7221251E+01  2.3999451E+01
 1.7232750E+01  2.3977959E+01
 1.7244251E+01  2.3899237E+01
 1.7255751E+01  2.3864569E+01
 1.7267250E+01  2.3846928E+01
 1.7278751E+01  2.3865704E+01
 1.7290251E+01  2.3864681E+01
 1.7301750E+01  2.3897734E+01
 1.7313251E+01  2.3916557E+01
 1.7324751E+01  2.3908064E+01
 1.7336250E+01  2.3836763E+01
 1.7347752E+01  2.3797522E+01
 1.7359251E+01  2.3800358E+01
 1.7370750E+01  2.3801538E+01
 1.7382252E+01  2.3817261E+01
 1.7393751E+01  2.3816853E+01
 1.7405251E+01  2.3746313E+01
 1.7416750E+01  2.3694218E+01
 1.7428251E+01  2.3651701E+01
 1.7439751E+01  2.3693747E+01
 1.7451250E+01  2.3733734E+01
 1.7462751E+01  2.3781675E+01
 1.7474251E+01  2.3839695E+01
 1.7485750E+01  2.3890202E+01
 1.7497252E+01  2.3894993E+01
 1.7508751E+01  2.3866842E+01
 1.7520250E+01  2.3792912E+01
 1.7531752E+01  2.3782320E+01
 1.7543251E+01  2.3792774E+01
 1.7554750E+01  2.3760754E+01
 1.7566252E+01  2.3717657E+01
 1.7577751E+01  2.3660915E+01
 1.7589251E+01  2.3635288E+01
 1.7600750E+01  2.3667614E+01
 1.7612251E+01  2.3687546E+01
 1.7623751E+01  2.3783304E+01
 1.7635250E+01  2.3748764E+01
 1.7646751E+01  2.3759960E+01
 1.7658251E+01  2.3708738E+01
 1.7669750E+01  2.3712337E+01
 1.7681252E+01  2.3709995E+01
 1.7692751E+01  2.3704567E+01
 1.7704250E+01  2.3676455E+01
 1.7715752E+01  2.3594519E+01
 1.7727251E+01  2.3543383E+01
 1.7738750E+01  2.3536234E+01
 1.7750252E+01  2.3540657E+01
 1.7761751E+01  2.3542068E+01
 1.7773251E+01  2.3586882E+01
 1.7784750E+01  2.3620169E+01
 1.7796251E+01  2.3635784E+01
 1.7807751E+01  2.3586180E+01
 1.7819250E+01  2.3606113E+01
 1.7830751E+01  2.3615377E+01
 1.7842251E+01  2.3638126E+01
 1.7853750E+01  2.3669985E+01
 1.7865252E+01  2.3661030E+01
 1.7876751E+01  2.3618361E+01
 1.7888250E+01  2.3545965E+01
 1.7899752E+01  2.3504745E+01
 1.7911251E+01  2.3511465E+01
 1.7922750E+01  2.3534573E+01
 1.7934252E+01  2.3570374E+01
 1.7945751E+01  2.3614286E+01
 1.7957251E+01  2.3657959E+01
 1.7968750E+01  2.3663740E+01
 1.7980251E+01  2.3626665E+01
 1.7991751E+01  2.3630236E+01
 1.8003250E+01  2.3693066E+01
 1.8014751E+01  2.3747301E+01
 1.8026251E+01  2.3818647E+01
 1.8037750E+01  2.3833340E+01
 1.8049252E+01  2.3850100E+01
 1.8060751E+01  2.3869434E+01
 1.8072250E+01  2.3940876E+01
 1.8083752E+01  2.4048660E+01
 1.8095251E+01  2.4122433E+01
 1.8106750E+01  2.4169876E+01
 1.8118252E+01  2.4145447E+01
 1.8129751E+01  2.4121115E+01
 1.8141251E+01  2.4058218E+01
 1.8152750E+01  2.3977535E+01
 1.8164251E+01  2.3881359E+01
 1.8175751E+01  2.3769857E+01
 1.8187250E+01  2.3653183E+01
 1.8198751E+01  2.3592253E+01
 1.8210251E+01  2.3566086E+01
 1.8221750E+01  2.3556654E+01
 1.8233252E+01  2.3514782E+01
 1.8244751E+01  2.3492662E+01
 1.8256250E+01  2.3460218E+01
 1.8267752E+01  2.3458885E+01
 1.8279251E+01  2.3496456E+01
 1.8290751E+01  2.3522293E+01
 1.8302252E+01  2.3557163E+01
 1.8313751E+01  2.3565666E+01
 1.8325251E+01  2.3598692E+01
 1.8336750E+01  2.3689539E+01
 1.8348251E+01  2.3659214E+01
 1.8359751E+01  2.3673910E+01
 1.8371250E+01  2.3616688E+01
 1.8382751E+01  2.3641708E+01
 1.8394251E+01  2.3620220E+01
 1.8405750E+01  2.3603399E+01
 1.8417252E+01  2.3556110E+01
 1.8428751E+01  2.3508705E+01
 1.8440250E+01  2.3502970E+01
 1.8451752E+01  2.3506872E+01
 1.8463251E+01  2.3511492E+01
 1.8474751E+01  2.3504274E+01
 1.8486252E+01  2.3501110E+01
 1.8497751E+01  2.3507219E+01
 1.8509251E+01  2.3497536E+01
 1.8520750E+01  2.3508224E+01
 1.8532251E+01  2.3471338E+01
 1.8543751E+01  2.3422297E+01
 1.8555250E+01  2.3362137E+01
 1.8566751E+01  2.3353827E+01
 1.8578251E+01  2.3381294E+01
 1.8589750E+01  2.3425447E+01
 1.8601252E+01  2.3440664E+01
 1.8612751E+01  2.3398729E+01
 1.8624250E+01  2.3351778E+01
 1.8635752E+01  2.3312490E+01
 1.8647251E+01  2.3245707E+01
 1.8658751E+01  2.3237476E+01
 1.8670252E+01  2.3239391E+01
 1.8681751E+01  2.3274555E+01
 1.8693251E+01  2.3249311E+01
 1.8704750E+01  2.3271973E+01
 1.8716251E+01  2.3300259E+01
 1.8727751E+01  2.3313477E+01
 1.8739250E+01  2.3269707E+01
 1.8750751E+01  2.3273554E+01
 1.8762251E+01  2.3275764E+01
 1.8773750E+01  2.3302979E+01
 1.8785252E+01  2.3333979E+01
 1.8796751E+01  2.3375231E+01
 1.8808250E+01  2.3371862E+01
 1.8819752E+01  2.3361818E+01
 1.8831251E+01  2.3344280E+01
 1.8842751E+01  2.3313374E+01
 1.8854252E+01  2.3278782E+01
 1.8865751E+01  2.3273018E+01
 1.8877251E+01  2.3277407E+01
 1.8888750E+01  2.3248461E+01
 1.8900251E+01  2.3257732E+01
 1.8911751E+01  2.3283527E+01
 1.8923250E+01  2.3339151E+01
 1.8934752E+01  2.3390753E+01
 1.8946251E+01  2.3440794E+01
 1.8957750E+01  2.3428717E+01
 1.8969252E+01  2.3420128E+01
 1.8980751E+01  2.3380856E+01
 1.8992250E+01  2.3400263E+01
 1.9003752E+01  2.3400688E+01
 1.9015251E+01  2.3398588E+01
 1.9026751E+01  2.3352148E+01
 1.9038252E+01  2.3304081E+01
 1.9049751E+01  2.3238920E+01
 1.9061251E+01  2.3260601E+01
 1.9072750E+01  2.3272821E+01
 1.9084251E+01  2.3313353E+01
 1.9095751E+01  2.3270355E+01
 1.9107250E+01  2.3246368E+01
 1.9118752E+01  2.3182768E+01
 1.9130251E+01  2.3209627E+01
 1.9141750E+01  2.3224283E+01
 1.9153252E+01  2.3316507E+01
 1.9164751E+01  2.3326122E+01
 1.9176250E+01  2.3350151E+01
 1.9187752E+01  2.3324560E+01
 1.9199251E+01  2.3297754E+01
 1.9210751E+01  2.3284431E+01
 1.9222252E+01  2.3278990E+01
 1.9233751E+01  2.3286123E+01
 1.9245251E+01  2.3315441E+01
 1.9256750E+01  2.3355440E+01
 1.9268251E+01  2.3332613E+01
 1.9279751E+01  2.3290848E+01
 1.9291250E+01  2.3294956E+01
 1.9302752E+01  2.3375679E+01
 1.9314251E+01  2.3366909E+01
 1.9325750E+01  2.3381721E+01
 1.9337252E+01  2.3397282E+01
 1.9348751E+01  2.3402834E+01
 1.9360250E+01  2.3395920E+01
 1.9371752E+01  2.3424709E+01
 1.9383251E+01  2.3464016E+01
 1.9394751E+01  2.3491646E+01
 1.9406250E+01  2.3487608E+01
 1.9417751E+01  2.3539518E+01
 1.9429251E+01  2.3545103E+01
 1.9440750E+01  2.3572887E+01
 1.9452251E+01  2.3536224E+01
 1.9463751E+01  2.3458336E+01
 1.9475250E+01  2.3424530E+01
 1.9486752E+01  2.3431170E+01
 1.9498251E+01  2.3495991E+01
 1.9509750E+01  2.3524784E+01
 1.9521252E+01  2.3538435E+01
 1.9532751E+01  2.3572889E+01
 1.9544250E+01  2.3627869E+01
 1.9555752E+01  2.3621023E+01
 1.9567251E+01  2.3603010E+01
 1.9578751E+01  2.3590876E+01
 1.9590250E+01  2.3666010E+01
 1.9601751E+01  2.3714125E+01
 1.9613251E+01  2.3791294E+01
 1.9624750E+01  2.3837914E+01
 1.9636251E+01  2.3915316E+01
 1.9647751E+01  2.4075281E+01
 1.9659250E+01  2.4223274E+01
 1.9670752E+01  2.4447237E+01
 1.9682251E+01  2.4762852E+01
 1.9693750E+01  2.5114906E+01
 1.9705252E+01  2.5719366E+01
 1.9716751E+01  2.6010471E+01
 1.9728251E+01  2.6544973E+01
 1.9739752E+01  2.6770763E+01
 1.9751251E+01  2.6658293E+01
 1.9762751E+01  2.6812744E+01
 1.9774250E+01  2.6160038E+01
 1.9785751E+01  2.6440605E+01
 1.9797251E+01  2.6384695E+01
 1.9808750E+01  2.6813316E+01
 1.9820251E+01  2.8250231E+01
 1.9831751E+01  2.8999386E+01
 1.9843250E+01  3.0298389E+01
 1.9854752E+01  3.0565481E+01
 1.9866251E+01  3.0919321E+01
 1.9877750E+01  3.0117537E+01
 1.9889252E+01  2.8915218E+01
 1.9900751E+01  2.7767916E+01
 1.9912251E+01  2.6340837E+01
 1.9923752E+01  2.5368673E+01
 1.9935251E+01  2.4650337E+01
 1.9946751E+01  2.4227350E+01
 1.9958250E+01  2.4018522E+01
 1.9969751E+01  2.3896358E+01
 1.9981251E+01  2.3845493E+01
 1.9992750E+01  2.3818062E+01
 2.0004251E+01  2.3758633E+01
 2.0015751E+01  2.3732498E+01
 2.0027250E+01  2.3678411E+01
 2.0038752E+01  2.3668365E+01
 2.0050251E+01  2.3697403E+01
 2.0061750E+01  2.3684103E+01
 2.0073252E+01  2.3671019E+01
 2.0084751E+01  2.3601681E+01
 2.0096251E+01  2.3581661E+01
 2.0107752E+01  2.3574030E+01
 2.0119251E+01  2.3587370E+01
 2.0130751E+01  2.3594378E+01
 2.0142250E+01  2.3625355E+01
 2.0153751E+01  2.3624418E+01
 2.0165251E+01  2.3620066E+01
 2.0176750E+01  2.3556580E+01
 2.0188251E+01  2.3586245E+01
 2.0199751E+01  2.3542921E+01
 2.0211250E+01  2.3561111E+01
 2.0222752E+01  2.3528296E+01
 2.0234251E+01  2.3558514E+01
 2.0245750E+01  2.3549818E+01
 2.0257252E+01  2.3542582E+01
 2.0268751E+01  2.3545979E+01
 2.0280251E+01  2.3556089E+01
 2.0291752E+01  2.3570406E+01
 2.0303251E+01  2.3560946E+01
 2.0314751E+01  2.3502180E+01
 2.0326250E+01  2.3436747E+01
 2.0337751E+01  2.3461409E+01
 2.0349251E+01  2.3525023E+01
 2.0360750E+01  2.3573187E+01
 2.0372252E+01  2.3540220E+01
 2.0383751E+01  2.3489655E+01
 2.0395250E+01  2.3484550E+01
 2.0406752E+01  2.3498835E+01
 2.0418251E+01  2.3558744E+01
 2.0429750E+01  2.3561243E+01
 2.0441252E+01  2.3533396E+01
 2.0452751E+01  2.3465265E+01
 2.0464251E+01  2.3433546E+01
 2.0475752E+01  2.3414341E+01
 2.0487251E+01  2.3447145E+01
 2.0498751E+01  2.3439499E+01
 2.0510250E+01  2.3466276E+01
 2.0521751E+01  2.3434368E+01
 2.0533251E+01  2.3438770E+01
 2.0544750E+01  2.3405182E+01
 2.0556252E+01  2.3463844E+01
 2.0567751E+01  2.3509146E+01
 2.0579250E+01  2.3543545E+01
 2.0590752E+01  2.3566809E+01
 2.0602251E+01  2.3614590E+01
 2.0613750E+01  2.3651203E+01
 2.0625252E+01  2.3693460E+01
 2.0636751E+01  2.3731018E+01
 2.0648251E+01  2.3783329E+01
 2.0659752E+01  2.3859642E+01
 2.0671251E+01  2.3955462E+01
 2.0682751E+01  2.4116676E+01
 2.0694250E+01  2.4317001E+01
 2.0705751E+01  2.4650532E+01
 2.0717251E+01  2.5061054E+01
 2.0728750E+01  2.5633070E+01
 2.0740252E+01  2.6023653E+01
 2.0751751E+01  2.6499969E+01
 2.0763250E+01  2.6680956E+01
 2.0774752E+01  2.6567305E+01
 2.0786251E+01  2.6417170E+01
 2.0797750E+01  2.5803007E+01
 2.0809252E+01  2.5390285E+01
 2.0820751E+01  2.4790455E+01
 2.0832251E+01  2.4448492E+01
 2.0843752E+01  2.4190557E+01
 2.0855251E+01  2.4068701E+01
 2.0866751E+01  2.4000074E+01
 2.0878250E+01  2.3909014E+01
 2.0889751E+01  2.3869705E+01
 2.0901251E+01  2.3827625E+01
 2.0912750E+01  2.3810822E+01
 2.0924252E+01  2.3776169E+01
 2.0935751E+01  2.3771351E+01
 2.0947250E+01  2.3740540E+01
 2.0958752E+01  2.3670252E+01
 2.0970251E+01  2.3643219E+01
 2.0981750E+01  2.3651834E+01
 2.0993252E+01  2.3629436E+01
 2.1004751E+01  2.3625490E+01
 2.1016251E+01  2.3607244E+01
 2.1027752E+01  2.3656647E+01
 2.1039251E+01  2.3638414E+01
 2.1050751E+01  2.3639309E+01
 2.1062250E+01  2.3577888E+01
 2.1073751E+01  2.3581476E+01
 2.1085251E+01  2.3594759E+01
 2.1096750E+01  2.3618921E+01
 2.1108252E+01  2.3626940E+01
 2.1119751E+01  2.3630638E+01
 2.1131250E+01  2.3652815E+01
 2.1142752E+01  2.3650200E+01
 2.1154251E+01  2.3624924E+01
 2.1165751E+01  2.3609682E+01
 2.1177252E+01  2.3633766E+01
 2.1188751E+01  2.3687796E+01
 2.1200251E+01  2.3707907E+01
 2.1211752E+01  2.3704136E+01
 2.1223251E+01  2.3642277E+01
 2.1234751E+01  2.3611828E+01
 2.1246250E+01  2.3635248E+01
 2.1257751E+01  2.3653419E+01
 2.1269251E+01  2.3652302E+01
 2.1280750E+01  2.3628002E+01
 2.1292252E+01  2.3650446E+01
 2.1303751E+01  2.3662495E+01
 2.1315250E+01  2.3663692E+01
 2.1326752E+01  2.3668259E+01
 2.1338251E+01  2.3647446E+01
 2.1349751E+01  2.3651043E+01
 2.1361252E+01  2.3685284E+01
 2.1372751E+01  2.3738861E+01
 2.1384251E+01  2.3780649E+01
 2.1395752E+01  2.3779972E+01
 2.1407251E+01  2.3745022E+01
 2.1418751E+01  2.3726175E+01
 2.1430250E+01  2.3731762E+01
 2.1441751E+01  2.3712980E+01
 2.1453251E+01  2.3650314E+01
 2.1464750E+01  2.3604677E+01
 2.1476252E+01  2.3535475E+01
 2.1487751E+01  2.3615471E+01
 2.1499250E+01  2.3657036E+01
 2.1510752E+01  2.3693186E+01
 2.1522251E+01  2.3696991E+01
 2.1533751E+01  2.3697008E+01
 2.1545252E+01  2.3698513E+01
 2.1556751E+01  2.3660345E+01
 2.1568251E+01  2.3666208E+01
 2.1579752E+01  2.3702875E+01
 2.1591251E+01  2.3762075E+01
 2.1602751E+01  2.3772486E+01
 2.1614250E+01  2.3805321E+01
 2.1625751E+01  2.3794832E+01
 2.1637251E+01  2.3815680E+01
 2.1648750E+01  2.3815403E+01
 2.1660252E+01  2.3862143E+01
 2.1671751E+01  2.3865269E+01
 2.1683250E+01  2.3899662E+01
 2.1694752E+01  2.3913630E+01
 2.1706251E+01  2.3940035E+01
 2.1717751E+01  2.3946527E+01
 2.1729252E+01  2.3937937E+01
 2.1740751E+01  2.3934162E+01
 2.1752251E+01  2.3869135E+01
 2.1763752E+01  2.3840019E+01
 2.1775251E+01  2.3844522E+01
 2.1786751E+01  2.3921761E+01
 2.1798250E+01  2.3952736E+01
 2.1809752E+01  2.3979809E+01
 2.1821251E+01  2.3997417E+01
 2.1832750E+01  2.3970831E+01
 2.1844252E+01  2.3920849E+01
 2.1855751E+01  2.3913464E+01
 2.1867250E+01  2.3924347E+01
 2.1878752E+01  2.3932642E+01
 2.1890251E+01  2.3903900E+01
 2.1901751E+01  2.3880205E+01
 2.1913252E+01  2.3922449E+01
 2.1924751E+01  2.3943445E+01
 2.1936251E+01  2.3982693E+01
 2.1947752E+01  2.3983471E+01
 2.1959251E+01  2.4013176E+01
 2.1970751E+01  2.4018196E+01
 2.1982250E+01  2.4034071E+01
 2.1993752E+01  2.4026289E+01
 2.2005251E+01  2.3990690E+01
 2.2016750E+01  2.3969311E+01
 2.2028252E+01  2.3949554E+01
 2.2039751E+01  2.3954639E+01
 2.2051250E+01  2.3938623E+01
 2.2062752E+01  2.3927414E+01
 2.2074251E+01  2.3971992E+01
 2.2085751E+01  2.4025011E+01
 2.2097252E+01  2.4045193E+01
 2.2108751E+01  2.4047707E+01
 2.2120251E+01  2.4072819E+01
 2.2131752E+01  2.4120667E+01
 2.2143251E+01  2.4130033E+01
 2.2154751E+01  2.4122673E+01
 2.2166250E+01  2.4111412E+01
 2.2177752E+01  2.4067793E+01
 2.2189251E+01  2.4024742E+01
 2.2200750E+01  2.4066397E+01
 2.2212252E+01  2.4078951E+01
 2.2223751E+01  2.4099817E+01
 2.2235250E+01  2.4065538E+01
 2.2246752E+01  2.4102692E+01
 2.2258251E+01  2.4096432E+01
 2.2269751E+01  2.4081768E+01
 2.2281252E+01  2.4097610E+01
 2.2292751E+01  2.4140471E+01
 2.2304251E+01  2.4209120E+01
 2.2315752E+01  2.4254864E+01
 2.2327251E+01  2.4268055E+01
 2.2338751E+01  2.4295944E+01
 2.2350250E+01  2.4298992E+01
 2.2361752E+01  2.4323174E+01
 2.2373251E+01  2.4328594E+01
 2.2384750E+01  2.4311495E+01
 2.2396252E+01  2.4268621E+01
 2.2407751E+01  2.4214159E+01
 2.2419250E+01  2.4231079E+01
 2.2430752E+01  2.4246910E+01
 2.2442251E+01  2.4328737E+01
 2.2453751E+01  2.4427143E+01
 2.2465252E+01  2.4495375E+01
 2.2476751E+01  2.4546690E+01
 2.2488251E+01  2.4556341E+01
 2.2499752E+01  2.4510122E+01
 2.2511251E+01  2.4471754E+01
 2.2522751E+01  2.4485361E+01
 2.2534250E+01  2.4555241E+01
 2.2545752E+01  2.4572342E+01
 2.2557251E+01  2.4565517E+01
 2.2568750E+01  2.4521759E+01
 2.2580252E+01  2.4533520E+01
 2.2591751E+01  2.4572521E+01
 2.2603251E+01  2.4566605E+01
 2.2614752E+01  2.4615063E+01
 2.2626251E+01  2.4684490E+01
 2.2637751E+01  2.4724585E+01
 2.2649252E+01  2.4736565E+01
 2.2660751E+01  2.4779192E+01
 2.2672251E+01  2.4841129E+01
 2.2683752E+01  2.4868444E+01
 2.2695251E+01  2.4899839E+01
 2.2706751E+01  2.4911102E+01
 2.2718250E+01  2.4955299E+01
 2.2729752E+01  2.5007099E+01
 2.2741251E+01  2.5003115E+01
 2.2752750E+01  2.4993290E+01
 2.2764252E+01  2.5007732E+01
 2.2775751E+01  2.5026665E+01
 2.2787251E+01  2.4981985E+01
 2.2798752E+01  2.5022886E+01
 2.2810251E+01  2.5124979E+01
 2.2821751E+01  2.5190668E+01
 2.2833252E+01  2.5253170E+01
 2.2844751E+01  2.5265764E+01
 2.2856251E+01  2.5243378E+01
 2.2867750E+01  2.5278809E+01
 2.2879251E+01  2.5312805E+01
 2.2890751E+01  2.5409885E+01
 2.2902250E+01  2.5460442E+01
 2.2913752E+01  2.5603268E+01
 2.2925251E+01  2.5650820E+01
 2.2936750E+01  2.5698320E+01
 2.2948252E+01  2.5752234E+01
 2.2959751E+01  2.5815121E+01
 2.2971251E+01  2.5959587E+01
 2.2982752E+01  2.6077696E+01
 2.2994251E+01  2.6195568E+01
