F:\20151113_APS_34IDE\\Brian\Particle1\OCV\Data_0024.tif
2-Theta Angle (Degrees)
Intensity
       2000
 5.7500005E-03  0.0000000E+00
 1.7250001E-02  0.0000000E+00
 2.8750001E-02  0.0000000E+00
 4.0250003E-02  0.0000000E+00
 5.1750004E-02  0.0000000E+00
 6.3250005E-02  0.0000000E+00
 7.4750006E-02  0.0000000E+00
 8.6250007E-02  0.0000000E+00
 9.7750008E-02  0.0000000E+00
 1.0925001E-01  0.0000000E+00
 1.2075000E-01  0.0000000E+00
 1.3225001E-01  0.0000000E+00
 1.4375001E-01  0.0000000E+00
 1.5525001E-01  0.0000000E+00
 1.6675001E-01  0.0000000E+00
 1.7825001E-01  0.0000000E+00
 1.8975002E-01  0.0000000E+00
 2.0125002E-01  0.0000000E+00
 2.1275002E-01  0.0000000E+00
 2.2425000E-01  0.0000000E+00
 2.3575000E-01  0.0000000E+00
 2.4725001E-01  0.0000000E+00
 2.5875002E-01  0.0000000E+00
 2.7025002E-01  0.0000000E+00
 2.8175002E-01  0.0000000E+00
 2.9325002E-01  0.0000000E+00
 3.0475003E-01  0.0000000E+00
 3.1625003E-01  0.0000000E+00
 3.2775003E-01  0.0000000E+00
 3.3925003E-01  0.0000000E+00
 3.5075003E-01  0.0000000E+00
 3.6225003E-01  0.0000000E+00
 3.7375003E-01  0.0000000E+00
 3.8525003E-01  0.0000000E+00
 3.9675003E-01  0.0000000E+00
 4.0825003E-01  0.0000000E+00
 4.1975003E-01  0.0000000E+00
 4.3125004E-01  0.0000000E+00
 4.4275001E-01  0.0000000E+00
 4.5425001E-01  0.0000000E+00
 4.6575001E-01  0.0000000E+00
 4.7725001E-01  0.0000000E+00
 4.8875001E-01  0.0000000E+00
 5.0025004E-01  0.0000000E+00
 5.1175004E-01  0.0000000E+00
 5.2325004E-01  0.0000000E+00
 5.3475004E-01  0.0000000E+00
 5.4625005E-01  0.0000000E+00
 5.5775005E-01  0.0000000E+00
 5.6925005E-01  0.0000000E+00
 5.8075005E-01  0.0000000E+00
 5.9225005E-01  0.0000000E+00
 6.0375005E-01  0.0000000E+00
 6.1525005E-01  0.0000000E+00
 6.2675005E-01  0.0000000E+00
 6.3825005E-01  0.0000000E+00
 6.4975005E-01  0.0000000E+00
 6.6125005E-01  0.0000000E+00
 6.7275006E-01  0.0000000E+00
 6.8425006E-01  0.0000000E+00
 6.9575006E-01  0.0000000E+00
 7.0725006E-01  0.0000000E+00
 7.1875006E-01  0.0000000E+00
 7.3025006E-01  0.0000000E+00
 7.4175006E-01  0.0000000E+00
 7.5325006E-01  0.0000000E+00
 7.6475006E-01  0.0000000E+00
 7.7625006E-01  0.0000000E+00
 7.8775007E-01  0.0000000E+00
 7.9925007E-01  0.0000000E+00
 8.1075007E-01  0.0000000E+00
 8.2225007E-01  0.0000000E+00
 8.3375007E-01  0.0000000E+00
 8.4525007E-01  0.0000000E+00
 8.5675007E-01  0.0000000E+00
 8.6825007E-01  0.0000000E+00
 8.7975001E-01  0.0000000E+00
 8.9125001E-01  0.0000000E+00
 9.0275002E-01  0.0000000E+00
 9.1425002E-01  0.0000000E+00
 9.2575002E-01  0.0000000E+00
 9.3725002E-01  0.0000000E+00
 9.4875002E-01  0.0000000E+00
 9.6025002E-01  0.0000000E+00
 9.7175002E-01  0.0000000E+00
 9.8325002E-01  0.0000000E+00
 9.9475002E-01  0.0000000E+00
 1.0062500E+00  0.0000000E+00
 1.0177500E+00  0.0000000E+00
 1.0292500E+00  0.0000000E+00
 1.0407500E+00  0.0000000E+00
 1.0522500E+00  0.0000000E+00
 1.0637500E+00  0.0000000E+00
 1.0752500E+00  0.0000000E+00
 1.0867500E+00  0.0000000E+00
 1.0982500E+00  0.0000000E+00
 1.1097500E+00  0.0000000E+00
 1.1212500E+00  0.0000000E+00
 1.1327500E+00  0.0000000E+00
 1.1442500E+00  0.0000000E+00
 1.1557500E+00  0.0000000E+00
 1.1672500E+00  0.0000000E+00
 1.1787500E+00  0.0000000E+00
 1.1902500E+00  0.0000000E+00
 1.2017500E+00  0.0000000E+00
 1.2132500E+00  0.0000000E+00
 1.2247500E+00  0.0000000E+00
 1.2362500E+00  0.0000000E+00
 1.2477500E+00  0.0000000E+00
 1.2592500E+00  0.0000000E+00
 1.2707500E+00  0.0000000E+00
 1.2822500E+00  0.0000000E+00
 1.2937500E+00  0.0000000E+00
 1.3052500E+00  0.0000000E+00
 1.3167500E+00  0.0000000E+00
 1.3282501E+00  0.0000000E+00
 1.3397501E+00  0.0000000E+00
 1.3512501E+00  0.0000000E+00
 1.3627501E+00  0.0000000E+00
 1.3742501E+00  0.0000000E+00
 1.3857501E+00  0.0000000E+00
 1.3972501E+00  0.0000000E+00
 1.4087501E+00  0.0000000E+00
 1.4202501E+00  0.0000000E+00
 1.4317501E+00  0.0000000E+00
 1.4432501E+00  0.0000000E+00
 1.4547501E+00  0.0000000E+00
 1.4662501E+00  0.0000000E+00
 1.4777501E+00  0.0000000E+00
 1.4892501E+00  0.0000000E+00
 1.5007501E+00  0.0000000E+00
 1.5122501E+00  0.0000000E+00
 1.5237501E+00  0.0000000E+00
 1.5352501E+00  0.0000000E+00
 1.5467501E+00  0.0000000E+00
 1.5582501E+00  0.0000000E+00
 1.5697501E+00  0.0000000E+00
 1.5812501E+00  0.0000000E+00
 1.5927501E+00  0.0000000E+00
 1.6042501E+00  0.0000000E+00
 1.6157501E+00  0.0000000E+00
 1.6272501E+00  0.0000000E+00
 1.6387501E+00  0.0000000E+00
 1.6502501E+00  0.0000000E+00
 1.6617501E+00  0.0000000E+00
 1.6732501E+00  0.0000000E+00
 1.6847501E+00  0.0000000E+00
 1.6962501E+00  0.0000000E+00
 1.7077501E+00  0.0000000E+00
 1.7192501E+00  0.0000000E+00
 1.7307501E+00  0.0000000E+00
 1.7422501E+00  0.0000000E+00
 1.7537501E+00  0.0000000E+00
 1.7652501E+00  0.0000000E+00
 1.7767501E+00  0.0000000E+00
 1.7882501E+00  0.0000000E+00
 1.7997501E+00  0.0000000E+00
 1.8112501E+00  0.0000000E+00
 1.8227501E+00  0.0000000E+00
 1.8342501E+00  0.0000000E+00
 1.8457501E+00  0.0000000E+00
 1.8572501E+00  0.0000000E+00
 1.8687501E+00  0.0000000E+00
 1.8802501E+00  0.0000000E+00
 1.8917501E+00  0.0000000E+00
 1.9032501E+00  0.0000000E+00
 1.9147501E+00  0.0000000E+00
 1.9262501E+00  0.0000000E+00
 1.9377501E+00  0.0000000E+00
 1.9492501E+00  0.0000000E+00
 1.9607501E+00  0.0000000E+00
 1.9722501E+00  0.0000000E+00
 1.9837501E+00  0.0000000E+00
 1.9952501E+00  0.0000000E+00
 2.0067501E+00  0.0000000E+00
 2.0182500E+00  0.0000000E+00
 2.0297501E+00  0.0000000E+00
 2.0412500E+00  0.0000000E+00
 2.0527501E+00  0.0000000E+00
 2.0642500E+00  0.0000000E+00
 2.0757501E+00  0.0000000E+00
 2.0872500E+00  0.0000000E+00
 2.0987501E+00  0.0000000E+00
 2.1102500E+00  0.0000000E+00
 2.1217501E+00  0.0000000E+00
 2.1332500E+00  0.0000000E+00
 2.1447501E+00  0.0000000E+00
 2.1562500E+00  0.0000000E+00
 2.1677501E+00  0.0000000E+00
 2.1792500E+00  0.0000000E+00
 2.1907501E+00  0.0000000E+00
 2.2022500E+00  0.0000000E+00
 2.2137501E+00  0.0000000E+00
 2.2252500E+00  0.0000000E+00
 2.2367501E+00  0.0000000E+00
 2.2482500E+00  0.0000000E+00
 2.2597501E+00  0.0000000E+00
 2.2712500E+00  0.0000000E+00
 2.2827501E+00  0.0000000E+00
 2.2942500E+00  0.0000000E+00
 2.3057501E+00  0.0000000E+00
 2.3172500E+00  0.0000000E+00
 2.3287501E+00  0.0000000E+00
 2.3402500E+00  0.0000000E+00
 2.3517501E+00  0.0000000E+00
 2.3632500E+00  0.0000000E+00
 2.3747501E+00  0.0000000E+00
 2.3862500E+00  0.0000000E+00
 2.3977501E+00  0.0000000E+00
 2.4092500E+00  0.0000000E+00
 2.4207501E+00  0.0000000E+00
 2.4322500E+00  0.0000000E+00
 2.4437501E+00  0.0000000E+00
 2.4552500E+00  0.0000000E+00
 2.4667501E+00  0.0000000E+00
 2.4782500E+00  0.0000000E+00
 2.4897501E+00  0.0000000E+00
 2.5012500E+00  0.0000000E+00
 2.5127501E+00  0.0000000E+00
 2.5242500E+00  0.0000000E+00
 2.5357502E+00  0.0000000E+00
 2.5472500E+00  0.0000000E+00
 2.5587502E+00  0.0000000E+00
 2.5702500E+00  0.0000000E+00
 2.5817502E+00  0.0000000E+00
 2.5932500E+00  0.0000000E+00
 2.6047502E+00  0.0000000E+00
 2.6162500E+00  0.0000000E+00
 2.6277502E+00  0.0000000E+00
 2.6392500E+00  0.0000000E+00
 2.6507502E+00  0.0000000E+00
 2.6622500E+00  0.0000000E+00
 2.6737502E+00  0.0000000E+00
 2.6852500E+00  0.0000000E+00
 2.6967502E+00  0.0000000E+00
 2.7082500E+00  0.0000000E+00
 2.7197502E+00  0.0000000E+00
 2.7312500E+00  0.0000000E+00
 2.7427502E+00  0.0000000E+00
 2.7542500E+00  0.0000000E+00
 2.7657502E+00  0.0000000E+00
 2.7772501E+00  0.0000000E+00
 2.7887502E+00  0.0000000E+00
 2.8002501E+00  0.0000000E+00
 2.8117502E+00  0.0000000E+00
 2.8232501E+00  3.3238964E+01
 2.8347502E+00  3.3842377E+01
 2.8462501E+00  3.3618797E+01
 2.8577502E+00  3.3909279E+01
 2.8692501E+00  3.4288166E+01
 2.8807502E+00  3.5070087E+01
 2.8922501E+00  3.5579838E+01
 2.9037502E+00  3.5649082E+01
 2.9152501E+00  3.5526466E+01
 2.9267502E+00  3.5589291E+01
 2.9382501E+00  3.5349041E+01
 2.9497502E+00  3.5709595E+01
 2.9612501E+00  3.5638836E+01
 2.9727502E+00  3.5771652E+01
 2.9842501E+00  3.5616638E+01
 2.9957502E+00  3.5512852E+01
 3.0072501E+00  3.5635288E+01
 3.0187502E+00  3.5484642E+01
 3.0302501E+00  3.5342163E+01
 3.0417502E+00  3.4836647E+01
 3.0532501E+00  3.4536613E+01
 3.0647502E+00  3.4569466E+01
 3.0762501E+00  3.4819916E+01
 3.0877502E+00  3.5562008E+01
 3.0992501E+00  3.5925545E+01
 3.1107502E+00  3.6124748E+01
 3.1222501E+00  3.6114422E+01
 3.1337502E+00  3.5906898E+01
 3.1452501E+00  3.6192596E+01
 3.1567502E+00  3.6143974E+01
 3.1682501E+00  3.6163612E+01
 3.1797502E+00  3.5964363E+01
 3.1912501E+00  3.5782833E+01
 3.2027502E+00  3.5459229E+01
 3.2142501E+00  3.5282436E+01
 3.2257502E+00  3.5035233E+01
 3.2372501E+00  3.5167515E+01
 3.2487502E+00  3.5262527E+01
 3.2602501E+00  3.5495464E+01
 3.2717502E+00  3.5389256E+01
 3.2832501E+00  3.5134243E+01
 3.2947502E+00  3.4981255E+01
 3.3062501E+00  3.4916069E+01
 3.3177502E+00  3.4820461E+01
 3.3292501E+00  3.4750977E+01
 3.3407502E+00  3.4403755E+01
 3.3522501E+00  3.4325668E+01
 3.3637502E+00  3.3989990E+01
 3.3752501E+00  3.4230236E+01
 3.3867502E+00  3.4370735E+01
 3.3982501E+00  3.4822613E+01
 3.4097502E+00  3.4721722E+01
 3.4212501E+00  3.4472527E+01
 3.4327502E+00  3.4517303E+01
 3.4442501E+00  3.4714081E+01
 3.4557502E+00  3.4612095E+01
 3.4672501E+00  3.4677269E+01
 3.4787502E+00  3.4491493E+01
 3.4902501E+00  3.4529266E+01
 3.5017502E+00  3.4186825E+01
 3.5132501E+00  3.3984653E+01
 3.5247502E+00  3.3788845E+01
 3.5362501E+00  3.3732975E+01
 3.5477502E+00  3.3592972E+01
 3.5592501E+00  3.3854145E+01
 3.5707502E+00  3.4087410E+01
 3.5822501E+00  3.4168568E+01
 3.5937502E+00  3.3956886E+01
 3.6052501E+00  3.3810242E+01
 3.6167502E+00  3.3556820E+01
 3.6282501E+00  3.3522316E+01
 3.6397502E+00  3.3131355E+01
 3.6512501E+00  3.3264439E+01
 3.6627502E+00  3.3214546E+01
 3.6742501E+00  3.3270599E+01
 3.6857502E+00  3.3385254E+01
 3.6972501E+00  3.3408943E+01
 3.7087502E+00  3.3664803E+01
 3.7202501E+00  3.3642624E+01
 3.7317502E+00  3.3603344E+01
 3.7432501E+00  3.3734360E+01
 3.7547503E+00  3.3672894E+01
 3.7662501E+00  3.3517590E+01
 3.7777503E+00  3.3308243E+01
 3.7892501E+00  3.2940735E+01
 3.8007503E+00  3.2680687E+01
 3.8122501E+00  3.2648411E+01
 3.8237503E+00  3.2698902E+01
 3.8352501E+00  3.2848576E+01
 3.8467503E+00  3.2879181E+01
 3.8582501E+00  3.2802059E+01
 3.8697503E+00  3.2889500E+01
 3.8812501E+00  3.2808811E+01
 3.8927503E+00  3.2751064E+01
 3.9042501E+00  3.2762920E+01
 3.9157503E+00  3.2823235E+01
 3.9272501E+00  3.2913231E+01
 3.9387503E+00  3.2961800E+01
 3.9502501E+00  3.2973709E+01
 3.9617503E+00  3.2955082E+01
 3.9732502E+00  3.2833118E+01
 3.9847503E+00  3.2862995E+01
 3.9962502E+00  3.2960060E+01
 4.0077500E+00  3.2951881E+01
 4.0192504E+00  3.2906685E+01
 4.0307503E+00  3.2731861E+01
 4.0422502E+00  3.2737694E+01
 4.0537500E+00  3.2679516E+01
 4.0652504E+00  3.2596546E+01
 4.0767503E+00  3.2650467E+01
 4.0882502E+00  3.2590794E+01
 4.0997500E+00  3.2660583E+01
 4.1112504E+00  3.2803032E+01
 4.1227503E+00  3.2919216E+01
 4.1342502E+00  3.3055252E+01
 4.1457500E+00  3.3037605E+01
 4.1572504E+00  3.2848675E+01
 4.1687503E+00  3.2715328E+01
 4.1802502E+00  3.2518288E+01
 4.1917500E+00  3.2357941E+01
 4.2032504E+00  3.2189899E+01
 4.2147503E+00  3.1961426E+01
 4.2262502E+00  3.1955713E+01
 4.2377501E+00  3.1913309E+01
 4.2492504E+00  3.2038345E+01
 4.2607503E+00  3.2138386E+01
 4.2722502E+00  3.2269276E+01
 4.2837501E+00  3.2392826E+01
 4.2952504E+00  3.2395634E+01
 4.3067503E+00  3.2529263E+01
 4.3182502E+00  3.2600777E+01
 4.3297501E+00  3.2584675E+01
 4.3412504E+00  3.2650345E+01
 4.3527503E+00  3.2515579E+01
 4.3642502E+00  3.2461899E+01
 4.3757501E+00  3.2276020E+01
 4.3872504E+00  3.2266502E+01
 4.3987503E+00  3.2349705E+01
 4.4102502E+00  3.2366711E+01
 4.4217501E+00  3.2384579E+01
 4.4332504E+00  3.2539314E+01
 4.4447503E+00  3.2545952E+01
 4.4562502E+00  3.2497654E+01
 4.4677501E+00  3.2335777E+01
 4.4792504E+00  3.2340542E+01
 4.4907503E+00  3.2325455E+01
 4.5022502E+00  3.2425209E+01
 4.5137501E+00  3.2372574E+01
 4.5252504E+00  3.2604916E+01
 4.5367503E+00  3.2708202E+01
 4.5482502E+00  3.2812408E+01
 4.5597501E+00  3.2799751E+01
 4.5712504E+00  3.2778252E+01
 4.5827503E+00  3.2711052E+01
 4.5942502E+00  3.2786419E+01
 4.6057501E+00  3.2768963E+01
 4.6172504E+00  3.2925125E+01
 4.6287503E+00  3.2947693E+01
 4.6402502E+00  3.2998241E+01
 4.6517501E+00  3.3058445E+01
 4.6632504E+00  3.3158527E+01
 4.6747503E+00  3.3277748E+01
 4.6862502E+00  3.3382317E+01
 4.6977501E+00  3.3505501E+01
 4.7092505E+00  3.3532089E+01
 4.7207503E+00  3.3535477E+01
 4.7322502E+00  3.3246853E+01
 4.7437501E+00  3.3231606E+01
 4.7552505E+00  3.3081711E+01
 4.7667503E+00  3.3264927E+01
 4.7782502E+00  3.3095699E+01
 4.7897501E+00  3.3016312E+01
 4.8012505E+00  3.2763489E+01
 4.8127503E+00  3.2682377E+01
 4.8242502E+00  3.2502884E+01
 4.8357501E+00  3.2510109E+01
 4.8472505E+00  3.2531033E+01
 4.8587503E+00  3.2709278E+01
 4.8702502E+00  3.2754128E+01
 4.8817501E+00  3.2934235E+01
 4.8932505E+00  3.2902348E+01
 4.9047503E+00  3.2981873E+01
 4.9162502E+00  3.3003891E+01
 4.9277501E+00  3.2978451E+01
 4.9392505E+00  3.3008339E+01
 4.9507504E+00  3.2906342E+01
 4.9622502E+00  3.2803234E+01
 4.9737501E+00  3.2898769E+01
 4.9852505E+00  3.2871719E+01
 4.9967504E+00  3.3035034E+01
 5.0082502E+00  3.2996269E+01
 5.0197501E+00  3.2993195E+01
 5.0312505E+00  3.3040585E+01
 5.0427504E+00  3.2993649E+01
 5.0542502E+00  3.3064255E+01
 5.0657501E+00  3.3257160E+01
 5.0772505E+00  3.3380245E+01
 5.0887504E+00  3.3562542E+01
 5.1002502E+00  3.3604565E+01
 5.1117501E+00  3.3653954E+01
 5.1232505E+00  3.3701630E+01
 5.1347504E+00  3.3815907E+01
 5.1462502E+00  3.3920872E+01
 5.1577501E+00  3.3953403E+01
 5.1692505E+00  3.3995422E+01
 5.1807504E+00  3.3925114E+01
 5.1922503E+00  3.3977879E+01
 5.2037501E+00  3.4016113E+01
 5.2152505E+00  3.4040066E+01
 5.2267504E+00  3.4119499E+01
 5.2382503E+00  3.4120232E+01
 5.2497501E+00  3.4268505E+01
 5.2612505E+00  3.4342598E+01
 5.2727504E+00  3.4336136E+01
 5.2842503E+00  3.4317211E+01
 5.2957501E+00  3.4438183E+01
 5.3072500E+00  3.4500645E+01
 5.3187504E+00  3.4662659E+01
 5.3302503E+00  3.4655563E+01
 5.3417501E+00  3.4656425E+01
 5.3532500E+00  3.4624714E+01
 5.3647504E+00  3.4559231E+01
 5.3762503E+00  3.4555119E+01
 5.3877501E+00  3.4686905E+01
 5.3992500E+00  3.4768349E+01
 5.4107504E+00  3.4852169E+01
 5.4222503E+00  3.4706783E+01
 5.4337502E+00  3.4781681E+01
 5.4452500E+00  3.4773281E+01
 5.4567504E+00  3.4875271E+01
 5.4682503E+00  3.4773579E+01
 5.4797502E+00  3.4802734E+01
 5.4912500E+00  3.4728092E+01
 5.5027504E+00  3.4783695E+01
 5.5142503E+00  3.4782429E+01
 5.5257502E+00  3.4902405E+01
 5.5372500E+00  3.4846237E+01
 5.5487504E+00  3.4885994E+01
 5.5602503E+00  3.4934299E+01
 5.5717502E+00  3.5098675E+01
 5.5832500E+00  3.5220398E+01
 5.5947504E+00  3.5297478E+01
 5.6062503E+00  3.5440823E+01
 5.6177502E+00  3.5438213E+01
 5.6292500E+00  3.5522270E+01
 5.6407504E+00  3.5558186E+01
 5.6522503E+00  3.5815590E+01
 5.6637502E+00  3.6055851E+01
 5.6752501E+00  3.6229240E+01
 5.6867504E+00  3.6223133E+01
 5.6982503E+00  3.6132900E+01
 5.7097502E+00  3.6080574E+01
 5.7212501E+00  3.6097176E+01
 5.7327504E+00  3.6112701E+01
 5.7442503E+00  3.6104904E+01
 5.7557502E+00  3.5995827E+01
 5.7672501E+00  3.5901913E+01
 5.7787504E+00  3.5808620E+01
 5.7902503E+00  3.5867180E+01
 5.8017502E+00  3.5873638E+01
 5.8132501E+00  3.5962727E+01
 5.8247504E+00  3.5976990E+01
 5.8362503E+00  3.6153603E+01
 5.8477502E+00  3.6223259E+01
 5.8592501E+00  3.6360615E+01
 5.8707504E+00  3.6563637E+01
 5.8822503E+00  3.6807465E+01
 5.8937502E+00  3.7075485E+01
 5.9052501E+00  3.7665310E+01
 5.9167504E+00  3.8235538E+01
 5.9282503E+00  3.9084671E+01
 5.9397502E+00  4.1372673E+01
 5.9512501E+00  4.3234818E+01
 5.9627504E+00  4.5453186E+01
 5.9742503E+00  4.7946705E+01
 5.9857502E+00  4.7789276E+01
 5.9972501E+00  4.7270443E+01
 6.0087504E+00  4.4786186E+01
 6.0202503E+00  4.2755970E+01
 6.0317502E+00  4.0992210E+01
 6.0432501E+00  3.8859955E+01
 6.0547504E+00  3.8173100E+01
 6.0662503E+00  3.7662354E+01
 6.0777502E+00  3.7176315E+01
 6.0892501E+00  3.7131306E+01
 6.1007504E+00  3.7048054E+01
 6.1122503E+00  3.7017334E+01
 6.1237502E+00  3.7074280E+01
 6.1352501E+00  3.7074409E+01
 6.1467505E+00  3.7086452E+01
 6.1582503E+00  3.7206882E+01
 6.1697502E+00  3.7256050E+01
 6.1812501E+00  3.7383579E+01
 6.1927505E+00  3.7317333E+01
 6.2042503E+00  3.7365463E+01
 6.2157502E+00  3.7431221E+01
 6.2272501E+00  3.7451248E+01
 6.2387505E+00  3.7485809E+01
 6.2502503E+00  3.7485973E+01
 6.2617502E+00  3.7601242E+01
 6.2732501E+00  3.7789104E+01
 6.2847505E+00  3.7856087E+01
 6.2962503E+00  3.7927734E+01
 6.3077502E+00  3.7887634E+01
 6.3192501E+00  3.7964264E+01
 6.3307505E+00  3.8088768E+01
 6.3422503E+00  3.8137157E+01
 6.3537502E+00  3.8232075E+01
 6.3652501E+00  3.8207504E+01
 6.3767505E+00  3.8355019E+01
 6.3882504E+00  3.8385487E+01
 6.3997502E+00  3.8436565E+01
 6.4112501E+00  3.8447891E+01
 6.4227505E+00  3.8599815E+01
 6.4342504E+00  3.8730465E+01
 6.4457502E+00  3.8911358E+01
 6.4572501E+00  3.8972004E+01
 6.4687505E+00  3.9098057E+01
 6.4802504E+00  3.9127895E+01
 6.4917502E+00  3.9227512E+01
 6.5032501E+00  3.9314167E+01
 6.5147505E+00  3.9416653E+01
 6.5262504E+00  3.9448704E+01
 6.5377502E+00  3.9593151E+01
 6.5492501E+00  3.9573761E+01
 6.5607505E+00  3.9619331E+01
 6.5722504E+00  3.9505730E+01
 6.5837502E+00  3.9518856E+01
 6.5952501E+00  3.9563221E+01
 6.6067505E+00  3.9704906E+01
 6.6182504E+00  3.9867828E+01
 6.6297503E+00  4.0032238E+01
 6.6412501E+00  4.0190765E+01
 6.6527505E+00  4.0379444E+01
 6.6642504E+00  4.0459618E+01
 6.6757503E+00  4.0446217E+01
 6.6872501E+00  4.0424183E+01
 6.6987505E+00  4.0411308E+01
 6.7102504E+00  4.0527153E+01
 6.7217503E+00  4.0631741E+01
 6.7332501E+00  4.0715702E+01
 6.7447505E+00  4.0847736E+01
 6.7562504E+00  4.0883545E+01
 6.7677503E+00  4.1034218E+01
 6.7792501E+00  4.1090282E+01
 6.7907505E+00  4.1132393E+01
 6.8022504E+00  4.1196598E+01
 6.8137503E+00  4.1239002E+01
 6.8252501E+00  4.1413151E+01
 6.8367505E+00  4.1658306E+01
 6.8482504E+00  4.1804237E+01
 6.8597503E+00  4.1941204E+01
 6.8712502E+00  4.1912697E+01
 6.8827505E+00  4.1973953E+01
 6.8942504E+00  4.1925659E+01
 6.9057503E+00  4.1902748E+01
 6.9172502E+00  4.1893787E+01
 6.9287505E+00  4.1932541E+01
 6.9402504E+00  4.2090946E+01
 6.9517503E+00  4.2312042E+01
 6.9632502E+00  4.2531708E+01
 6.9747505E+00  4.2658501E+01
 6.9862504E+00  4.2679955E+01
 6.9977503E+00  4.2660034E+01
 7.0092502E+00  4.2551014E+01
 7.0207505E+00  4.2507797E+01
 7.0322504E+00  4.2497215E+01
 7.0437503E+00  4.2565617E+01
 7.0552502E+00  4.2655388E+01
 7.0667505E+00  4.2785690E+01
 7.0782504E+00  4.2803600E+01
 7.0897503E+00  4.2892029E+01
 7.1012502E+00  4.2968895E+01
 7.1127505E+00  4.3218472E+01
 7.1242504E+00  4.3449890E+01
 7.1357503E+00  4.3577938E+01
 7.1472502E+00  4.3639721E+01
 7.1587505E+00  4.3625229E+01
 7.1702504E+00  4.3613857E+01
 7.1817503E+00  4.3546940E+01
 7.1932502E+00  4.3483929E+01
 7.2047505E+00  4.3505981E+01
 7.2162504E+00  4.3653427E+01
 7.2277503E+00  4.3700363E+01
 7.2392502E+00  4.3805828E+01
 7.2507505E+00  4.3839821E+01
 7.2622504E+00  4.3925262E+01
 7.2737503E+00  4.3928856E+01
 7.2852502E+00  4.4005173E+01
 7.2967505E+00  4.4012470E+01
 7.3082504E+00  4.4062420E+01
 7.3197503E+00  4.4109295E+01
 7.3312502E+00  4.4254322E+01
 7.3427505E+00  4.4339252E+01
 7.3542504E+00  4.4470787E+01
 7.3657503E+00  4.4487366E+01
 7.3772502E+00  4.4609440E+01
 7.3887506E+00  4.4673798E+01
 7.4002504E+00  4.4727261E+01
 7.4117503E+00  4.4750317E+01
 7.4232502E+00  4.4654724E+01
 7.4347506E+00  4.4655682E+01
 7.4462504E+00  4.4650990E+01
 7.4577503E+00  4.4678806E+01
 7.4692502E+00  4.4564251E+01
 7.4807506E+00  4.4584488E+01
 7.4922504E+00  4.4503101E+01
 7.5037503E+00  4.4563984E+01
 7.5152502E+00  4.4552864E+01
 7.5267506E+00  4.4513496E+01
 7.5382504E+00  4.4543938E+01
 7.5497503E+00  4.4556583E+01
 7.5612502E+00  4.4654617E+01
 7.5727506E+00  4.4674477E+01
 7.5842505E+00  4.4749043E+01
 7.5957503E+00  4.4778614E+01
 7.6072502E+00  4.4842693E+01
 7.6187506E+00  4.4792755E+01
 7.6302505E+00  4.4822880E+01
 7.6417503E+00  4.4791977E+01
 7.6532502E+00  4.4821861E+01
 7.6647506E+00  4.4744064E+01
 7.6762505E+00  4.4728722E+01
 7.6877503E+00  4.4678074E+01
 7.6992502E+00  4.4626320E+01
 7.7107506E+00  4.4593895E+01
 7.7222505E+00  4.4643661E+01
 7.7337503E+00  4.4753063E+01
 7.7452502E+00  4.4727318E+01
 7.7567506E+00  4.4667065E+01
 7.7682505E+00  4.4516426E+01
 7.7797503E+00  4.4493755E+01
 7.7912502E+00  4.4440567E+01
 7.8027506E+00  4.4440823E+01
 7.8142505E+00  4.4413639E+01
 7.8257504E+00  4.4410332E+01
 7.8372502E+00  4.4369629E+01
 7.8487506E+00  4.4372120E+01
 7.8602505E+00  4.4427322E+01
 7.8717504E+00  4.4425762E+01
 7.8832502E+00  4.4443962E+01
 7.8947506E+00  4.4326035E+01
 7.9062505E+00  4.4249157E+01
 7.9177504E+00  4.4157246E+01
 7.9292502E+00  4.4076923E+01
 7.9407506E+00  4.4065590E+01
 7.9522505E+00  4.3999104E+01
 7.9637504E+00  4.4025837E+01
 7.9752502E+00  4.4009953E+01
 7.9867506E+00  4.4022121E+01
 7.9982505E+00  4.3894680E+01
 8.0097504E+00  4.3802952E+01
 8.0212507E+00  4.3714329E+01
 8.0327501E+00  4.3619267E+01
 8.0442505E+00  4.3624027E+01
 8.0557508E+00  4.3565609E+01
 8.0672503E+00  4.3633209E+01
 8.0787506E+00  4.3618011E+01
 8.0902500E+00  4.3546886E+01
 8.1017504E+00  4.3474628E+01
 8.1132507E+00  4.3370113E+01
 8.1247501E+00  4.3189522E+01
 8.1362505E+00  4.3038258E+01
 8.1477509E+00  4.2893276E+01
 8.1592503E+00  4.2800636E+01
 8.1707506E+00  4.2805595E+01
 8.1822500E+00  4.2744900E+01
 8.1937504E+00  4.2730396E+01
 8.2052507E+00  4.2567757E+01
 8.2167501E+00  4.2369141E+01
 8.2282505E+00  4.2174675E+01
 8.2397509E+00  4.2000534E+01
 8.2512503E+00  4.1853672E+01
 8.2627506E+00  4.1725765E+01
 8.2742500E+00  4.1500721E+01
 8.2857504E+00  4.1311321E+01
 8.2972507E+00  4.1073742E+01
 8.3087502E+00  4.0931137E+01
 8.3202505E+00  4.0758930E+01
 8.3317509E+00  4.0699837E+01
 8.3432503E+00  4.0625149E+01
 8.3547506E+00  4.0512192E+01
 8.3662500E+00  4.0387928E+01
 8.3777504E+00  4.0183804E+01
 8.3892508E+00  4.0032352E+01
 8.4007502E+00  3.9868855E+01
 8.4122505E+00  3.9756779E+01
 8.4237509E+00  3.9668610E+01
 8.4352503E+00  3.9467705E+01
 8.4467506E+00  3.9367050E+01
 8.4582500E+00  3.9168076E+01
 8.4697504E+00  3.9056145E+01
 8.4812508E+00  3.8824673E+01
 8.4927502E+00  3.8655125E+01
 8.5042505E+00  3.8480759E+01
 8.5157509E+00  3.8260002E+01
 8.5272503E+00  3.8136478E+01
 8.5387506E+00  3.7956318E+01
 8.5502501E+00  3.7765266E+01
 8.5617504E+00  3.7539150E+01
 8.5732508E+00  3.7357327E+01
 8.5847502E+00  3.7202175E+01
 8.5962505E+00  3.6984875E+01
 8.6077509E+00  3.6804855E+01
 8.6192503E+00  3.6633011E+01
 8.6307507E+00  3.6503334E+01
 8.6422501E+00  3.6344120E+01
 8.6537504E+00  3.6204620E+01
 8.6652508E+00  3.6076828E+01
 8.6767502E+00  3.5907982E+01
 8.6882505E+00  3.5775826E+01
 8.6997509E+00  3.5626015E+01
 8.7112503E+00  3.5437805E+01
 8.7227507E+00  3.5248463E+01
 8.7342501E+00  3.5021767E+01
 8.7457504E+00  3.4786705E+01
 8.7572508E+00  3.4520279E+01
 8.7687502E+00  3.4345448E+01
 8.7802505E+00  3.4236809E+01
 8.7917500E+00  3.4096958E+01
 8.8032503E+00  3.3908947E+01
 8.8147507E+00  3.3756676E+01
 8.8262501E+00  3.3668568E+01
 8.8377504E+00  3.3601868E+01
 8.8492508E+00  3.3473721E+01
 8.8607502E+00  3.3370346E+01
 8.8722506E+00  3.3153393E+01
 8.8837500E+00  3.2927265E+01
 8.8952503E+00  3.2621109E+01
 8.9067507E+00  3.2360157E+01
 8.9182501E+00  3.2245159E+01
 8.9297504E+00  3.2088680E+01
 8.9412508E+00  3.1907787E+01
 8.9527502E+00  3.1690868E+01
 8.9642506E+00  3.1582291E+01
 8.9757500E+00  3.1466625E+01
 8.9872503E+00  3.1305662E+01
 8.9987507E+00  3.1054672E+01
 9.0102501E+00  3.0937407E+01
 9.0217505E+00  3.0706421E+01
 9.0332508E+00  3.0670351E+01
 9.0447502E+00  3.0577019E+01
 9.0562506E+00  3.0549904E+01
 9.0677500E+00  3.0480659E+01
 9.0792503E+00  3.0434643E+01
 9.0907507E+00  3.0407661E+01
 9.1022501E+00  3.0320568E+01
 9.1137505E+00  3.0141529E+01
 9.1252508E+00  2.9984241E+01
 9.1367502E+00  2.9789442E+01
 9.1482506E+00  2.9674526E+01
 9.1597500E+00  2.9614624E+01
 9.1712503E+00  2.9509069E+01
 9.1827507E+00  2.9414011E+01
 9.1942501E+00  2.9294035E+01
 9.2057505E+00  2.9100965E+01
 9.2172508E+00  2.9050301E+01
 9.2287502E+00  2.8787676E+01
 9.2402506E+00  2.8742075E+01
 9.2517500E+00  2.8528687E+01
 9.2632504E+00  2.8468578E+01
 9.2747507E+00  2.8356512E+01
 9.2862501E+00  2.8272432E+01
 9.2977505E+00  2.8232466E+01
 9.3092508E+00  2.8147837E+01
 9.3207502E+00  2.8092171E+01
 9.3322506E+00  2.8015862E+01
 9.3437500E+00  2.7983479E+01
 9.3552504E+00  2.7944740E+01
 9.3667507E+00  2.7903406E+01
 9.3782501E+00  2.7818222E+01
 9.3897505E+00  2.7727018E+01
 9.4012508E+00  2.7584959E+01
 9.4127502E+00  2.7505470E+01
 9.4242506E+00  2.7305346E+01
 9.4357500E+00  2.7116585E+01
 9.4472504E+00  2.7007263E+01
 9.4587507E+00  2.6933182E+01
 9.4702501E+00  2.6943750E+01
 9.4817505E+00  2.6873796E+01
 9.4932508E+00  2.6816187E+01
 9.5047503E+00  2.6783552E+01
 9.5162506E+00  2.6708778E+01
 9.5277500E+00  2.6651705E+01
 9.5392504E+00  2.6582537E+01
 9.5507507E+00  2.6580399E+01
 9.5622501E+00  2.6597458E+01
 9.5737505E+00  2.6542042E+01
 9.5852509E+00  2.6387213E+01
 9.5967503E+00  2.6282829E+01
 9.6082506E+00  2.6264629E+01
 9.6197500E+00  2.6227468E+01
 9.6312504E+00  2.6120749E+01
 9.6427507E+00  2.5952015E+01
 9.6542501E+00  2.5846273E+01
 9.6657505E+00  2.5746805E+01
 9.6772509E+00  2.5644262E+01
 9.6887503E+00  2.5544029E+01
 9.7002506E+00  2.5555099E+01
 9.7117500E+00  2.5582121E+01
 9.7232504E+00  2.5629627E+01
 9.7347507E+00  2.5569353E+01
 9.7462502E+00  2.5584070E+01
 9.7577505E+00  2.5498375E+01
 9.7692509E+00  2.5462568E+01
 9.7807503E+00  2.5344584E+01
 9.7922506E+00  2.5289852E+01
 9.8037500E+00  2.5253786E+01
 9.8152504E+00  2.5239771E+01
 9.8267508E+00  2.5183767E+01
 9.8382502E+00  2.5123043E+01
 9.8497505E+00  2.5042355E+01
 9.8612509E+00  2.5048189E+01
 9.8727503E+00  2.5054703E+01
 9.8842506E+00  2.5062883E+01
 9.8957500E+00  2.5122055E+01
 9.9072504E+00  2.5075787E+01
 9.9187508E+00  2.5067118E+01
 9.9302502E+00  2.4943916E+01
 9.9417505E+00  2.4889572E+01
 9.9532509E+00  2.4838333E+01
 9.9647503E+00  2.4840372E+01
 9.9762506E+00  2.4852409E+01
 9.9877501E+00  2.4782963E+01
 9.9992504E+00  2.4663260E+01
 1.0010751E+01  2.4585835E+01
 1.0022250E+01  2.4578737E+01
 1.0033751E+01  2.4557930E+01
 1.0045251E+01  2.4519009E+01
 1.0056750E+01  2.4455687E+01
 1.0068251E+01  2.4445597E+01
 1.0079750E+01  2.4469414E+01
 1.0091250E+01  2.4435642E+01
 1.0102751E+01  2.4436451E+01
 1.0114250E+01  2.4432699E+01
 1.0125751E+01  2.4437557E+01
 1.0137251E+01  2.4383076E+01
 1.0148750E+01  2.4312860E+01
 1.0160251E+01  2.4264198E+01
 1.0171750E+01  2.4241295E+01
 1.0183250E+01  2.4196699E+01
 1.0194751E+01  2.4179518E+01
 1.0206250E+01  2.4181650E+01
 1.0217751E+01  2.4130438E+01
 1.0229251E+01  2.4099655E+01
 1.0240750E+01  2.4035072E+01
 1.0252251E+01  2.4018692E+01
 1.0263750E+01  2.3983458E+01
 1.0275250E+01  2.3962425E+01
 1.0286751E+01  2.3889286E+01
 1.0298250E+01  2.3855328E+01
 1.0309751E+01  2.3770994E+01
 1.0321251E+01  2.3791851E+01
 1.0332750E+01  2.3755154E+01
 1.0344251E+01  2.3790140E+01
 1.0355750E+01  2.3748161E+01
 1.0367250E+01  2.3790503E+01
 1.0378751E+01  2.3827427E+01
 1.0390250E+01  2.3904186E+01
 1.0401751E+01  2.3910816E+01
 1.0413251E+01  2.3894125E+01
 1.0424750E+01  2.3881420E+01
 1.0436251E+01  2.3813536E+01
 1.0447750E+01  2.3708759E+01
 1.0459250E+01  2.3630278E+01
 1.0470751E+01  2.3599318E+01
 1.0482250E+01  2.3620008E+01
 1.0493751E+01  2.3586626E+01
 1.0505251E+01  2.3549171E+01
 1.0516750E+01  2.3522099E+01
 1.0528251E+01  2.3482737E+01
 1.0539750E+01  2.3495527E+01
 1.0551250E+01  2.3529209E+01
 1.0562751E+01  2.3568962E+01
 1.0574250E+01  2.3568056E+01
 1.0585751E+01  2.3472479E+01
 1.0597251E+01  2.3422171E+01
 1.0608750E+01  2.3357712E+01
 1.0620251E+01  2.3314280E+01
 1.0631750E+01  2.3359291E+01
 1.0643250E+01  2.3424507E+01
 1.0654751E+01  2.3549805E+01
 1.0666250E+01  2.3565235E+01
 1.0677751E+01  2.3535040E+01
 1.0689251E+01  2.3476967E+01
 1.0700750E+01  2.3406658E+01
 1.0712251E+01  2.3402252E+01
 1.0723750E+01  2.3381632E+01
 1.0735250E+01  2.3369747E+01
 1.0746751E+01  2.3308804E+01
 1.0758250E+01  2.3285961E+01
 1.0769751E+01  2.3271742E+01
 1.0781251E+01  2.3331104E+01
 1.0792750E+01  2.3343815E+01
 1.0804251E+01  2.3304323E+01
 1.0815750E+01  2.3245214E+01
 1.0827250E+01  2.3244343E+01
 1.0838751E+01  2.3207460E+01
 1.0850250E+01  2.3201157E+01
 1.0861751E+01  2.3116261E+01
 1.0873251E+01  2.3134771E+01
 1.0884750E+01  2.3060282E+01
 1.0896251E+01  2.3009100E+01
 1.0907750E+01  2.2961710E+01
 1.0919250E+01  2.2913847E+01
 1.0930751E+01  2.2967682E+01
 1.0942250E+01  2.2962572E+01
 1.0953751E+01  2.3007597E+01
 1.0965251E+01  2.2961040E+01
 1.0976750E+01  2.2954025E+01
 1.0988251E+01  2.2912331E+01
 1.0999750E+01  2.2858469E+01
 1.1011250E+01  2.2832748E+01
 1.1022751E+01  2.2857847E+01
 1.1034250E+01  2.2916628E+01
 1.1045751E+01  2.2871964E+01
 1.1057251E+01  2.2816294E+01
 1.1068750E+01  2.2772320E+01
 1.1080251E+01  2.2798290E+01
 1.1091750E+01  2.2835335E+01
 1.1103251E+01  2.2858377E+01
 1.1114751E+01  2.2937265E+01
 1.1126250E+01  2.2966656E+01
 1.1137751E+01  2.2977993E+01
 1.1149251E+01  2.2966450E+01
 1.1160750E+01  2.2942888E+01
 1.1172251E+01  2.2949545E+01
 1.1183750E+01  2.2897583E+01
 1.1195251E+01  2.2876146E+01
 1.1206751E+01  2.2842745E+01
 1.1218250E+01  2.2841021E+01
 1.1229751E+01  2.2820065E+01
 1.1241251E+01  2.2800869E+01
 1.1252750E+01  2.2822725E+01
 1.1264251E+01  2.2853922E+01
 1.1275750E+01  2.2883125E+01
 1.1287251E+01  2.2873468E+01
 1.1298751E+01  2.2901257E+01
 1.1310250E+01  2.2927454E+01
 1.1321751E+01  2.2936535E+01
 1.1333251E+01  2.2909698E+01
 1.1344750E+01  2.2909050E+01
 1.1356251E+01  2.2966200E+01
 1.1367750E+01  2.3019802E+01
 1.1379251E+01  2.3072598E+01
 1.1390751E+01  2.3090040E+01
 1.1402250E+01  2.3217445E+01
 1.1413751E+01  2.3277929E+01
 1.1425251E+01  2.3382389E+01
 1.1436750E+01  2.3449234E+01
 1.1448251E+01  2.3585346E+01
 1.1459750E+01  2.3800528E+01
 1.1471251E+01  2.3986938E+01
 1.1482751E+01  2.4219734E+01
 1.1494250E+01  2.4630341E+01
 1.1505751E+01  2.5140034E+01
 1.1517251E+01  2.6471563E+01
 1.1528750E+01  2.8509275E+01
 1.1540251E+01  3.1840273E+01
 1.1551750E+01  3.7680088E+01
 1.1563251E+01  4.2602951E+01
 1.1574751E+01  4.8360191E+01
 1.1586250E+01  4.9167046E+01
 1.1597751E+01  4.8091999E+01
 1.1609251E+01  4.3014393E+01
 1.1620750E+01  3.7845036E+01
 1.1632251E+01  3.3010246E+01
 1.1643750E+01  2.9321604E+01
 1.1655251E+01  2.6830690E+01
 1.1666751E+01  2.5496559E+01
 1.1678250E+01  2.4664507E+01
 1.1689751E+01  2.4149042E+01
 1.1701251E+01  2.3867476E+01
 1.1712750E+01  2.3606880E+01
 1.1724251E+01  2.3491741E+01
 1.1735750E+01  2.3445574E+01
 1.1747251E+01  2.3395000E+01
 1.1758751E+01  2.3323193E+01
 1.1770250E+01  2.3204618E+01
 1.1781751E+01  2.3184650E+01
 1.1793251E+01  2.3173204E+01
 1.1804750E+01  2.3202450E+01
 1.1816251E+01  2.3199793E+01
 1.1827750E+01  2.3228321E+01
 1.1839251E+01  2.3198072E+01
 1.1850751E+01  2.3064304E+01
 1.1862250E+01  2.3011421E+01
 1.1873751E+01  2.2919859E+01
 1.1885251E+01  2.2922983E+01
 1.1896750E+01  2.2874016E+01
 1.1908251E+01  2.2874212E+01
 1.1919750E+01  2.2913990E+01
 1.1931251E+01  2.3001308E+01
 1.1942751E+01  2.3123280E+01
 1.1954250E+01  2.3324566E+01
 1.1965751E+01  2.3551023E+01
 1.1977251E+01  2.3724651E+01
 1.1988750E+01  2.3869665E+01
 1.2000251E+01  2.3862951E+01
 1.2011750E+01  2.3869057E+01
 1.2023251E+01  2.3753405E+01
 1.2034751E+01  2.3660292E+01
 1.2046250E+01  2.3607719E+01
 1.2057751E+01  2.3734982E+01
 1.2069251E+01  2.4127663E+01
 1.2080750E+01  2.4746750E+01
 1.2092251E+01  2.5575369E+01
 1.2103750E+01  2.6085194E+01
 1.2115251E+01  2.6192175E+01
 1.2126751E+01  2.5886366E+01
 1.2138250E+01  2.5289049E+01
 1.2149751E+01  2.4670872E+01
 1.2161251E+01  2.3942389E+01
 1.2172750E+01  2.3533157E+01
 1.2184251E+01  2.3250574E+01
 1.2195750E+01  2.3104589E+01
 1.2207251E+01  2.3003555E+01
 1.2218751E+01  2.2909906E+01
 1.2230250E+01  2.2858789E+01
 1.2241751E+01  2.2828758E+01
 1.2253251E+01  2.2829662E+01
 1.2264750E+01  2.2822441E+01
 1.2276251E+01  2.2793617E+01
 1.2287750E+01  2.2822786E+01
 1.2299251E+01  2.2838860E+01
 1.2310751E+01  2.2948618E+01
 1.2322250E+01  2.2917604E+01
 1.2333751E+01  2.2961130E+01
 1.2345250E+01  2.2832865E+01
 1.2356750E+01  2.2866745E+01
 1.2368251E+01  2.2814030E+01
 1.2379750E+01  2.2858885E+01
 1.2391251E+01  2.2823744E+01
 1.2402751E+01  2.2824196E+01
 1.2414250E+01  2.2801619E+01
 1.2425751E+01  2.2780737E+01
 1.2437250E+01  2.2790817E+01
 1.2448750E+01  2.2802744E+01
 1.2460251E+01  2.2818527E+01
 1.2471750E+01  2.2836571E+01
 1.2483251E+01  2.2891472E+01
 1.2494751E+01  2.2907104E+01
 1.2506250E+01  2.2912275E+01
 1.2517751E+01  2.2895849E+01
 1.2529250E+01  2.2871191E+01
 1.2540751E+01  2.2914562E+01
 1.2552251E+01  2.2921598E+01
 1.2563750E+01  2.2942514E+01
 1.2575251E+01  2.2927353E+01
 1.2586751E+01  2.2924538E+01
 1.2598250E+01  2.2970078E+01
 1.2609751E+01  2.2970661E+01
 1.2621250E+01  2.3056913E+01
 1.2632751E+01  2.3088699E+01
 1.2644251E+01  2.3064407E+01
 1.2655750E+01  2.3050734E+01
 1.2667251E+01  2.3000290E+01
 1.2678751E+01  2.3038273E+01
 1.2690250E+01  2.3008501E+01
 1.2701751E+01  2.3066845E+01
 1.2713250E+01  2.3107861E+01
 1.2724751E+01  2.3121067E+01
 1.2736251E+01  2.3154406E+01
 1.2747750E+01  2.3172077E+01
 1.2759251E+01  2.3215446E+01
 1.2770751E+01  2.3191547E+01
 1.2782250E+01  2.3269892E+01
 1.2793751E+01  2.3329863E+01
 1.2805250E+01  2.3431240E+01
 1.2816751E+01  2.3487120E+01
 1.2828251E+01  2.3557545E+01
 1.2839750E+01  2.3599533E+01
 1.2851251E+01  2.3566614E+01
 1.2862751E+01  2.3634949E+01
 1.2874250E+01  2.3733963E+01
 1.2885751E+01  2.3853233E+01
 1.2897250E+01  2.3995884E+01
 1.2908751E+01  2.3995029E+01
 1.2920251E+01  2.3973057E+01
 1.2931750E+01  2.3878433E+01
 1.2943251E+01  2.3887411E+01
 1.2954751E+01  2.3969709E+01
 1.2966250E+01  2.4010668E+01
 1.2977751E+01  2.4113028E+01
 1.2989250E+01  2.4178789E+01
 1.3000751E+01  2.4259203E+01
 1.3012251E+01  2.4347612E+01
 1.3023750E+01  2.4411146E+01
 1.3035251E+01  2.4505220E+01
 1.3046751E+01  2.4582989E+01
 1.3058250E+01  2.4689972E+01
 1.3069751E+01  2.4719116E+01
 1.3081250E+01  2.4797335E+01
 1.3092751E+01  2.4893900E+01
 1.3104251E+01  2.5115139E+01
 1.3115750E+01  2.5284035E+01
 1.3127251E+01  2.5353809E+01
 1.3138751E+01  2.5366489E+01
 1.3150250E+01  2.5395111E+01
 1.3161751E+01  2.5483944E+01
 1.3173250E+01  2.5566545E+01
 1.3184751E+01  2.5720232E+01
 1.3196251E+01  2.5898096E+01
 1.3207750E+01  2.6097807E+01
 1.3219251E+01  2.6289154E+01
 1.3230751E+01  2.6531113E+01
 1.3242250E+01  2.6705095E+01
 1.3253751E+01  2.6807854E+01
 1.3265250E+01  2.6903521E+01
 1.3276751E+01  2.6970848E+01
 1.3288251E+01  2.7088173E+01
 1.3299750E+01  2.7198044E+01
 1.3311251E+01  2.7380659E+01
 1.3322751E+01  2.7513887E+01
 1.3334250E+01  2.7678366E+01
 1.3345751E+01  2.7812046E+01
 1.3357250E+01  2.7953617E+01
 1.3368751E+01  2.8015240E+01
 1.3380251E+01  2.8123751E+01
 1.3391750E+01  2.8240849E+01
 1.3403251E+01  2.8355602E+01
 1.3414751E+01  2.8452183E+01
 1.3426250E+01  2.8542397E+01
 1.3437751E+01  2.8727398E+01
 1.3449250E+01  2.8864807E+01
 1.3460751E+01  2.9025738E+01
 1.3472251E+01  2.9155745E+01
 1.3483750E+01  2.9363525E+01
 1.3495251E+01  2.9504902E+01
 1.3506751E+01  2.9641981E+01
 1.3518250E+01  2.9708538E+01
 1.3529751E+01  2.9809603E+01
 1.3541250E+01  2.9883150E+01
 1.3552751E+01  2.9975649E+01
 1.3564251E+01  3.0063389E+01
 1.3575750E+01  3.0116398E+01
 1.3587251E+01  3.0144897E+01
 1.3598751E+01  3.0121487E+01
 1.3610250E+01  3.0117098E+01
 1.3621751E+01  3.0092958E+01
 1.3633250E+01  3.0092089E+01
 1.3644751E+01  3.0051805E+01
 1.3656251E+01  3.0113184E+01
 1.3667750E+01  3.0200195E+01
 1.3679251E+01  3.0288481E+01
 1.3690751E+01  3.0305527E+01
 1.3702250E+01  3.0206007E+01
 1.3713751E+01  3.0100950E+01
 1.3725250E+01  2.9963745E+01
 1.3736751E+01  2.9978342E+01
 1.3748251E+01  2.9969406E+01
 1.3759750E+01  2.9934090E+01
 1.3771251E+01  2.9862476E+01
 1.3782751E+01  2.9831415E+01
 1.3794250E+01  2.9867283E+01
 1.3805751E+01  2.9919914E+01
 1.3817250E+01  2.9966311E+01
 1.3828751E+01  3.0098610E+01
 1.3840251E+01  3.0198860E+01
 1.3851750E+01  3.0444498E+01
 1.3863251E+01  3.0782894E+01
 1.3874751E+01  3.1498487E+01
 1.3886250E+01  3.2584290E+01
 1.3897751E+01  3.5014473E+01
 1.3909250E+01  3.8132061E+01
 1.3920751E+01  4.2210613E+01
 1.3932251E+01  4.6144718E+01
 1.3943750E+01  4.8725742E+01
 1.3955251E+01  4.9555668E+01
 1.3966751E+01  4.8597931E+01
 1.3978251E+01  4.5390476E+01
 1.3989751E+01  4.1312687E+01
 1.4001250E+01  3.6853985E+01
 1.4012751E+01  3.3871429E+01
 1.4024251E+01  3.1384594E+01
 1.4035750E+01  3.0099745E+01
 1.4047251E+01  2.9417336E+01
 1.4058751E+01  2.8942772E+01
 1.4070251E+01  2.8665588E+01
 1.4081751E+01  2.8339163E+01
 1.4093250E+01  2.8132900E+01
 1.4104751E+01  2.7985626E+01
 1.4116251E+01  2.7894665E+01
 1.4127750E+01  2.7818747E+01
 1.4139251E+01  2.7795893E+01
 1.4150751E+01  2.7718355E+01
 1.4162251E+01  2.7618095E+01
 1.4173751E+01  2.7459887E+01
 1.4185250E+01  2.7342417E+01
 1.4196751E+01  2.7302649E+01
 1.4208251E+01  2.7275612E+01
 1.4219750E+01  2.7266296E+01
 1.4231251E+01  2.7181150E+01
 1.4242751E+01  2.7097008E+01
 1.4254251E+01  2.6979605E+01
 1.4265751E+01  2.6912363E+01
 1.4277250E+01  2.6812529E+01
 1.4288751E+01  2.6764818E+01
 1.4300251E+01  2.6675680E+01
 1.4311750E+01  2.6614916E+01
 1.4323251E+01  2.6525240E+01
 1.4334751E+01  2.6485878E+01
 1.4346251E+01  2.6472269E+01
 1.4357751E+01  2.6435560E+01
 1.4369250E+01  2.6416750E+01
 1.4380751E+01  2.6357994E+01
 1.4392251E+01  2.6336588E+01
 1.4403750E+01  2.6300133E+01
 1.4415251E+01  2.6270815E+01
 1.4426751E+01  2.6204165E+01
 1.4438251E+01  2.6109533E+01
 1.4449751E+01  2.6028877E+01
 1.4461250E+01  2.5949108E+01
 1.4472751E+01  2.5908051E+01
 1.4484251E+01  2.5877005E+01
 1.4495750E+01  2.5898432E+01
 1.4507251E+01  2.5958670E+01
 1.4518751E+01  2.5949026E+01
 1.4530251E+01  2.5944391E+01
 1.4541751E+01  2.5877775E+01
 1.4553250E+01  2.5897009E+01
 1.4564751E+01  2.5844883E+01
 1.4576251E+01  2.5788239E+01
 1.4587750E+01  2.5728697E+01
 1.4599251E+01  2.5685213E+01
 1.4610751E+01  2.5709871E+01
 1.4622251E+01  2.5653152E+01
 1.4633751E+01  2.5595163E+01
 1.4645250E+01  2.5523273E+01
 1.4656751E+01  2.5504784E+01
 1.4668251E+01  2.5479483E+01
 1.4679750E+01  2.5450203E+01
 1.4691251E+01  2.5447836E+01
 1.4702751E+01  2.5429075E+01
 1.4714251E+01  2.5379189E+01
 1.4725751E+01  2.5298304E+01
 1.4737250E+01  2.5259819E+01
 1.4748751E+01  2.5251711E+01
 1.4760251E+01  2.5257978E+01
 1.4771750E+01  2.5261440E+01
 1.4783251E+01  2.5216925E+01
 1.4794751E+01  2.5204666E+01
 1.4806251E+01  2.5195595E+01
 1.4817751E+01  2.5209614E+01
 1.4829250E+01  2.5207422E+01
 1.4840751E+01  2.5164476E+01
 1.4852251E+01  2.5147583E+01
 1.4863750E+01  2.5119699E+01
 1.4875251E+01  2.5109749E+01
 1.4886751E+01  2.5130356E+01
 1.4898251E+01  2.5182034E+01
 1.4909751E+01  2.5248995E+01
 1.4921250E+01  2.5242327E+01
 1.4932751E+01  2.5214748E+01
 1.4944251E+01  2.5190779E+01
 1.4955750E+01  2.5177256E+01
 1.4967251E+01  2.5164680E+01
 1.4978751E+01  2.5120222E+01
 1.4990251E+01  2.5095785E+01
 1.5001751E+01  2.5120272E+01
 1.5013250E+01  2.5190674E+01
 1.5024751E+01  2.5238085E+01
 1.5036251E+01  2.5258978E+01
 1.5047750E+01  2.5194658E+01
 1.5059251E+01  2.5198269E+01
 1.5070751E+01  2.5193119E+01
 1.5082251E+01  2.5222263E+01
 1.5093751E+01  2.5264608E+01
 1.5105250E+01  2.5293507E+01
 1.5116751E+01  2.5342016E+01
 1.5128251E+01  2.5353001E+01
 1.5139750E+01  2.5492739E+01
 1.5151251E+01  2.5875759E+01
 1.5162751E+01  2.6312822E+01
 1.5174251E+01  2.6982075E+01
 1.5185751E+01  2.7581980E+01
 1.5197250E+01  2.7909481E+01
 1.5208751E+01  2.7961256E+01
 1.5220251E+01  2.7603998E+01
 1.5231750E+01  2.7135910E+01
 1.5243251E+01  2.6485218E+01
 1.5254751E+01  2.6005840E+01
 1.5266251E+01  2.5694307E+01
 1.5277751E+01  2.5445608E+01
 1.5289250E+01  2.5273312E+01
 1.5300751E+01  2.5156000E+01
 1.5312251E+01  2.5063314E+01
 1.5323750E+01  2.4976698E+01
 1.5335251E+01  2.4926380E+01
 1.5346751E+01  2.4890474E+01
 1.5358251E+01  2.4917732E+01
 1.5369751E+01  2.4952909E+01
 1.5381250E+01  2.4899357E+01
 1.5392751E+01  2.4887180E+01
 1.5404251E+01  2.4801529E+01
 1.5415751E+01  2.4746801E+01
 1.5427251E+01  2.4707911E+01
 1.5438751E+01  2.4732565E+01
 1.5450251E+01  2.4756796E+01
 1.5461751E+01  2.4749128E+01
 1.5473250E+01  2.4679834E+01
 1.5484751E+01  2.4648897E+01
 1.5496251E+01  2.4620592E+01
 1.5507751E+01  2.4658213E+01
 1.5519251E+01  2.4714388E+01
 1.5530751E+01  2.4765739E+01
 1.5542251E+01  2.4786837E+01
 1.5553751E+01  2.4762312E+01
 1.5565250E+01  2.4789518E+01
 1.5576751E+01  2.4784561E+01
 1.5588251E+01  2.4776690E+01
 1.5599751E+01  2.4740252E+01
 1.5611251E+01  2.4711576E+01
 1.5622751E+01  2.4730314E+01
 1.5634251E+01  2.4711466E+01
 1.5645751E+01  2.4798044E+01
 1.5657250E+01  2.4832310E+01
 1.5668751E+01  2.4895903E+01
 1.5680251E+01  2.4926018E+01
 1.5691751E+01  2.4938637E+01
 1.5703251E+01  2.4910524E+01
 1.5714751E+01  2.4825741E+01
 1.5726251E+01  2.4813482E+01
 1.5737751E+01  2.4816654E+01
 1.5749250E+01  2.4838797E+01
 1.5760751E+01  2.4828943E+01
 1.5772251E+01  2.4858887E+01
 1.5783751E+01  2.4827105E+01
 1.5795251E+01  2.4874033E+01
 1.5806751E+01  2.4845221E+01
 1.5818251E+01  2.4883709E+01
 1.5829751E+01  2.4810127E+01
 1.5841250E+01  2.4792067E+01
 1.5852751E+01  2.4793230E+01
 1.5864251E+01  2.4824184E+01
 1.5875751E+01  2.4891344E+01
 1.5887251E+01  2.4932089E+01
 1.5898750E+01  2.4922222E+01
 1.5910251E+01  2.4972380E+01
 1.5921751E+01  2.4956749E+01
 1.5933250E+01  2.4987120E+01
 1.5944751E+01  2.4909595E+01
 1.5956251E+01  2.4878304E+01
 1.5967751E+01  2.4804766E+01
 1.5979251E+01  2.4801857E+01
 1.5990750E+01  2.4808170E+01
 1.6002251E+01  2.4844931E+01
 1.6013750E+01  2.4886507E+01
 1.6025251E+01  2.4911871E+01
 1.6036751E+01  2.4986420E+01
 1.6048250E+01  2.4995827E+01
 1.6059752E+01  2.5069977E+01
 1.6071251E+01  2.5043303E+01
 1.6082750E+01  2.5122709E+01
 1.6094252E+01  2.5117014E+01
 1.6105751E+01  2.5226110E+01
 1.6117250E+01  2.5185757E+01
 1.6128750E+01  2.5165390E+01
 1.6140251E+01  2.5113104E+01
 1.6151751E+01  2.5094984E+01
 1.6163250E+01  2.5261631E+01
 1.6174751E+01  2.5255144E+01
 1.6186251E+01  2.5839849E+01
 1.6197750E+01  2.5787632E+01
 1.6209251E+01  2.6937401E+01
 1.6220751E+01  2.6969440E+01
 1.6232250E+01  2.8029947E+01
 1.6243752E+01  2.7964130E+01
 1.6255251E+01  2.8221294E+01
 1.6266750E+01  2.8090126E+01
 1.6278252E+01  2.7374252E+01
 1.6289751E+01  2.7178982E+01
 1.6301250E+01  2.6144951E+01
 1.6312750E+01  2.6156466E+01
 1.6324251E+01  2.5476767E+01
 1.6335751E+01  2.5487400E+01
 1.6347250E+01  2.5188536E+01
 1.6358751E+01  2.5143332E+01
 1.6370251E+01  2.5057959E+01
 1.6381750E+01  2.5075897E+01
 1.6393251E+01  2.5121168E+01
 1.6404751E+01  2.5095930E+01
 1.6416250E+01  2.5133022E+01
 1.6427752E+01  2.5121387E+01
 1.6439251E+01  2.5125549E+01
 1.6450750E+01  2.5016163E+01
 1.6462252E+01  2.4941395E+01
 1.6473751E+01  2.4885731E+01
 1.6485250E+01  2.4906315E+01
 1.6496750E+01  2.4927364E+01
 1.6508251E+01  2.4920895E+01
 1.6519751E+01  2.4964079E+01
 1.6531250E+01  2.4947880E+01
 1.6542751E+01  2.4968744E+01
 1.6554251E+01  2.4872787E+01
 1.6565750E+01  2.4874290E+01
 1.6577251E+01  2.4844967E+01
 1.6588751E+01  2.4878708E+01
 1.6600250E+01  2.4891228E+01
 1.6611752E+01  2.4902838E+01
 1.6623251E+01  2.4805437E+01
 1.6634750E+01  2.4748486E+01
 1.6646252E+01  2.4711971E+01
 1.6657751E+01  2.4732439E+01
 1.6669250E+01  2.4744267E+01
 1.6680750E+01  2.4773281E+01
 1.6692251E+01  2.4807262E+01
 1.6703751E+01  2.4826956E+01
 1.6715250E+01  2.4794571E+01
 1.6726751E+01  2.4751835E+01
 1.6738251E+01  2.4725039E+01
 1.6749750E+01  2.4749193E+01
 1.6761251E+01  2.4740107E+01
 1.6772751E+01  2.4763088E+01
 1.6784250E+01  2.4735182E+01
 1.6795752E+01  2.4706512E+01
 1.6807251E+01  2.4663239E+01
 1.6818750E+01  2.4666315E+01
 1.6830252E+01  2.4693022E+01
 1.6841751E+01  2.4728859E+01
 1.6853251E+01  2.4766743E+01
 1.6864750E+01  2.4811865E+01
 1.6876251E+01  2.4787502E+01
 1.6887751E+01  2.4740871E+01
 1.6899250E+01  2.4639023E+01
 1.6910751E+01  2.4593342E+01
 1.6922251E+01  2.4545881E+01
 1.6933750E+01  2.4521448E+01
 1.6945251E+01  2.4494930E+01
 1.6956751E+01  2.4471653E+01
 1.6968250E+01  2.4453470E+01
 1.6979752E+01  2.4484135E+01
 1.6991251E+01  2.4510063E+01
 1.7002750E+01  2.4537611E+01
 1.7014252E+01  2.4581184E+01
 1.7025751E+01  2.4591391E+01
 1.7037251E+01  2.4576147E+01
 1.7048750E+01  2.4516815E+01
 1.7060251E+01  2.4468439E+01
 1.7071751E+01  2.4426794E+01
 1.7083250E+01  2.4404037E+01
 1.7094751E+01  2.4424578E+01
 1.7106251E+01  2.4424028E+01
 1.7117750E+01  2.4402096E+01
 1.7129251E+01  2.4378542E+01
 1.7140751E+01  2.4459681E+01
 1.7152250E+01  2.4485069E+01
 1.7163752E+01  2.4472891E+01
 1.7175251E+01  2.4426497E+01
 1.7186750E+01  2.4428129E+01
 1.7198252E+01  2.4477394E+01
 1.7209751E+01  2.4400055E+01
 1.7221251E+01  2.4365271E+01
 1.7232750E+01  2.4270874E+01
 1.7244251E+01  2.4269712E+01
 1.7255751E+01  2.4199244E+01
 1.7267250E+01  2.4178188E+01
 1.7278751E+01  2.4180851E+01
 1.7290251E+01  2.4248522E+01
 1.7301750E+01  2.4306885E+01
 1.7313251E+01  2.4296431E+01
 1.7324751E+01  2.4313807E+01
 1.7336250E+01  2.4278769E+01
 1.7347752E+01  2.4226444E+01
 1.7359251E+01  2.4173273E+01
 1.7370750E+01  2.4190001E+01
 1.7382252E+01  2.4200659E+01
 1.7393751E+01  2.4250702E+01
 1.7405251E+01  2.4220892E+01
 1.7416750E+01  2.4247486E+01
 1.7428251E+01  2.4316193E+01
 1.7439751E+01  2.4358931E+01
 1.7451250E+01  2.4396616E+01
 1.7462751E+01  2.4468035E+01
 1.7474251E+01  2.4527840E+01
 1.7485750E+01  2.4544529E+01
 1.7497252E+01  2.4480215E+01
 1.7508751E+01  2.4395523E+01
 1.7520250E+01  2.4303783E+01
 1.7531752E+01  2.4311121E+01
 1.7543251E+01  2.4364355E+01
 1.7554750E+01  2.4349607E+01
 1.7566252E+01  2.4294792E+01
 1.7577751E+01  2.4224909E+01
 1.7589251E+01  2.4148746E+01
 1.7600750E+01  2.4101402E+01
 1.7612251E+01  2.4086107E+01
 1.7623751E+01  2.4074409E+01
 1.7635250E+01  2.4006020E+01
 1.7646751E+01  2.3967264E+01
 1.7658251E+01  2.3939598E+01
 1.7669750E+01  2.3960413E+01
 1.7681252E+01  2.3934702E+01
 1.7692751E+01  2.3951424E+01
 1.7704250E+01  2.3937538E+01
 1.7715752E+01  2.3963755E+01
 1.7727251E+01  2.3958149E+01
 1.7738750E+01  2.3947023E+01
 1.7750252E+01  2.3953438E+01
 1.7761751E+01  2.3916016E+01
 1.7773251E+01  2.3897757E+01
 1.7784750E+01  2.3877552E+01
 1.7796251E+01  2.3965595E+01
 1.7807751E+01  2.3954670E+01
 1.7819250E+01  2.3969376E+01
 1.7830751E+01  2.3917273E+01
 1.7842251E+01  2.3967619E+01
 1.7853750E+01  2.3959806E+01
 1.7865252E+01  2.3964977E+01
 1.7876751E+01  2.3932535E+01
 1.7888250E+01  2.3903717E+01
 1.7899752E+01  2.3914961E+01
 1.7911251E+01  2.3950010E+01
 1.7922750E+01  2.3968157E+01
 1.7934252E+01  2.3973219E+01
 1.7945751E+01  2.3975941E+01
 1.7957251E+01  2.3998535E+01
 1.7968750E+01  2.4026979E+01
 1.7980251E+01  2.4131229E+01
 1.7991751E+01  2.4273113E+01
 1.8003250E+01  2.4427229E+01
 1.8014751E+01  2.4485975E+01
 1.8026251E+01  2.4521906E+01
 1.8037750E+01  2.4589876E+01
 1.8049252E+01  2.4684372E+01
 1.8060751E+01  2.4868210E+01
 1.8072250E+01  2.5048834E+01
 1.8083752E+01  2.5271738E+01
 1.8095251E+01  2.5345959E+01
 1.8106750E+01  2.5444553E+01
 1.8118252E+01  2.5415443E+01
 1.8129751E+01  2.5308680E+01
 1.8141251E+01  2.5031898E+01
 1.8152750E+01  2.4790424E+01
 1.8164251E+01  2.4576059E+01
 1.8175751E+01  2.4447044E+01
 1.8187250E+01  2.4263836E+01
 1.8198751E+01  2.4190765E+01
 1.8210251E+01  2.4107325E+01
 1.8221750E+01  2.4083261E+01
 1.8233252E+01  2.3990442E+01
 1.8244751E+01  2.3950705E+01
 1.8256250E+01  2.3904745E+01
 1.8267752E+01  2.3883284E+01
 1.8279251E+01  2.3890654E+01
 1.8290751E+01  2.3937067E+01
 1.8302252E+01  2.3941444E+01
 1.8313751E+01  2.3918413E+01
 1.8325251E+01  2.3948196E+01
 1.8336750E+01  2.3968651E+01
 1.8348251E+01  2.4010429E+01
 1.8359751E+01  2.4010115E+01
 1.8371250E+01  2.4000647E+01
 1.8382751E+01  2.3947104E+01
 1.8394251E+01  2.3960964E+01
 1.8405750E+01  2.3955198E+01
 1.8417252E+01  2.3968483E+01
 1.8428751E+01  2.3875132E+01
 1.8440250E+01  2.3820728E+01
 1.8451752E+01  2.3711864E+01
 1.8463251E+01  2.3749882E+01
 1.8474751E+01  2.3776041E+01
 1.8486252E+01  2.3824213E+01
 1.8497751E+01  2.3871347E+01
 1.8509251E+01  2.3857742E+01
 1.8520750E+01  2.3870255E+01
 1.8532251E+01  2.3808716E+01
 1.8543751E+01  2.3807890E+01
 1.8555250E+01  2.3740252E+01
 1.8566751E+01  2.3699438E+01
 1.8578251E+01  2.3678223E+01
 1.8589750E+01  2.3698654E+01
 1.8601252E+01  2.3733725E+01
 1.8612751E+01  2.3710669E+01
 1.8624250E+01  2.3685129E+01
 1.8635752E+01  2.3706188E+01
 1.8647251E+01  2.3685024E+01
 1.8658751E+01  2.3698069E+01
 1.8670252E+01  2.3678020E+01
 1.8681751E+01  2.3755772E+01
 1.8693251E+01  2.3788219E+01
 1.8704750E+01  2.3795715E+01
 1.8716251E+01  2.3765549E+01
 1.8727751E+01  2.3776121E+01
 1.8739250E+01  2.3759718E+01
 1.8750751E+01  2.3763052E+01
 1.8762251E+01  2.3736710E+01
 1.8773750E+01  2.3736315E+01
 1.8785252E+01  2.3729300E+01
 1.8796751E+01  2.3724848E+01
 1.8808250E+01  2.3693886E+01
 1.8819752E+01  2.3685511E+01
 1.8831251E+01  2.3710762E+01
 1.8842751E+01  2.3713566E+01
 1.8854252E+01  2.3699816E+01
 1.8865751E+01  2.3683670E+01
 1.8877251E+01  2.3726709E+01
 1.8888750E+01  2.3750443E+01
 1.8900251E+01  2.3782938E+01
 1.8911751E+01  2.3786053E+01
 1.8923250E+01  2.3860954E+01
 1.8934752E+01  2.3915688E+01
 1.8946251E+01  2.3954395E+01
 1.8957750E+01  2.3888510E+01
 1.8969252E+01  2.3802721E+01
 1.8980751E+01  2.3728699E+01
 1.8992250E+01  2.3718801E+01
 1.9003752E+01  2.3741629E+01
 1.9015251E+01  2.3760195E+01
 1.9026751E+01  2.3748247E+01
 1.9038252E+01  2.3742178E+01
 1.9049751E+01  2.3725067E+01
 1.9061251E+01  2.3771540E+01
 1.9072750E+01  2.3814943E+01
 1.9084251E+01  2.3820589E+01
 1.9095751E+01  2.3868515E+01
 1.9107250E+01  2.3803539E+01
 1.9118752E+01  2.3755289E+01
 1.9130251E+01  2.3703896E+01
 1.9141750E+01  2.3729868E+01
 1.9153252E+01  2.3783201E+01
 1.9164751E+01  2.3783268E+01
 1.9176250E+01  2.3856657E+01
 1.9187752E+01  2.3848053E+01
 1.9199251E+01  2.3837355E+01
 1.9210751E+01  2.3789625E+01
 1.9222252E+01  2.3727554E+01
 1.9233751E+01  2.3695732E+01
 1.9245251E+01  2.3721905E+01
 1.9256750E+01  2.3833279E+01
 1.9268251E+01  2.3891685E+01
 1.9279751E+01  2.3899763E+01
 1.9291250E+01  2.3871349E+01
 1.9302752E+01  2.3902668E+01
 1.9314251E+01  2.3982264E+01
 1.9325750E+01  2.4040840E+01
 1.9337252E+01  2.4134233E+01
 1.9348751E+01  2.4079906E+01
 1.9360250E+01  2.4071800E+01
 1.9371752E+01  2.3962601E+01
 1.9383251E+01  2.3929626E+01
 1.9394751E+01  2.3926668E+01
 1.9406250E+01  2.3930101E+01
 1.9417751E+01  2.3924578E+01
 1.9429251E+01  2.3913927E+01
 1.9440750E+01  2.3938906E+01
 1.9452251E+01  2.3939737E+01
 1.9463751E+01  2.3925835E+01
 1.9475250E+01  2.3898279E+01
 1.9486752E+01  2.3884829E+01
 1.9498251E+01  2.3859158E+01
 1.9509750E+01  2.3875303E+01
 1.9521252E+01  2.3891008E+01
 1.9532751E+01  2.3935509E+01
 1.9544250E+01  2.4004105E+01
 1.9555752E+01  2.4031458E+01
 1.9567251E+01  2.4082331E+01
 1.9578751E+01  2.4102798E+01
 1.9590250E+01  2.4149780E+01
 1.9601751E+01  2.4215332E+01
 1.9613251E+01  2.4297686E+01
 1.9624750E+01  2.4471930E+01
 1.9636251E+01  2.4623819E+01
 1.9647751E+01  2.4890423E+01
 1.9659250E+01  2.5426495E+01
 1.9670752E+01  2.5705509E+01
 1.9682251E+01  2.6449902E+01
 1.9693750E+01  2.6830412E+01
 1.9705252E+01  2.7127298E+01
 1.9716751E+01  2.6827444E+01
 1.9728251E+01  2.6687342E+01
 1.9739752E+01  2.6448750E+01
 1.9751251E+01  2.6063156E+01
 1.9762751E+01  2.5800034E+01
 1.9774250E+01  2.5540178E+01
 1.9785751E+01  2.5398695E+01
 1.9797251E+01  2.5451653E+01
 1.9808750E+01  2.5819235E+01
 1.9820251E+01  2.6112066E+01
 1.9831751E+01  2.6797447E+01
 1.9843250E+01  2.7183239E+01
 1.9854752E+01  2.7340176E+01
 1.9866251E+01  2.7096127E+01
 1.9877750E+01  2.6650387E+01
 1.9889252E+01  2.6172476E+01
 1.9900751E+01  2.5560631E+01
 1.9912251E+01  2.5184027E+01
 1.9923752E+01  2.4801022E+01
 1.9935251E+01  2.4540066E+01
 1.9946751E+01  2.4421894E+01
 1.9958250E+01  2.4294292E+01
 1.9969751E+01  2.4233025E+01
 1.9981251E+01  2.4144888E+01
 1.9992750E+01  2.4115620E+01
 2.0004251E+01  2.4112688E+01
 2.0015751E+01  2.4087418E+01
 2.0027250E+01  2.4077869E+01
 2.0038752E+01  2.4042183E+01
 2.0050251E+01  2.4019487E+01
 2.0061750E+01  2.3938845E+01
 2.0073252E+01  2.3893240E+01
 2.0084751E+01  2.3903059E+01
 2.0096251E+01  2.3967915E+01
 2.0107752E+01  2.3992172E+01
 2.0119251E+01  2.4022142E+01
 2.0130751E+01  2.4022902E+01
 2.0142250E+01  2.4038977E+01
 2.0153751E+01  2.4033562E+01
 2.0165251E+01  2.4056345E+01
 2.0176750E+01  2.4054958E+01
 2.0188251E+01  2.3986540E+01
 2.0199751E+01  2.4000372E+01
 2.0211250E+01  2.4012346E+01
 2.0222752E+01  2.4082603E+01
 2.0234251E+01  2.4118927E+01
 2.0245750E+01  2.4090473E+01
 2.0257252E+01  2.4004292E+01
 2.0268751E+01  2.3929277E+01
 2.0280251E+01  2.3936790E+01
 2.0291752E+01  2.3966640E+01
 2.0303251E+01  2.3940737E+01
 2.0314751E+01  2.3907820E+01
 2.0326250E+01  2.3912796E+01
 2.0337751E+01  2.3926336E+01
 2.0349251E+01  2.3948170E+01
 2.0360750E+01  2.3936375E+01
 2.0372252E+01  2.3966345E+01
 2.0383751E+01  2.3957485E+01
 2.0395250E+01  2.3978289E+01
 2.0406752E+01  2.3981482E+01
 2.0418251E+01  2.3998922E+01
 2.0429750E+01  2.4022020E+01
 2.0441252E+01  2.4022383E+01
 2.0452751E+01  2.4056425E+01
 2.0464251E+01  2.4043341E+01
 2.0475752E+01  2.4011875E+01
 2.0487251E+01  2.3976650E+01
 2.0498751E+01  2.3955297E+01
 2.0510250E+01  2.3943268E+01
 2.0521751E+01  2.3893570E+01
 2.0533251E+01  2.3871273E+01
 2.0544750E+01  2.3886105E+01
 2.0556252E+01  2.4000528E+01
 2.0567751E+01  2.4077488E+01
 2.0579250E+01  2.4096125E+01
 2.0590752E+01  2.4088614E+01
 2.0602251E+01  2.4127895E+01
 2.0613750E+01  2.4151646E+01
 2.0625252E+01  2.4165781E+01
 2.0636751E+01  2.4190475E+01
 2.0648251E+01  2.4189514E+01
 2.0659752E+01  2.4221628E+01
 2.0671251E+01  2.4282715E+01
 2.0682751E+01  2.4384001E+01
 2.0694250E+01  2.4545383E+01
 2.0705751E+01  2.4757601E+01
 2.0717251E+01  2.5070864E+01
 2.0728750E+01  2.5380013E+01
 2.0740252E+01  2.5701757E+01
 2.0751751E+01  2.5949366E+01
 2.0763250E+01  2.6121145E+01
 2.0774752E+01  2.5990143E+01
 2.0786251E+01  2.5722240E+01
 2.0797750E+01  2.5355204E+01
 2.0809252E+01  2.5088282E+01
 2.0820751E+01  2.4824438E+01
 2.0832251E+01  2.4617514E+01
 2.0843752E+01  2.4453640E+01
 2.0855251E+01  2.4308468E+01
 2.0866751E+01  2.4184107E+01
 2.0878250E+01  2.4153744E+01
 2.0889751E+01  2.4194592E+01
 2.0901251E+01  2.4226391E+01
 2.0912750E+01  2.4215218E+01
 2.0924252E+01  2.4219282E+01
 2.0935751E+01  2.4205076E+01
 2.0947250E+01  2.4163073E+01
 2.0958752E+01  2.4158558E+01
 2.0970251E+01  2.4185467E+01
 2.0981750E+01  2.4184605E+01
 2.0993252E+01  2.4146784E+01
 2.1004751E+01  2.4112045E+01
 2.1016251E+01  2.4081482E+01
 2.1027752E+01  2.4063623E+01
 2.1039251E+01  2.4102919E+01
 2.1050751E+01  2.4102245E+01
 2.1062250E+01  2.4105902E+01
 2.1073751E+01  2.4123014E+01
 2.1085251E+01  2.4121712E+01
 2.1096750E+01  2.4101208E+01
 2.1108252E+01  2.4082714E+01
 2.1119751E+01  2.4117832E+01
 2.1131250E+01  2.4120646E+01
 2.1142752E+01  2.4091345E+01
 2.1154251E+01  2.4043081E+01
 2.1165751E+01  2.4072697E+01
 2.1177252E+01  2.4079592E+01
 2.1188751E+01  2.4086428E+01
 2.1200251E+01  2.4100727E+01
 2.1211752E+01  2.4118120E+01
 2.1223251E+01  2.4117104E+01
 2.1234751E+01  2.4059416E+01
 2.1246250E+01  2.4085335E+01
 2.1257751E+01  2.4108335E+01
 2.1269251E+01  2.4156412E+01
 2.1280750E+01  2.4158611E+01
 2.1292252E+01  2.4154461E+01
 2.1303751E+01  2.4122608E+01
 2.1315250E+01  2.4029463E+01
 2.1326752E+01  2.3983904E+01
 2.1338251E+01  2.3999016E+01
 2.1349751E+01  2.4076923E+01
 2.1361252E+01  2.4125536E+01
 2.1372751E+01  2.4141560E+01
 2.1384251E+01  2.4119520E+01
 2.1395752E+01  2.4132530E+01
 2.1407251E+01  2.4125696E+01
 2.1418751E+01  2.4123127E+01
 2.1430250E+01  2.4120625E+01
 2.1441751E+01  2.4092947E+01
 2.1453251E+01  2.4109377E+01
 2.1464750E+01  2.4110897E+01
 2.1476252E+01  2.4118061E+01
 2.1487751E+01  2.4160858E+01
 2.1499250E+01  2.4256020E+01
 2.1510752E+01  2.4309059E+01
 2.1522251E+01  2.4354321E+01
 2.1533751E+01  2.4344389E+01
 2.1545252E+01  2.4274117E+01
 2.1556751E+01  2.4206274E+01
 2.1568251E+01  2.4166765E+01
 2.1579752E+01  2.4190493E+01
 2.1591251E+01  2.4233828E+01
 2.1602751E+01  2.4284397E+01
 2.1614250E+01  2.4329582E+01
 2.1625751E+01  2.4302094E+01
 2.1637251E+01  2.4276541E+01
 2.1648750E+01  2.4239939E+01
 2.1660252E+01  2.4241570E+01
 2.1671751E+01  2.4219933E+01
 2.1683250E+01  2.4217674E+01
 2.1694752E+01  2.4152273E+01
 2.1706251E+01  2.4135691E+01
 2.1717751E+01  2.4155619E+01
 2.1729252E+01  2.4289112E+01
 2.1740751E+01  2.4358622E+01
 2.1752251E+01  2.4368555E+01
 2.1763752E+01  2.4326550E+01
 2.1775251E+01  2.4376471E+01
 2.1786751E+01  2.4353556E+01
 2.1798250E+01  2.4309210E+01
 2.1809752E+01  2.4269115E+01
 2.1821251E+01  2.4315092E+01
 2.1832750E+01  2.4315718E+01
 2.1844252E+01  2.4324923E+01
 2.1855751E+01  2.4321058E+01
 2.1867250E+01  2.4402014E+01
 2.1878752E+01  2.4468704E+01
 2.1890251E+01  2.4471235E+01
 2.1901751E+01  2.4440079E+01
 2.1913252E+01  2.4451187E+01
 2.1924751E+01  2.4446314E+01
 2.1936251E+01  2.4453009E+01
 2.1947752E+01  2.4478792E+01
 2.1959251E+01  2.4531105E+01
 2.1970751E+01  2.4523077E+01
 2.1982250E+01  2.4483486E+01
 2.1993752E+01  2.4444939E+01
 2.2005251E+01  2.4440498E+01
 2.2016750E+01  2.4445887E+01
 2.2028252E+01  2.4483610E+01
 2.2039751E+01  2.4485384E+01
 2.2051250E+01  2.4501831E+01
 2.2062752E+01  2.4500265E+01
 2.2074251E+01  2.4525043E+01
 2.2085751E+01  2.4522852E+01
 2.2097252E+01  2.4492571E+01
 2.2108751E+01  2.4505466E+01
 2.2120251E+01  2.4517664E+01
 2.2131752E+01  2.4501940E+01
 2.2143251E+01  2.4516834E+01
 2.2154751E+01  2.4520393E+01
 2.2166250E+01  2.4555544E+01
 2.2177752E+01  2.4607187E+01
 2.2189251E+01  2.4608006E+01
 2.2200750E+01  2.4662180E+01
 2.2212252E+01  2.4688215E+01
 2.2223751E+01  2.4707737E+01
 2.2235250E+01  2.4675594E+01
 2.2246752E+01  2.4665302E+01
 2.2258251E+01  2.4627436E+01
 2.2269751E+01  2.4575636E+01
 2.2281252E+01  2.4609003E+01
 2.2292751E+01  2.4661211E+01
 2.2304251E+01  2.4719618E+01
 2.2315752E+01  2.4746347E+01
 2.2327251E+01  2.4726820E+01
 2.2338751E+01  2.4719563E+01
 2.2350250E+01  2.4687246E+01
 2.2361752E+01  2.4701389E+01
 2.2373251E+01  2.4727896E+01
 2.2384750E+01  2.4711454E+01
 2.2396252E+01  2.4680006E+01
 2.2407751E+01  2.4682274E+01
 2.2419250E+01  2.4691957E+01
 2.2430752E+01  2.4696331E+01
 2.2442251E+01  2.4719255E+01
 2.2453751E+01  2.4791462E+01
 2.2465252E+01  2.4784109E+01
 2.2476751E+01  2.4765787E+01
 2.2488251E+01  2.4748817E+01
 2.2499752E+01  2.4764460E+01
 2.2511251E+01  2.4813023E+01
 2.2522751E+01  2.4913239E+01
 2.2534250E+01  2.4966799E+01
 2.2545752E+01  2.5026896E+01
 2.2557251E+01  2.5041891E+01
 2.2568750E+01  2.5047636E+01
 2.2580252E+01  2.4984550E+01
 2.2591751E+01  2.4980619E+01
 2.2603251E+01  2.5029943E+01
 2.2614752E+01  2.5069456E+01
 2.2626251E+01  2.5080095E+01
 2.2637751E+01  2.5044926E+01
 2.2649252E+01  2.5046305E+01
 2.2660751E+01  2.5082542E+01
 2.2672251E+01  2.5145346E+01
 2.2683752E+01  2.5216372E+01
 2.2695251E+01  2.5330784E+01
 2.2706751E+01  2.5366611E+01
 2.2718250E+01  2.5399990E+01
 2.2729752E+01  2.5407530E+01
 2.2741251E+01  2.5461102E+01
 2.2752750E+01  2.5496218E+01
 2.2764252E+01  2.5537794E+01
 2.2775751E+01  2.5579958E+01
 2.2787251E+01  2.5569750E+01
 2.2798752E+01  2.5571280E+01
 2.2810251E+01  2.5637695E+01
 2.2821751E+01  2.5678326E+01
 2.2833252E+01  2.5738802E+01
 2.2844751E+01  2.5720480E+01
 2.2856251E+01  2.5728165E+01
 2.2867750E+01  2.5741068E+01
 2.2879251E+01  2.5815662E+01
 2.2890751E+01  2.5898716E+01
 2.2902250E+01  2.5917715E+01
 2.2913752E+01  2.6022848E+01
 2.2925251E+01  2.6110554E+01
 2.2936750E+01  2.6183578E+01
 2.2948252E+01  2.6229052E+01
 2.2959751E+01  2.6218596E+01
 2.2971251E+01  2.6279711E+01
 2.2982752E+01  2.6351072E+01
 2.2994251E+01  2.6437742E+01
