F:\20151113_APS_34IDE\\Brian\Particle1\OCV\Data_0113.tif
2-Theta Angle (Degrees)
Intensity
       2000
 5.7500005E-03  0.0000000E+00
 1.7250001E-02  0.0000000E+00
 2.8750001E-02  0.0000000E+00
 4.0250003E-02  0.0000000E+00
 5.1750004E-02  0.0000000E+00
 6.3250005E-02  0.0000000E+00
 7.4750006E-02  0.0000000E+00
 8.6250007E-02  0.0000000E+00
 9.7750008E-02  0.0000000E+00
 1.0925001E-01  0.0000000E+00
 1.2075000E-01  0.0000000E+00
 1.3225001E-01  0.0000000E+00
 1.4375001E-01  0.0000000E+00
 1.5525001E-01  0.0000000E+00
 1.6675001E-01  0.0000000E+00
 1.7825001E-01  0.0000000E+00
 1.8975002E-01  0.0000000E+00
 2.0125002E-01  0.0000000E+00
 2.1275002E-01  0.0000000E+00
 2.2425000E-01  0.0000000E+00
 2.3575000E-01  0.0000000E+00
 2.4725001E-01  0.0000000E+00
 2.5875002E-01  0.0000000E+00
 2.7025002E-01  0.0000000E+00
 2.8175002E-01  0.0000000E+00
 2.9325002E-01  0.0000000E+00
 3.0475003E-01  0.0000000E+00
 3.1625003E-01  0.0000000E+00
 3.2775003E-01  0.0000000E+00
 3.3925003E-01  0.0000000E+00
 3.5075003E-01  0.0000000E+00
 3.6225003E-01  0.0000000E+00
 3.7375003E-01  0.0000000E+00
 3.8525003E-01  0.0000000E+00
 3.9675003E-01  0.0000000E+00
 4.0825003E-01  0.0000000E+00
 4.1975003E-01  0.0000000E+00
 4.3125004E-01  0.0000000E+00
 4.4275001E-01  0.0000000E+00
 4.5425001E-01  0.0000000E+00
 4.6575001E-01  0.0000000E+00
 4.7725001E-01  0.0000000E+00
 4.8875001E-01  0.0000000E+00
 5.0025004E-01  0.0000000E+00
 5.1175004E-01  0.0000000E+00
 5.2325004E-01  0.0000000E+00
 5.3475004E-01  0.0000000E+00
 5.4625005E-01  0.0000000E+00
 5.5775005E-01  0.0000000E+00
 5.6925005E-01  0.0000000E+00
 5.8075005E-01  0.0000000E+00
 5.9225005E-01  0.0000000E+00
 6.0375005E-01  0.0000000E+00
 6.1525005E-01  0.0000000E+00
 6.2675005E-01  0.0000000E+00
 6.3825005E-01  0.0000000E+00
 6.4975005E-01  0.0000000E+00
 6.6125005E-01  0.0000000E+00
 6.7275006E-01  0.0000000E+00
 6.8425006E-01  0.0000000E+00
 6.9575006E-01  0.0000000E+00
 7.0725006E-01  0.0000000E+00
 7.1875006E-01  0.0000000E+00
 7.3025006E-01  0.0000000E+00
 7.4175006E-01  0.0000000E+00
 7.5325006E-01  0.0000000E+00
 7.6475006E-01  0.0000000E+00
 7.7625006E-01  0.0000000E+00
 7.8775007E-01  0.0000000E+00
 7.9925007E-01  0.0000000E+00
 8.1075007E-01  0.0000000E+00
 8.2225007E-01  0.0000000E+00
 8.3375007E-01  0.0000000E+00
 8.4525007E-01  0.0000000E+00
 8.5675007E-01  0.0000000E+00
 8.6825007E-01  0.0000000E+00
 8.7975001E-01  0.0000000E+00
 8.9125001E-01  0.0000000E+00
 9.0275002E-01  0.0000000E+00
 9.1425002E-01  0.0000000E+00
 9.2575002E-01  0.0000000E+00
 9.3725002E-01  0.0000000E+00
 9.4875002E-01  0.0000000E+00
 9.6025002E-01  0.0000000E+00
 9.7175002E-01  0.0000000E+00
 9.8325002E-01  0.0000000E+00
 9.9475002E-01  0.0000000E+00
 1.0062500E+00  0.0000000E+00
 1.0177500E+00  0.0000000E+00
 1.0292500E+00  0.0000000E+00
 1.0407500E+00  0.0000000E+00
 1.0522500E+00  0.0000000E+00
 1.0637500E+00  0.0000000E+00
 1.0752500E+00  0.0000000E+00
 1.0867500E+00  0.0000000E+00
 1.0982500E+00  0.0000000E+00
 1.1097500E+00  0.0000000E+00
 1.1212500E+00  0.0000000E+00
 1.1327500E+00  0.0000000E+00
 1.1442500E+00  0.0000000E+00
 1.1557500E+00  0.0000000E+00
 1.1672500E+00  0.0000000E+00
 1.1787500E+00  0.0000000E+00
 1.1902500E+00  0.0000000E+00
 1.2017500E+00  0.0000000E+00
 1.2132500E+00  0.0000000E+00
 1.2247500E+00  0.0000000E+00
 1.2362500E+00  0.0000000E+00
 1.2477500E+00  0.0000000E+00
 1.2592500E+00  0.0000000E+00
 1.2707500E+00  0.0000000E+00
 1.2822500E+00  0.0000000E+00
 1.2937500E+00  0.0000000E+00
 1.3052500E+00  0.0000000E+00
 1.3167500E+00  0.0000000E+00
 1.3282501E+00  0.0000000E+00
 1.3397501E+00  0.0000000E+00
 1.3512501E+00  0.0000000E+00
 1.3627501E+00  0.0000000E+00
 1.3742501E+00  0.0000000E+00
 1.3857501E+00  0.0000000E+00
 1.3972501E+00  0.0000000E+00
 1.4087501E+00  0.0000000E+00
 1.4202501E+00  0.0000000E+00
 1.4317501E+00  0.0000000E+00
 1.4432501E+00  0.0000000E+00
 1.4547501E+00  0.0000000E+00
 1.4662501E+00  0.0000000E+00
 1.4777501E+00  0.0000000E+00
 1.4892501E+00  0.0000000E+00
 1.5007501E+00  0.0000000E+00
 1.5122501E+00  0.0000000E+00
 1.5237501E+00  0.0000000E+00
 1.5352501E+00  0.0000000E+00
 1.5467501E+00  0.0000000E+00
 1.5582501E+00  0.0000000E+00
 1.5697501E+00  0.0000000E+00
 1.5812501E+00  0.0000000E+00
 1.5927501E+00  0.0000000E+00
 1.6042501E+00  0.0000000E+00
 1.6157501E+00  0.0000000E+00
 1.6272501E+00  0.0000000E+00
 1.6387501E+00  0.0000000E+00
 1.6502501E+00  0.0000000E+00
 1.6617501E+00  0.0000000E+00
 1.6732501E+00  0.0000000E+00
 1.6847501E+00  0.0000000E+00
 1.6962501E+00  0.0000000E+00
 1.7077501E+00  0.0000000E+00
 1.7192501E+00  0.0000000E+00
 1.7307501E+00  0.0000000E+00
 1.7422501E+00  0.0000000E+00
 1.7537501E+00  0.0000000E+00
 1.7652501E+00  0.0000000E+00
 1.7767501E+00  0.0000000E+00
 1.7882501E+00  0.0000000E+00
 1.7997501E+00  0.0000000E+00
 1.8112501E+00  0.0000000E+00
 1.8227501E+00  0.0000000E+00
 1.8342501E+00  0.0000000E+00
 1.8457501E+00  0.0000000E+00
 1.8572501E+00  0.0000000E+00
 1.8687501E+00  0.0000000E+00
 1.8802501E+00  0.0000000E+00
 1.8917501E+00  0.0000000E+00
 1.9032501E+00  0.0000000E+00
 1.9147501E+00  0.0000000E+00
 1.9262501E+00  0.0000000E+00
 1.9377501E+00  0.0000000E+00
 1.9492501E+00  0.0000000E+00
 1.9607501E+00  0.0000000E+00
 1.9722501E+00  0.0000000E+00
 1.9837501E+00  0.0000000E+00
 1.9952501E+00  0.0000000E+00
 2.0067501E+00  0.0000000E+00
 2.0182500E+00  0.0000000E+00
 2.0297501E+00  0.0000000E+00
 2.0412500E+00  0.0000000E+00
 2.0527501E+00  0.0000000E+00
 2.0642500E+00  0.0000000E+00
 2.0757501E+00  0.0000000E+00
 2.0872500E+00  0.0000000E+00
 2.0987501E+00  0.0000000E+00
 2.1102500E+00  0.0000000E+00
 2.1217501E+00  0.0000000E+00
 2.1332500E+00  0.0000000E+00
 2.1447501E+00  0.0000000E+00
 2.1562500E+00  0.0000000E+00
 2.1677501E+00  0.0000000E+00
 2.1792500E+00  0.0000000E+00
 2.1907501E+00  0.0000000E+00
 2.2022500E+00  0.0000000E+00
 2.2137501E+00  0.0000000E+00
 2.2252500E+00  0.0000000E+00
 2.2367501E+00  0.0000000E+00
 2.2482500E+00  0.0000000E+00
 2.2597501E+00  0.0000000E+00
 2.2712500E+00  0.0000000E+00
 2.2827501E+00  0.0000000E+00
 2.2942500E+00  0.0000000E+00
 2.3057501E+00  0.0000000E+00
 2.3172500E+00  0.0000000E+00
 2.3287501E+00  0.0000000E+00
 2.3402500E+00  0.0000000E+00
 2.3517501E+00  0.0000000E+00
 2.3632500E+00  0.0000000E+00
 2.3747501E+00  0.0000000E+00
 2.3862500E+00  0.0000000E+00
 2.3977501E+00  0.0000000E+00
 2.4092500E+00  0.0000000E+00
 2.4207501E+00  0.0000000E+00
 2.4322500E+00  0.0000000E+00
 2.4437501E+00  0.0000000E+00
 2.4552500E+00  0.0000000E+00
 2.4667501E+00  0.0000000E+00
 2.4782500E+00  0.0000000E+00
 2.4897501E+00  0.0000000E+00
 2.5012500E+00  0.0000000E+00
 2.5127501E+00  0.0000000E+00
 2.5242500E+00  0.0000000E+00
 2.5357502E+00  0.0000000E+00
 2.5472500E+00  0.0000000E+00
 2.5587502E+00  0.0000000E+00
 2.5702500E+00  0.0000000E+00
 2.5817502E+00  0.0000000E+00
 2.5932500E+00  0.0000000E+00
 2.6047502E+00  0.0000000E+00
 2.6162500E+00  0.0000000E+00
 2.6277502E+00  0.0000000E+00
 2.6392500E+00  0.0000000E+00
 2.6507502E+00  0.0000000E+00
 2.6622500E+00  0.0000000E+00
 2.6737502E+00  0.0000000E+00
 2.6852500E+00  0.0000000E+00
 2.6967502E+00  0.0000000E+00
 2.7082500E+00  0.0000000E+00
 2.7197502E+00  0.0000000E+00
 2.7312500E+00  0.0000000E+00
 2.7427502E+00  0.0000000E+00
 2.7542500E+00  0.0000000E+00
 2.7657502E+00  0.0000000E+00
 2.7772501E+00  0.0000000E+00
 2.7887502E+00  0.0000000E+00
 2.8002501E+00  0.0000000E+00
 2.8117502E+00  0.0000000E+00
 2.8232501E+00  3.2937222E+01
 2.8347502E+00  3.2852509E+01
 2.8462501E+00  3.3117023E+01
 2.8577502E+00  3.3572048E+01
 2.8692501E+00  3.4414963E+01
 2.8807502E+00  3.4722698E+01
 2.8922501E+00  3.5614090E+01
 2.9037502E+00  3.5974148E+01
 2.9152501E+00  3.6794319E+01
 2.9267502E+00  3.6972301E+01
 2.9382501E+00  3.6739605E+01
 2.9497502E+00  3.6037842E+01
 2.9612501E+00  3.5313564E+01
 2.9727502E+00  3.4882542E+01
 2.9842501E+00  3.4673012E+01
 2.9957502E+00  3.4697845E+01
 3.0072501E+00  3.5067635E+01
 3.0187502E+00  3.5464996E+01
 3.0302501E+00  3.5761402E+01
 3.0417502E+00  3.5676651E+01
 3.0532501E+00  3.5622547E+01
 3.0647502E+00  3.5377960E+01
 3.0762501E+00  3.5556908E+01
 3.0877502E+00  3.5770615E+01
 3.0992501E+00  3.6065575E+01
 3.1107502E+00  3.6161324E+01
 3.1222501E+00  3.6230354E+01
 3.1337502E+00  3.6439800E+01
 3.1452501E+00  3.6751400E+01
 3.1567502E+00  3.6667423E+01
 3.1682501E+00  3.6342747E+01
 3.1797502E+00  3.5853310E+01
 3.1912501E+00  3.5476673E+01
 3.2027502E+00  3.5403942E+01
 3.2142501E+00  3.5209671E+01
 3.2257502E+00  3.4909565E+01
 3.2372501E+00  3.4519749E+01
 3.2487502E+00  3.4218124E+01
 3.2602501E+00  3.4092026E+01
 3.2717502E+00  3.3944363E+01
 3.2832501E+00  3.4011902E+01
 3.2947502E+00  3.3803539E+01
 3.3062501E+00  3.4083698E+01
 3.3177502E+00  3.4201843E+01
 3.3292501E+00  3.4437313E+01
 3.3407502E+00  3.4383896E+01
 3.3522501E+00  3.4282425E+01
 3.3637502E+00  3.4288345E+01
 3.3752501E+00  3.4307880E+01
 3.3867502E+00  3.4056721E+01
 3.3982501E+00  3.3834290E+01
 3.4097502E+00  3.4165718E+01
 3.4212501E+00  3.4191723E+01
 3.4327502E+00  3.4189415E+01
 3.4442501E+00  3.3944054E+01
 3.4557502E+00  3.3765354E+01
 3.4672501E+00  3.3660553E+01
 3.4787502E+00  3.3612160E+01
 3.4902501E+00  3.3597363E+01
 3.5017502E+00  3.3700176E+01
 3.5132501E+00  3.3505829E+01
 3.5247502E+00  3.3447731E+01
 3.5362501E+00  3.3395126E+01
 3.5477502E+00  3.3379700E+01
 3.5592501E+00  3.3379616E+01
 3.5707502E+00  3.3222424E+01
 3.5822501E+00  3.3105778E+01
 3.5937502E+00  3.2878517E+01
 3.6052501E+00  3.2903454E+01
 3.6167502E+00  3.2954147E+01
 3.6282501E+00  3.2922825E+01
 3.6397502E+00  3.2803165E+01
 3.6512501E+00  3.2880386E+01
 3.6627502E+00  3.2965088E+01
 3.6742501E+00  3.3002586E+01
 3.6857502E+00  3.2966885E+01
 3.6972501E+00  3.2817394E+01
 3.7087502E+00  3.2959873E+01
 3.7202501E+00  3.2767464E+01
 3.7317502E+00  3.2800068E+01
 3.7432501E+00  3.2719238E+01
 3.7547503E+00  3.2728977E+01
 3.7662501E+00  3.2671043E+01
 3.7777503E+00  3.2743004E+01
 3.7892501E+00  3.2697376E+01
 3.8007503E+00  3.2589058E+01
 3.8122501E+00  3.2595116E+01
 3.8237503E+00  3.2643139E+01
 3.8352501E+00  3.2498695E+01
 3.8467503E+00  3.2301380E+01
 3.8582501E+00  3.2241138E+01
 3.8697503E+00  3.2448795E+01
 3.8812501E+00  3.2697956E+01
 3.8927503E+00  3.2664089E+01
 3.9042501E+00  3.2527592E+01
 3.9157503E+00  3.2361286E+01
 3.9272501E+00  3.2253357E+01
 3.9387503E+00  3.2380554E+01
 3.9502501E+00  3.2440453E+01
 3.9617503E+00  3.2461033E+01
 3.9732502E+00  3.2461071E+01
 3.9847503E+00  3.2286568E+01
 3.9962502E+00  3.2209164E+01
 4.0077500E+00  3.2076397E+01
 4.0192504E+00  3.1966980E+01
 4.0307503E+00  3.2045322E+01
 4.0422502E+00  3.1925119E+01
 4.0537500E+00  3.2064796E+01
 4.0652504E+00  3.2175396E+01
 4.0767503E+00  3.2216450E+01
 4.0882502E+00  3.2418438E+01
 4.0997500E+00  3.2462055E+01
 4.1112504E+00  3.2692760E+01
 4.1227503E+00  3.2758770E+01
 4.1342502E+00  3.2700180E+01
 4.1457500E+00  3.2580212E+01
 4.1572504E+00  3.2356171E+01
 4.1687503E+00  3.2170540E+01
 4.1802502E+00  3.1997593E+01
 4.1917500E+00  3.2054794E+01
 4.2032504E+00  3.2040577E+01
 4.2147503E+00  3.2193607E+01
 4.2262502E+00  3.2267990E+01
 4.2377501E+00  3.2146801E+01
 4.2492504E+00  3.1991426E+01
 4.2607503E+00  3.1727285E+01
 4.2722502E+00  3.1727745E+01
 4.2837501E+00  3.1810472E+01
 4.2952504E+00  3.1769606E+01
 4.3067503E+00  3.1820763E+01
 4.3182502E+00  3.1777327E+01
 4.3297501E+00  3.1940729E+01
 4.3412504E+00  3.2012840E+01
 4.3527503E+00  3.1976400E+01
 4.3642502E+00  3.1951984E+01
 4.3757501E+00  3.1908325E+01
 4.3872504E+00  3.1978699E+01
 4.3987503E+00  3.2046696E+01
 4.4102502E+00  3.2104652E+01
 4.4217501E+00  3.2133167E+01
 4.4332504E+00  3.2103291E+01
 4.4447503E+00  3.2217606E+01
 4.4562502E+00  3.2165062E+01
 4.4677501E+00  3.2305737E+01
 4.4792504E+00  3.2396435E+01
 4.4907503E+00  3.2395340E+01
 4.5022502E+00  3.2408791E+01
 4.5137501E+00  3.2192032E+01
 4.5252504E+00  3.2228859E+01
 4.5367503E+00  3.2193317E+01
 4.5482502E+00  3.2271099E+01
 4.5597501E+00  3.2193459E+01
 4.5712504E+00  3.2267956E+01
 4.5827503E+00  3.2155907E+01
 4.5942502E+00  3.2282021E+01
 4.6057501E+00  3.2258015E+01
 4.6172504E+00  3.2283421E+01
 4.6287503E+00  3.2249393E+01
 4.6402502E+00  3.2160107E+01
 4.6517501E+00  3.2145527E+01
 4.6632504E+00  3.2195923E+01
 4.6747503E+00  3.2315594E+01
 4.6862502E+00  3.2513058E+01
 4.6977501E+00  3.2711720E+01
 4.7092505E+00  3.2959480E+01
 4.7207503E+00  3.3138371E+01
 4.7322502E+00  3.3245354E+01
 4.7437501E+00  3.3215504E+01
 4.7552505E+00  3.3040623E+01
 4.7667503E+00  3.2834969E+01
 4.7782502E+00  3.2589981E+01
 4.7897501E+00  3.2425144E+01
 4.8012505E+00  3.2182953E+01
 4.8127503E+00  3.2056618E+01
 4.8242502E+00  3.2030102E+01
 4.8357501E+00  3.2074463E+01
 4.8472505E+00  3.2112892E+01
 4.8587503E+00  3.2310875E+01
 4.8702502E+00  3.2357620E+01
 4.8817501E+00  3.2476269E+01
 4.8932505E+00  3.2459011E+01
 4.9047503E+00  3.2509991E+01
 4.9162502E+00  3.2656109E+01
 4.9277501E+00  3.2651890E+01
 4.9392505E+00  3.2656166E+01
 4.9507504E+00  3.2579285E+01
 4.9622502E+00  3.2528072E+01
 4.9737501E+00  3.2615288E+01
 4.9852505E+00  3.2771660E+01
 4.9967504E+00  3.2792023E+01
 5.0082502E+00  3.2781414E+01
 5.0197501E+00  3.2657631E+01
 5.0312505E+00  3.2707954E+01
 5.0427504E+00  3.2727013E+01
 5.0542502E+00  3.2844955E+01
 5.0657501E+00  3.2855564E+01
 5.0772505E+00  3.2960304E+01
 5.0887504E+00  3.2934067E+01
 5.1002502E+00  3.3110008E+01
 5.1117501E+00  3.3235115E+01
 5.1232505E+00  3.3370499E+01
 5.1347504E+00  3.3405495E+01
 5.1462502E+00  3.3360626E+01
 5.1577501E+00  3.3313309E+01
 5.1692505E+00  3.3252853E+01
 5.1807504E+00  3.3424690E+01
 5.1922503E+00  3.3565784E+01
 5.2037501E+00  3.3793236E+01
 5.2152505E+00  3.3854855E+01
 5.2267504E+00  3.3905991E+01
 5.2382503E+00  3.3915569E+01
 5.2497501E+00  3.3918854E+01
 5.2612505E+00  3.3901394E+01
 5.2727504E+00  3.3838211E+01
 5.2842503E+00  3.3856628E+01
 5.2957501E+00  3.4037277E+01
 5.3072500E+00  3.4125835E+01
 5.3187504E+00  3.4208061E+01
 5.3302503E+00  3.4041359E+01
 5.3417501E+00  3.4070667E+01
 5.3532500E+00  3.3979897E+01
 5.3647504E+00  3.4142651E+01
 5.3762503E+00  3.4281231E+01
 5.3877501E+00  3.4434185E+01
 5.3992500E+00  3.4495430E+01
 5.4107504E+00  3.4411438E+01
 5.4222503E+00  3.4333752E+01
 5.4337502E+00  3.4177002E+01
 5.4452500E+00  3.4204033E+01
 5.4567504E+00  3.4295856E+01
 5.4682503E+00  3.4403812E+01
 5.4797502E+00  3.4494610E+01
 5.4912500E+00  3.4470970E+01
 5.5027504E+00  3.4514465E+01
 5.5142503E+00  3.4584602E+01
 5.5257502E+00  3.4614731E+01
 5.5372500E+00  3.4648560E+01
 5.5487504E+00  3.4701347E+01
 5.5602503E+00  3.4877846E+01
 5.5717502E+00  3.4946701E+01
 5.5832500E+00  3.4921059E+01
 5.5947504E+00  3.4911610E+01
 5.6062503E+00  3.4881809E+01
 5.6177502E+00  3.4820377E+01
 5.6292500E+00  3.4756523E+01
 5.6407504E+00  3.4738827E+01
 5.6522503E+00  3.4836155E+01
 5.6637502E+00  3.4889080E+01
 5.6752501E+00  3.5053356E+01
 5.6867504E+00  3.5122517E+01
 5.6982503E+00  3.5186897E+01
 5.7097502E+00  3.5138950E+01
 5.7212501E+00  3.5217300E+01
 5.7327504E+00  3.5204380E+01
 5.7442503E+00  3.5260735E+01
 5.7557502E+00  3.5310287E+01
 5.7672501E+00  3.5415215E+01
 5.7787504E+00  3.5526722E+01
 5.7902503E+00  3.5637295E+01
 5.8017502E+00  3.5684483E+01
 5.8132501E+00  3.5754330E+01
 5.8247504E+00  3.5713848E+01
 5.8362503E+00  3.5793530E+01
 5.8477502E+00  3.5980011E+01
 5.8592501E+00  3.6066406E+01
 5.8707504E+00  3.6308357E+01
 5.8822503E+00  3.6539963E+01
 5.8937502E+00  3.6948547E+01
 5.9052501E+00  3.7615582E+01
 5.9167504E+00  3.8478024E+01
 5.9282503E+00  4.0137531E+01
 5.9397502E+00  4.2578220E+01
 5.9512501E+00  4.5064964E+01
 5.9627504E+00  4.8919621E+01
 5.9742503E+00  5.2009472E+01
 5.9857502E+00  5.2996101E+01
 5.9972501E+00  5.3073616E+01
 6.0087504E+00  5.0639122E+01
 6.0202503E+00  4.8026848E+01
 6.0317502E+00  4.3815666E+01
 6.0432501E+00  4.0946075E+01
 6.0547504E+00  3.9208012E+01
 6.0662503E+00  3.8084572E+01
 6.0777502E+00  3.7228100E+01
 6.0892501E+00  3.6935978E+01
 6.1007504E+00  3.6697834E+01
 6.1122503E+00  3.6626217E+01
 6.1237502E+00  3.6551117E+01
 6.1352501E+00  3.6448029E+01
 6.1467505E+00  3.6384926E+01
 6.1582503E+00  3.6517376E+01
 6.1697502E+00  3.6673737E+01
 6.1812501E+00  3.6799526E+01
 6.1927505E+00  3.6818642E+01
 6.2042503E+00  3.6755947E+01
 6.2157502E+00  3.6804962E+01
 6.2272501E+00  3.6836773E+01
 6.2387505E+00  3.6950638E+01
 6.2502503E+00  3.6977638E+01
 6.2617502E+00  3.7084789E+01
 6.2732501E+00  3.7255127E+01
 6.2847505E+00  3.7372402E+01
 6.2962503E+00  3.7386585E+01
 6.3077502E+00  3.7333450E+01
 6.3192501E+00  3.7346409E+01
 6.3307505E+00  3.7390411E+01
 6.3422503E+00  3.7397385E+01
 6.3537502E+00  3.7383381E+01
 6.3652501E+00  3.7410080E+01
 6.3767505E+00  3.7463638E+01
 6.3882504E+00  3.7602123E+01
 6.3997502E+00  3.7710960E+01
 6.4112501E+00  3.7867329E+01
 6.4227505E+00  3.8011456E+01
 6.4342504E+00  3.8149750E+01
 6.4457502E+00  3.8294701E+01
 6.4572501E+00  3.8359215E+01
 6.4687505E+00  3.8486740E+01
 6.4802504E+00  3.8441479E+01
 6.4917502E+00  3.8505341E+01
 6.5032501E+00  3.8574265E+01
 6.5147505E+00  3.8793926E+01
 6.5262504E+00  3.8889950E+01
 6.5377502E+00  3.9008865E+01
 6.5492501E+00  3.9021553E+01
 6.5607505E+00  3.9131157E+01
 6.5722504E+00  3.9095840E+01
 6.5837502E+00  3.9187435E+01
 6.5952501E+00  3.9223251E+01
 6.6067505E+00  3.9394062E+01
 6.6182504E+00  3.9450275E+01
 6.6297503E+00  3.9590519E+01
 6.6412501E+00  3.9634224E+01
 6.6527505E+00  3.9781483E+01
 6.6642504E+00  3.9940529E+01
 6.6757503E+00  4.0007736E+01
 6.6872501E+00  3.9965313E+01
 6.6987505E+00  3.9900806E+01
 6.7102504E+00  4.0034779E+01
 6.7217503E+00  4.0278069E+01
 6.7332501E+00  4.0416153E+01
 6.7447505E+00  4.0540115E+01
 6.7562504E+00  4.0664879E+01
 6.7677503E+00  4.0656261E+01
 6.7792501E+00  4.0748535E+01
 6.7907505E+00  4.0742592E+01
 6.8022504E+00  4.0946175E+01
 6.8137503E+00  4.1018768E+01
 6.8252501E+00  4.1128834E+01
 6.8367505E+00  4.1249149E+01
 6.8482504E+00  4.1350922E+01
 6.8597503E+00  4.1463154E+01
 6.8712502E+00  4.1478519E+01
 6.8827505E+00  4.1490410E+01
 6.8942504E+00  4.1553612E+01
 6.9057503E+00  4.1595440E+01
 6.9172502E+00  4.1694649E+01
 6.9287505E+00  4.1632416E+01
 6.9402504E+00  4.1683567E+01
 6.9517503E+00  4.1620735E+01
 6.9632502E+00  4.1589523E+01
 6.9747505E+00  4.1574940E+01
 6.9862504E+00  4.1703262E+01
 6.9977503E+00  4.1809010E+01
 7.0092502E+00  4.1839291E+01
 7.0207505E+00  4.1846409E+01
 7.0322504E+00  4.1971832E+01
 7.0437503E+00  4.2197247E+01
 7.0552502E+00  4.2403595E+01
 7.0667505E+00  4.2557262E+01
 7.0782504E+00  4.2616817E+01
 7.0897503E+00  4.2589329E+01
 7.1012502E+00  4.2565895E+01
 7.1127505E+00  4.2478138E+01
 7.1242504E+00  4.2555275E+01
 7.1357503E+00  4.2603020E+01
 7.1472502E+00  4.2633015E+01
 7.1587505E+00  4.2669968E+01
 7.1702504E+00  4.2760609E+01
 7.1817503E+00  4.2809296E+01
 7.1932502E+00  4.2869900E+01
 7.2047505E+00  4.2764801E+01
 7.2162504E+00  4.2832172E+01
 7.2277503E+00  4.2835464E+01
 7.2392502E+00  4.2915310E+01
 7.2507505E+00  4.2985008E+01
 7.2622504E+00  4.2945415E+01
 7.2737503E+00  4.2953236E+01
 7.2852502E+00  4.3018593E+01
 7.2967505E+00  4.3120369E+01
 7.3082504E+00  4.3259468E+01
 7.3197503E+00  4.3384933E+01
 7.3312502E+00  4.3417557E+01
 7.3427505E+00  4.3396221E+01
 7.3542504E+00  4.3345470E+01
 7.3657503E+00  4.3369434E+01
 7.3772502E+00  4.3368942E+01
 7.3887506E+00  4.3385994E+01
 7.4002504E+00  4.3407249E+01
 7.4117503E+00  4.3512428E+01
 7.4232502E+00  4.3551174E+01
 7.4347506E+00  4.3604729E+01
 7.4462504E+00  4.3618748E+01
 7.4577503E+00  4.3669674E+01
 7.4692502E+00  4.3652870E+01
 7.4807506E+00  4.3672489E+01
 7.4922504E+00  4.3634708E+01
 7.5037503E+00  4.3715225E+01
 7.5152502E+00  4.3827225E+01
 7.5267506E+00  4.3880535E+01
 7.5382504E+00  4.3897491E+01
 7.5497503E+00  4.3908337E+01
 7.5612502E+00  4.4049107E+01
 7.5727506E+00  4.4175640E+01
 7.5842505E+00  4.4173321E+01
 7.5957503E+00  4.4107872E+01
 7.6072502E+00  4.4081127E+01
 7.6187506E+00  4.4029537E+01
 7.6302505E+00  4.4000229E+01
 7.6417503E+00  4.3952587E+01
 7.6532502E+00  4.3919498E+01
 7.6647506E+00  4.3775658E+01
 7.6762505E+00  4.3713062E+01
 7.6877503E+00  4.3639168E+01
 7.6992502E+00  4.3727825E+01
 7.7107506E+00  4.3728840E+01
 7.7222505E+00  4.3801189E+01
 7.7337503E+00  4.3792568E+01
 7.7452502E+00  4.3805027E+01
 7.7567506E+00  4.3855705E+01
 7.7682505E+00  4.3873398E+01
 7.7797503E+00  4.3878880E+01
 7.7912502E+00  4.3822899E+01
 7.8027506E+00  4.3679550E+01
 7.8142505E+00  4.3519955E+01
 7.8257504E+00  4.3401360E+01
 7.8372502E+00  4.3343143E+01
 7.8487506E+00  4.3417492E+01
 7.8602505E+00  4.3438980E+01
 7.8717504E+00  4.3554298E+01
 7.8832502E+00  4.3534538E+01
 7.8947506E+00  4.3579868E+01
 7.9062505E+00  4.3562401E+01
 7.9177504E+00  4.3546261E+01
 7.9292502E+00  4.3470936E+01
 7.9407506E+00  4.3467983E+01
 7.9522505E+00  4.3429020E+01
 7.9637504E+00  4.3395405E+01
 7.9752502E+00  4.3261669E+01
 7.9867506E+00  4.3203373E+01
 7.9982505E+00  4.3085358E+01
 8.0097504E+00  4.2903843E+01
 8.0212507E+00  4.2844292E+01
 8.0327501E+00  4.2727329E+01
 8.0442505E+00  4.2759663E+01
 8.0557508E+00  4.2641640E+01
 8.0672503E+00  4.2609840E+01
 8.0787506E+00  4.2522770E+01
 8.0902500E+00  4.2578236E+01
 8.1017504E+00  4.2624672E+01
 8.1132507E+00  4.2569653E+01
 8.1247501E+00  4.2393124E+01
 8.1362505E+00  4.2202400E+01
 8.1477509E+00  4.2099651E+01
 8.1592503E+00  4.1971981E+01
 8.1707506E+00  4.1917828E+01
 8.1822500E+00  4.1802120E+01
 8.1937504E+00  4.1750450E+01
 8.2052507E+00  4.1595345E+01
 8.2167501E+00  4.1427464E+01
 8.2282505E+00  4.1302513E+01
 8.2397509E+00  4.1129860E+01
 8.2512503E+00  4.1041241E+01
 8.2627506E+00  4.0868431E+01
 8.2742500E+00  4.0735100E+01
 8.2857504E+00  4.0584320E+01
 8.2972507E+00  4.0471519E+01
 8.3087502E+00  4.0333691E+01
 8.3202505E+00  4.0214409E+01
 8.3317509E+00  3.9950386E+01
 8.3432503E+00  3.9808361E+01
 8.3547506E+00  3.9602894E+01
 8.3662500E+00  3.9504032E+01
 8.3777504E+00  3.9341915E+01
 8.3892508E+00  3.9119072E+01
 8.4007502E+00  3.8931438E+01
 8.4122505E+00  3.8653198E+01
 8.4237509E+00  3.8374458E+01
 8.4352503E+00  3.8145554E+01
 8.4467506E+00  3.8014942E+01
 8.4582500E+00  3.7914181E+01
 8.4697504E+00  3.7838657E+01
 8.4812508E+00  3.7608524E+01
 8.4927502E+00  3.7448242E+01
 8.5042505E+00  3.7265141E+01
 8.5157509E+00  3.7200405E+01
 8.5272503E+00  3.7063694E+01
 8.5387506E+00  3.7002377E+01
 8.5502501E+00  3.6726883E+01
 8.5617504E+00  3.6677612E+01
 8.5732508E+00  3.6480503E+01
 8.5847502E+00  3.6345951E+01
 8.5962505E+00  3.6167515E+01
 8.6077509E+00  3.5948849E+01
 8.6192503E+00  3.5797066E+01
 8.6307507E+00  3.5661755E+01
 8.6422501E+00  3.5514454E+01
 8.6537504E+00  3.5334206E+01
 8.6652508E+00  3.5161266E+01
 8.6767502E+00  3.5061634E+01
 8.6882505E+00  3.5012962E+01
 8.6997509E+00  3.4934261E+01
 8.7112503E+00  3.4727238E+01
 8.7227507E+00  3.4546368E+01
 8.7342501E+00  3.4287701E+01
 8.7457504E+00  3.4037960E+01
 8.7572508E+00  3.3832939E+01
 8.7687502E+00  3.3658634E+01
 8.7802505E+00  3.3534233E+01
 8.7917500E+00  3.3363735E+01
 8.8032503E+00  3.3198406E+01
 8.8147507E+00  3.3059750E+01
 8.8262501E+00  3.2924469E+01
 8.8377504E+00  3.2760170E+01
 8.8492508E+00  3.2635574E+01
 8.8607502E+00  3.2417816E+01
 8.8722506E+00  3.2290913E+01
 8.8837500E+00  3.2045898E+01
 8.8952503E+00  3.1831942E+01
 8.9067507E+00  3.1580971E+01
 8.9182501E+00  3.1379023E+01
 8.9297504E+00  3.1290842E+01
 8.9412508E+00  3.1119022E+01
 8.9527502E+00  3.1013577E+01
 8.9642506E+00  3.0806044E+01
 8.9757500E+00  3.0613314E+01
 8.9872503E+00  3.0430759E+01
 8.9987507E+00  3.0222511E+01
 9.0102501E+00  3.0133045E+01
 9.0217505E+00  2.9990831E+01
 9.0332508E+00  3.0001759E+01
 9.0447502E+00  2.9954140E+01
 9.0562506E+00  2.9908226E+01
 9.0677500E+00  2.9807060E+01
 9.0792503E+00  2.9667206E+01
 9.0907507E+00  2.9514721E+01
 9.1022501E+00  2.9316540E+01
 9.1137505E+00  2.9172516E+01
 9.1252508E+00  2.9056044E+01
 9.1367502E+00  2.9023979E+01
 9.1482506E+00  2.8925571E+01
 9.1597500E+00  2.8886333E+01
 9.1712503E+00  2.8737494E+01
 9.1827507E+00  2.8670229E+01
 9.1942501E+00  2.8491642E+01
 9.2057505E+00  2.8283834E+01
 9.2172508E+00  2.8109024E+01
 9.2287502E+00  2.7960823E+01
 9.2402506E+00  2.7952644E+01
 9.2517500E+00  2.7932800E+01
 9.2632504E+00  2.7975140E+01
 9.2747507E+00  2.7880039E+01
 9.2862501E+00  2.7775551E+01
 9.2977505E+00  2.7592186E+01
 9.3092508E+00  2.7541998E+01
 9.3207502E+00  2.7449368E+01
 9.3322506E+00  2.7348507E+01
 9.3437500E+00  2.7211790E+01
 9.3552504E+00  2.7118631E+01
 9.3667507E+00  2.7097916E+01
 9.3782501E+00  2.7067564E+01
 9.3897505E+00  2.6989962E+01
 9.4012508E+00  2.6879993E+01
 9.4127502E+00  2.6746702E+01
 9.4242506E+00  2.6615486E+01
 9.4357500E+00  2.6531233E+01
 9.4472504E+00  2.6448513E+01
 9.4587507E+00  2.6428986E+01
 9.4702501E+00  2.6395624E+01
 9.4817505E+00  2.6429554E+01
 9.4932508E+00  2.6379099E+01
 9.5047503E+00  2.6286051E+01
 9.5162506E+00  2.6167194E+01
 9.5277500E+00  2.6075581E+01
 9.5392504E+00  2.6043964E+01
 9.5507507E+00  2.5920547E+01
 9.5622501E+00  2.5862026E+01
 9.5737505E+00  2.5751682E+01
 9.5852509E+00  2.5710264E+01
 9.5967503E+00  2.5642292E+01
 9.6082506E+00  2.5617939E+01
 9.6197500E+00  2.5598825E+01
 9.6312504E+00  2.5501589E+01
 9.6427507E+00  2.5447071E+01
 9.6542501E+00  2.5312044E+01
 9.6657505E+00  2.5272158E+01
 9.6772509E+00  2.5107485E+01
 9.6887503E+00  2.5002972E+01
 9.7002506E+00  2.4919945E+01
 9.7117500E+00  2.4863585E+01
 9.7232504E+00  2.4846325E+01
 9.7347507E+00  2.4842590E+01
 9.7462502E+00  2.4865854E+01
 9.7577505E+00  2.4828600E+01
 9.7692509E+00  2.4886787E+01
 9.7807503E+00  2.4852789E+01
 9.7922506E+00  2.4868975E+01
 9.8037500E+00  2.4723146E+01
 9.8152504E+00  2.4633383E+01
 9.8267508E+00  2.4548210E+01
 9.8382502E+00  2.4542416E+01
 9.8497505E+00  2.4523523E+01
 9.8612509E+00  2.4487263E+01
 9.8727503E+00  2.4412493E+01
 9.8842506E+00  2.4374128E+01
 9.8957500E+00  2.4351154E+01
 9.9072504E+00  2.4264355E+01
 9.9187508E+00  2.4191551E+01
 9.9302502E+00  2.4049410E+01
 9.9417505E+00  2.4045855E+01
 9.9532509E+00  2.3977543E+01
 9.9647503E+00  2.4044550E+01
 9.9762506E+00  2.4070049E+01
 9.9877501E+00  2.4077120E+01
 9.9992504E+00  2.4066168E+01
 1.0010751E+01  2.3999504E+01
 1.0022250E+01  2.3999500E+01
 1.0033751E+01  2.3978977E+01
 1.0045251E+01  2.3892216E+01
 1.0056750E+01  2.3811510E+01
 1.0068251E+01  2.3768106E+01
 1.0079750E+01  2.3713234E+01
 1.0091250E+01  2.3658085E+01
 1.0102751E+01  2.3623795E+01
 1.0114250E+01  2.3648495E+01
 1.0125751E+01  2.3714968E+01
 1.0137251E+01  2.3665989E+01
 1.0148750E+01  2.3610010E+01
 1.0160251E+01  2.3618717E+01
 1.0171750E+01  2.3596903E+01
 1.0183250E+01  2.3682892E+01
 1.0194751E+01  2.3630964E+01
 1.0206250E+01  2.3661900E+01
 1.0217751E+01  2.3680006E+01
 1.0229251E+01  2.3687349E+01
 1.0240750E+01  2.3665035E+01
 1.0252251E+01  2.3608444E+01
 1.0263750E+01  2.3568796E+01
 1.0275250E+01  2.3552967E+01
 1.0286751E+01  2.3450245E+01
 1.0298250E+01  2.3426325E+01
 1.0309751E+01  2.3388716E+01
 1.0321251E+01  2.3327429E+01
 1.0332750E+01  2.3263344E+01
 1.0344251E+01  2.3234320E+01
 1.0355750E+01  2.3305243E+01
 1.0367250E+01  2.3338564E+01
 1.0378751E+01  2.3333790E+01
 1.0390250E+01  2.3342379E+01
 1.0401751E+01  2.3305988E+01
 1.0413251E+01  2.3220966E+01
 1.0424750E+01  2.3122850E+01
 1.0436251E+01  2.3042147E+01
 1.0447750E+01  2.3016693E+01
 1.0459250E+01  2.3036554E+01
 1.0470751E+01  2.3116198E+01
 1.0482250E+01  2.3213449E+01
 1.0493751E+01  2.3188320E+01
 1.0505251E+01  2.3139002E+01
 1.0516750E+01  2.3105818E+01
 1.0528251E+01  2.3080963E+01
 1.0539750E+01  2.3034430E+01
 1.0551250E+01  2.2977566E+01
 1.0562751E+01  2.2932449E+01
 1.0574250E+01  2.2872332E+01
 1.0585751E+01  2.2823582E+01
 1.0597251E+01  2.2816196E+01
 1.0608750E+01  2.2856508E+01
 1.0620251E+01  2.2878506E+01
 1.0631750E+01  2.2907291E+01
 1.0643250E+01  2.2962950E+01
 1.0654751E+01  2.2962107E+01
 1.0666250E+01  2.2982111E+01
 1.0677751E+01  2.2859283E+01
 1.0689251E+01  2.2829437E+01
 1.0700750E+01  2.2786917E+01
 1.0712251E+01  2.2807148E+01
 1.0723750E+01  2.2819019E+01
 1.0735250E+01  2.2778570E+01
 1.0746751E+01  2.2752016E+01
 1.0758250E+01  2.2678320E+01
 1.0769751E+01  2.2621197E+01
 1.0781251E+01  2.2568129E+01
 1.0792750E+01  2.2490337E+01
 1.0804251E+01  2.2464222E+01
 1.0815750E+01  2.2476755E+01
 1.0827250E+01  2.2505621E+01
 1.0838751E+01  2.2548004E+01
 1.0850250E+01  2.2586643E+01
 1.0861751E+01  2.2629406E+01
 1.0873251E+01  2.2635664E+01
 1.0884750E+01  2.2599777E+01
 1.0896251E+01  2.2553595E+01
 1.0907750E+01  2.2542299E+01
 1.0919250E+01  2.2529552E+01
 1.0930751E+01  2.2529629E+01
 1.0942250E+01  2.2470098E+01
 1.0953751E+01  2.2435305E+01
 1.0965251E+01  2.2395758E+01
 1.0976750E+01  2.2399294E+01
 1.0988251E+01  2.2362209E+01
 1.0999750E+01  2.2345366E+01
 1.1011250E+01  2.2313934E+01
 1.1022751E+01  2.2326090E+01
 1.1034250E+01  2.2336529E+01
 1.1045751E+01  2.2300777E+01
 1.1057251E+01  2.2273424E+01
 1.1068750E+01  2.2210686E+01
 1.1080251E+01  2.2166821E+01
 1.1091750E+01  2.2168701E+01
 1.1103251E+01  2.2230080E+01
 1.1114751E+01  2.2315929E+01
 1.1126250E+01  2.2383724E+01
 1.1137751E+01  2.2438169E+01
 1.1149251E+01  2.2469614E+01
 1.1160750E+01  2.2440821E+01
 1.1172251E+01  2.2354008E+01
 1.1183750E+01  2.2293804E+01
 1.1195251E+01  2.2251722E+01
 1.1206751E+01  2.2259237E+01
 1.1218250E+01  2.2273655E+01
 1.1229751E+01  2.2282358E+01
 1.1241251E+01  2.2311174E+01
 1.1252750E+01  2.2304403E+01
 1.1264251E+01  2.2328899E+01
 1.1275750E+01  2.2309177E+01
 1.1287251E+01  2.2303244E+01
 1.1298751E+01  2.2324421E+01
 1.1310250E+01  2.2336264E+01
 1.1321751E+01  2.2382948E+01
 1.1333251E+01  2.2407938E+01
 1.1344750E+01  2.2427958E+01
 1.1356251E+01  2.2453779E+01
 1.1367750E+01  2.2446453E+01
 1.1379251E+01  2.2451929E+01
 1.1390751E+01  2.2452475E+01
 1.1402250E+01  2.2483160E+01
 1.1413751E+01  2.2513638E+01
 1.1425251E+01  2.2513937E+01
 1.1436750E+01  2.2509624E+01
 1.1448251E+01  2.2550938E+01
 1.1459750E+01  2.2651524E+01
 1.1471251E+01  2.2742334E+01
 1.1482751E+01  2.2838352E+01
 1.1494250E+01  2.2897739E+01
 1.1505751E+01  2.2983511E+01
 1.1517251E+01  2.3221188E+01
 1.1528750E+01  2.3653067E+01
 1.1540251E+01  2.4607868E+01
 1.1551750E+01  2.5856834E+01
 1.1563251E+01  2.7316301E+01
 1.1574751E+01  2.9480497E+01
 1.1586250E+01  3.1044758E+01
 1.1597751E+01  3.1799080E+01
 1.1609251E+01  3.3365257E+01
 1.1620750E+01  3.2104820E+01
 1.1632251E+01  3.1022726E+01
 1.1643750E+01  2.7804825E+01
 1.1655251E+01  2.6352041E+01
 1.1666751E+01  2.5080788E+01
 1.1678250E+01  2.3647036E+01
 1.1689751E+01  2.3315434E+01
 1.1701251E+01  2.2980122E+01
 1.1712750E+01  2.2812527E+01
 1.1724251E+01  2.2744011E+01
 1.1735750E+01  2.2650412E+01
 1.1747251E+01  2.2592728E+01
 1.1758751E+01  2.2574661E+01
 1.1770250E+01  2.2482714E+01
 1.1781751E+01  2.2473286E+01
 1.1793251E+01  2.2442869E+01
 1.1804750E+01  2.2468010E+01
 1.1816251E+01  2.2447001E+01
 1.1827750E+01  2.2350058E+01
 1.1839251E+01  2.2285994E+01
 1.1850751E+01  2.2245327E+01
 1.1862250E+01  2.2234060E+01
 1.1873751E+01  2.2213978E+01
 1.1885251E+01  2.2231026E+01
 1.1896750E+01  2.2252089E+01
 1.1908251E+01  2.2286171E+01
 1.1919750E+01  2.2327156E+01
 1.1931251E+01  2.2382162E+01
 1.1942751E+01  2.2491949E+01
 1.1954250E+01  2.2570858E+01
 1.1965751E+01  2.2730886E+01
 1.1977251E+01  2.2790182E+01
 1.1988750E+01  2.2876789E+01
 1.2000251E+01  2.2895174E+01
 1.2011750E+01  2.2845358E+01
 1.2023251E+01  2.2786816E+01
 1.2034751E+01  2.2770647E+01
 1.2046250E+01  2.2837463E+01
 1.2057751E+01  2.2999393E+01
 1.2069251E+01  2.3313171E+01
 1.2080750E+01  2.3763365E+01
 1.2092251E+01  2.4000937E+01
 1.2103750E+01  2.4011614E+01
 1.2115251E+01  2.3767132E+01
 1.2126751E+01  2.3493866E+01
 1.2138250E+01  2.3204311E+01
 1.2149751E+01  2.2960396E+01
 1.2161251E+01  2.2774319E+01
 1.2172750E+01  2.2604488E+01
 1.2184251E+01  2.2474319E+01
 1.2195750E+01  2.2410307E+01
 1.2207251E+01  2.2357321E+01
 1.2218751E+01  2.2352457E+01
 1.2230250E+01  2.2338169E+01
 1.2241751E+01  2.2344866E+01
 1.2253251E+01  2.2334158E+01
 1.2264750E+01  2.2335636E+01
 1.2276251E+01  2.2336502E+01
 1.2287750E+01  2.2356276E+01
 1.2299251E+01  2.2384296E+01
 1.2310751E+01  2.2424189E+01
 1.2322250E+01  2.2400768E+01
 1.2333751E+01  2.2380610E+01
 1.2345250E+01  2.2299265E+01
 1.2356750E+01  2.2274109E+01
 1.2368251E+01  2.2205534E+01
 1.2379750E+01  2.2266754E+01
 1.2391251E+01  2.2277760E+01
 1.2402751E+01  2.2314671E+01
 1.2414250E+01  2.2242157E+01
 1.2425751E+01  2.2209549E+01
 1.2437250E+01  2.2233898E+01
 1.2448750E+01  2.2281626E+01
 1.2460251E+01  2.2350056E+01
 1.2471750E+01  2.2372375E+01
 1.2483251E+01  2.2443089E+01
 1.2494751E+01  2.2513639E+01
 1.2506250E+01  2.2557489E+01
 1.2517751E+01  2.2570229E+01
 1.2529250E+01  2.2539446E+01
 1.2540751E+01  2.2590097E+01
 1.2552251E+01  2.2583920E+01
 1.2563750E+01  2.2623327E+01
 1.2575251E+01  2.2602802E+01
 1.2586751E+01  2.2554852E+01
 1.2598250E+01  2.2496239E+01
 1.2609751E+01  2.2513069E+01
 1.2621250E+01  2.2597513E+01
 1.2632751E+01  2.2664333E+01
 1.2644251E+01  2.2634758E+01
 1.2655750E+01  2.2619942E+01
 1.2667251E+01  2.2630026E+01
 1.2678751E+01  2.2704622E+01
 1.2690250E+01  2.2734472E+01
 1.2701751E+01  2.2732460E+01
 1.2713250E+01  2.2742638E+01
 1.2724751E+01  2.2733063E+01
 1.2736251E+01  2.2740608E+01
 1.2747750E+01  2.2730640E+01
 1.2759251E+01  2.2740660E+01
 1.2770751E+01  2.2782932E+01
 1.2782250E+01  2.2826004E+01
 1.2793751E+01  2.2836195E+01
 1.2805250E+01  2.2875355E+01
 1.2816751E+01  2.2935400E+01
 1.2828251E+01  2.3057613E+01
 1.2839750E+01  2.3145565E+01
 1.2851251E+01  2.3199188E+01
 1.2862751E+01  2.3271164E+01
 1.2874250E+01  2.3275391E+01
 1.2885751E+01  2.3317999E+01
 1.2897250E+01  2.3373289E+01
 1.2908751E+01  2.3475592E+01
 1.2920251E+01  2.3561197E+01
 1.2931750E+01  2.3588873E+01
 1.2943251E+01  2.3641674E+01
 1.2954751E+01  2.3597048E+01
 1.2966250E+01  2.3637033E+01
 1.2977751E+01  2.3623213E+01
 1.2989250E+01  2.3671072E+01
 1.3000751E+01  2.3731247E+01
 1.3012251E+01  2.3832535E+01
 1.3023750E+01  2.3926054E+01
 1.3035251E+01  2.3968842E+01
 1.3046751E+01  2.4018585E+01
 1.3058250E+01  2.4112852E+01
 1.3069751E+01  2.4132372E+01
 1.3081250E+01  2.4205399E+01
 1.3092751E+01  2.4274134E+01
 1.3104251E+01  2.4475924E+01
 1.3115750E+01  2.4598097E+01
 1.3127251E+01  2.4772768E+01
 1.3138751E+01  2.4883713E+01
 1.3150250E+01  2.5072571E+01
 1.3161751E+01  2.5172977E+01
 1.3173250E+01  2.5267582E+01
 1.3184751E+01  2.5381348E+01
 1.3196251E+01  2.5501707E+01
 1.3207750E+01  2.5650454E+01
 1.3219251E+01  2.5800047E+01
 1.3230751E+01  2.6003775E+01
 1.3242250E+01  2.6134731E+01
 1.3253751E+01  2.6225491E+01
 1.3265250E+01  2.6292881E+01
 1.3276751E+01  2.6379770E+01
 1.3288251E+01  2.6461937E+01
 1.3299750E+01  2.6576262E+01
 1.3311251E+01  2.6730989E+01
 1.3322751E+01  2.6891489E+01
 1.3334250E+01  2.7083609E+01
 1.3345751E+01  2.7279802E+01
 1.3357250E+01  2.7457245E+01
 1.3368751E+01  2.7587357E+01
 1.3380251E+01  2.7692663E+01
 1.3391750E+01  2.7839111E+01
 1.3403251E+01  2.7961525E+01
 1.3414751E+01  2.8103273E+01
 1.3426250E+01  2.8208254E+01
 1.3437751E+01  2.8356716E+01
 1.3449250E+01  2.8403070E+01
 1.3460751E+01  2.8497650E+01
 1.3472251E+01  2.8553820E+01
 1.3483750E+01  2.8738111E+01
 1.3495251E+01  2.8867237E+01
 1.3506751E+01  2.8955709E+01
 1.3518250E+01  2.9054064E+01
 1.3529751E+01  2.9124119E+01
 1.3541250E+01  2.9258801E+01
 1.3552751E+01  2.9321993E+01
 1.3564251E+01  2.9395111E+01
 1.3575750E+01  2.9473892E+01
 1.3587251E+01  2.9514854E+01
 1.3598751E+01  2.9573168E+01
 1.3610250E+01  2.9560564E+01
 1.3621751E+01  2.9597414E+01
 1.3633250E+01  2.9532030E+01
 1.3644751E+01  2.9473087E+01
 1.3656251E+01  2.9353342E+01
 1.3667750E+01  2.9314465E+01
 1.3679251E+01  2.9298742E+01
 1.3690751E+01  2.9296110E+01
 1.3702250E+01  2.9277309E+01
 1.3713751E+01  2.9263811E+01
 1.3725250E+01  2.9247728E+01
 1.3736751E+01  2.9246847E+01
 1.3748251E+01  2.9176838E+01
 1.3759750E+01  2.9185257E+01
 1.3771251E+01  2.9114939E+01
 1.3782751E+01  2.9145952E+01
 1.3794250E+01  2.9084524E+01
 1.3805751E+01  2.9070938E+01
 1.3817250E+01  2.9012777E+01
 1.3828751E+01  2.9019844E+01
 1.3840251E+01  2.9077070E+01
 1.3851750E+01  2.9260935E+01
 1.3863251E+01  2.9545639E+01
 1.3874751E+01  3.0031303E+01
 1.3886250E+01  3.0769072E+01
 1.3897751E+01  3.1793152E+01
 1.3909250E+01  3.3291439E+01
 1.3920751E+01  3.4898212E+01
 1.3932251E+01  3.6445625E+01
 1.3943750E+01  3.7383209E+01
 1.3955251E+01  3.8247971E+01
 1.3966751E+01  3.7720509E+01
 1.3978251E+01  3.6801743E+01
 1.3989751E+01  3.4724487E+01
 1.4001250E+01  3.3235798E+01
 1.4012751E+01  3.1362631E+01
 1.4024251E+01  3.0093550E+01
 1.4035750E+01  2.9230253E+01
 1.4047251E+01  2.8644451E+01
 1.4058751E+01  2.8283594E+01
 1.4070251E+01  2.8002747E+01
 1.4081751E+01  2.7732698E+01
 1.4093250E+01  2.7556475E+01
 1.4104751E+01  2.7387577E+01
 1.4116251E+01  2.7227810E+01
 1.4127750E+01  2.7110121E+01
 1.4139251E+01  2.7033159E+01
 1.4150751E+01  2.6970360E+01
 1.4162251E+01  2.6939903E+01
 1.4173751E+01  2.6821491E+01
 1.4185250E+01  2.6702795E+01
 1.4196751E+01  2.6546631E+01
 1.4208251E+01  2.6438391E+01
 1.4219750E+01  2.6399439E+01
 1.4231251E+01  2.6305681E+01
 1.4242751E+01  2.6303082E+01
 1.4254251E+01  2.6251589E+01
 1.4265751E+01  2.6232269E+01
 1.4277250E+01  2.6160355E+01
 1.4288751E+01  2.6063761E+01
 1.4300251E+01  2.5959986E+01
 1.4311750E+01  2.5832254E+01
 1.4323251E+01  2.5767555E+01
 1.4334751E+01  2.5763979E+01
 1.4346251E+01  2.5794174E+01
 1.4357751E+01  2.5804232E+01
 1.4369250E+01  2.5856354E+01
 1.4380751E+01  2.5878103E+01
 1.4392251E+01  2.5841797E+01
 1.4403750E+01  2.5748949E+01
 1.4415251E+01  2.5657812E+01
 1.4426751E+01  2.5615225E+01
 1.4438251E+01  2.5595722E+01
 1.4449751E+01  2.5588453E+01
 1.4461250E+01  2.5568830E+01
 1.4472751E+01  2.5506735E+01
 1.4484251E+01  2.5450409E+01
 1.4495750E+01  2.5403008E+01
 1.4507251E+01  2.5385857E+01
 1.4518751E+01  2.5360985E+01
 1.4530251E+01  2.5339460E+01
 1.4541751E+01  2.5303278E+01
 1.4553250E+01  2.5330616E+01
 1.4564751E+01  2.5331129E+01
 1.4576251E+01  2.5351036E+01
 1.4587750E+01  2.5285925E+01
 1.4599251E+01  2.5235113E+01
 1.4610751E+01  2.5196995E+01
 1.4622251E+01  2.5198153E+01
 1.4633751E+01  2.5145004E+01
 1.4645250E+01  2.5112196E+01
 1.4656751E+01  2.5023842E+01
 1.4668251E+01  2.4986197E+01
 1.4679750E+01  2.4899319E+01
 1.4691251E+01  2.4899828E+01
 1.4702751E+01  2.4869797E+01
 1.4714251E+01  2.4900316E+01
 1.4725751E+01  2.4915607E+01
 1.4737250E+01  2.4895187E+01
 1.4748751E+01  2.4865631E+01
 1.4760251E+01  2.4750731E+01
 1.4771750E+01  2.4783730E+01
 1.4783251E+01  2.4753416E+01
 1.4794751E+01  2.4841959E+01
 1.4806251E+01  2.4813606E+01
 1.4817751E+01  2.4778318E+01
 1.4829250E+01  2.4763182E+01
 1.4840751E+01  2.4781769E+01
 1.4852251E+01  2.4822193E+01
 1.4863750E+01  2.4802895E+01
 1.4875251E+01  2.4753296E+01
 1.4886751E+01  2.4678780E+01
 1.4898251E+01  2.4638412E+01
 1.4909751E+01  2.4605362E+01
 1.4921250E+01  2.4609417E+01
 1.4932751E+01  2.4607285E+01
 1.4944251E+01  2.4581728E+01
 1.4955750E+01  2.4561085E+01
 1.4967251E+01  2.4563723E+01
 1.4978751E+01  2.4620745E+01
 1.4990251E+01  2.4673574E+01
 1.5001751E+01  2.4701973E+01
 1.5013250E+01  2.4728069E+01
 1.5024751E+01  2.4688581E+01
 1.5036251E+01  2.4635035E+01
 1.5047750E+01  2.4563892E+01
 1.5059251E+01  2.4579676E+01
 1.5070751E+01  2.4578495E+01
 1.5082251E+01  2.4593479E+01
 1.5093751E+01  2.4613457E+01
 1.5105250E+01  2.4677444E+01
 1.5116751E+01  2.4779209E+01
 1.5128251E+01  2.4894510E+01
 1.5139750E+01  2.5151014E+01
 1.5151251E+01  2.5662294E+01
 1.5162751E+01  2.6121792E+01
 1.5174251E+01  2.6761616E+01
 1.5185751E+01  2.7068197E+01
 1.5197250E+01  2.7324009E+01
 1.5208751E+01  2.7138500E+01
 1.5220251E+01  2.6876150E+01
 1.5231750E+01  2.6335011E+01
 1.5243251E+01  2.5793224E+01
 1.5254751E+01  2.5360777E+01
 1.5266251E+01  2.5006998E+01
 1.5277751E+01  2.4772680E+01
 1.5289250E+01  2.4615444E+01
 1.5300751E+01  2.4573473E+01
 1.5312251E+01  2.4545931E+01
 1.5323750E+01  2.4542616E+01
 1.5335251E+01  2.4557098E+01
 1.5346751E+01  2.4576508E+01
 1.5358251E+01  2.4540010E+01
 1.5369751E+01  2.4490580E+01
 1.5381250E+01  2.4448633E+01
 1.5392751E+01  2.4378723E+01
 1.5404251E+01  2.4310045E+01
 1.5415751E+01  2.4261667E+01
 1.5427251E+01  2.4237770E+01
 1.5438751E+01  2.4278637E+01
 1.5450251E+01  2.4290779E+01
 1.5461751E+01  2.4310431E+01
 1.5473250E+01  2.4299828E+01
 1.5484751E+01  2.4328279E+01
 1.5496251E+01  2.4375689E+01
 1.5507751E+01  2.4403254E+01
 1.5519251E+01  2.4404032E+01
 1.5530751E+01  2.4413666E+01
 1.5542251E+01  2.4406811E+01
 1.5553751E+01  2.4393890E+01
 1.5565250E+01  2.4391811E+01
 1.5576751E+01  2.4434380E+01
 1.5588251E+01  2.4448589E+01
 1.5599751E+01  2.4434088E+01
 1.5611251E+01  2.4367878E+01
 1.5622751E+01  2.4329054E+01
 1.5634251E+01  2.4287838E+01
 1.5645751E+01  2.4247957E+01
 1.5657250E+01  2.4218418E+01
 1.5668751E+01  2.4263342E+01
 1.5680251E+01  2.4353184E+01
 1.5691751E+01  2.4394636E+01
 1.5703251E+01  2.4394335E+01
 1.5714751E+01  2.4338314E+01
 1.5726251E+01  2.4318121E+01
 1.5737751E+01  2.4246883E+01
 1.5749250E+01  2.4252546E+01
 1.5760751E+01  2.4252575E+01
 1.5772251E+01  2.4283783E+01
 1.5783751E+01  2.4264387E+01
 1.5795251E+01  2.4334915E+01
 1.5806751E+01  2.4384418E+01
 1.5818251E+01  2.4420849E+01
 1.5829751E+01  2.4389221E+01
 1.5841250E+01  2.4381666E+01
 1.5852751E+01  2.4376867E+01
 1.5864251E+01  2.4409456E+01
 1.5875751E+01  2.4471457E+01
 1.5887251E+01  2.4568686E+01
 1.5898750E+01  2.4631796E+01
 1.5910251E+01  2.4709438E+01
 1.5921751E+01  2.4626751E+01
 1.5933250E+01  2.4557920E+01
 1.5944751E+01  2.4446438E+01
 1.5956251E+01  2.4429800E+01
 1.5967751E+01  2.4386345E+01
 1.5979251E+01  2.4385517E+01
 1.5990750E+01  2.4445766E+01
 1.6002251E+01  2.4474134E+01
 1.6013750E+01  2.4493467E+01
 1.6025251E+01  2.4504152E+01
 1.6036751E+01  2.4534441E+01
 1.6048250E+01  2.4550699E+01
 1.6059752E+01  2.4591745E+01
 1.6071251E+01  2.4578232E+01
 1.6082750E+01  2.4631681E+01
 1.6094252E+01  2.4584890E+01
 1.6105751E+01  2.4654123E+01
 1.6117250E+01  2.4621222E+01
 1.6128750E+01  2.4678213E+01
 1.6140251E+01  2.4718945E+01
 1.6151751E+01  2.4749924E+01
 1.6163250E+01  2.4878065E+01
 1.6174751E+01  2.4800259E+01
 1.6186251E+01  2.5075014E+01
 1.6197750E+01  2.4975050E+01
 1.6209251E+01  2.5563696E+01
 1.6220751E+01  2.5592476E+01
 1.6232250E+01  2.6410078E+01
 1.6243752E+01  2.6726286E+01
 1.6255251E+01  2.7174189E+01
 1.6266750E+01  2.7292557E+01
 1.6278252E+01  2.6648260E+01
 1.6289751E+01  2.6450066E+01
 1.6301250E+01  2.5397127E+01
 1.6312750E+01  2.5374767E+01
 1.6324251E+01  2.4750172E+01
 1.6335751E+01  2.4764240E+01
 1.6347250E+01  2.4539759E+01
 1.6358751E+01  2.4543940E+01
 1.6370251E+01  2.4465748E+01
 1.6381750E+01  2.4408827E+01
 1.6393251E+01  2.4407892E+01
 1.6404751E+01  2.4454979E+01
 1.6416250E+01  2.4546055E+01
 1.6427752E+01  2.4548353E+01
 1.6439251E+01  2.4556707E+01
 1.6450750E+01  2.4531652E+01
 1.6462252E+01  2.4540207E+01
 1.6473751E+01  2.4502089E+01
 1.6485250E+01  2.4460627E+01
 1.6496750E+01  2.4409344E+01
 1.6508251E+01  2.4380615E+01
 1.6519751E+01  2.4361563E+01
 1.6531250E+01  2.4342161E+01
 1.6542751E+01  2.4348860E+01
 1.6554251E+01  2.4346947E+01
 1.6565750E+01  2.4322123E+01
 1.6577251E+01  2.4299414E+01
 1.6588751E+01  2.4291439E+01
 1.6600250E+01  2.4316818E+01
 1.6611752E+01  2.4339212E+01
 1.6623251E+01  2.4289188E+01
 1.6634750E+01  2.4281887E+01
 1.6646252E+01  2.4280230E+01
 1.6657751E+01  2.4312551E+01
 1.6669250E+01  2.4345354E+01
 1.6680750E+01  2.4357866E+01
 1.6692251E+01  2.4347559E+01
 1.6703751E+01  2.4298773E+01
 1.6715250E+01  2.4325699E+01
 1.6726751E+01  2.4364573E+01
 1.6738251E+01  2.4409910E+01
 1.6749750E+01  2.4400152E+01
 1.6761251E+01  2.4347052E+01
 1.6772751E+01  2.4322237E+01
 1.6784250E+01  2.4281204E+01
 1.6795752E+01  2.4259415E+01
 1.6807251E+01  2.4178391E+01
 1.6818750E+01  2.4158621E+01
 1.6830252E+01  2.4118208E+01
 1.6841751E+01  2.4121662E+01
 1.6853251E+01  2.4100956E+01
 1.6864750E+01  2.4152367E+01
 1.6876251E+01  2.4174927E+01
 1.6887751E+01  2.4200645E+01
 1.6899250E+01  2.4182690E+01
 1.6910751E+01  2.4179462E+01
 1.6922251E+01  2.4179558E+01
 1.6933750E+01  2.4134861E+01
 1.6945251E+01  2.4108568E+01
 1.6956751E+01  2.4089905E+01
 1.6968250E+01  2.4100834E+01
 1.6979752E+01  2.4120033E+01
 1.6991251E+01  2.4127031E+01
 1.7002750E+01  2.4111572E+01
 1.7014252E+01  2.4081060E+01
 1.7025751E+01  2.4118349E+01
 1.7037251E+01  2.4144306E+01
 1.7048750E+01  2.4114386E+01
 1.7060251E+01  2.4067574E+01
 1.7071751E+01  2.3999161E+01
 1.7083250E+01  2.3947412E+01
 1.7094751E+01  2.3888832E+01
 1.7106251E+01  2.3948839E+01
 1.7117750E+01  2.3982306E+01
 1.7129251E+01  2.4019154E+01
 1.7140751E+01  2.4010078E+01
 1.7152250E+01  2.3990927E+01
 1.7163752E+01  2.3949823E+01
 1.7175251E+01  2.3931780E+01
 1.7186750E+01  2.3932987E+01
 1.7198252E+01  2.3972132E+01
 1.7209751E+01  2.3982506E+01
 1.7221251E+01  2.3951559E+01
 1.7232750E+01  2.3911779E+01
 1.7244251E+01  2.3894854E+01
 1.7255751E+01  2.3899698E+01
 1.7267250E+01  2.3860868E+01
 1.7278751E+01  2.3866161E+01
 1.7290251E+01  2.3865812E+01
 1.7301750E+01  2.3904978E+01
 1.7313251E+01  2.3880825E+01
 1.7324751E+01  2.3906948E+01
 1.7336250E+01  2.3864763E+01
 1.7347752E+01  2.3824972E+01
 1.7359251E+01  2.3775318E+01
 1.7370750E+01  2.3764383E+01
 1.7382252E+01  2.3729097E+01
 1.7393751E+01  2.3715805E+01
 1.7405251E+01  2.3729675E+01
 1.7416750E+01  2.3777893E+01
 1.7428251E+01  2.3778873E+01
 1.7439751E+01  2.3810181E+01
 1.7451250E+01  2.3818148E+01
 1.7462751E+01  2.3843977E+01
 1.7474251E+01  2.3826683E+01
 1.7485750E+01  2.3828686E+01
 1.7497252E+01  2.3846296E+01
 1.7508751E+01  2.3833717E+01
 1.7520250E+01  2.3765497E+01
 1.7531752E+01  2.3671888E+01
 1.7543251E+01  2.3593195E+01
 1.7554750E+01  2.3559242E+01
 1.7566252E+01  2.3533213E+01
 1.7577751E+01  2.3552048E+01
 1.7589251E+01  2.3558670E+01
 1.7600750E+01  2.3621710E+01
 1.7612251E+01  2.3700350E+01
 1.7623751E+01  2.3746326E+01
 1.7635250E+01  2.3760242E+01
 1.7646751E+01  2.3779114E+01
 1.7658251E+01  2.3738485E+01
 1.7669750E+01  2.3666801E+01
 1.7681252E+01  2.3606724E+01
 1.7692751E+01  2.3657843E+01
 1.7704250E+01  2.3680716E+01
 1.7715752E+01  2.3697243E+01
 1.7727251E+01  2.3667978E+01
 1.7738750E+01  2.3594162E+01
 1.7750252E+01  2.3573166E+01
 1.7761751E+01  2.3563290E+01
 1.7773251E+01  2.3582020E+01
 1.7784750E+01  2.3612923E+01
 1.7796251E+01  2.3661728E+01
 1.7807751E+01  2.3680107E+01
 1.7819250E+01  2.3663980E+01
 1.7830751E+01  2.3632065E+01
 1.7842251E+01  2.3602224E+01
 1.7853750E+01  2.3549015E+01
 1.7865252E+01  2.3527435E+01
 1.7876751E+01  2.3534698E+01
 1.7888250E+01  2.3611443E+01
 1.7899752E+01  2.3702555E+01
 1.7911251E+01  2.3743567E+01
 1.7922750E+01  2.3672565E+01
 1.7934252E+01  2.3609755E+01
 1.7945751E+01  2.3605221E+01
 1.7957251E+01  2.3632528E+01
 1.7968750E+01  2.3669535E+01
 1.7980251E+01  2.3727036E+01
 1.7991751E+01  2.3839619E+01
 1.8003250E+01  2.3926540E+01
 1.8014751E+01  2.4013279E+01
 1.8026251E+01  2.4126253E+01
 1.8037750E+01  2.4318863E+01
 1.8049252E+01  2.4605883E+01
 1.8060751E+01  2.4811514E+01
 1.8072250E+01  2.5140230E+01
 1.8083752E+01  2.5308001E+01
 1.8095251E+01  2.5637787E+01
 1.8106750E+01  2.5585485E+01
 1.8118252E+01  2.5582388E+01
 1.8129751E+01  2.5367548E+01
 1.8141251E+01  2.5107052E+01
 1.8152750E+01  2.4814976E+01
 1.8164251E+01  2.4456121E+01
 1.8175751E+01  2.4275835E+01
 1.8187250E+01  2.4059090E+01
 1.8198751E+01  2.3972366E+01
 1.8210251E+01  2.3822027E+01
 1.8221750E+01  2.3674305E+01
 1.8233252E+01  2.3579021E+01
 1.8244751E+01  2.3491133E+01
 1.8256250E+01  2.3476194E+01
 1.8267752E+01  2.3454554E+01
 1.8279251E+01  2.3439737E+01
 1.8290751E+01  2.3436922E+01
 1.8302252E+01  2.3432562E+01
 1.8313751E+01  2.3414454E+01
 1.8325251E+01  2.3381741E+01
 1.8336750E+01  2.3379044E+01
 1.8348251E+01  2.3392084E+01
 1.8359751E+01  2.3410116E+01
 1.8371250E+01  2.3391640E+01
 1.8382751E+01  2.3427025E+01
 1.8394251E+01  2.3455584E+01
 1.8405750E+01  2.3519915E+01
 1.8417252E+01  2.3547237E+01
 1.8428751E+01  2.3503506E+01
 1.8440250E+01  2.3457146E+01
 1.8451752E+01  2.3431482E+01
 1.8463251E+01  2.3397381E+01
 1.8474751E+01  2.3402792E+01
 1.8486252E+01  2.3369204E+01
 1.8497751E+01  2.3346077E+01
 1.8509251E+01  2.3309013E+01
 1.8520750E+01  2.3325529E+01
 1.8532251E+01  2.3337585E+01
 1.8543751E+01  2.3313129E+01
 1.8555250E+01  2.3381937E+01
 1.8566751E+01  2.3399956E+01
 1.8578251E+01  2.3430677E+01
 1.8589750E+01  2.3395874E+01
 1.8601252E+01  2.3420610E+01
 1.8612751E+01  2.3409986E+01
 1.8624250E+01  2.3389977E+01
 1.8635752E+01  2.3402897E+01
 1.8647251E+01  2.3366096E+01
 1.8658751E+01  2.3377600E+01
 1.8670252E+01  2.3355108E+01
 1.8681751E+01  2.3344191E+01
 1.8693251E+01  2.3395720E+01
 1.8704750E+01  2.3353121E+01
 1.8716251E+01  2.3353201E+01
 1.8727751E+01  2.3301182E+01
 1.8739250E+01  2.3299532E+01
 1.8750751E+01  2.3305029E+01
 1.8762251E+01  2.3300388E+01
 1.8773750E+01  2.3296585E+01
 1.8785252E+01  2.3286844E+01
 1.8796751E+01  2.3366587E+01
 1.8808250E+01  2.3401436E+01
 1.8819752E+01  2.3417540E+01
 1.8831251E+01  2.3353117E+01
 1.8842751E+01  2.3353851E+01
 1.8854252E+01  2.3272158E+01
 1.8865751E+01  2.3240543E+01
 1.8877251E+01  2.3221371E+01
 1.8888750E+01  2.3269234E+01
 1.8900251E+01  2.3284254E+01
 1.8911751E+01  2.3329002E+01
 1.8923250E+01  2.3396978E+01
 1.8934752E+01  2.3475204E+01
 1.8946251E+01  2.3511971E+01
 1.8957750E+01  2.3507412E+01
 1.8969252E+01  2.3472324E+01
 1.8980751E+01  2.3475836E+01
 1.8992250E+01  2.3465527E+01
 1.9003752E+01  2.3428236E+01
 1.9015251E+01  2.3343449E+01
 1.9026751E+01  2.3282391E+01
 1.9038252E+01  2.3268929E+01
 1.9049751E+01  2.3273411E+01
 1.9061251E+01  2.3289238E+01
 1.9072750E+01  2.3283195E+01
 1.9084251E+01  2.3291521E+01
 1.9095751E+01  2.3253428E+01
 1.9107250E+01  2.3242895E+01
 1.9118752E+01  2.3245811E+01
 1.9130251E+01  2.3333788E+01
 1.9141750E+01  2.3393925E+01
 1.9153252E+01  2.3390055E+01
 1.9164751E+01  2.3341326E+01
 1.9176250E+01  2.3301275E+01
 1.9187752E+01  2.3284824E+01
 1.9199251E+01  2.3302553E+01
 1.9210751E+01  2.3353176E+01
 1.9222252E+01  2.3338945E+01
 1.9233751E+01  2.3274691E+01
 1.9245251E+01  2.3239332E+01
 1.9256750E+01  2.3266285E+01
 1.9268251E+01  2.3337238E+01
 1.9279751E+01  2.3351944E+01
 1.9291250E+01  2.3366621E+01
 1.9302752E+01  2.3403589E+01
 1.9314251E+01  2.3386730E+01
 1.9325750E+01  2.3355492E+01
 1.9337252E+01  2.3323893E+01
 1.9348751E+01  2.3350849E+01
 1.9360250E+01  2.3340538E+01
 1.9371752E+01  2.3385572E+01
 1.9383251E+01  2.3410112E+01
 1.9394751E+01  2.3456219E+01
 1.9406250E+01  2.3408142E+01
 1.9417751E+01  2.3425848E+01
 1.9429251E+01  2.3401684E+01
 1.9440750E+01  2.3395615E+01
 1.9452251E+01  2.3380192E+01
 1.9463751E+01  2.3425539E+01
 1.9475250E+01  2.3458057E+01
 1.9486752E+01  2.3528454E+01
 1.9498251E+01  2.3525496E+01
 1.9509750E+01  2.3549883E+01
 1.9521252E+01  2.3532473E+01
 1.9532751E+01  2.3547195E+01
 1.9544250E+01  2.3588829E+01
 1.9555752E+01  2.3617561E+01
 1.9567251E+01  2.3610365E+01
 1.9578751E+01  2.3648129E+01
 1.9590250E+01  2.3669146E+01
 1.9601751E+01  2.3748793E+01
 1.9613251E+01  2.3741877E+01
 1.9624750E+01  2.3784185E+01
 1.9636251E+01  2.3935001E+01
 1.9647751E+01  2.4078663E+01
 1.9659250E+01  2.4452536E+01
 1.9670752E+01  2.4735277E+01
 1.9682251E+01  2.5167397E+01
 1.9693750E+01  2.5667576E+01
 1.9705252E+01  2.6027601E+01
 1.9716751E+01  2.6485310E+01
 1.9728251E+01  2.6508379E+01
 1.9739752E+01  2.6525261E+01
 1.9751251E+01  2.6217545E+01
 1.9762751E+01  2.5956343E+01
 1.9774250E+01  2.5644117E+01
 1.9785751E+01  2.5279701E+01
 1.9797251E+01  2.5252983E+01
 1.9808750E+01  2.5222805E+01
 1.9820251E+01  2.5394087E+01
 1.9831751E+01  2.5742064E+01
 1.9843250E+01  2.5957714E+01
 1.9854752E+01  2.6287336E+01
 1.9866251E+01  2.6563221E+01
 1.9877750E+01  2.6917334E+01
 1.9889252E+01  2.7110554E+01
 1.9900751E+01  2.6954336E+01
 1.9912251E+01  2.6619581E+01
 1.9923752E+01  2.5912659E+01
 1.9935251E+01  2.5170893E+01
 1.9946751E+01  2.4584759E+01
 1.9958250E+01  2.4117666E+01
 1.9969751E+01  2.3957754E+01
 1.9981251E+01  2.3746288E+01
 1.9992750E+01  2.3726494E+01
 2.0004251E+01  2.3669363E+01
 2.0015751E+01  2.3674215E+01
 2.0027250E+01  2.3631851E+01
 2.0038752E+01  2.3608212E+01
 2.0050251E+01  2.3625427E+01
 2.0061750E+01  2.3581591E+01
 2.0073252E+01  2.3565067E+01
 2.0084751E+01  2.3473572E+01
 2.0096251E+01  2.3478128E+01
 2.0107752E+01  2.3488688E+01
 2.0119251E+01  2.3528088E+01
 2.0130751E+01  2.3504494E+01
 2.0142250E+01  2.3504333E+01
 2.0153751E+01  2.3519234E+01
 2.0165251E+01  2.3509132E+01
 2.0176750E+01  2.3454514E+01
 2.0188251E+01  2.3407185E+01
 2.0199751E+01  2.3443510E+01
 2.0211250E+01  2.3498743E+01
 2.0222752E+01  2.3558462E+01
 2.0234251E+01  2.3537626E+01
 2.0245750E+01  2.3538908E+01
 2.0257252E+01  2.3493692E+01
 2.0268751E+01  2.3460390E+01
 2.0280251E+01  2.3432970E+01
 2.0291752E+01  2.3475529E+01
 2.0303251E+01  2.3465382E+01
 2.0314751E+01  2.3443605E+01
 2.0326250E+01  2.3425451E+01
 2.0337751E+01  2.3495491E+01
 2.0349251E+01  2.3466978E+01
 2.0360750E+01  2.3493679E+01
 2.0372252E+01  2.3445078E+01
 2.0383751E+01  2.3456924E+01
 2.0395250E+01  2.3467871E+01
 2.0406752E+01  2.3498430E+01
 2.0418251E+01  2.3556101E+01
 2.0429750E+01  2.3552874E+01
 2.0441252E+01  2.3523678E+01
 2.0452751E+01  2.3483988E+01
 2.0464251E+01  2.3442453E+01
 2.0475752E+01  2.3455896E+01
 2.0487251E+01  2.3471579E+01
 2.0498751E+01  2.3528183E+01
 2.0510250E+01  2.3505095E+01
 2.0521751E+01  2.3461096E+01
 2.0533251E+01  2.3476377E+01
 2.0544750E+01  2.3505817E+01
 2.0556252E+01  2.3587059E+01
 2.0567751E+01  2.3611717E+01
 2.0579250E+01  2.3674351E+01
 2.0590752E+01  2.3725735E+01
 2.0602251E+01  2.3762934E+01
 2.0613750E+01  2.3765013E+01
 2.0625252E+01  2.3752262E+01
 2.0636751E+01  2.3760006E+01
 2.0648251E+01  2.3787205E+01
 2.0659752E+01  2.3821531E+01
 2.0671251E+01  2.3896225E+01
 2.0682751E+01  2.3975718E+01
 2.0694250E+01  2.4151531E+01
 2.0705751E+01  2.4356936E+01
 2.0717251E+01  2.4651569E+01
 2.0728750E+01  2.4947390E+01
 2.0740252E+01  2.5294746E+01
 2.0751751E+01  2.5593269E+01
 2.0763250E+01  2.5719362E+01
 2.0774752E+01  2.5645826E+01
 2.0786251E+01  2.5366510E+01
 2.0797750E+01  2.5090963E+01
 2.0809252E+01  2.4756161E+01
 2.0820751E+01  2.4446169E+01
 2.0832251E+01  2.4202108E+01
 2.0843752E+01  2.3996574E+01
 2.0855251E+01  2.3932177E+01
 2.0866751E+01  2.3866735E+01
 2.0878250E+01  2.3867464E+01
 2.0889751E+01  2.3820166E+01
 2.0901251E+01  2.3832367E+01
 2.0912750E+01  2.3772936E+01
 2.0924252E+01  2.3740393E+01
 2.0935751E+01  2.3682356E+01
 2.0947250E+01  2.3706776E+01
 2.0958752E+01  2.3721533E+01
 2.0970251E+01  2.3700348E+01
 2.0981750E+01  2.3706141E+01
 2.0993252E+01  2.3706205E+01
 2.1004751E+01  2.3740326E+01
 2.1016251E+01  2.3723888E+01
 2.1027752E+01  2.3721405E+01
 2.1039251E+01  2.3745621E+01
 2.1050751E+01  2.3771748E+01
 2.1062250E+01  2.3803984E+01
 2.1073751E+01  2.3814701E+01
 2.1085251E+01  2.3900723E+01
 2.1096750E+01  2.3877844E+01
 2.1108252E+01  2.3893467E+01
 2.1119751E+01  2.3839001E+01
 2.1131250E+01  2.3843906E+01
 2.1142752E+01  2.3753746E+01
 2.1154251E+01  2.3698622E+01
 2.1165751E+01  2.3691399E+01
 2.1177252E+01  2.3742706E+01
 2.1188751E+01  2.3759752E+01
 2.1200251E+01  2.3781925E+01
 2.1211752E+01  2.3762405E+01
 2.1223251E+01  2.3755735E+01
 2.1234751E+01  2.3715868E+01
 2.1246250E+01  2.3726042E+01
 2.1257751E+01  2.3715408E+01
 2.1269251E+01  2.3708223E+01
 2.1280750E+01  2.3696852E+01
 2.1292252E+01  2.3678356E+01
 2.1303751E+01  2.3692644E+01
 2.1315250E+01  2.3691267E+01
 2.1326752E+01  2.3739586E+01
 2.1338251E+01  2.3735935E+01
 2.1349751E+01  2.3757298E+01
 2.1361252E+01  2.3796251E+01
 2.1372751E+01  2.3819099E+01
 2.1384251E+01  2.3810118E+01
 2.1395752E+01  2.3751043E+01
 2.1407251E+01  2.3782036E+01
 2.1418751E+01  2.3761517E+01
 2.1430250E+01  2.3776484E+01
 2.1441751E+01  2.3783447E+01
 2.1453251E+01  2.3809315E+01
 2.1464750E+01  2.3822979E+01
 2.1476252E+01  2.3828812E+01
 2.1487751E+01  2.3839092E+01
 2.1499250E+01  2.3822720E+01
 2.1510752E+01  2.3808340E+01
 2.1522251E+01  2.3824448E+01
 2.1533751E+01  2.3847851E+01
 2.1545252E+01  2.3866987E+01
 2.1556751E+01  2.3799177E+01
 2.1568251E+01  2.3806719E+01
 2.1579752E+01  2.3791414E+01
 2.1591251E+01  2.3873236E+01
 2.1602751E+01  2.3906189E+01
 2.1614250E+01  2.3963085E+01
 2.1625751E+01  2.3975918E+01
 2.1637251E+01  2.4010777E+01
 2.1648750E+01  2.4001980E+01
 2.1660252E+01  2.4004795E+01
 2.1671751E+01  2.3973518E+01
 2.1683250E+01  2.3932089E+01
 2.1694752E+01  2.3882689E+01
 2.1706251E+01  2.3871002E+01
 2.1717751E+01  2.3846569E+01
 2.1729252E+01  2.3844852E+01
 2.1740751E+01  2.3861549E+01
 2.1752251E+01  2.3866611E+01
 2.1763752E+01  2.3881124E+01
 2.1775251E+01  2.3880716E+01
 2.1786751E+01  2.3902845E+01
 2.1798250E+01  2.3965641E+01
 2.1809752E+01  2.3978580E+01
 2.1821251E+01  2.4019413E+01
 2.1832750E+01  2.4023788E+01
 2.1844252E+01  2.4072702E+01
 2.1855751E+01  2.4061033E+01
 2.1867250E+01  2.4042656E+01
 2.1878752E+01  2.4074789E+01
 2.1890251E+01  2.4051420E+01
 2.1901751E+01  2.4024534E+01
 2.1913252E+01  2.3984133E+01
 2.1924751E+01  2.3975029E+01
 2.1936251E+01  2.3973171E+01
 2.1947752E+01  2.3903580E+01
 2.1959251E+01  2.3864416E+01
 2.1970751E+01  2.3897274E+01
 2.1982250E+01  2.3929960E+01
 2.1993752E+01  2.3946064E+01
 2.2005251E+01  2.3973303E+01
 2.2016750E+01  2.4008959E+01
 2.2028252E+01  2.4026186E+01
 2.2039751E+01  2.4048075E+01
 2.2051250E+01  2.4058554E+01
 2.2062752E+01  2.4046316E+01
 2.2074251E+01  2.4042822E+01
 2.2085751E+01  2.4010971E+01
 2.2097252E+01  2.4002211E+01
 2.2108751E+01  2.3994383E+01
 2.2120251E+01  2.4079161E+01
 2.2131752E+01  2.4098665E+01
 2.2143251E+01  2.4129467E+01
 2.2154751E+01  2.4127914E+01
 2.2166250E+01  2.4193521E+01
 2.2177752E+01  2.4167336E+01
 2.2189251E+01  2.4157656E+01
 2.2200750E+01  2.4161303E+01
 2.2212252E+01  2.4171932E+01
 2.2223751E+01  2.4188480E+01
 2.2235250E+01  2.4201021E+01
 2.2246752E+01  2.4237989E+01
 2.2258251E+01  2.4231438E+01
 2.2269751E+01  2.4243570E+01
 2.2281252E+01  2.4254292E+01
 2.2292751E+01  2.4278887E+01
 2.2304251E+01  2.4294558E+01
 2.2315752E+01  2.4322174E+01
 2.2327251E+01  2.4288897E+01
 2.2338751E+01  2.4350851E+01
 2.2350250E+01  2.4333223E+01
 2.2361752E+01  2.4324148E+01
 2.2373251E+01  2.4276785E+01
 2.2384750E+01  2.4244944E+01
 2.2396252E+01  2.4224834E+01
 2.2407751E+01  2.4241604E+01
 2.2419250E+01  2.4285215E+01
 2.2430752E+01  2.4340296E+01
 2.2442251E+01  2.4389618E+01
 2.2453751E+01  2.4483566E+01
 2.2465252E+01  2.4507706E+01
 2.2476751E+01  2.4489367E+01
 2.2488251E+01  2.4504206E+01
 2.2499752E+01  2.4568848E+01
 2.2511251E+01  2.4646578E+01
 2.2522751E+01  2.4651680E+01
 2.2534250E+01  2.4617638E+01
 2.2545752E+01  2.4541910E+01
 2.2557251E+01  2.4526205E+01
 2.2568750E+01  2.4511595E+01
 2.2580252E+01  2.4561987E+01
 2.2591751E+01  2.4657541E+01
 2.2603251E+01  2.4686068E+01
 2.2614752E+01  2.4703630E+01
 2.2626251E+01  2.4708534E+01
 2.2637751E+01  2.4705982E+01
 2.2649252E+01  2.4674589E+01
 2.2660751E+01  2.4658318E+01
 2.2672251E+01  2.4685253E+01
 2.2683752E+01  2.4723656E+01
 2.2695251E+01  2.4811779E+01
 2.2706751E+01  2.4871792E+01
 2.2718250E+01  2.4910604E+01
 2.2729752E+01  2.4927591E+01
 2.2741251E+01  2.5003048E+01
 2.2752750E+01  2.5077555E+01
 2.2764252E+01  2.5133482E+01
 2.2775751E+01  2.5130514E+01
 2.2787251E+01  2.5040382E+01
 2.2798752E+01  2.5062326E+01
 2.2810251E+01  2.5093332E+01
 2.2821751E+01  2.5166437E+01
 2.2833252E+01  2.5220112E+01
 2.2844751E+01  2.5294256E+01
 2.2856251E+01  2.5323072E+01
 2.2867750E+01  2.5375538E+01
 2.2879251E+01  2.5383072E+01
 2.2890751E+01  2.5443897E+01
 2.2902250E+01  2.5518530E+01
 2.2913752E+01  2.5649174E+01
 2.2925251E+01  2.5664030E+01
 2.2936750E+01  2.5692768E+01
 2.2948252E+01  2.5717314E+01
 2.2959751E+01  2.5744650E+01
 2.2971251E+01  2.5823803E+01
 2.2982752E+01  2.5921835E+01
 2.2994251E+01  2.6048981E+01
