F:\20151113_APS_34IDE\\Brian\Particle1\OCV\Data_0138.tif
2-Theta Angle (Degrees)
Intensity
       2000
 5.7500005E-03  0.0000000E+00
 1.7250001E-02  0.0000000E+00
 2.8750001E-02  0.0000000E+00
 4.0250003E-02  0.0000000E+00
 5.1750004E-02  0.0000000E+00
 6.3250005E-02  0.0000000E+00
 7.4750006E-02  0.0000000E+00
 8.6250007E-02  0.0000000E+00
 9.7750008E-02  0.0000000E+00
 1.0925001E-01  0.0000000E+00
 1.2075000E-01  0.0000000E+00
 1.3225001E-01  0.0000000E+00
 1.4375001E-01  0.0000000E+00
 1.5525001E-01  0.0000000E+00
 1.6675001E-01  0.0000000E+00
 1.7825001E-01  0.0000000E+00
 1.8975002E-01  0.0000000E+00
 2.0125002E-01  0.0000000E+00
 2.1275002E-01  0.0000000E+00
 2.2425000E-01  0.0000000E+00
 2.3575000E-01  0.0000000E+00
 2.4725001E-01  0.0000000E+00
 2.5875002E-01  0.0000000E+00
 2.7025002E-01  0.0000000E+00
 2.8175002E-01  0.0000000E+00
 2.9325002E-01  0.0000000E+00
 3.0475003E-01  0.0000000E+00
 3.1625003E-01  0.0000000E+00
 3.2775003E-01  0.0000000E+00
 3.3925003E-01  0.0000000E+00
 3.5075003E-01  0.0000000E+00
 3.6225003E-01  0.0000000E+00
 3.7375003E-01  0.0000000E+00
 3.8525003E-01  0.0000000E+00
 3.9675003E-01  0.0000000E+00
 4.0825003E-01  0.0000000E+00
 4.1975003E-01  0.0000000E+00
 4.3125004E-01  0.0000000E+00
 4.4275001E-01  0.0000000E+00
 4.5425001E-01  0.0000000E+00
 4.6575001E-01  0.0000000E+00
 4.7725001E-01  0.0000000E+00
 4.8875001E-01  0.0000000E+00
 5.0025004E-01  0.0000000E+00
 5.1175004E-01  0.0000000E+00
 5.2325004E-01  0.0000000E+00
 5.3475004E-01  0.0000000E+00
 5.4625005E-01  0.0000000E+00
 5.5775005E-01  0.0000000E+00
 5.6925005E-01  0.0000000E+00
 5.8075005E-01  0.0000000E+00
 5.9225005E-01  0.0000000E+00
 6.0375005E-01  0.0000000E+00
 6.1525005E-01  0.0000000E+00
 6.2675005E-01  0.0000000E+00
 6.3825005E-01  0.0000000E+00
 6.4975005E-01  0.0000000E+00
 6.6125005E-01  0.0000000E+00
 6.7275006E-01  0.0000000E+00
 6.8425006E-01  0.0000000E+00
 6.9575006E-01  0.0000000E+00
 7.0725006E-01  0.0000000E+00
 7.1875006E-01  0.0000000E+00
 7.3025006E-01  0.0000000E+00
 7.4175006E-01  0.0000000E+00
 7.5325006E-01  0.0000000E+00
 7.6475006E-01  0.0000000E+00
 7.7625006E-01  0.0000000E+00
 7.8775007E-01  0.0000000E+00
 7.9925007E-01  0.0000000E+00
 8.1075007E-01  0.0000000E+00
 8.2225007E-01  0.0000000E+00
 8.3375007E-01  0.0000000E+00
 8.4525007E-01  0.0000000E+00
 8.5675007E-01  0.0000000E+00
 8.6825007E-01  0.0000000E+00
 8.7975001E-01  0.0000000E+00
 8.9125001E-01  0.0000000E+00
 9.0275002E-01  0.0000000E+00
 9.1425002E-01  0.0000000E+00
 9.2575002E-01  0.0000000E+00
 9.3725002E-01  0.0000000E+00
 9.4875002E-01  0.0000000E+00
 9.6025002E-01  0.0000000E+00
 9.7175002E-01  0.0000000E+00
 9.8325002E-01  0.0000000E+00
 9.9475002E-01  0.0000000E+00
 1.0062500E+00  0.0000000E+00
 1.0177500E+00  0.0000000E+00
 1.0292500E+00  0.0000000E+00
 1.0407500E+00  0.0000000E+00
 1.0522500E+00  0.0000000E+00
 1.0637500E+00  0.0000000E+00
 1.0752500E+00  0.0000000E+00
 1.0867500E+00  0.0000000E+00
 1.0982500E+00  0.0000000E+00
 1.1097500E+00  0.0000000E+00
 1.1212500E+00  0.0000000E+00
 1.1327500E+00  0.0000000E+00
 1.1442500E+00  0.0000000E+00
 1.1557500E+00  0.0000000E+00
 1.1672500E+00  0.0000000E+00
 1.1787500E+00  0.0000000E+00
 1.1902500E+00  0.0000000E+00
 1.2017500E+00  0.0000000E+00
 1.2132500E+00  0.0000000E+00
 1.2247500E+00  0.0000000E+00
 1.2362500E+00  0.0000000E+00
 1.2477500E+00  0.0000000E+00
 1.2592500E+00  0.0000000E+00
 1.2707500E+00  0.0000000E+00
 1.2822500E+00  0.0000000E+00
 1.2937500E+00  0.0000000E+00
 1.3052500E+00  0.0000000E+00
 1.3167500E+00  0.0000000E+00
 1.3282501E+00  0.0000000E+00
 1.3397501E+00  0.0000000E+00
 1.3512501E+00  0.0000000E+00
 1.3627501E+00  0.0000000E+00
 1.3742501E+00  0.0000000E+00
 1.3857501E+00  0.0000000E+00
 1.3972501E+00  0.0000000E+00
 1.4087501E+00  0.0000000E+00
 1.4202501E+00  0.0000000E+00
 1.4317501E+00  0.0000000E+00
 1.4432501E+00  0.0000000E+00
 1.4547501E+00  0.0000000E+00
 1.4662501E+00  0.0000000E+00
 1.4777501E+00  0.0000000E+00
 1.4892501E+00  0.0000000E+00
 1.5007501E+00  0.0000000E+00
 1.5122501E+00  0.0000000E+00
 1.5237501E+00  0.0000000E+00
 1.5352501E+00  0.0000000E+00
 1.5467501E+00  0.0000000E+00
 1.5582501E+00  0.0000000E+00
 1.5697501E+00  0.0000000E+00
 1.5812501E+00  0.0000000E+00
 1.5927501E+00  0.0000000E+00
 1.6042501E+00  0.0000000E+00
 1.6157501E+00  0.0000000E+00
 1.6272501E+00  0.0000000E+00
 1.6387501E+00  0.0000000E+00
 1.6502501E+00  0.0000000E+00
 1.6617501E+00  0.0000000E+00
 1.6732501E+00  0.0000000E+00
 1.6847501E+00  0.0000000E+00
 1.6962501E+00  0.0000000E+00
 1.7077501E+00  0.0000000E+00
 1.7192501E+00  0.0000000E+00
 1.7307501E+00  0.0000000E+00
 1.7422501E+00  0.0000000E+00
 1.7537501E+00  0.0000000E+00
 1.7652501E+00  0.0000000E+00
 1.7767501E+00  0.0000000E+00
 1.7882501E+00  0.0000000E+00
 1.7997501E+00  0.0000000E+00
 1.8112501E+00  0.0000000E+00
 1.8227501E+00  0.0000000E+00
 1.8342501E+00  0.0000000E+00
 1.8457501E+00  0.0000000E+00
 1.8572501E+00  0.0000000E+00
 1.8687501E+00  0.0000000E+00
 1.8802501E+00  0.0000000E+00
 1.8917501E+00  0.0000000E+00
 1.9032501E+00  0.0000000E+00
 1.9147501E+00  0.0000000E+00
 1.9262501E+00  0.0000000E+00
 1.9377501E+00  0.0000000E+00
 1.9492501E+00  0.0000000E+00
 1.9607501E+00  0.0000000E+00
 1.9722501E+00  0.0000000E+00
 1.9837501E+00  0.0000000E+00
 1.9952501E+00  0.0000000E+00
 2.0067501E+00  0.0000000E+00
 2.0182500E+00  0.0000000E+00
 2.0297501E+00  0.0000000E+00
 2.0412500E+00  0.0000000E+00
 2.0527501E+00  0.0000000E+00
 2.0642500E+00  0.0000000E+00
 2.0757501E+00  0.0000000E+00
 2.0872500E+00  0.0000000E+00
 2.0987501E+00  0.0000000E+00
 2.1102500E+00  0.0000000E+00
 2.1217501E+00  0.0000000E+00
 2.1332500E+00  0.0000000E+00
 2.1447501E+00  0.0000000E+00
 2.1562500E+00  0.0000000E+00
 2.1677501E+00  0.0000000E+00
 2.1792500E+00  0.0000000E+00
 2.1907501E+00  0.0000000E+00
 2.2022500E+00  0.0000000E+00
 2.2137501E+00  0.0000000E+00
 2.2252500E+00  0.0000000E+00
 2.2367501E+00  0.0000000E+00
 2.2482500E+00  0.0000000E+00
 2.2597501E+00  0.0000000E+00
 2.2712500E+00  0.0000000E+00
 2.2827501E+00  0.0000000E+00
 2.2942500E+00  0.0000000E+00
 2.3057501E+00  0.0000000E+00
 2.3172500E+00  0.0000000E+00
 2.3287501E+00  0.0000000E+00
 2.3402500E+00  0.0000000E+00
 2.3517501E+00  0.0000000E+00
 2.3632500E+00  0.0000000E+00
 2.3747501E+00  0.0000000E+00
 2.3862500E+00  0.0000000E+00
 2.3977501E+00  0.0000000E+00
 2.4092500E+00  0.0000000E+00
 2.4207501E+00  0.0000000E+00
 2.4322500E+00  0.0000000E+00
 2.4437501E+00  0.0000000E+00
 2.4552500E+00  0.0000000E+00
 2.4667501E+00  0.0000000E+00
 2.4782500E+00  0.0000000E+00
 2.4897501E+00  0.0000000E+00
 2.5012500E+00  0.0000000E+00
 2.5127501E+00  0.0000000E+00
 2.5242500E+00  0.0000000E+00
 2.5357502E+00  0.0000000E+00
 2.5472500E+00  0.0000000E+00
 2.5587502E+00  0.0000000E+00
 2.5702500E+00  0.0000000E+00
 2.5817502E+00  0.0000000E+00
 2.5932500E+00  0.0000000E+00
 2.6047502E+00  0.0000000E+00
 2.6162500E+00  0.0000000E+00
 2.6277502E+00  0.0000000E+00
 2.6392500E+00  0.0000000E+00
 2.6507502E+00  0.0000000E+00
 2.6622500E+00  0.0000000E+00
 2.6737502E+00  0.0000000E+00
 2.6852500E+00  0.0000000E+00
 2.6967502E+00  0.0000000E+00
 2.7082500E+00  0.0000000E+00
 2.7197502E+00  0.0000000E+00
 2.7312500E+00  0.0000000E+00
 2.7427502E+00  0.0000000E+00
 2.7542500E+00  0.0000000E+00
 2.7657502E+00  0.0000000E+00
 2.7772501E+00  0.0000000E+00
 2.7887502E+00  0.0000000E+00
 2.8002501E+00  0.0000000E+00
 2.8117502E+00  0.0000000E+00
 2.8232501E+00  3.3467003E+01
 2.8347502E+00  3.3197826E+01
 2.8462501E+00  3.2993927E+01
 2.8577502E+00  3.2490227E+01
 2.8692501E+00  3.2414993E+01
 2.8807502E+00  3.2873833E+01
 2.8922501E+00  3.3802597E+01
 2.9037502E+00  3.4695004E+01
 2.9152501E+00  3.5468967E+01
 2.9267502E+00  3.6113342E+01
 2.9382501E+00  3.6250813E+01
 2.9497502E+00  3.6579933E+01
 2.9612501E+00  3.6384712E+01
 2.9727502E+00  3.6499195E+01
 2.9842501E+00  3.6376579E+01
 2.9957502E+00  3.6505211E+01
 3.0072501E+00  3.6700954E+01
 3.0187502E+00  3.6652584E+01
 3.0302501E+00  3.6557514E+01
 3.0417502E+00  3.6553349E+01
 3.0532501E+00  3.6403080E+01
 3.0647502E+00  3.6324089E+01
 3.0762501E+00  3.6136761E+01
 3.0877502E+00  3.6006889E+01
 3.0992501E+00  3.6105507E+01
 3.1107502E+00  3.5796936E+01
 3.1222501E+00  3.5696926E+01
 3.1337502E+00  3.5321114E+01
 3.1452501E+00  3.5290066E+01
 3.1567502E+00  3.5412231E+01
 3.1682501E+00  3.5322403E+01
 3.1797502E+00  3.5702179E+01
 3.1912501E+00  3.5718628E+01
 3.2027502E+00  3.5775303E+01
 3.2142501E+00  3.5876976E+01
 3.2257502E+00  3.5809105E+01
 3.2372501E+00  3.5768562E+01
 3.2487502E+00  3.5404362E+01
 3.2602501E+00  3.5313450E+01
 3.2717502E+00  3.5194347E+01
 3.2832501E+00  3.5231743E+01
 3.2947502E+00  3.5318115E+01
 3.3062501E+00  3.5351646E+01
 3.3177502E+00  3.5459827E+01
 3.3292501E+00  3.5397583E+01
 3.3407502E+00  3.5286015E+01
 3.3522501E+00  3.5286457E+01
 3.3637502E+00  3.4885738E+01
 3.3752501E+00  3.5042484E+01
 3.3867502E+00  3.4915123E+01
 3.3982501E+00  3.4894382E+01
 3.4097502E+00  3.5011658E+01
 3.4212501E+00  3.4996662E+01
 3.4327502E+00  3.4970139E+01
 3.4442501E+00  3.4881351E+01
 3.4557502E+00  3.4407082E+01
 3.4672501E+00  3.4127625E+01
 3.4787502E+00  3.3852600E+01
 3.4902501E+00  3.3913029E+01
 3.5017502E+00  3.4022297E+01
 3.5132501E+00  3.4145069E+01
 3.5247502E+00  3.4388317E+01
 3.5362501E+00  3.4678738E+01
 3.5477502E+00  3.4670094E+01
 3.5592501E+00  3.4585651E+01
 3.5707502E+00  3.4419968E+01
 3.5822501E+00  3.4190704E+01
 3.5937502E+00  3.3739952E+01
 3.6052501E+00  3.3476601E+01
 3.6167502E+00  3.3270893E+01
 3.6282501E+00  3.3201042E+01
 3.6397502E+00  3.3074997E+01
 3.6512501E+00  3.3166561E+01
 3.6627502E+00  3.3209637E+01
 3.6742501E+00  3.3314487E+01
 3.6857502E+00  3.3163120E+01
 3.6972501E+00  3.3147232E+01
 3.7087502E+00  3.3320415E+01
 3.7202501E+00  3.3439587E+01
 3.7317502E+00  3.3709980E+01
 3.7432501E+00  3.3883976E+01
 3.7547503E+00  3.3930202E+01
 3.7662501E+00  3.3908726E+01
 3.7777503E+00  3.3696194E+01
 3.7892501E+00  3.3448994E+01
 3.8007503E+00  3.3105045E+01
 3.8122501E+00  3.3021217E+01
 3.8237503E+00  3.2849865E+01
 3.8352501E+00  3.2790432E+01
 3.8467503E+00  3.2696918E+01
 3.8582501E+00  3.2884636E+01
 3.8697503E+00  3.3077148E+01
 3.8812501E+00  3.3030819E+01
 3.8927503E+00  3.2808426E+01
 3.9042501E+00  3.2632271E+01
 3.9157503E+00  3.2627975E+01
 3.9272501E+00  3.2688427E+01
 3.9387503E+00  3.2937786E+01
 3.9502501E+00  3.2979469E+01
 3.9617503E+00  3.3077591E+01
 3.9732502E+00  3.3019531E+01
 3.9847503E+00  3.3100235E+01
 3.9962502E+00  3.3020229E+01
 4.0077500E+00  3.2967464E+01
 4.0192504E+00  3.2802624E+01
 4.0307503E+00  3.2754772E+01
 4.0422502E+00  3.2683758E+01
 4.0537500E+00  3.2683044E+01
 4.0652504E+00  3.2551414E+01
 4.0767503E+00  3.2420002E+01
 4.0882502E+00  3.2272243E+01
 4.0997500E+00  3.2141884E+01
 4.1112504E+00  3.2171581E+01
 4.1227503E+00  3.2183582E+01
 4.1342502E+00  3.2351692E+01
 4.1457500E+00  3.2539196E+01
 4.1572504E+00  3.2476761E+01
 4.1687503E+00  3.2493706E+01
 4.1802502E+00  3.2356949E+01
 4.1917500E+00  3.2356434E+01
 4.2032504E+00  3.2215508E+01
 4.2147503E+00  3.2251026E+01
 4.2262502E+00  3.2307789E+01
 4.2377501E+00  3.2254433E+01
 4.2492504E+00  3.2138645E+01
 4.2607503E+00  3.2104137E+01
 4.2722502E+00  3.2130787E+01
 4.2837501E+00  3.2379478E+01
 4.2952504E+00  3.2285465E+01
 4.3067503E+00  3.2396561E+01
 4.3182502E+00  3.2273766E+01
 4.3297501E+00  3.2187572E+01
 4.3412504E+00  3.2214062E+01
 4.3527503E+00  3.2168499E+01
 4.3642502E+00  3.2215630E+01
 4.3757501E+00  3.2246326E+01
 4.3872504E+00  3.2276596E+01
 4.3987503E+00  3.2412376E+01
 4.4102502E+00  3.2583839E+01
 4.4217501E+00  3.2588112E+01
 4.4332504E+00  3.2709190E+01
 4.4447503E+00  3.2568741E+01
 4.4562502E+00  3.2545071E+01
 4.4677501E+00  3.2498695E+01
 4.4792504E+00  3.2456333E+01
 4.4907503E+00  3.2335060E+01
 4.5022502E+00  3.2320606E+01
 4.5137501E+00  3.2176052E+01
 4.5252504E+00  3.2332417E+01
 4.5367503E+00  3.2395649E+01
 4.5482502E+00  3.2681461E+01
 4.5597501E+00  3.2770756E+01
 4.5712504E+00  3.2772881E+01
 4.5827503E+00  3.2760616E+01
 4.5942502E+00  3.2819111E+01
 4.6057501E+00  3.2775558E+01
 4.6172504E+00  3.2882839E+01
 4.6287503E+00  3.2768639E+01
 4.6402502E+00  3.2917633E+01
 4.6517501E+00  3.2779129E+01
 4.6632504E+00  3.2824299E+01
 4.6747503E+00  3.2660061E+01
 4.6862502E+00  3.2611721E+01
 4.6977501E+00  3.2633072E+01
 4.7092505E+00  3.2658508E+01
 4.7207503E+00  3.2728226E+01
 4.7322502E+00  3.2575352E+01
 4.7437501E+00  3.2585804E+01
 4.7552505E+00  3.2432861E+01
 4.7667503E+00  3.2424809E+01
 4.7782502E+00  3.2413994E+01
 4.7897501E+00  3.2460987E+01
 4.8012505E+00  3.2515980E+01
 4.8127503E+00  3.2472462E+01
 4.8242502E+00  3.2560917E+01
 4.8357501E+00  3.2563969E+01
 4.8472505E+00  3.2723991E+01
 4.8587503E+00  3.2966766E+01
 4.8702502E+00  3.3173973E+01
 4.8817501E+00  3.3409855E+01
 4.8932505E+00  3.3382175E+01
 4.9047503E+00  3.3452393E+01
 4.9162502E+00  3.3328960E+01
 4.9277501E+00  3.3290562E+01
 4.9392505E+00  3.3217262E+01
 4.9507504E+00  3.3206562E+01
 4.9622502E+00  3.3142010E+01
 4.9737501E+00  3.3039078E+01
 4.9852505E+00  3.2994316E+01
 4.9967504E+00  3.2893356E+01
 5.0082502E+00  3.2983467E+01
 5.0197501E+00  3.2974483E+01
 5.0312505E+00  3.3171741E+01
 5.0427504E+00  3.3277340E+01
 5.0542502E+00  3.3523949E+01
 5.0657501E+00  3.3425900E+01
 5.0772505E+00  3.3361076E+01
 5.0887504E+00  3.3295574E+01
 5.1002502E+00  3.3391224E+01
 5.1117501E+00  3.3547897E+01
 5.1232505E+00  3.3559902E+01
 5.1347504E+00  3.3790203E+01
 5.1462502E+00  3.3767490E+01
 5.1577501E+00  3.3749332E+01
 5.1692505E+00  3.3749405E+01
 5.1807504E+00  3.3817513E+01
 5.1922503E+00  3.3938183E+01
 5.2037501E+00  3.3967583E+01
 5.2152505E+00  3.3991089E+01
 5.2267504E+00  3.3875580E+01
 5.2382503E+00  3.3848297E+01
 5.2497501E+00  3.3811447E+01
 5.2612505E+00  3.3832989E+01
 5.2727504E+00  3.3968647E+01
 5.2842503E+00  3.3998600E+01
 5.2957501E+00  3.4239391E+01
 5.3072500E+00  3.4304726E+01
 5.3187504E+00  3.4324802E+01
 5.3302503E+00  3.4339493E+01
 5.3417501E+00  3.4210331E+01
 5.3532500E+00  3.4145813E+01
 5.3647504E+00  3.4070763E+01
 5.3762503E+00  3.4127831E+01
 5.3877501E+00  3.4271809E+01
 5.3992500E+00  3.4264488E+01
 5.4107504E+00  3.4351322E+01
 5.4222503E+00  3.4233353E+01
 5.4337502E+00  3.4287537E+01
 5.4452500E+00  3.4161369E+01
 5.4567504E+00  3.4255623E+01
 5.4682503E+00  3.4248085E+01
 5.4797502E+00  3.4498226E+01
 5.4912500E+00  3.4439526E+01
 5.5027504E+00  3.4533718E+01
 5.5142503E+00  3.4550106E+01
 5.5257502E+00  3.4682404E+01
 5.5372500E+00  3.4763512E+01
 5.5487504E+00  3.4871666E+01
 5.5602503E+00  3.5148254E+01
 5.5717502E+00  3.5346283E+01
 5.5832500E+00  3.5394901E+01
 5.5947504E+00  3.5248089E+01
 5.6062503E+00  3.5247437E+01
 5.6177502E+00  3.5223274E+01
 5.6292500E+00  3.5183475E+01
 5.6407504E+00  3.5130131E+01
 5.6522503E+00  3.5155468E+01
 5.6637502E+00  3.5226612E+01
 5.6752501E+00  3.5276012E+01
 5.6867504E+00  3.5252026E+01
 5.6982503E+00  3.5274418E+01
 5.7097502E+00  3.5395817E+01
 5.7212501E+00  3.5439247E+01
 5.7327504E+00  3.5504753E+01
 5.7442503E+00  3.5421474E+01
 5.7557502E+00  3.5374146E+01
 5.7672501E+00  3.5333740E+01
 5.7787504E+00  3.5383362E+01
 5.7902503E+00  3.5501194E+01
 5.8017502E+00  3.5510269E+01
 5.8132501E+00  3.5584335E+01
 5.8247504E+00  3.5592449E+01
 5.8362503E+00  3.5630337E+01
 5.8477502E+00  3.5633465E+01
 5.8592501E+00  3.5562759E+01
 5.8707504E+00  3.5659016E+01
 5.8822503E+00  3.5904415E+01
 5.8937502E+00  3.6110081E+01
 5.9052501E+00  3.6260677E+01
 5.9167504E+00  3.6289608E+01
 5.9282503E+00  3.6428638E+01
 5.9397502E+00  3.6700596E+01
 5.9512501E+00  3.7366932E+01
 5.9627504E+00  3.7887604E+01
 5.9742503E+00  3.8355331E+01
 5.9857502E+00  3.8815948E+01
 5.9972501E+00  3.8860310E+01
 6.0087504E+00  3.8713837E+01
 6.0202503E+00  3.8170918E+01
 6.0317502E+00  3.7675900E+01
 6.0432501E+00  3.7429573E+01
 6.0547504E+00  3.7065605E+01
 6.0662503E+00  3.6956215E+01
 6.0777502E+00  3.6906708E+01
 6.0892501E+00  3.6867599E+01
 6.1007504E+00  3.6859005E+01
 6.1122503E+00  3.6882412E+01
 6.1237502E+00  3.6840572E+01
 6.1352501E+00  3.6727402E+01
 6.1467505E+00  3.6609116E+01
 6.1582503E+00  3.6601730E+01
 6.1697502E+00  3.6694431E+01
 6.1812501E+00  3.6780411E+01
 6.1927505E+00  3.6843864E+01
 6.2042503E+00  3.6785233E+01
 6.2157502E+00  3.6823864E+01
 6.2272501E+00  3.6888966E+01
 6.2387505E+00  3.7010239E+01
 6.2502503E+00  3.7083710E+01
 6.2617502E+00  3.7120960E+01
 6.2732501E+00  3.7320179E+01
 6.2847505E+00  3.7582706E+01
 6.2962503E+00  3.7616203E+01
 6.3077502E+00  3.7731434E+01
 6.3192501E+00  3.7753857E+01
 6.3307505E+00  3.7963486E+01
 6.3422503E+00  3.8096413E+01
 6.3537502E+00  3.8130589E+01
 6.3652501E+00  3.8162910E+01
 6.3767505E+00  3.8147812E+01
 6.3882504E+00  3.8259624E+01
 6.3997502E+00  3.8400253E+01
 6.4112501E+00  3.8572796E+01
 6.4227505E+00  3.8676552E+01
 6.4342504E+00  3.8733761E+01
 6.4457502E+00  3.8814785E+01
 6.4572501E+00  3.8837940E+01
 6.4687505E+00  3.9014645E+01
 6.4802504E+00  3.9112057E+01
 6.4917502E+00  3.9154156E+01
 6.5032501E+00  3.9265686E+01
 6.5147505E+00  3.9191673E+01
 6.5262504E+00  3.9214241E+01
 6.5377502E+00  3.9214939E+01
 6.5492501E+00  3.9198463E+01
 6.5607505E+00  3.9216251E+01
 6.5722504E+00  3.9173512E+01
 6.5837502E+00  3.9261829E+01
 6.5952501E+00  3.9390881E+01
 6.6067505E+00  3.9513580E+01
 6.6182504E+00  3.9659603E+01
 6.6297503E+00  3.9728943E+01
 6.6412501E+00  3.9820606E+01
 6.6527505E+00  3.9854355E+01
 6.6642504E+00  3.9994377E+01
 6.6757503E+00  4.0015854E+01
 6.6872501E+00  4.0044765E+01
 6.6987505E+00  4.0125973E+01
 6.7102504E+00  4.0175335E+01
 6.7217503E+00  4.0284798E+01
 6.7332501E+00  4.0327023E+01
 6.7447505E+00  4.0402245E+01
 6.7562504E+00  4.0504929E+01
 6.7677503E+00  4.0603977E+01
 6.7792501E+00  4.0751316E+01
 6.7907505E+00  4.0844765E+01
 6.8022504E+00  4.1083775E+01
 6.8137503E+00  4.1238422E+01
 6.8252501E+00  4.1399227E+01
 6.8367505E+00  4.1457947E+01
 6.8482504E+00  4.1489536E+01
 6.8597503E+00  4.1546963E+01
 6.8712502E+00  4.1564152E+01
 6.8827505E+00  4.1595585E+01
 6.8942504E+00  4.1704651E+01
 6.9057503E+00  4.1774971E+01
 6.9172502E+00  4.1993614E+01
 6.9287505E+00  4.2087109E+01
 6.9402504E+00  4.2191189E+01
 6.9517503E+00  4.2222427E+01
 6.9632502E+00  4.2271992E+01
 6.9747505E+00  4.2381550E+01
 6.9862504E+00  4.2394264E+01
 6.9977503E+00  4.2457108E+01
 7.0092502E+00  4.2472221E+01
 7.0207505E+00  4.2551453E+01
 7.0322504E+00  4.2626324E+01
 7.0437503E+00  4.2709938E+01
 7.0552502E+00  4.2862156E+01
 7.0667505E+00  4.2812836E+01
 7.0782504E+00  4.2833809E+01
 7.0897503E+00  4.2687923E+01
 7.1012502E+00  4.2683193E+01
 7.1127505E+00  4.2663921E+01
 7.1242504E+00  4.2761520E+01
 7.1357503E+00  4.2819080E+01
 7.1472502E+00  4.2877659E+01
 7.1587505E+00  4.2860241E+01
 7.1702504E+00  4.2873394E+01
 7.1817503E+00  4.2976524E+01
 7.1932502E+00  4.3158939E+01
 7.2047505E+00  4.3434982E+01
 7.2162504E+00  4.3540142E+01
 7.2277503E+00  4.3512001E+01
 7.2392502E+00  4.3436127E+01
 7.2507505E+00  4.3420475E+01
 7.2622504E+00  4.3414604E+01
 7.2737503E+00  4.3411598E+01
 7.2852502E+00  4.3410316E+01
 7.2967505E+00  4.3461502E+01
 7.3082504E+00  4.3457043E+01
 7.3197503E+00  4.3448792E+01
 7.3312502E+00  4.3510075E+01
 7.3427505E+00  4.3568890E+01
 7.3542504E+00  4.3667095E+01
 7.3657503E+00  4.3691677E+01
 7.3772502E+00  4.3749165E+01
 7.3887506E+00  4.3796219E+01
 7.4002504E+00  4.3841450E+01
 7.4117503E+00  4.3911453E+01
 7.4232502E+00  4.3925507E+01
 7.4347506E+00  4.4044048E+01
 7.4462504E+00  4.4125755E+01
 7.4577503E+00  4.4227982E+01
 7.4692502E+00  4.4282337E+01
 7.4807506E+00  4.4278309E+01
 7.4922504E+00  4.4294376E+01
 7.5037503E+00  4.4302181E+01
 7.5152502E+00  4.4353336E+01
 7.5267506E+00  4.4368843E+01
 7.5382504E+00  4.4354282E+01
 7.5497503E+00  4.4343639E+01
 7.5612502E+00  4.4301418E+01
 7.5727506E+00  4.4246452E+01
 7.5842505E+00  4.4241104E+01
 7.5957503E+00  4.4177078E+01
 7.6072502E+00  4.4194511E+01
 7.6187506E+00  4.4116787E+01
 7.6302505E+00  4.4138962E+01
 7.6417503E+00  4.4215439E+01
 7.6532502E+00  4.4287285E+01
 7.6647506E+00  4.4344471E+01
 7.6762505E+00  4.4289314E+01
 7.6877503E+00  4.4231007E+01
 7.6992502E+00  4.4252964E+01
 7.7107506E+00  4.4305248E+01
 7.7222505E+00  4.4365921E+01
 7.7337503E+00  4.4364063E+01
 7.7452502E+00  4.4399017E+01
 7.7567506E+00  4.4310879E+01
 7.7682505E+00  4.4343414E+01
 7.7797503E+00  4.4243282E+01
 7.7912502E+00  4.4259953E+01
 7.8027506E+00  4.4268883E+01
 7.8142505E+00  4.4330532E+01
 7.8257504E+00  4.4395000E+01
 7.8372502E+00  4.4437939E+01
 7.8487506E+00  4.4325176E+01
 7.8602505E+00  4.4279121E+01
 7.8717504E+00  4.4023415E+01
 7.8832502E+00  4.3956493E+01
 7.8947506E+00  4.3819874E+01
 7.9062505E+00  4.3826183E+01
 7.9177504E+00  4.3820435E+01
 7.9292502E+00  4.3791637E+01
 7.9407506E+00  4.3796974E+01
 7.9522505E+00  4.3695694E+01
 7.9637504E+00  4.3642387E+01
 7.9752502E+00  4.3566219E+01
 7.9867506E+00  4.3500179E+01
 7.9982505E+00  4.3484604E+01
 8.0097504E+00  4.3513847E+01
 8.0212507E+00  4.3566383E+01
 8.0327501E+00  4.3535389E+01
 8.0442505E+00  4.3419891E+01
 8.0557508E+00  4.3317547E+01
 8.0672503E+00  4.3159859E+01
 8.0787506E+00  4.2981850E+01
 8.0902500E+00  4.2819653E+01
 8.1017504E+00  4.2698463E+01
 8.1132507E+00  4.2640079E+01
 8.1247501E+00  4.2571621E+01
 8.1362505E+00  4.2489475E+01
 8.1477509E+00  4.2418293E+01
 8.1592503E+00  4.2284271E+01
 8.1707506E+00  4.2151524E+01
 8.1822500E+00  4.2046135E+01
 8.1937504E+00  4.2007771E+01
 8.2052507E+00  4.1959702E+01
 8.2167501E+00  4.1761978E+01
 8.2282505E+00  4.1611542E+01
 8.2397509E+00  4.1423508E+01
 8.2512503E+00  4.1308094E+01
 8.2627506E+00  4.1224564E+01
 8.2742500E+00  4.1124557E+01
 8.2857504E+00  4.1017685E+01
 8.2972507E+00  4.0832657E+01
 8.3087502E+00  4.0693119E+01
 8.3202505E+00  4.0641541E+01
 8.3317509E+00  4.0520840E+01
 8.3432503E+00  4.0471268E+01
 8.3547506E+00  4.0315201E+01
 8.3662500E+00  4.0183796E+01
 8.3777504E+00  3.9941593E+01
 8.3892508E+00  3.9698677E+01
 8.4007502E+00  3.9418816E+01
 8.4122505E+00  3.9271297E+01
 8.4237509E+00  3.9134251E+01
 8.4352503E+00  3.9029556E+01
 8.4467506E+00  3.8840458E+01
 8.4582500E+00  3.8659046E+01
 8.4697504E+00  3.8503662E+01
 8.4812508E+00  3.8284374E+01
 8.4927502E+00  3.8086163E+01
 8.5042505E+00  3.7890079E+01
 8.5157509E+00  3.7806591E+01
 8.5272503E+00  3.7679092E+01
 8.5387506E+00  3.7572601E+01
 8.5502501E+00  3.7370106E+01
 8.5617504E+00  3.7163383E+01
 8.5732508E+00  3.6947788E+01
 8.5847502E+00  3.6749069E+01
 8.5962505E+00  3.6559753E+01
 8.6077509E+00  3.6383049E+01
 8.6192503E+00  3.6200363E+01
 8.6307507E+00  3.6097725E+01
 8.6422501E+00  3.5970703E+01
 8.6537504E+00  3.5775814E+01
 8.6652508E+00  3.5532787E+01
 8.6767502E+00  3.5235493E+01
 8.6882505E+00  3.5064831E+01
 8.6997509E+00  3.4878544E+01
 8.7112503E+00  3.4722778E+01
 8.7227507E+00  3.4587322E+01
 8.7342501E+00  3.4411358E+01
 8.7457504E+00  3.4221272E+01
 8.7572508E+00  3.4063194E+01
 8.7687502E+00  3.3976028E+01
 8.7802505E+00  3.3880928E+01
 8.7917500E+00  3.3730984E+01
 8.8032503E+00  3.3628494E+01
 8.8147507E+00  3.3521137E+01
 8.8262501E+00  3.3361660E+01
 8.8377504E+00  3.3141033E+01
 8.8492508E+00  3.2890720E+01
 8.8607502E+00  3.2723915E+01
 8.8722506E+00  3.2478252E+01
 8.8837500E+00  3.2299168E+01
 8.8952503E+00  3.2028633E+01
 8.9067507E+00  3.1883402E+01
 8.9182501E+00  3.1698963E+01
 8.9297504E+00  3.1605026E+01
 8.9412508E+00  3.1430922E+01
 8.9527502E+00  3.1292311E+01
 8.9642506E+00  3.1103910E+01
 8.9757500E+00  3.0923870E+01
 8.9872503E+00  3.0704046E+01
 8.9987507E+00  3.0494419E+01
 9.0102501E+00  3.0359934E+01
 9.0217505E+00  3.0267677E+01
 9.0332508E+00  3.0259228E+01
 9.0447502E+00  3.0180792E+01
 9.0562506E+00  3.0061258E+01
 9.0677500E+00  2.9957327E+01
 9.0792503E+00  2.9813839E+01
 9.0907507E+00  2.9765480E+01
 9.1022501E+00  2.9617685E+01
 9.1137505E+00  2.9510315E+01
 9.1252508E+00  2.9392496E+01
 9.1367502E+00  2.9266567E+01
 9.1482506E+00  2.9194750E+01
 9.1597500E+00  2.9081394E+01
 9.1712503E+00  2.8969688E+01
 9.1827507E+00  2.8808495E+01
 9.1942501E+00  2.8605200E+01
 9.2057505E+00  2.8379631E+01
 9.2172508E+00  2.8233862E+01
 9.2287502E+00  2.8062220E+01
 9.2402506E+00  2.7988503E+01
 9.2517500E+00  2.7900558E+01
 9.2632504E+00  2.7816681E+01
 9.2747507E+00  2.7707563E+01
 9.2862501E+00  2.7646822E+01
 9.2977505E+00  2.7620661E+01
 9.3092508E+00  2.7562473E+01
 9.3207502E+00  2.7422283E+01
 9.3322506E+00  2.7333981E+01
 9.3437500E+00  2.7255119E+01
 9.3552504E+00  2.7167751E+01
 9.3667507E+00  2.7107464E+01
 9.3782501E+00  2.7009619E+01
 9.3897505E+00  2.6939548E+01
 9.4012508E+00  2.6852459E+01
 9.4127502E+00  2.6753441E+01
 9.4242506E+00  2.6646894E+01
 9.4357500E+00  2.6494612E+01
 9.4472504E+00  2.6411646E+01
 9.4587507E+00  2.6312613E+01
 9.4702501E+00  2.6249006E+01
 9.4817505E+00  2.6187950E+01
 9.4932508E+00  2.6178085E+01
 9.5047503E+00  2.6113285E+01
 9.5162506E+00  2.6135843E+01
 9.5277500E+00  2.6085798E+01
 9.5392504E+00  2.6094847E+01
 9.5507507E+00  2.5969818E+01
 9.5622501E+00  2.5978828E+01
 9.5737505E+00  2.5882814E+01
 9.5852509E+00  2.5884809E+01
 9.5967503E+00  2.5777184E+01
 9.6082506E+00  2.5704172E+01
 9.6197500E+00  2.5644951E+01
 9.6312504E+00  2.5590424E+01
 9.6427507E+00  2.5494690E+01
 9.6542501E+00  2.5389177E+01
 9.6657505E+00  2.5258890E+01
 9.6772509E+00  2.5182314E+01
 9.6887503E+00  2.5061712E+01
 9.7002506E+00  2.5011375E+01
 9.7117500E+00  2.4997551E+01
 9.7232504E+00  2.5047142E+01
 9.7347507E+00  2.4997221E+01
 9.7462502E+00  2.4986238E+01
 9.7577505E+00  2.4879360E+01
 9.7692509E+00  2.4851601E+01
 9.7807503E+00  2.4811369E+01
 9.7922506E+00  2.4793383E+01
 9.8037500E+00  2.4808342E+01
 9.8152504E+00  2.4729568E+01
 9.8267508E+00  2.4668425E+01
 9.8382502E+00  2.4565668E+01
 9.8497505E+00  2.4520517E+01
 9.8612509E+00  2.4491467E+01
 9.8727503E+00  2.4440960E+01
 9.8842506E+00  2.4424976E+01
 9.8957500E+00  2.4363680E+01
 9.9072504E+00  2.4318672E+01
 9.9187508E+00  2.4276854E+01
 9.9302502E+00  2.4246380E+01
 9.9417505E+00  2.4236986E+01
 9.9532509E+00  2.4194193E+01
 9.9647503E+00  2.4258656E+01
 9.9762506E+00  2.4253853E+01
 9.9877501E+00  2.4252874E+01
 9.9992504E+00  2.4251829E+01
 1.0010751E+01  2.4316406E+01
 1.0022250E+01  2.4272921E+01
 1.0033751E+01  2.4260540E+01
 1.0045251E+01  2.4217840E+01
 1.0056750E+01  2.4238199E+01
 1.0068251E+01  2.4211864E+01
 1.0079750E+01  2.4141323E+01
 1.0091250E+01  2.4093666E+01
 1.0102751E+01  2.4037514E+01
 1.0114250E+01  2.4011795E+01
 1.0125751E+01  2.3976814E+01
 1.0137251E+01  2.3908493E+01
 1.0148750E+01  2.3907694E+01
 1.0160251E+01  2.3925072E+01
 1.0171750E+01  2.3935057E+01
 1.0183250E+01  2.3944441E+01
 1.0194751E+01  2.3902184E+01
 1.0206250E+01  2.3905197E+01
 1.0217751E+01  2.3864285E+01
 1.0229251E+01  2.3830555E+01
 1.0240750E+01  2.3760471E+01
 1.0252251E+01  2.3637638E+01
 1.0263750E+01  2.3574308E+01
 1.0275250E+01  2.3519920E+01
 1.0286751E+01  2.3459806E+01
 1.0298250E+01  2.3442598E+01
 1.0309751E+01  2.3429667E+01
 1.0321251E+01  2.3418800E+01
 1.0332750E+01  2.3378717E+01
 1.0344251E+01  2.3293201E+01
 1.0355750E+01  2.3185299E+01
 1.0367250E+01  2.3164890E+01
 1.0378751E+01  2.3157335E+01
 1.0390250E+01  2.3284883E+01
 1.0401751E+01  2.3331505E+01
 1.0413251E+01  2.3353580E+01
 1.0424750E+01  2.3367712E+01
 1.0436251E+01  2.3329733E+01
 1.0447750E+01  2.3266104E+01
 1.0459250E+01  2.3184620E+01
 1.0470751E+01  2.3108667E+01
 1.0482250E+01  2.3085999E+01
 1.0493751E+01  2.3082090E+01
 1.0505251E+01  2.3083658E+01
 1.0516750E+01  2.3075569E+01
 1.0528251E+01  2.3125137E+01
 1.0539750E+01  2.3110487E+01
 1.0551250E+01  2.3168142E+01
 1.0562751E+01  2.3095516E+01
 1.0574250E+01  2.3017857E+01
 1.0585751E+01  2.2937096E+01
 1.0597251E+01  2.2859118E+01
 1.0608750E+01  2.2876709E+01
 1.0620251E+01  2.2869915E+01
 1.0631750E+01  2.2904123E+01
 1.0643250E+01  2.2920494E+01
 1.0654751E+01  2.2941963E+01
 1.0666250E+01  2.2914465E+01
 1.0677751E+01  2.2863569E+01
 1.0689251E+01  2.2771273E+01
 1.0700750E+01  2.2718002E+01
 1.0712251E+01  2.2674490E+01
 1.0723750E+01  2.2676298E+01
 1.0735250E+01  2.2647459E+01
 1.0746751E+01  2.2658533E+01
 1.0758250E+01  2.2670555E+01
 1.0769751E+01  2.2701548E+01
 1.0781251E+01  2.2764978E+01
 1.0792750E+01  2.2738560E+01
 1.0804251E+01  2.2755970E+01
 1.0815750E+01  2.2697615E+01
 1.0827250E+01  2.2747114E+01
 1.0838751E+01  2.2673834E+01
 1.0850250E+01  2.2639500E+01
 1.0861751E+01  2.2527666E+01
 1.0873251E+01  2.2508369E+01
 1.0884750E+01  2.2418118E+01
 1.0896251E+01  2.2397219E+01
 1.0907750E+01  2.2417507E+01
 1.0919250E+01  2.2458679E+01
 1.0930751E+01  2.2516577E+01
 1.0942250E+01  2.2489536E+01
 1.0953751E+01  2.2526726E+01
 1.0965251E+01  2.2485996E+01
 1.0976750E+01  2.2532007E+01
 1.0988251E+01  2.2504713E+01
 1.0999750E+01  2.2509079E+01
 1.1011250E+01  2.2422779E+01
 1.1022751E+01  2.2386118E+01
 1.1034250E+01  2.2367212E+01
 1.1045751E+01  2.2352806E+01
 1.1057251E+01  2.2325905E+01
 1.1068750E+01  2.2295942E+01
 1.1080251E+01  2.2287979E+01
 1.1091750E+01  2.2309612E+01
 1.1103251E+01  2.2326883E+01
 1.1114751E+01  2.2375917E+01
 1.1126250E+01  2.2388243E+01
 1.1137751E+01  2.2394197E+01
 1.1149251E+01  2.2346281E+01
 1.1160750E+01  2.2344316E+01
 1.1172251E+01  2.2276970E+01
 1.1183750E+01  2.2223942E+01
 1.1195251E+01  2.2182526E+01
 1.1206751E+01  2.2200068E+01
 1.1218250E+01  2.2226528E+01
 1.1229751E+01  2.2209959E+01
 1.1241251E+01  2.2214540E+01
 1.1252750E+01  2.2222101E+01
 1.1264251E+01  2.2218660E+01
 1.1275750E+01  2.2190697E+01
 1.1287251E+01  2.2164865E+01
 1.1298751E+01  2.2185074E+01
 1.1310250E+01  2.2213366E+01
 1.1321751E+01  2.2295845E+01
 1.1333251E+01  2.2264128E+01
 1.1344750E+01  2.2336267E+01
 1.1356251E+01  2.2338099E+01
 1.1367750E+01  2.2423012E+01
 1.1379251E+01  2.2388651E+01
 1.1390751E+01  2.2375885E+01
 1.1402250E+01  2.2422922E+01
 1.1413751E+01  2.2465302E+01
 1.1425251E+01  2.2535711E+01
 1.1436750E+01  2.2499319E+01
 1.1448251E+01  2.2486750E+01
 1.1459750E+01  2.2432720E+01
 1.1471251E+01  2.2422318E+01
 1.1482751E+01  2.2433620E+01
 1.1494250E+01  2.2423758E+01
 1.1505751E+01  2.2460159E+01
 1.1517251E+01  2.2494823E+01
 1.1528750E+01  2.2606104E+01
 1.1540251E+01  2.2743399E+01
 1.1551750E+01  2.2890673E+01
 1.1563251E+01  2.3068686E+01
 1.1574751E+01  2.3198875E+01
 1.1586250E+01  2.3263117E+01
 1.1597751E+01  2.3268040E+01
 1.1609251E+01  2.3110672E+01
 1.1620750E+01  2.2961700E+01
 1.1632251E+01  2.2800949E+01
 1.1643750E+01  2.2666922E+01
 1.1655251E+01  2.2571394E+01
 1.1666751E+01  2.2428289E+01
 1.1678250E+01  2.2361959E+01
 1.1689751E+01  2.2287270E+01
 1.1701251E+01  2.2239458E+01
 1.1712750E+01  2.2202898E+01
 1.1724251E+01  2.2173447E+01
 1.1735750E+01  2.2123837E+01
 1.1747251E+01  2.2111237E+01
 1.1758751E+01  2.2095152E+01
 1.1770250E+01  2.2131138E+01
 1.1781751E+01  2.2143957E+01
 1.1793251E+01  2.2191942E+01
 1.1804750E+01  2.2241327E+01
 1.1816251E+01  2.2284960E+01
 1.1827750E+01  2.2280748E+01
 1.1839251E+01  2.2257349E+01
 1.1850751E+01  2.2280272E+01
 1.1862250E+01  2.2314939E+01
 1.1873751E+01  2.2292879E+01
 1.1885251E+01  2.2267992E+01
 1.1896750E+01  2.2266594E+01
 1.1908251E+01  2.2324778E+01
 1.1919750E+01  2.2402308E+01
 1.1931251E+01  2.2478769E+01
 1.1942751E+01  2.2596889E+01
 1.1954250E+01  2.2704039E+01
 1.1965751E+01  2.2720625E+01
 1.1977251E+01  2.2745487E+01
 1.1988750E+01  2.2763206E+01
 1.2000251E+01  2.2808306E+01
 1.2011750E+01  2.2763840E+01
 1.2023251E+01  2.2721033E+01
 1.2034751E+01  2.2664736E+01
 1.2046250E+01  2.2629889E+01
 1.2057751E+01  2.2591862E+01
 1.2069251E+01  2.2618280E+01
 1.2080750E+01  2.2696064E+01
 1.2092251E+01  2.2708042E+01
 1.2103750E+01  2.2733713E+01
 1.2115251E+01  2.2630285E+01
 1.2126751E+01  2.2585453E+01
 1.2138250E+01  2.2504818E+01
 1.2149751E+01  2.2469667E+01
 1.2161251E+01  2.2438650E+01
 1.2172750E+01  2.2436346E+01
 1.2184251E+01  2.2451048E+01
 1.2195750E+01  2.2460661E+01
 1.2207251E+01  2.2438976E+01
 1.2218751E+01  2.2370863E+01
 1.2230250E+01  2.2286091E+01
 1.2241751E+01  2.2223320E+01
 1.2253251E+01  2.2185703E+01
 1.2264750E+01  2.2218851E+01
 1.2276251E+01  2.2212894E+01
 1.2287750E+01  2.2285439E+01
 1.2299251E+01  2.2279806E+01
 1.2310751E+01  2.2354366E+01
 1.2322250E+01  2.2350504E+01
 1.2333751E+01  2.2379042E+01
 1.2345250E+01  2.2326862E+01
 1.2356750E+01  2.2366026E+01
 1.2368251E+01  2.2370197E+01
 1.2379750E+01  2.2377529E+01
 1.2391251E+01  2.2390112E+01
 1.2402751E+01  2.2359854E+01
 1.2414250E+01  2.2372478E+01
 1.2425751E+01  2.2381132E+01
 1.2437250E+01  2.2385490E+01
 1.2448750E+01  2.2402067E+01
 1.2460251E+01  2.2371952E+01
 1.2471750E+01  2.2386829E+01
 1.2483251E+01  2.2452229E+01
 1.2494751E+01  2.2458458E+01
 1.2506250E+01  2.2453209E+01
 1.2517751E+01  2.2401386E+01
 1.2529250E+01  2.2420166E+01
 1.2540751E+01  2.2473669E+01
 1.2552251E+01  2.2533049E+01
 1.2563750E+01  2.2578203E+01
 1.2575251E+01  2.2626390E+01
 1.2586751E+01  2.2635891E+01
 1.2598250E+01  2.2641256E+01
 1.2609751E+01  2.2644760E+01
 1.2621250E+01  2.2690990E+01
 1.2632751E+01  2.2675243E+01
 1.2644251E+01  2.2621887E+01
 1.2655750E+01  2.2587276E+01
 1.2667251E+01  2.2629810E+01
 1.2678751E+01  2.2686888E+01
 1.2690250E+01  2.2741871E+01
 1.2701751E+01  2.2792807E+01
 1.2713250E+01  2.2863075E+01
 1.2724751E+01  2.2841082E+01
 1.2736251E+01  2.2821838E+01
 1.2747750E+01  2.2780441E+01
 1.2759251E+01  2.2765156E+01
 1.2770751E+01  2.2718992E+01
 1.2782250E+01  2.2784843E+01
 1.2793751E+01  2.2769796E+01
 1.2805250E+01  2.2811285E+01
 1.2816751E+01  2.2731190E+01
 1.2828251E+01  2.2781637E+01
 1.2839750E+01  2.2795252E+01
 1.2851251E+01  2.2887051E+01
 1.2862751E+01  2.2919594E+01
 1.2874250E+01  2.3023998E+01
 1.2885751E+01  2.3064823E+01
 1.2897250E+01  2.3169996E+01
 1.2908751E+01  2.3187897E+01
 1.2920251E+01  2.3200212E+01
 1.2931750E+01  2.3259453E+01
 1.2943251E+01  2.3343634E+01
 1.2954751E+01  2.3471159E+01
 1.2966250E+01  2.3556925E+01
 1.2977751E+01  2.3679792E+01
 1.2989250E+01  2.3707863E+01
 1.3000751E+01  2.3774233E+01
 1.3012251E+01  2.3838894E+01
 1.3023750E+01  2.3970690E+01
 1.3035251E+01  2.4052425E+01
 1.3046751E+01  2.4099716E+01
 1.3058250E+01  2.4179211E+01
 1.3069751E+01  2.4238880E+01
 1.3081250E+01  2.4316570E+01
 1.3092751E+01  2.4379622E+01
 1.3104251E+01  2.4516014E+01
 1.3115750E+01  2.4647591E+01
 1.3127251E+01  2.4737251E+01
 1.3138751E+01  2.4819422E+01
 1.3150250E+01  2.4920284E+01
 1.3161751E+01  2.5042303E+01
 1.3173250E+01  2.5157433E+01
 1.3184751E+01  2.5260601E+01
 1.3196251E+01  2.5404230E+01
 1.3207750E+01  2.5535452E+01
 1.3219251E+01  2.5726599E+01
 1.3230751E+01  2.5874029E+01
 1.3242250E+01  2.6059742E+01
 1.3253751E+01  2.6180563E+01
 1.3265250E+01  2.6326168E+01
 1.3276751E+01  2.6419453E+01
 1.3288251E+01  2.6510887E+01
 1.3299750E+01  2.6595833E+01
 1.3311251E+01  2.6683065E+01
 1.3322751E+01  2.6810980E+01
 1.3334250E+01  2.6995438E+01
 1.3345751E+01  2.7198223E+01
 1.3357250E+01  2.7441284E+01
 1.3368751E+01  2.7620636E+01
 1.3380251E+01  2.7819683E+01
 1.3391750E+01  2.7929384E+01
 1.3403251E+01  2.8088196E+01
 1.3414751E+01  2.8154329E+01
 1.3426250E+01  2.8284931E+01
 1.3437751E+01  2.8364594E+01
 1.3449250E+01  2.8497425E+01
 1.3460751E+01  2.8606699E+01
 1.3472251E+01  2.8756290E+01
 1.3483750E+01  2.8912020E+01
 1.3495251E+01  2.9038233E+01
 1.3506751E+01  2.9198114E+01
 1.3518250E+01  2.9228222E+01
 1.3529751E+01  2.9236277E+01
 1.3541250E+01  2.9235056E+01
 1.3552751E+01  2.9275120E+01
 1.3564251E+01  2.9383741E+01
 1.3575750E+01  2.9446688E+01
 1.3587251E+01  2.9553757E+01
 1.3598751E+01  2.9587635E+01
 1.3610250E+01  2.9567587E+01
 1.3621751E+01  2.9651337E+01
 1.3633250E+01  2.9592548E+01
 1.3644751E+01  2.9698364E+01
 1.3656251E+01  2.9660172E+01
 1.3667750E+01  2.9686228E+01
 1.3679251E+01  2.9517941E+01
 1.3690751E+01  2.9451941E+01
 1.3702250E+01  2.9366856E+01
 1.3713751E+01  2.9274799E+01
 1.3725250E+01  2.9166763E+01
 1.3736751E+01  2.9080126E+01
 1.3748251E+01  2.9057007E+01
 1.3759750E+01  2.9048723E+01
 1.3771251E+01  2.9041862E+01
 1.3782751E+01  2.9035799E+01
 1.3794250E+01  2.9001009E+01
 1.3805751E+01  2.8995863E+01
 1.3817250E+01  2.8874126E+01
 1.3828751E+01  2.8800383E+01
 1.3840251E+01  2.8726919E+01
 1.3851750E+01  2.8768244E+01
 1.3863251E+01  2.8823063E+01
 1.3874751E+01  2.8892687E+01
 1.3886250E+01  2.9065187E+01
 1.3897751E+01  2.9467203E+01
 1.3909250E+01  2.9941036E+01
 1.3920751E+01  3.0455498E+01
 1.3932251E+01  3.0769342E+01
 1.3943750E+01  3.0854183E+01
 1.3955251E+01  3.0753483E+01
 1.3966751E+01  3.0496237E+01
 1.3978251E+01  3.0189043E+01
 1.3989751E+01  2.9625681E+01
 1.4001250E+01  2.9076731E+01
 1.4012751E+01  2.8505611E+01
 1.4024251E+01  2.8115948E+01
 1.4035750E+01  2.7779537E+01
 1.4047251E+01  2.7671131E+01
 1.4058751E+01  2.7617138E+01
 1.4070251E+01  2.7609922E+01
 1.4081751E+01  2.7513638E+01
 1.4093250E+01  2.7448732E+01
 1.4104751E+01  2.7307192E+01
 1.4116251E+01  2.7193182E+01
 1.4127750E+01  2.6999815E+01
 1.4139251E+01  2.6875957E+01
 1.4150751E+01  2.6680471E+01
 1.4162251E+01  2.6611397E+01
 1.4173751E+01  2.6564062E+01
 1.4185250E+01  2.6524044E+01
 1.4196751E+01  2.6456799E+01
 1.4208251E+01  2.6430851E+01
 1.4219750E+01  2.6399109E+01
 1.4231251E+01  2.6348383E+01
 1.4242751E+01  2.6257496E+01
 1.4254251E+01  2.6216658E+01
 1.4265751E+01  2.6202555E+01
 1.4277250E+01  2.6198669E+01
 1.4288751E+01  2.6182842E+01
 1.4300251E+01  2.6153990E+01
 1.4311750E+01  2.6127584E+01
 1.4323251E+01  2.6093748E+01
 1.4334751E+01  2.6038801E+01
 1.4346251E+01  2.6002228E+01
 1.4357751E+01  2.5975199E+01
 1.4369250E+01  2.5948368E+01
 1.4380751E+01  2.5871893E+01
 1.4392251E+01  2.5857742E+01
 1.4403750E+01  2.5859474E+01
 1.4415251E+01  2.5887897E+01
 1.4426751E+01  2.5875187E+01
 1.4438251E+01  2.5830414E+01
 1.4449751E+01  2.5789135E+01
 1.4461250E+01  2.5689074E+01
 1.4472751E+01  2.5629803E+01
 1.4484251E+01  2.5548714E+01
 1.4495750E+01  2.5493071E+01
 1.4507251E+01  2.5461105E+01
 1.4518751E+01  2.5435017E+01
 1.4530251E+01  2.5435333E+01
 1.4541751E+01  2.5410824E+01
 1.4553250E+01  2.5372181E+01
 1.4564751E+01  2.5370371E+01
 1.4576251E+01  2.5273432E+01
 1.4587750E+01  2.5220102E+01
 1.4599251E+01  2.5099485E+01
 1.4610751E+01  2.5131123E+01
 1.4622251E+01  2.5141321E+01
 1.4633751E+01  2.5170233E+01
 1.4645250E+01  2.5124208E+01
 1.4656751E+01  2.5033873E+01
 1.4668251E+01  2.4955694E+01
 1.4679750E+01  2.4945412E+01
 1.4691251E+01  2.4965479E+01
 1.4702751E+01  2.5004894E+01
 1.4714251E+01  2.4935448E+01
 1.4725751E+01  2.4936865E+01
 1.4737250E+01  2.4851385E+01
 1.4748751E+01  2.4852188E+01
 1.4760251E+01  2.4772789E+01
 1.4771750E+01  2.4794849E+01
 1.4783251E+01  2.4803799E+01
 1.4794751E+01  2.4855339E+01
 1.4806251E+01  2.4823975E+01
 1.4817751E+01  2.4818804E+01
 1.4829250E+01  2.4750477E+01
 1.4840751E+01  2.4797878E+01
 1.4852251E+01  2.4818378E+01
 1.4863750E+01  2.4852707E+01
 1.4875251E+01  2.4805178E+01
 1.4886751E+01  2.4750366E+01
 1.4898251E+01  2.4721447E+01
 1.4909751E+01  2.4718365E+01
 1.4921250E+01  2.4697458E+01
 1.4932751E+01  2.4697132E+01
 1.4944251E+01  2.4649323E+01
 1.4955750E+01  2.4631207E+01
 1.4967251E+01  2.4588598E+01
 1.4978751E+01  2.4576616E+01
 1.4990251E+01  2.4520817E+01
 1.5001751E+01  2.4489998E+01
 1.5013250E+01  2.4518276E+01
 1.5024751E+01  2.4577328E+01
 1.5036251E+01  2.4588774E+01
 1.5047750E+01  2.4609938E+01
 1.5059251E+01  2.4617691E+01
 1.5070751E+01  2.4610319E+01
 1.5082251E+01  2.4535032E+01
 1.5093751E+01  2.4524837E+01
 1.5105250E+01  2.4559341E+01
 1.5116751E+01  2.4627396E+01
 1.5128251E+01  2.4692537E+01
 1.5139750E+01  2.4754591E+01
 1.5151251E+01  2.4805748E+01
 1.5162751E+01  2.4799589E+01
 1.5174251E+01  2.4840887E+01
 1.5185751E+01  2.4830317E+01
 1.5197250E+01  2.4850964E+01
 1.5208751E+01  2.4830812E+01
 1.5220251E+01  2.4852495E+01
 1.5231750E+01  2.4805468E+01
 1.5243251E+01  2.4690062E+01
 1.5254751E+01  2.4617464E+01
 1.5266251E+01  2.4512590E+01
 1.5277751E+01  2.4494509E+01
 1.5289250E+01  2.4471369E+01
 1.5300751E+01  2.4480537E+01
 1.5312251E+01  2.4461697E+01
 1.5323750E+01  2.4418573E+01
 1.5335251E+01  2.4463373E+01
 1.5346751E+01  2.4457237E+01
 1.5358251E+01  2.4461287E+01
 1.5369751E+01  2.4399151E+01
 1.5381250E+01  2.4318689E+01
 1.5392751E+01  2.4275089E+01
 1.5404251E+01  2.4294485E+01
 1.5415751E+01  2.4351147E+01
 1.5427251E+01  2.4325520E+01
 1.5438751E+01  2.4325788E+01
 1.5450251E+01  2.4292013E+01
 1.5461751E+01  2.4311495E+01
 1.5473250E+01  2.4289425E+01
 1.5484751E+01  2.4323887E+01
 1.5496251E+01  2.4273064E+01
 1.5507751E+01  2.4266806E+01
 1.5519251E+01  2.4219820E+01
 1.5530751E+01  2.4235943E+01
 1.5542251E+01  2.4172426E+01
 1.5553751E+01  2.4214151E+01
 1.5565250E+01  2.4243559E+01
 1.5576751E+01  2.4302446E+01
 1.5588251E+01  2.4293705E+01
 1.5599751E+01  2.4259880E+01
 1.5611251E+01  2.4242779E+01
 1.5622751E+01  2.4182459E+01
 1.5634251E+01  2.4183990E+01
 1.5645751E+01  2.4220280E+01
 1.5657250E+01  2.4285519E+01
 1.5668751E+01  2.4360033E+01
 1.5680251E+01  2.4369101E+01
 1.5691751E+01  2.4428755E+01
 1.5703251E+01  2.4443985E+01
 1.5714751E+01  2.4470675E+01
 1.5726251E+01  2.4512110E+01
 1.5737751E+01  2.4498199E+01
 1.5749250E+01  2.4488895E+01
 1.5760751E+01  2.4454012E+01
 1.5772251E+01  2.4457212E+01
 1.5783751E+01  2.4414774E+01
 1.5795251E+01  2.4391960E+01
 1.5806751E+01  2.4365192E+01
 1.5818251E+01  2.4336151E+01
 1.5829751E+01  2.4277185E+01
 1.5841250E+01  2.4258127E+01
 1.5852751E+01  2.4323742E+01
 1.5864251E+01  2.4357323E+01
 1.5875751E+01  2.4409636E+01
 1.5887251E+01  2.4404097E+01
 1.5898750E+01  2.4448893E+01
 1.5910251E+01  2.4433655E+01
 1.5921751E+01  2.4426640E+01
 1.5933250E+01  2.4380409E+01
 1.5944751E+01  2.4342100E+01
 1.5956251E+01  2.4287661E+01
 1.5967751E+01  2.4268070E+01
 1.5979251E+01  2.4335667E+01
 1.5990750E+01  2.4474819E+01
 1.6002251E+01  2.4565416E+01
 1.6013750E+01  2.4598574E+01
 1.6025251E+01  2.4580173E+01
 1.6036751E+01  2.4524208E+01
 1.6048250E+01  2.4467461E+01
 1.6059752E+01  2.4458921E+01
 1.6071251E+01  2.4432007E+01
 1.6082750E+01  2.4509453E+01
 1.6094252E+01  2.4531128E+01
 1.6105751E+01  2.4573248E+01
 1.6117250E+01  2.4510481E+01
 1.6128750E+01  2.4494492E+01
 1.6140251E+01  2.4561785E+01
 1.6151751E+01  2.4590347E+01
 1.6163250E+01  2.4683352E+01
 1.6174751E+01  2.4645298E+01
 1.6186251E+01  2.4848351E+01
 1.6197750E+01  2.4841703E+01
 1.6209251E+01  2.5270819E+01
 1.6220751E+01  2.5331575E+01
 1.6232250E+01  2.5847076E+01
 1.6243752E+01  2.6016697E+01
 1.6255251E+01  2.6293684E+01
 1.6266750E+01  2.6422180E+01
 1.6278252E+01  2.6070850E+01
 1.6289751E+01  2.6040428E+01
 1.6301250E+01  2.5305986E+01
 1.6312750E+01  2.5297533E+01
 1.6324251E+01  2.4768343E+01
 1.6335751E+01  2.4756559E+01
 1.6347250E+01  2.4507023E+01
 1.6358751E+01  2.4464994E+01
 1.6370251E+01  2.4420816E+01
 1.6381750E+01  2.4397194E+01
 1.6393251E+01  2.4405554E+01
 1.6404751E+01  2.4371408E+01
 1.6416250E+01  2.4387045E+01
 1.6427752E+01  2.4375780E+01
 1.6439251E+01  2.4380133E+01
 1.6450750E+01  2.4355160E+01
 1.6462252E+01  2.4380993E+01
 1.6473751E+01  2.4343418E+01
 1.6485250E+01  2.4370974E+01
 1.6496750E+01  2.4344389E+01
 1.6508251E+01  2.4338308E+01
 1.6519751E+01  2.4294420E+01
 1.6531250E+01  2.4324701E+01
 1.6542751E+01  2.4425398E+01
 1.6554251E+01  2.4474346E+01
 1.6565750E+01  2.4487293E+01
 1.6577251E+01  2.4419952E+01
 1.6588751E+01  2.4446566E+01
 1.6600250E+01  2.4461010E+01
 1.6611752E+01  2.4464231E+01
 1.6623251E+01  2.4390244E+01
 1.6634750E+01  2.4353884E+01
 1.6646252E+01  2.4354465E+01
 1.6657751E+01  2.4311213E+01
 1.6669250E+01  2.4290781E+01
 1.6680750E+01  2.4276039E+01
 1.6692251E+01  2.4310957E+01
 1.6703751E+01  2.4326679E+01
 1.6715250E+01  2.4319010E+01
 1.6726751E+01  2.4291988E+01
 1.6738251E+01  2.4262043E+01
 1.6749750E+01  2.4259163E+01
 1.6761251E+01  2.4222294E+01
 1.6772751E+01  2.4143764E+01
 1.6784250E+01  2.4112942E+01
 1.6795752E+01  2.4119036E+01
 1.6807251E+01  2.4150675E+01
 1.6818750E+01  2.4156507E+01
 1.6830252E+01  2.4123251E+01
 1.6841751E+01  2.4082178E+01
 1.6853251E+01  2.4088434E+01
 1.6864750E+01  2.4154490E+01
 1.6876251E+01  2.4238905E+01
 1.6887751E+01  2.4230553E+01
 1.6899250E+01  2.4177975E+01
 1.6910751E+01  2.4111818E+01
 1.6922251E+01  2.4099358E+01
 1.6933750E+01  2.4081116E+01
 1.6945251E+01  2.4089563E+01
 1.6956751E+01  2.4109652E+01
 1.6968250E+01  2.4097067E+01
 1.6979752E+01  2.4083067E+01
 1.6991251E+01  2.4032049E+01
 1.7002750E+01  2.4026329E+01
 1.7014252E+01  2.3927958E+01
 1.7025751E+01  2.3913567E+01
 1.7037251E+01  2.3878721E+01
 1.7048750E+01  2.3913359E+01
 1.7060251E+01  2.3867928E+01
 1.7071751E+01  2.3933685E+01
 1.7083250E+01  2.3964375E+01
 1.7094751E+01  2.3980764E+01
 1.7106251E+01  2.3920475E+01
 1.7117750E+01  2.3891949E+01
 1.7129251E+01  2.3915571E+01
 1.7140751E+01  2.3875715E+01
 1.7152250E+01  2.3901037E+01
 1.7163752E+01  2.3885199E+01
 1.7175251E+01  2.3901991E+01
 1.7186750E+01  2.3899723E+01
 1.7198252E+01  2.3917765E+01
 1.7209751E+01  2.3894850E+01
 1.7221251E+01  2.3817638E+01
 1.7232750E+01  2.3767685E+01
 1.7244251E+01  2.3736555E+01
 1.7255751E+01  2.3677631E+01
 1.7267250E+01  2.3696642E+01
 1.7278751E+01  2.3740313E+01
 1.7290251E+01  2.3772987E+01
 1.7301750E+01  2.3783314E+01
 1.7313251E+01  2.3766151E+01
 1.7324751E+01  2.3805387E+01
 1.7336250E+01  2.3817034E+01
 1.7347752E+01  2.3802586E+01
 1.7359251E+01  2.3810087E+01
 1.7370750E+01  2.3805035E+01
 1.7382252E+01  2.3789137E+01
 1.7393751E+01  2.3728275E+01
 1.7405251E+01  2.3692606E+01
 1.7416750E+01  2.3685507E+01
 1.7428251E+01  2.3713003E+01
 1.7439751E+01  2.3743027E+01
 1.7451250E+01  2.3772209E+01
 1.7462751E+01  2.3774626E+01
 1.7474251E+01  2.3718418E+01
 1.7485750E+01  2.3689264E+01
 1.7497252E+01  2.3605536E+01
 1.7508751E+01  2.3635817E+01
 1.7520250E+01  2.3660568E+01
 1.7531752E+01  2.3718645E+01
 1.7543251E+01  2.3728735E+01
 1.7554750E+01  2.3703335E+01
 1.7566252E+01  2.3666861E+01
 1.7577751E+01  2.3624357E+01
 1.7589251E+01  2.3602459E+01
 1.7600750E+01  2.3629242E+01
 1.7612251E+01  2.3653727E+01
 1.7623751E+01  2.3667002E+01
 1.7635250E+01  2.3636993E+01
 1.7646751E+01  2.3580957E+01
 1.7658251E+01  2.3538105E+01
 1.7669750E+01  2.3481424E+01
 1.7681252E+01  2.3456152E+01
 1.7692751E+01  2.3482552E+01
 1.7704250E+01  2.3475594E+01
 1.7715752E+01  2.3462988E+01
 1.7727251E+01  2.3370287E+01
 1.7738750E+01  2.3352808E+01
 1.7750252E+01  2.3338158E+01
 1.7761751E+01  2.3411337E+01
 1.7773251E+01  2.3430326E+01
 1.7784750E+01  2.3445250E+01
 1.7796251E+01  2.3435707E+01
 1.7807751E+01  2.3436623E+01
 1.7819250E+01  2.3431499E+01
 1.7830751E+01  2.3422695E+01
 1.7842251E+01  2.3451445E+01
 1.7853750E+01  2.3479860E+01
 1.7865252E+01  2.3448570E+01
 1.7876751E+01  2.3357534E+01
 1.7888250E+01  2.3289011E+01
 1.7899752E+01  2.3286402E+01
 1.7911251E+01  2.3339302E+01
 1.7922750E+01  2.3367857E+01
 1.7934252E+01  2.3374704E+01
 1.7945751E+01  2.3335899E+01
 1.7957251E+01  2.3331957E+01
 1.7968750E+01  2.3361761E+01
 1.7980251E+01  2.3403091E+01
 1.7991751E+01  2.3461611E+01
 1.8003250E+01  2.3535633E+01
 1.8014751E+01  2.3573984E+01
 1.8026251E+01  2.3600096E+01
 1.8037750E+01  2.3584869E+01
 1.8049252E+01  2.3622351E+01
 1.8060751E+01  2.3677914E+01
 1.8072250E+01  2.3720848E+01
 1.8083752E+01  2.3789474E+01
 1.8095251E+01  2.3800047E+01
 1.8106750E+01  2.3820932E+01
 1.8118252E+01  2.3805111E+01
 1.8129751E+01  2.3824165E+01
 1.8141251E+01  2.3763784E+01
 1.8152750E+01  2.3647606E+01
 1.8164251E+01  2.3535284E+01
 1.8175751E+01  2.3405811E+01
 1.8187250E+01  2.3294424E+01
 1.8198751E+01  2.3250874E+01
 1.8210251E+01  2.3275953E+01
 1.8221750E+01  2.3294834E+01
 1.8233252E+01  2.3262161E+01
 1.8244751E+01  2.3254723E+01
 1.8256250E+01  2.3210255E+01
 1.8267752E+01  2.3242062E+01
 1.8279251E+01  2.3249880E+01
 1.8290751E+01  2.3297268E+01
 1.8302252E+01  2.3256371E+01
 1.8313751E+01  2.3240486E+01
 1.8325251E+01  2.3207403E+01
 1.8336750E+01  2.3227598E+01
 1.8348251E+01  2.3245079E+01
 1.8359751E+01  2.3270880E+01
 1.8371250E+01  2.3259905E+01
 1.8382751E+01  2.3260128E+01
 1.8394251E+01  2.3283525E+01
 1.8405750E+01  2.3307968E+01
 1.8417252E+01  2.3325735E+01
 1.8428751E+01  2.3356684E+01
 1.8440250E+01  2.3355879E+01
 1.8451752E+01  2.3377380E+01
 1.8463251E+01  2.3360228E+01
 1.8474751E+01  2.3350130E+01
 1.8486252E+01  2.3318821E+01
 1.8497751E+01  2.3250860E+01
 1.8509251E+01  2.3250938E+01
 1.8520750E+01  2.3278641E+01
 1.8532251E+01  2.3332897E+01
 1.8543751E+01  2.3310875E+01
 1.8555250E+01  2.3345415E+01
 1.8566751E+01  2.3366234E+01
 1.8578251E+01  2.3352081E+01
 1.8589750E+01  2.3314997E+01
 1.8601252E+01  2.3353247E+01
 1.8612751E+01  2.3329548E+01
 1.8624250E+01  2.3290112E+01
 1.8635752E+01  2.3237566E+01
 1.8647251E+01  2.3231493E+01
 1.8658751E+01  2.3221834E+01
 1.8670252E+01  2.3236988E+01
 1.8681751E+01  2.3251986E+01
 1.8693251E+01  2.3247919E+01
 1.8704750E+01  2.3240288E+01
 1.8716251E+01  2.3208162E+01
 1.8727751E+01  2.3189487E+01
 1.8739250E+01  2.3156906E+01
 1.8750751E+01  2.3141081E+01
 1.8762251E+01  2.3173115E+01
 1.8773750E+01  2.3178923E+01
 1.8785252E+01  2.3183016E+01
 1.8796751E+01  2.3171598E+01
 1.8808250E+01  2.3192499E+01
 1.8819752E+01  2.3202141E+01
 1.8831251E+01  2.3197632E+01
 1.8842751E+01  2.3167656E+01
 1.8854252E+01  2.3177481E+01
 1.8865751E+01  2.3215372E+01
 1.8877251E+01  2.3243235E+01
 1.8888750E+01  2.3187218E+01
 1.8900251E+01  2.3185493E+01
 1.8911751E+01  2.3172504E+01
 1.8923250E+01  2.3263416E+01
 1.8934752E+01  2.3304003E+01
 1.8946251E+01  2.3409782E+01
 1.8957750E+01  2.3495882E+01
 1.8969252E+01  2.3496511E+01
 1.8980751E+01  2.3381021E+01
 1.8992250E+01  2.3158892E+01
 1.9003752E+01  2.3154377E+01
 1.9015251E+01  2.3171598E+01
 1.9026751E+01  2.3199780E+01
 1.9038252E+01  2.3231636E+01
 1.9049751E+01  2.3242222E+01
 1.9061251E+01  2.3236298E+01
 1.9072750E+01  2.3249367E+01
 1.9084251E+01  2.3262575E+01
 1.9095751E+01  2.3419659E+01
 1.9107250E+01  2.3432230E+01
 1.9118752E+01  2.3535355E+01
 1.9130251E+01  2.3554403E+01
 1.9141750E+01  2.3574545E+01
 1.9153252E+01  2.3622097E+01
 1.9164751E+01  2.3484749E+01
 1.9176250E+01  2.3441376E+01
 1.9187752E+01  2.3303711E+01
 1.9199251E+01  2.3305540E+01
 1.9210751E+01  2.3342175E+01
 1.9222252E+01  2.3311813E+01
 1.9233751E+01  2.3234297E+01
 1.9245251E+01  2.3170654E+01
 1.9256750E+01  2.3230858E+01
 1.9268251E+01  2.3267031E+01
 1.9279751E+01  2.3256666E+01
 1.9291250E+01  2.3255960E+01
 1.9302752E+01  2.3308969E+01
 1.9314251E+01  2.3338871E+01
 1.9325750E+01  2.3359371E+01
 1.9337252E+01  2.3332054E+01
 1.9348751E+01  2.3352072E+01
 1.9360250E+01  2.3334368E+01
 1.9371752E+01  2.3332161E+01
 1.9383251E+01  2.3318216E+01
 1.9394751E+01  2.3331842E+01
 1.9406250E+01  2.3337248E+01
 1.9417751E+01  2.3348078E+01
 1.9429251E+01  2.3326218E+01
 1.9440750E+01  2.3314754E+01
 1.9452251E+01  2.3305010E+01
 1.9463751E+01  2.3320707E+01
 1.9475250E+01  2.3323912E+01
 1.9486752E+01  2.3342932E+01
 1.9498251E+01  2.3317041E+01
 1.9509750E+01  2.3291941E+01
 1.9521252E+01  2.3254637E+01
 1.9532751E+01  2.3261980E+01
 1.9544250E+01  2.3267296E+01
 1.9555752E+01  2.3249081E+01
 1.9567251E+01  2.3205032E+01
 1.9578751E+01  2.3238728E+01
 1.9590250E+01  2.3245277E+01
 1.9601751E+01  2.3260662E+01
 1.9613251E+01  2.3302092E+01
 1.9624750E+01  2.3361320E+01
 1.9636251E+01  2.3443430E+01
 1.9647751E+01  2.3443487E+01
 1.9659250E+01  2.3501516E+01
 1.9670752E+01  2.3512407E+01
 1.9682251E+01  2.3613592E+01
 1.9693750E+01  2.3685080E+01
 1.9705252E+01  2.3776905E+01
 1.9716751E+01  2.3803179E+01
 1.9728251E+01  2.3813881E+01
 1.9739752E+01  2.3821537E+01
 1.9751251E+01  2.3763565E+01
 1.9762751E+01  2.3711491E+01
 1.9774250E+01  2.3654457E+01
 1.9785751E+01  2.3642811E+01
 1.9797251E+01  2.3630796E+01
 1.9808750E+01  2.3622696E+01
 1.9820251E+01  2.3659729E+01
 1.9831751E+01  2.3816147E+01
 1.9843250E+01  2.3941782E+01
 1.9854752E+01  2.3998499E+01
 1.9866251E+01  2.3941757E+01
 1.9877750E+01  2.3891266E+01
 1.9889252E+01  2.3821066E+01
 1.9900751E+01  2.3798771E+01
 1.9912251E+01  2.3703386E+01
 1.9923752E+01  2.3592167E+01
 1.9935251E+01  2.3449217E+01
 1.9946751E+01  2.3392946E+01
 1.9958250E+01  2.3333439E+01
 1.9969751E+01  2.3362671E+01
 1.9981251E+01  2.3349142E+01
 1.9992750E+01  2.3397825E+01
 2.0004251E+01  2.3409754E+01
 2.0015751E+01  2.3400455E+01
 2.0027250E+01  2.3351677E+01
 2.0038752E+01  2.3334295E+01
 2.0050251E+01  2.3367363E+01
 2.0061750E+01  2.3341707E+01
 2.0073252E+01  2.3321756E+01
 2.0084751E+01  2.3310928E+01
 2.0096251E+01  2.3337210E+01
 2.0107752E+01  2.3357327E+01
 2.0119251E+01  2.3328150E+01
 2.0130751E+01  2.3260817E+01
 2.0142250E+01  2.3216930E+01
 2.0153751E+01  2.3263531E+01
 2.0165251E+01  2.3314003E+01
 2.0176750E+01  2.3336514E+01
 2.0188251E+01  2.3328188E+01
 2.0199751E+01  2.3320799E+01
 2.0211250E+01  2.3338383E+01
 2.0222752E+01  2.3358507E+01
 2.0234251E+01  2.3355392E+01
 2.0245750E+01  2.3325481E+01
 2.0257252E+01  2.3325731E+01
 2.0268751E+01  2.3291058E+01
 2.0280251E+01  2.3323570E+01
 2.0291752E+01  2.3344778E+01
 2.0303251E+01  2.3359520E+01
 2.0314751E+01  2.3360857E+01
 2.0326250E+01  2.3351261E+01
 2.0337751E+01  2.3356417E+01
 2.0349251E+01  2.3334940E+01
 2.0360750E+01  2.3281414E+01
 2.0372252E+01  2.3310337E+01
 2.0383751E+01  2.3297405E+01
 2.0395250E+01  2.3342827E+01
 2.0406752E+01  2.3361839E+01
 2.0418251E+01  2.3403156E+01
 2.0429750E+01  2.3400145E+01
 2.0441252E+01  2.3360916E+01
 2.0452751E+01  2.3388176E+01
 2.0464251E+01  2.3374971E+01
 2.0475752E+01  2.3354181E+01
 2.0487251E+01  2.3320572E+01
 2.0498751E+01  2.3362650E+01
 2.0510250E+01  2.3378977E+01
 2.0521751E+01  2.3383558E+01
 2.0533251E+01  2.3382179E+01
 2.0544750E+01  2.3367979E+01
 2.0556252E+01  2.3415197E+01
 2.0567751E+01  2.3432529E+01
 2.0579250E+01  2.3454401E+01
 2.0590752E+01  2.3471716E+01
 2.0602251E+01  2.3524401E+01
 2.0613750E+01  2.3548079E+01
 2.0625252E+01  2.3532276E+01
 2.0636751E+01  2.3537525E+01
 2.0648251E+01  2.3513334E+01
 2.0659752E+01  2.3536652E+01
 2.0671251E+01  2.3540617E+01
 2.0682751E+01  2.3621344E+01
 2.0694250E+01  2.3635212E+01
 2.0705751E+01  2.3738926E+01
 2.0717251E+01  2.3772848E+01
 2.0728750E+01  2.3848806E+01
 2.0740252E+01  2.3887289E+01
 2.0751751E+01  2.3950314E+01
 2.0763250E+01  2.4008604E+01
 2.0774752E+01  2.4000313E+01
 2.0786251E+01  2.3979633E+01
 2.0797750E+01  2.3909498E+01
 2.0809252E+01  2.3860186E+01
 2.0820751E+01  2.3748880E+01
 2.0832251E+01  2.3650646E+01
 2.0843752E+01  2.3581186E+01
 2.0855251E+01  2.3566435E+01
 2.0866751E+01  2.3560827E+01
 2.0878250E+01  2.3540483E+01
 2.0889751E+01  2.3527115E+01
 2.0901251E+01  2.3530334E+01
 2.0912750E+01  2.3595625E+01
 2.0924252E+01  2.3656275E+01
 2.0935751E+01  2.3700598E+01
 2.0947250E+01  2.3704866E+01
 2.0958752E+01  2.3683983E+01
 2.0970251E+01  2.3648172E+01
 2.0981750E+01  2.3631847E+01
 2.0993252E+01  2.3652523E+01
 2.1004751E+01  2.3612669E+01
 2.1016251E+01  2.3539240E+01
 2.1027752E+01  2.3477180E+01
 2.1039251E+01  2.3453539E+01
 2.1050751E+01  2.3463684E+01
 2.1062250E+01  2.3490273E+01
 2.1073751E+01  2.3580204E+01
 2.1085251E+01  2.3568644E+01
 2.1096750E+01  2.3550898E+01
 2.1108252E+01  2.3552370E+01
 2.1119751E+01  2.3629902E+01
 2.1131250E+01  2.3646549E+01
 2.1142752E+01  2.3617170E+01
 2.1154251E+01  2.3580563E+01
 2.1165751E+01  2.3570959E+01
 2.1177252E+01  2.3604393E+01
 2.1188751E+01  2.3614231E+01
 2.1200251E+01  2.3650063E+01
 2.1211752E+01  2.3597628E+01
 2.1223251E+01  2.3571405E+01
 2.1234751E+01  2.3524437E+01
 2.1246250E+01  2.3609838E+01
 2.1257751E+01  2.3650295E+01
 2.1269251E+01  2.3662333E+01
 2.1280750E+01  2.3623489E+01
 2.1292252E+01  2.3583736E+01
 2.1303751E+01  2.3559914E+01
 2.1315250E+01  2.3543736E+01
 2.1326752E+01  2.3545010E+01
 2.1338251E+01  2.3514822E+01
 2.1349751E+01  2.3527313E+01
 2.1361252E+01  2.3590277E+01
 2.1372751E+01  2.3633781E+01
 2.1384251E+01  2.3641842E+01
 2.1395752E+01  2.3623711E+01
 2.1407251E+01  2.3614422E+01
 2.1418751E+01  2.3609776E+01
 2.1430250E+01  2.3605957E+01
 2.1441751E+01  2.3618319E+01
 2.1453251E+01  2.3637701E+01
 2.1464750E+01  2.3685846E+01
 2.1476252E+01  2.3711063E+01
 2.1487751E+01  2.3761898E+01
 2.1499250E+01  2.3749750E+01
 2.1510752E+01  2.3698753E+01
 2.1522251E+01  2.3675722E+01
 2.1533751E+01  2.3726591E+01
 2.1545252E+01  2.3758236E+01
 2.1556751E+01  2.3770489E+01
 2.1568251E+01  2.3774895E+01
 2.1579752E+01  2.3779461E+01
 2.1591251E+01  2.3777365E+01
 2.1602751E+01  2.3790817E+01
 2.1614250E+01  2.3809647E+01
 2.1625751E+01  2.3787775E+01
 2.1637251E+01  2.3756981E+01
 2.1648750E+01  2.3735155E+01
 2.1660252E+01  2.3760807E+01
 2.1671751E+01  2.3818323E+01
 2.1683250E+01  2.3848831E+01
 2.1694752E+01  2.3865732E+01
 2.1706251E+01  2.3888428E+01
 2.1717751E+01  2.3895817E+01
 2.1729252E+01  2.3826588E+01
 2.1740751E+01  2.3799314E+01
 2.1752251E+01  2.3733444E+01
 2.1763752E+01  2.3741762E+01
 2.1775251E+01  2.3791332E+01
 2.1786751E+01  2.3818352E+01
 2.1798250E+01  2.3860502E+01
 2.1809752E+01  2.3899107E+01
 2.1821251E+01  2.3961014E+01
 2.1832750E+01  2.3963089E+01
 2.1844252E+01  2.3921497E+01
 2.1855751E+01  2.3926556E+01
 2.1867250E+01  2.3918739E+01
 2.1878752E+01  2.3970312E+01
 2.1890251E+01  2.3935522E+01
 2.1901751E+01  2.3913382E+01
 2.1913252E+01  2.3873182E+01
 2.1924751E+01  2.3838436E+01
 2.1936251E+01  2.3839102E+01
 2.1947752E+01  2.3842596E+01
 2.1959251E+01  2.3881254E+01
 2.1970751E+01  2.3926113E+01
 2.1982250E+01  2.3947140E+01
 2.1993752E+01  2.3945940E+01
 2.2005251E+01  2.3936853E+01
 2.2016750E+01  2.3950089E+01
 2.2028252E+01  2.3983305E+01
 2.2039751E+01  2.3988472E+01
 2.2051250E+01  2.4021389E+01
 2.2062752E+01  2.4016499E+01
 2.2074251E+01  2.4028280E+01
 2.2085751E+01  2.3976198E+01
 2.2097252E+01  2.3971046E+01
 2.2108751E+01  2.3962914E+01
 2.2120251E+01  2.4033934E+01
 2.2131752E+01  2.4038994E+01
 2.2143251E+01  2.4057140E+01
 2.2154751E+01  2.4013224E+01
 2.2166250E+01  2.4012472E+01
 2.2177752E+01  2.3991205E+01
 2.2189251E+01  2.3987051E+01
 2.2200750E+01  2.3980988E+01
 2.2212252E+01  2.3951841E+01
 2.2223751E+01  2.3972221E+01
 2.2235250E+01  2.4002226E+01
 2.2246752E+01  2.4013350E+01
 2.2258251E+01  2.4018343E+01
 2.2269751E+01  2.3991056E+01
 2.2281252E+01  2.4022028E+01
 2.2292751E+01  2.4077335E+01
 2.2304251E+01  2.4151560E+01
 2.2315752E+01  2.4212925E+01
 2.2327251E+01  2.4223333E+01
 2.2338751E+01  2.4226589E+01
 2.2350250E+01  2.4212542E+01
 2.2361752E+01  2.4156828E+01
 2.2373251E+01  2.4135450E+01
 2.2384750E+01  2.4150118E+01
 2.2396252E+01  2.4422348E+01
 2.2407751E+01  2.4519560E+01
 2.2419250E+01  2.4633089E+01
 2.2430752E+01  2.4597075E+01
 2.2442251E+01  2.4604445E+01
 2.2453751E+01  2.4425072E+01
 2.2465252E+01  2.4375420E+01
 2.2476751E+01  2.4373812E+01
 2.2488251E+01  2.4386585E+01
 2.2499752E+01  2.4425390E+01
 2.2511251E+01  2.4452135E+01
 2.2522751E+01  2.4412235E+01
 2.2534250E+01  2.4402969E+01
 2.2545752E+01  2.4441334E+01
 2.2557251E+01  2.4500664E+01
 2.2568750E+01  2.4508188E+01
 2.2580252E+01  2.4514236E+01
 2.2591751E+01  2.4479206E+01
 2.2603251E+01  2.4484234E+01
 2.2614752E+01  2.4519556E+01
 2.2626251E+01  2.4593044E+01
 2.2637751E+01  2.4644674E+01
 2.2649252E+01  2.4669254E+01
 2.2660751E+01  2.4683832E+01
 2.2672251E+01  2.4667221E+01
 2.2683752E+01  2.4682213E+01
 2.2695251E+01  2.4744442E+01
 2.2706751E+01  2.4749611E+01
 2.2718250E+01  2.4747704E+01
 2.2729752E+01  2.4750721E+01
 2.2741251E+01  2.4788939E+01
 2.2752750E+01  2.4782598E+01
 2.2764252E+01  2.4834480E+01
 2.2775751E+01  2.4887888E+01
 2.2787251E+01  2.4922668E+01
 2.2798752E+01  2.4936596E+01
 2.2810251E+01  2.5022215E+01
 2.2821751E+01  2.5091370E+01
 2.2833252E+01  2.5225637E+01
 2.2844751E+01  2.5267736E+01
 2.2856251E+01  2.5278940E+01
 2.2867750E+01  2.5314501E+01
 2.2879251E+01  2.5345577E+01
 2.2890751E+01  2.5409563E+01
 2.2902250E+01  2.5406450E+01
 2.2913752E+01  2.5466888E+01
 2.2925251E+01  2.5529882E+01
 2.2936750E+01  2.5558464E+01
 2.2948252E+01  2.5583485E+01
 2.2959751E+01  2.5556705E+01
 2.2971251E+01  2.5668737E+01
 2.2982752E+01  2.5732365E+01
 2.2994251E+01  2.5845850E+01
