F:\20151113_APS_34IDE\\Brian\Particle1\OCV\Data_0087.tif
2-Theta Angle (Degrees)
Intensity
       2000
 5.7500005E-03  0.0000000E+00
 1.7250001E-02  0.0000000E+00
 2.8750001E-02  0.0000000E+00
 4.0250003E-02  0.0000000E+00
 5.1750004E-02  0.0000000E+00
 6.3250005E-02  0.0000000E+00
 7.4750006E-02  0.0000000E+00
 8.6250007E-02  0.0000000E+00
 9.7750008E-02  0.0000000E+00
 1.0925001E-01  0.0000000E+00
 1.2075000E-01  0.0000000E+00
 1.3225001E-01  0.0000000E+00
 1.4375001E-01  0.0000000E+00
 1.5525001E-01  0.0000000E+00
 1.6675001E-01  0.0000000E+00
 1.7825001E-01  0.0000000E+00
 1.8975002E-01  0.0000000E+00
 2.0125002E-01  0.0000000E+00
 2.1275002E-01  0.0000000E+00
 2.2425000E-01  0.0000000E+00
 2.3575000E-01  0.0000000E+00
 2.4725001E-01  0.0000000E+00
 2.5875002E-01  0.0000000E+00
 2.7025002E-01  0.0000000E+00
 2.8175002E-01  0.0000000E+00
 2.9325002E-01  0.0000000E+00
 3.0475003E-01  0.0000000E+00
 3.1625003E-01  0.0000000E+00
 3.2775003E-01  0.0000000E+00
 3.3925003E-01  0.0000000E+00
 3.5075003E-01  0.0000000E+00
 3.6225003E-01  0.0000000E+00
 3.7375003E-01  0.0000000E+00
 3.8525003E-01  0.0000000E+00
 3.9675003E-01  0.0000000E+00
 4.0825003E-01  0.0000000E+00
 4.1975003E-01  0.0000000E+00
 4.3125004E-01  0.0000000E+00
 4.4275001E-01  0.0000000E+00
 4.5425001E-01  0.0000000E+00
 4.6575001E-01  0.0000000E+00
 4.7725001E-01  0.0000000E+00
 4.8875001E-01  0.0000000E+00
 5.0025004E-01  0.0000000E+00
 5.1175004E-01  0.0000000E+00
 5.2325004E-01  0.0000000E+00
 5.3475004E-01  0.0000000E+00
 5.4625005E-01  0.0000000E+00
 5.5775005E-01  0.0000000E+00
 5.6925005E-01  0.0000000E+00
 5.8075005E-01  0.0000000E+00
 5.9225005E-01  0.0000000E+00
 6.0375005E-01  0.0000000E+00
 6.1525005E-01  0.0000000E+00
 6.2675005E-01  0.0000000E+00
 6.3825005E-01  0.0000000E+00
 6.4975005E-01  0.0000000E+00
 6.6125005E-01  0.0000000E+00
 6.7275006E-01  0.0000000E+00
 6.8425006E-01  0.0000000E+00
 6.9575006E-01  0.0000000E+00
 7.0725006E-01  0.0000000E+00
 7.1875006E-01  0.0000000E+00
 7.3025006E-01  0.0000000E+00
 7.4175006E-01  0.0000000E+00
 7.5325006E-01  0.0000000E+00
 7.6475006E-01  0.0000000E+00
 7.7625006E-01  0.0000000E+00
 7.8775007E-01  0.0000000E+00
 7.9925007E-01  0.0000000E+00
 8.1075007E-01  0.0000000E+00
 8.2225007E-01  0.0000000E+00
 8.3375007E-01  0.0000000E+00
 8.4525007E-01  0.0000000E+00
 8.5675007E-01  0.0000000E+00
 8.6825007E-01  0.0000000E+00
 8.7975001E-01  0.0000000E+00
 8.9125001E-01  0.0000000E+00
 9.0275002E-01  0.0000000E+00
 9.1425002E-01  0.0000000E+00
 9.2575002E-01  0.0000000E+00
 9.3725002E-01  0.0000000E+00
 9.4875002E-01  0.0000000E+00
 9.6025002E-01  0.0000000E+00
 9.7175002E-01  0.0000000E+00
 9.8325002E-01  0.0000000E+00
 9.9475002E-01  0.0000000E+00
 1.0062500E+00  0.0000000E+00
 1.0177500E+00  0.0000000E+00
 1.0292500E+00  0.0000000E+00
 1.0407500E+00  0.0000000E+00
 1.0522500E+00  0.0000000E+00
 1.0637500E+00  0.0000000E+00
 1.0752500E+00  0.0000000E+00
 1.0867500E+00  0.0000000E+00
 1.0982500E+00  0.0000000E+00
 1.1097500E+00  0.0000000E+00
 1.1212500E+00  0.0000000E+00
 1.1327500E+00  0.0000000E+00
 1.1442500E+00  0.0000000E+00
 1.1557500E+00  0.0000000E+00
 1.1672500E+00  0.0000000E+00
 1.1787500E+00  0.0000000E+00
 1.1902500E+00  0.0000000E+00
 1.2017500E+00  0.0000000E+00
 1.2132500E+00  0.0000000E+00
 1.2247500E+00  0.0000000E+00
 1.2362500E+00  0.0000000E+00
 1.2477500E+00  0.0000000E+00
 1.2592500E+00  0.0000000E+00
 1.2707500E+00  0.0000000E+00
 1.2822500E+00  0.0000000E+00
 1.2937500E+00  0.0000000E+00
 1.3052500E+00  0.0000000E+00
 1.3167500E+00  0.0000000E+00
 1.3282501E+00  0.0000000E+00
 1.3397501E+00  0.0000000E+00
 1.3512501E+00  0.0000000E+00
 1.3627501E+00  0.0000000E+00
 1.3742501E+00  0.0000000E+00
 1.3857501E+00  0.0000000E+00
 1.3972501E+00  0.0000000E+00
 1.4087501E+00  0.0000000E+00
 1.4202501E+00  0.0000000E+00
 1.4317501E+00  0.0000000E+00
 1.4432501E+00  0.0000000E+00
 1.4547501E+00  0.0000000E+00
 1.4662501E+00  0.0000000E+00
 1.4777501E+00  0.0000000E+00
 1.4892501E+00  0.0000000E+00
 1.5007501E+00  0.0000000E+00
 1.5122501E+00  0.0000000E+00
 1.5237501E+00  0.0000000E+00
 1.5352501E+00  0.0000000E+00
 1.5467501E+00  0.0000000E+00
 1.5582501E+00  0.0000000E+00
 1.5697501E+00  0.0000000E+00
 1.5812501E+00  0.0000000E+00
 1.5927501E+00  0.0000000E+00
 1.6042501E+00  0.0000000E+00
 1.6157501E+00  0.0000000E+00
 1.6272501E+00  0.0000000E+00
 1.6387501E+00  0.0000000E+00
 1.6502501E+00  0.0000000E+00
 1.6617501E+00  0.0000000E+00
 1.6732501E+00  0.0000000E+00
 1.6847501E+00  0.0000000E+00
 1.6962501E+00  0.0000000E+00
 1.7077501E+00  0.0000000E+00
 1.7192501E+00  0.0000000E+00
 1.7307501E+00  0.0000000E+00
 1.7422501E+00  0.0000000E+00
 1.7537501E+00  0.0000000E+00
 1.7652501E+00  0.0000000E+00
 1.7767501E+00  0.0000000E+00
 1.7882501E+00  0.0000000E+00
 1.7997501E+00  0.0000000E+00
 1.8112501E+00  0.0000000E+00
 1.8227501E+00  0.0000000E+00
 1.8342501E+00  0.0000000E+00
 1.8457501E+00  0.0000000E+00
 1.8572501E+00  0.0000000E+00
 1.8687501E+00  0.0000000E+00
 1.8802501E+00  0.0000000E+00
 1.8917501E+00  0.0000000E+00
 1.9032501E+00  0.0000000E+00
 1.9147501E+00  0.0000000E+00
 1.9262501E+00  0.0000000E+00
 1.9377501E+00  0.0000000E+00
 1.9492501E+00  0.0000000E+00
 1.9607501E+00  0.0000000E+00
 1.9722501E+00  0.0000000E+00
 1.9837501E+00  0.0000000E+00
 1.9952501E+00  0.0000000E+00
 2.0067501E+00  0.0000000E+00
 2.0182500E+00  0.0000000E+00
 2.0297501E+00  0.0000000E+00
 2.0412500E+00  0.0000000E+00
 2.0527501E+00  0.0000000E+00
 2.0642500E+00  0.0000000E+00
 2.0757501E+00  0.0000000E+00
 2.0872500E+00  0.0000000E+00
 2.0987501E+00  0.0000000E+00
 2.1102500E+00  0.0000000E+00
 2.1217501E+00  0.0000000E+00
 2.1332500E+00  0.0000000E+00
 2.1447501E+00  0.0000000E+00
 2.1562500E+00  0.0000000E+00
 2.1677501E+00  0.0000000E+00
 2.1792500E+00  0.0000000E+00
 2.1907501E+00  0.0000000E+00
 2.2022500E+00  0.0000000E+00
 2.2137501E+00  0.0000000E+00
 2.2252500E+00  0.0000000E+00
 2.2367501E+00  0.0000000E+00
 2.2482500E+00  0.0000000E+00
 2.2597501E+00  0.0000000E+00
 2.2712500E+00  0.0000000E+00
 2.2827501E+00  0.0000000E+00
 2.2942500E+00  0.0000000E+00
 2.3057501E+00  0.0000000E+00
 2.3172500E+00  0.0000000E+00
 2.3287501E+00  0.0000000E+00
 2.3402500E+00  0.0000000E+00
 2.3517501E+00  0.0000000E+00
 2.3632500E+00  0.0000000E+00
 2.3747501E+00  0.0000000E+00
 2.3862500E+00  0.0000000E+00
 2.3977501E+00  0.0000000E+00
 2.4092500E+00  0.0000000E+00
 2.4207501E+00  0.0000000E+00
 2.4322500E+00  0.0000000E+00
 2.4437501E+00  0.0000000E+00
 2.4552500E+00  0.0000000E+00
 2.4667501E+00  0.0000000E+00
 2.4782500E+00  0.0000000E+00
 2.4897501E+00  0.0000000E+00
 2.5012500E+00  0.0000000E+00
 2.5127501E+00  0.0000000E+00
 2.5242500E+00  0.0000000E+00
 2.5357502E+00  0.0000000E+00
 2.5472500E+00  0.0000000E+00
 2.5587502E+00  0.0000000E+00
 2.5702500E+00  0.0000000E+00
 2.5817502E+00  0.0000000E+00
 2.5932500E+00  0.0000000E+00
 2.6047502E+00  0.0000000E+00
 2.6162500E+00  0.0000000E+00
 2.6277502E+00  0.0000000E+00
 2.6392500E+00  0.0000000E+00
 2.6507502E+00  0.0000000E+00
 2.6622500E+00  0.0000000E+00
 2.6737502E+00  0.0000000E+00
 2.6852500E+00  0.0000000E+00
 2.6967502E+00  0.0000000E+00
 2.7082500E+00  0.0000000E+00
 2.7197502E+00  0.0000000E+00
 2.7312500E+00  0.0000000E+00
 2.7427502E+00  0.0000000E+00
 2.7542500E+00  0.0000000E+00
 2.7657502E+00  0.0000000E+00
 2.7772501E+00  0.0000000E+00
 2.7887502E+00  0.0000000E+00
 2.8002501E+00  0.0000000E+00
 2.8117502E+00  0.0000000E+00
 2.8232501E+00  3.1035414E+01
 2.8347502E+00  3.1595562E+01
 2.8462501E+00  3.2360981E+01
 2.8577502E+00  3.2611355E+01
 2.8692501E+00  3.3408401E+01
 2.8807502E+00  3.3541061E+01
 2.8922501E+00  3.3736549E+01
 2.9037502E+00  3.3920815E+01
 2.9152501E+00  3.4404774E+01
 2.9267502E+00  3.4310848E+01
 2.9382501E+00  3.4037167E+01
 2.9497502E+00  3.3799099E+01
 2.9612501E+00  3.4010151E+01
 2.9727502E+00  3.4663452E+01
 2.9842501E+00  3.5134075E+01
 2.9957502E+00  3.6054039E+01
 3.0072501E+00  3.6622353E+01
 3.0187502E+00  3.6800182E+01
 3.0302501E+00  3.6620243E+01
 3.0417502E+00  3.6234287E+01
 3.0532501E+00  3.6238449E+01
 3.0647502E+00  3.6337250E+01
 3.0762501E+00  3.6499123E+01
 3.0877502E+00  3.6183254E+01
 3.0992501E+00  3.6169365E+01
 3.1107502E+00  3.5955303E+01
 3.1222501E+00  3.6358536E+01
 3.1337502E+00  3.6204510E+01
 3.1452501E+00  3.6367985E+01
 3.1567502E+00  3.6335552E+01
 3.1682501E+00  3.6454376E+01
 3.1797502E+00  3.6429798E+01
 3.1912501E+00  3.6320015E+01
 3.2027502E+00  3.6300980E+01
 3.2142501E+00  3.6372002E+01
 3.2257502E+00  3.6218464E+01
 3.2372501E+00  3.6021854E+01
 3.2487502E+00  3.5678703E+01
 3.2602501E+00  3.5651531E+01
 3.2717502E+00  3.5253288E+01
 3.2832501E+00  3.5085079E+01
 3.2947502E+00  3.4779175E+01
 3.3062501E+00  3.4909527E+01
 3.3177502E+00  3.5023655E+01
 3.3292501E+00  3.5003273E+01
 3.3407502E+00  3.5415348E+01
 3.3522501E+00  3.5239201E+01
 3.3637502E+00  3.5570145E+01
 3.3752501E+00  3.5483761E+01
 3.3867502E+00  3.5514946E+01
 3.3982501E+00  3.5262177E+01
 3.4097502E+00  3.4789879E+01
 3.4212501E+00  3.4415390E+01
 3.4327502E+00  3.4195698E+01
 3.4442501E+00  3.3856518E+01
 3.4557502E+00  3.3877197E+01
 3.4672501E+00  3.3917522E+01
 3.4787502E+00  3.4178116E+01
 3.4902501E+00  3.4411652E+01
 3.5017502E+00  3.4233070E+01
 3.5132501E+00  3.4080082E+01
 3.5247502E+00  3.3860878E+01
 3.5362501E+00  3.3983864E+01
 3.5477502E+00  3.3964508E+01
 3.5592501E+00  3.4024139E+01
 3.5707502E+00  3.3913269E+01
 3.5822501E+00  3.3852863E+01
 3.5937502E+00  3.3795818E+01
 3.6052501E+00  3.3598236E+01
 3.6167502E+00  3.3687519E+01
 3.6282501E+00  3.3667641E+01
 3.6397502E+00  3.3579792E+01
 3.6512501E+00  3.3716679E+01
 3.6627502E+00  3.3714657E+01
 3.6742501E+00  3.3782921E+01
 3.6857502E+00  3.3757446E+01
 3.6972501E+00  3.3695450E+01
 3.7087502E+00  3.3700321E+01
 3.7202501E+00  3.3509235E+01
 3.7317502E+00  3.3292526E+01
 3.7432501E+00  3.3137066E+01
 3.7547503E+00  3.3082573E+01
 3.7662501E+00  3.2886604E+01
 3.7777503E+00  3.2791584E+01
 3.7892501E+00  3.2563255E+01
 3.8007503E+00  3.2457897E+01
 3.8122501E+00  3.2474255E+01
 3.8237503E+00  3.2664757E+01
 3.8352501E+00  3.2870735E+01
 3.8467503E+00  3.2878391E+01
 3.8582501E+00  3.2773010E+01
 3.8697503E+00  3.2779099E+01
 3.8812501E+00  3.2873844E+01
 3.8927503E+00  3.2601601E+01
 3.9042501E+00  3.2419796E+01
 3.9157503E+00  3.2393673E+01
 3.9272501E+00  3.2490971E+01
 3.9387503E+00  3.2485916E+01
 3.9502501E+00  3.2458725E+01
 3.9617503E+00  3.2293148E+01
 3.9732502E+00  3.2299854E+01
 3.9847503E+00  3.2293968E+01
 3.9962502E+00  3.2398777E+01
 4.0077500E+00  3.2513256E+01
 4.0192504E+00  3.2443268E+01
 4.0307503E+00  3.2379215E+01
 4.0422502E+00  3.2363487E+01
 4.0537500E+00  3.2227085E+01
 4.0652504E+00  3.2221737E+01
 4.0767503E+00  3.2118656E+01
 4.0882502E+00  3.2174736E+01
 4.0997500E+00  3.2079971E+01
 4.1112504E+00  3.2112968E+01
 4.1227503E+00  3.2082260E+01
 4.1342502E+00  3.2180073E+01
 4.1457500E+00  3.2289646E+01
 4.1572504E+00  3.2307930E+01
 4.1687503E+00  3.2358818E+01
 4.1802502E+00  3.2216122E+01
 4.1917500E+00  3.2242008E+01
 4.2032504E+00  3.2163200E+01
 4.2147503E+00  3.2204872E+01
 4.2262502E+00  3.2080917E+01
 4.2377501E+00  3.2032074E+01
 4.2492504E+00  3.1970234E+01
 4.2607503E+00  3.2038055E+01
 4.2722502E+00  3.2015087E+01
 4.2837501E+00  3.2091965E+01
 4.2952504E+00  3.2102001E+01
 4.3067503E+00  3.2242802E+01
 4.3182502E+00  3.2236267E+01
 4.3297501E+00  3.2330578E+01
 4.3412504E+00  3.2244064E+01
 4.3527503E+00  3.2271862E+01
 4.3642502E+00  3.2179546E+01
 4.3757501E+00  3.2200058E+01
 4.3872504E+00  3.2337780E+01
 4.3987503E+00  3.2411240E+01
 4.4102502E+00  3.2437103E+01
 4.4217501E+00  3.2266228E+01
 4.4332504E+00  3.2201771E+01
 4.4447503E+00  3.2160423E+01
 4.4562502E+00  3.2127842E+01
 4.4677501E+00  3.2066601E+01
 4.4792504E+00  3.2061741E+01
 4.4907503E+00  3.2008411E+01
 4.5022502E+00  3.2067768E+01
 4.5137501E+00  3.2139694E+01
 4.5252504E+00  3.2238525E+01
 4.5367503E+00  3.2363663E+01
 4.5482502E+00  3.2376820E+01
 4.5597501E+00  3.2563534E+01
 4.5712504E+00  3.2612724E+01
 4.5827503E+00  3.2652607E+01
 4.5942502E+00  3.2561790E+01
 4.6057501E+00  3.2657612E+01
 4.6172504E+00  3.2676804E+01
 4.6287503E+00  3.2765026E+01
 4.6402502E+00  3.2739918E+01
 4.6517501E+00  3.2908455E+01
 4.6632504E+00  3.2931976E+01
 4.6747503E+00  3.2872711E+01
 4.6862502E+00  3.2710312E+01
 4.6977501E+00  3.2721252E+01
 4.7092505E+00  3.2754543E+01
 4.7207503E+00  3.2635914E+01
 4.7322502E+00  3.2501633E+01
 4.7437501E+00  3.2449127E+01
 4.7552505E+00  3.2509399E+01
 4.7667503E+00  3.2680050E+01
 4.7782502E+00  3.2694099E+01
 4.7897501E+00  3.2746094E+01
 4.8012505E+00  3.2634502E+01
 4.8127503E+00  3.2612610E+01
 4.8242502E+00  3.2632545E+01
 4.8357501E+00  3.2593204E+01
 4.8472505E+00  3.2592030E+01
 4.8587503E+00  3.2563110E+01
 4.8702502E+00  3.2556084E+01
 4.8817501E+00  3.2531479E+01
 4.8932505E+00  3.2625793E+01
 4.9047503E+00  3.2693935E+01
 4.9162502E+00  3.2923611E+01
 4.9277501E+00  3.2882717E+01
 4.9392505E+00  3.2968796E+01
 4.9507504E+00  3.2974419E+01
 4.9622502E+00  3.2944389E+01
 4.9737501E+00  3.3051277E+01
 4.9852505E+00  3.2962170E+01
 4.9967504E+00  3.2995567E+01
 5.0082502E+00  3.2941063E+01
 5.0197501E+00  3.2980164E+01
 5.0312505E+00  3.3095406E+01
 5.0427504E+00  3.3181747E+01
 5.0542502E+00  3.3196968E+01
 5.0657501E+00  3.3238861E+01
 5.0772505E+00  3.3246479E+01
 5.0887504E+00  3.3224934E+01
 5.1002502E+00  3.3349693E+01
 5.1117501E+00  3.3357403E+01
 5.1232505E+00  3.3497749E+01
 5.1347504E+00  3.3532749E+01
 5.1462502E+00  3.3675343E+01
 5.1577501E+00  3.3785553E+01
 5.1692505E+00  3.3991856E+01
 5.1807504E+00  3.3976650E+01
 5.1922503E+00  3.4114563E+01
 5.2037501E+00  3.4124012E+01
 5.2152505E+00  3.4237621E+01
 5.2267504E+00  3.4115688E+01
 5.2382503E+00  3.4418629E+01
 5.2497501E+00  3.4303871E+01
 5.2612505E+00  3.4332481E+01
 5.2727504E+00  3.4224472E+01
 5.2842503E+00  3.4159077E+01
 5.2957501E+00  3.4193848E+01
 5.3072500E+00  3.3933414E+01
 5.3187504E+00  3.4015781E+01
 5.3302503E+00  3.4081520E+01
 5.3417501E+00  3.4168877E+01
 5.3532500E+00  3.4255123E+01
 5.3647504E+00  3.4386681E+01
 5.3762503E+00  3.4516277E+01
 5.3877501E+00  3.4623554E+01
 5.3992500E+00  3.4732605E+01
 5.4107504E+00  3.4728542E+01
 5.4222503E+00  3.4639832E+01
 5.4337502E+00  3.4498753E+01
 5.4452500E+00  3.4436699E+01
 5.4567504E+00  3.4497990E+01
 5.4682503E+00  3.4488022E+01
 5.4797502E+00  3.4494808E+01
 5.4912500E+00  3.4398510E+01
 5.5027504E+00  3.4383671E+01
 5.5142503E+00  3.4397583E+01
 5.5257502E+00  3.4518391E+01
 5.5372500E+00  3.4692272E+01
 5.5487504E+00  3.4829552E+01
 5.5602503E+00  3.4999699E+01
 5.5717502E+00  3.5128647E+01
 5.5832500E+00  3.5295414E+01
 5.5947504E+00  3.5258347E+01
 5.6062503E+00  3.5281033E+01
 5.6177502E+00  3.5233513E+01
 5.6292500E+00  3.5231281E+01
 5.6407504E+00  3.5113522E+01
 5.6522503E+00  3.5081448E+01
 5.6637502E+00  3.5188820E+01
 5.6752501E+00  3.5348091E+01
 5.6867504E+00  3.5378368E+01
 5.6982503E+00  3.5421112E+01
 5.7097502E+00  3.5526203E+01
 5.7212501E+00  3.5516010E+01
 5.7327504E+00  3.5499531E+01
 5.7442503E+00  3.5362637E+01
 5.7557502E+00  3.5340199E+01
 5.7672501E+00  3.5361748E+01
 5.7787504E+00  3.5407230E+01
 5.7902503E+00  3.5620224E+01
 5.8017502E+00  3.5682262E+01
 5.8132501E+00  3.5788853E+01
 5.8247504E+00  3.5772148E+01
 5.8362503E+00  3.5800251E+01
 5.8477502E+00  3.5740723E+01
 5.8592501E+00  3.5716335E+01
 5.8707504E+00  3.5799194E+01
 5.8822503E+00  3.6023796E+01
 5.8937502E+00  3.6281693E+01
 5.9052501E+00  3.6524120E+01
 5.9167504E+00  3.6595081E+01
 5.9282503E+00  3.6891018E+01
 5.9397502E+00  3.7260738E+01
 5.9512501E+00  3.7926170E+01
 5.9627504E+00  3.8651756E+01
 5.9742503E+00  3.9373787E+01
 5.9857502E+00  3.9630062E+01
 5.9972501E+00  3.9428505E+01
 6.0087504E+00  3.8713726E+01
 6.0202503E+00  3.8003582E+01
 6.0317502E+00  3.7329613E+01
 6.0432501E+00  3.6887611E+01
 6.0547504E+00  3.6610012E+01
 6.0662503E+00  3.6515022E+01
 6.0777502E+00  3.6494984E+01
 6.0892501E+00  3.6612152E+01
 6.1007504E+00  3.6759777E+01
 6.1122503E+00  3.6858723E+01
 6.1237502E+00  3.6996174E+01
 6.1352501E+00  3.6961750E+01
 6.1467505E+00  3.6831688E+01
 6.1582503E+00  3.6886665E+01
 6.1697502E+00  3.6900135E+01
 6.1812501E+00  3.7039597E+01
 6.1927505E+00  3.6971451E+01
 6.2042503E+00  3.6959255E+01
 6.2157502E+00  3.7023682E+01
 6.2272501E+00  3.6981052E+01
 6.2387505E+00  3.7075100E+01
 6.2502503E+00  3.7190556E+01
 6.2617502E+00  3.7366081E+01
 6.2732501E+00  3.7539032E+01
 6.2847505E+00  3.7656929E+01
 6.2962503E+00  3.7736858E+01
 6.3077502E+00  3.7792168E+01
 6.3192501E+00  3.7804020E+01
 6.3307505E+00  3.7966629E+01
 6.3422503E+00  3.8111263E+01
 6.3537502E+00  3.8268505E+01
 6.3652501E+00  3.8356277E+01
 6.3767505E+00  3.8448311E+01
 6.3882504E+00  3.8533009E+01
 6.3997502E+00  3.8570858E+01
 6.4112501E+00  3.8640713E+01
 6.4227505E+00  3.8626919E+01
 6.4342504E+00  3.8713551E+01
 6.4457502E+00  3.8740685E+01
 6.4572501E+00  3.8713943E+01
 6.4687505E+00  3.8782597E+01
 6.4802504E+00  3.8752888E+01
 6.4917502E+00  3.8914734E+01
 6.5032501E+00  3.8978710E+01
 6.5147505E+00  3.9066395E+01
 6.5262504E+00  3.9136482E+01
 6.5377502E+00  3.9224636E+01
 6.5492501E+00  3.9327217E+01
 6.5607505E+00  3.9392147E+01
 6.5722504E+00  3.9406628E+01
 6.5837502E+00  3.9479271E+01
 6.5952501E+00  3.9543804E+01
 6.6067505E+00  3.9663616E+01
 6.6182504E+00  3.9748829E+01
 6.6297503E+00  3.9842720E+01
 6.6412501E+00  3.9834236E+01
 6.6527505E+00  3.9883644E+01
 6.6642504E+00  4.0005928E+01
 6.6757503E+00  4.0129272E+01
 6.6872501E+00  4.0276478E+01
 6.6987505E+00  4.0336262E+01
 6.7102504E+00  4.0485172E+01
 6.7217503E+00  4.0477501E+01
 6.7332501E+00  4.0478714E+01
 6.7447505E+00  4.0335960E+01
 6.7562504E+00  4.0467129E+01
 6.7677503E+00  4.0550076E+01
 6.7792501E+00  4.0809830E+01
 6.7907505E+00  4.1023964E+01
 6.8022504E+00  4.1220985E+01
 6.8137503E+00  4.1421394E+01
 6.8252501E+00  4.1461643E+01
 6.8367505E+00  4.1524746E+01
 6.8482504E+00  4.1620354E+01
 6.8597503E+00  4.1692425E+01
 6.8712502E+00  4.1803669E+01
 6.8827505E+00  4.1927769E+01
 6.8942504E+00  4.1939461E+01
 6.9057503E+00  4.1975113E+01
 6.9172502E+00  4.1876072E+01
 6.9287505E+00  4.1848049E+01
 6.9402504E+00  4.1891518E+01
 6.9517503E+00  4.1906006E+01
 6.9632502E+00  4.1944950E+01
 6.9747505E+00  4.2036850E+01
 6.9862504E+00  4.2101330E+01
 6.9977503E+00  4.2299858E+01
 7.0092502E+00  4.2428108E+01
 7.0207505E+00  4.2565342E+01
 7.0322504E+00  4.2771328E+01
 7.0437503E+00  4.2733456E+01
 7.0552502E+00  4.2845818E+01
 7.0667505E+00  4.2852890E+01
 7.0782504E+00  4.2990185E+01
 7.0897503E+00  4.3052780E+01
 7.1012502E+00  4.3139889E+01
 7.1127505E+00  4.3267166E+01
 7.1242504E+00  4.3326191E+01
 7.1357503E+00  4.3457920E+01
 7.1472502E+00  4.3476315E+01
 7.1587505E+00  4.3532566E+01
 7.1702504E+00  4.3574821E+01
 7.1817503E+00  4.3556236E+01
 7.1932502E+00  4.3615471E+01
 7.2047505E+00  4.3510540E+01
 7.2162504E+00  4.3574966E+01
 7.2277503E+00  4.3609737E+01
 7.2392502E+00  4.3674053E+01
 7.2507505E+00  4.3699669E+01
 7.2622504E+00  4.3718521E+01
 7.2737503E+00  4.3741508E+01
 7.2852502E+00  4.3764057E+01
 7.2967505E+00  4.3749966E+01
 7.3082504E+00  4.3883335E+01
 7.3197503E+00  4.3940453E+01
 7.3312502E+00  4.3989761E+01
 7.3427505E+00  4.3937366E+01
 7.3542504E+00  4.3999413E+01
 7.3657503E+00  4.4071522E+01
 7.3772502E+00  4.4138588E+01
 7.3887506E+00  4.4204014E+01
 7.4002504E+00  4.4317326E+01
 7.4117503E+00  4.4419563E+01
 7.4232502E+00  4.4425549E+01
 7.4347506E+00  4.4348267E+01
 7.4462504E+00  4.4406670E+01
 7.4577503E+00  4.4456623E+01
 7.4692502E+00  4.4444057E+01
 7.4807506E+00  4.4456394E+01
 7.4922504E+00  4.4334953E+01
 7.5037503E+00  4.4439236E+01
 7.5152502E+00  4.4320892E+01
 7.5267506E+00  4.4346809E+01
 7.5382504E+00  4.4264996E+01
 7.5497503E+00  4.4220028E+01
 7.5612502E+00  4.4249130E+01
 7.5727506E+00  4.4295128E+01
 7.5842505E+00  4.4409340E+01
 7.5957503E+00  4.4432007E+01
 7.6072502E+00  4.4428635E+01
 7.6187506E+00  4.4347099E+01
 7.6302505E+00  4.4303551E+01
 7.6417503E+00  4.4283310E+01
 7.6532502E+00  4.4272408E+01
 7.6647506E+00  4.4292351E+01
 7.6762505E+00  4.4342155E+01
 7.6877503E+00  4.4410347E+01
 7.6992502E+00  4.4531811E+01
 7.7107506E+00  4.4540062E+01
 7.7222505E+00  4.4519909E+01
 7.7337503E+00  4.4447037E+01
 7.7452502E+00  4.4417870E+01
 7.7567506E+00  4.4425522E+01
 7.7682505E+00  4.4352737E+01
 7.7797503E+00  4.4364372E+01
 7.7912502E+00  4.4360531E+01
 7.8027506E+00  4.4338924E+01
 7.8142505E+00  4.4290363E+01
 7.8257504E+00  4.4243206E+01
 7.8372502E+00  4.4323502E+01
 7.8487506E+00  4.4374004E+01
 7.8602505E+00  4.4435490E+01
 7.8717504E+00  4.4365219E+01
 7.8832502E+00  4.4309952E+01
 7.8947506E+00  4.4213882E+01
 7.9062505E+00  4.4317909E+01
 7.9177504E+00  4.4321609E+01
 7.9292502E+00  4.4294033E+01
 7.9407506E+00  4.4252655E+01
 7.9522505E+00  4.4157120E+01
 7.9637504E+00  4.4191368E+01
 7.9752502E+00  4.4130829E+01
 7.9867506E+00  4.4151367E+01
 7.9982505E+00  4.4165276E+01
 8.0097504E+00  4.4050472E+01
 8.0212507E+00  4.4054043E+01
 8.0327501E+00  4.3872211E+01
 8.0442505E+00  4.3903954E+01
 8.0557508E+00  4.3760372E+01
 8.0672503E+00  4.3644596E+01
 8.0787506E+00  4.3329727E+01
 8.0902500E+00  4.3062088E+01
 8.1017504E+00  4.2883301E+01
 8.1132507E+00  4.2817631E+01
 8.1247501E+00  4.2699131E+01
 8.1362505E+00  4.2648769E+01
 8.1477509E+00  4.2570625E+01
 8.1592503E+00  4.2571270E+01
 8.1707506E+00  4.2447285E+01
 8.1822500E+00  4.2299179E+01
 8.1937504E+00  4.2239124E+01
 8.2052507E+00  4.2165081E+01
 8.2167501E+00  4.2151188E+01
 8.2282505E+00  4.2026562E+01
 8.2397509E+00  4.1942242E+01
 8.2512503E+00  4.1823620E+01
 8.2627506E+00  4.1677860E+01
 8.2742500E+00  4.1447582E+01
 8.2857504E+00  4.1234211E+01
 8.2972507E+00  4.1014755E+01
 8.3087502E+00  4.0832268E+01
 8.3202505E+00  4.0717213E+01
 8.3317509E+00  4.0555370E+01
 8.3432503E+00  4.0565884E+01
 8.3547506E+00  4.0450291E+01
 8.3662500E+00  4.0418350E+01
 8.3777504E+00  4.0245613E+01
 8.3892508E+00  4.0087082E+01
 8.4007502E+00  3.9887398E+01
 8.4122505E+00  3.9602417E+01
 8.4237509E+00  3.9371002E+01
 8.4352503E+00  3.9157524E+01
 8.4467506E+00  3.9060421E+01
 8.4582500E+00  3.8956310E+01
 8.4697504E+00  3.8781536E+01
 8.4812508E+00  3.8525822E+01
 8.4927502E+00  3.8272381E+01
 8.5042505E+00  3.8089619E+01
 8.5157509E+00  3.8017986E+01
 8.5272503E+00  3.7861813E+01
 8.5387506E+00  3.7806156E+01
 8.5502501E+00  3.7567284E+01
 8.5617504E+00  3.7433258E+01
 8.5732508E+00  3.7226067E+01
 8.5847502E+00  3.7042732E+01
 8.5962505E+00  3.6824894E+01
 8.6077509E+00  3.6556698E+01
 8.6192503E+00  3.6354263E+01
 8.6307507E+00  3.6166946E+01
 8.6422501E+00  3.5983109E+01
 8.6537504E+00  3.5761333E+01
 8.6652508E+00  3.5645962E+01
 8.6767502E+00  3.5417370E+01
 8.6882505E+00  3.5310204E+01
 8.6997509E+00  3.5066162E+01
 8.7112503E+00  3.4764580E+01
 8.7227507E+00  3.4531239E+01
 8.7342501E+00  3.4336983E+01
 8.7457504E+00  3.4304314E+01
 8.7572508E+00  3.4146015E+01
 8.7687502E+00  3.4009449E+01
 8.7802505E+00  3.3859009E+01
 8.7917500E+00  3.3682484E+01
 8.8032503E+00  3.3545387E+01
 8.8147507E+00  3.3351070E+01
 8.8262501E+00  3.3261990E+01
 8.8377504E+00  3.3048962E+01
 8.8492508E+00  3.2897549E+01
 8.8607502E+00  3.2651089E+01
 8.8722506E+00  3.2560299E+01
 8.8837500E+00  3.2378155E+01
 8.8952503E+00  3.2146164E+01
 8.9067507E+00  3.1906717E+01
 8.9182501E+00  3.1718624E+01
 8.9297504E+00  3.1623146E+01
 8.9412508E+00  3.1452368E+01
 8.9527502E+00  3.1299948E+01
 8.9642506E+00  3.1202610E+01
 8.9757500E+00  3.1032078E+01
 8.9872503E+00  3.0912344E+01
 8.9987507E+00  3.0732431E+01
 9.0102501E+00  3.0642666E+01
 9.0217505E+00  3.0424850E+01
 9.0332508E+00  3.0339031E+01
 9.0447502E+00  3.0159689E+01
 9.0562506E+00  3.0043610E+01
 9.0677500E+00  2.9934469E+01
 9.0792503E+00  2.9797194E+01
 9.0907507E+00  2.9730766E+01
 9.1022501E+00  2.9599888E+01
 9.1137505E+00  2.9533945E+01
 9.1252508E+00  2.9443516E+01
 9.1367502E+00  2.9376884E+01
 9.1482506E+00  2.9276136E+01
 9.1597500E+00  2.9178474E+01
 9.1712503E+00  2.8981855E+01
 9.1827507E+00  2.8818304E+01
 9.1942501E+00  2.8671469E+01
 9.2057505E+00  2.8541403E+01
 9.2172508E+00  2.8494633E+01
 9.2287502E+00  2.8403557E+01
 9.2402506E+00  2.8397697E+01
 9.2517500E+00  2.8301231E+01
 9.2632504E+00  2.8259302E+01
 9.2747507E+00  2.8146893E+01
 9.2862501E+00  2.8040527E+01
 9.2977505E+00  2.7891554E+01
 9.3092508E+00  2.7739883E+01
 9.3207502E+00  2.7603037E+01
 9.3322506E+00  2.7489742E+01
 9.3437500E+00  2.7406860E+01
 9.3552504E+00  2.7312107E+01
 9.3667507E+00  2.7214474E+01
 9.3782501E+00  2.7085047E+01
 9.3897505E+00  2.7002554E+01
 9.4012508E+00  2.6917482E+01
 9.4127502E+00  2.6894239E+01
 9.4242506E+00  2.6862566E+01
 9.4357500E+00  2.6761391E+01
 9.4472504E+00  2.6677994E+01
 9.4587507E+00  2.6510353E+01
 9.4702501E+00  2.6485001E+01
 9.4817505E+00  2.6377207E+01
 9.4932508E+00  2.6311552E+01
 9.5047503E+00  2.6189325E+01
 9.5162506E+00  2.6092813E+01
 9.5277500E+00  2.6067951E+01
 9.5392504E+00  2.5930525E+01
 9.5507507E+00  2.5868093E+01
 9.5622501E+00  2.5769190E+01
 9.5737505E+00  2.5730619E+01
 9.5852509E+00  2.5645247E+01
 9.5967503E+00  2.5580379E+01
 9.6082506E+00  2.5527931E+01
 9.6197500E+00  2.5527369E+01
 9.6312504E+00  2.5503117E+01
 9.6427507E+00  2.5500862E+01
 9.6542501E+00  2.5488850E+01
 9.6657505E+00  2.5454256E+01
 9.6772509E+00  2.5339348E+01
 9.6887503E+00  2.5276199E+01
 9.7002506E+00  2.5211336E+01
 9.7117500E+00  2.5264959E+01
 9.7232504E+00  2.5226933E+01
 9.7347507E+00  2.5160599E+01
 9.7462502E+00  2.5131601E+01
 9.7577505E+00  2.5008926E+01
 9.7692509E+00  2.4976679E+01
 9.7807503E+00  2.4884123E+01
 9.7922506E+00  2.4887590E+01
 9.8037500E+00  2.4823864E+01
 9.8152504E+00  2.4798132E+01
 9.8267508E+00  2.4796423E+01
 9.8382502E+00  2.4802505E+01
 9.8497505E+00  2.4770857E+01
 9.8612509E+00  2.4666891E+01
 9.8727503E+00  2.4578341E+01
 9.8842506E+00  2.4450205E+01
 9.8957500E+00  2.4347078E+01
 9.9072504E+00  2.4316587E+01
 9.9187508E+00  2.4339216E+01
 9.9302502E+00  2.4328079E+01
 9.9417505E+00  2.4331450E+01
 9.9532509E+00  2.4240845E+01
 9.9647503E+00  2.4243507E+01
 9.9762506E+00  2.4187042E+01
 9.9877501E+00  2.4204857E+01
 9.9992504E+00  2.4227551E+01
 1.0010751E+01  2.4150215E+01
 1.0022250E+01  2.4146208E+01
 1.0033751E+01  2.4073692E+01
 1.0045251E+01  2.4062342E+01
 1.0056750E+01  2.4018511E+01
 1.0068251E+01  2.4028990E+01
 1.0079750E+01  2.4031057E+01
 1.0091250E+01  2.3967222E+01
 1.0102751E+01  2.3841543E+01
 1.0114250E+01  2.3820299E+01
 1.0125751E+01  2.3772280E+01
 1.0137251E+01  2.3779953E+01
 1.0148750E+01  2.3719563E+01
 1.0160251E+01  2.3706301E+01
 1.0171750E+01  2.3655695E+01
 1.0183250E+01  2.3651918E+01
 1.0194751E+01  2.3628889E+01
 1.0206250E+01  2.3646605E+01
 1.0217751E+01  2.3624432E+01
 1.0229251E+01  2.3631941E+01
 1.0240750E+01  2.3543343E+01
 1.0252251E+01  2.3474176E+01
 1.0263750E+01  2.3438801E+01
 1.0275250E+01  2.3494478E+01
 1.0286751E+01  2.3490683E+01
 1.0298250E+01  2.3506962E+01
 1.0309751E+01  2.3544022E+01
 1.0321251E+01  2.3563648E+01
 1.0332750E+01  2.3551495E+01
 1.0344251E+01  2.3516321E+01
 1.0355750E+01  2.3533133E+01
 1.0367250E+01  2.3550625E+01
 1.0378751E+01  2.3543835E+01
 1.0390250E+01  2.3585938E+01
 1.0401751E+01  2.3590479E+01
 1.0413251E+01  2.3560841E+01
 1.0424750E+01  2.3462576E+01
 1.0436251E+01  2.3351187E+01
 1.0447750E+01  2.3290150E+01
 1.0459250E+01  2.3248539E+01
 1.0470751E+01  2.3223980E+01
 1.0482250E+01  2.3218800E+01
 1.0493751E+01  2.3245028E+01
 1.0505251E+01  2.3218567E+01
 1.0516750E+01  2.3215290E+01
 1.0528251E+01  2.3085289E+01
 1.0539750E+01  2.3064028E+01
 1.0551250E+01  2.3020735E+01
 1.0562751E+01  2.3111916E+01
 1.0574250E+01  2.3123533E+01
 1.0585751E+01  2.3108488E+01
 1.0597251E+01  2.3042809E+01
 1.0608750E+01  2.2986746E+01
 1.0620251E+01  2.3010769E+01
 1.0631750E+01  2.3065046E+01
 1.0643250E+01  2.3146069E+01
 1.0654751E+01  2.3143095E+01
 1.0666250E+01  2.3102036E+01
 1.0677751E+01  2.3043501E+01
 1.0689251E+01  2.2958281E+01
 1.0700750E+01  2.2855425E+01
 1.0712251E+01  2.2799507E+01
 1.0723750E+01  2.2789413E+01
 1.0735250E+01  2.2756428E+01
 1.0746751E+01  2.2763325E+01
 1.0758250E+01  2.2719929E+01
 1.0769751E+01  2.2720779E+01
 1.0781251E+01  2.2654520E+01
 1.0792750E+01  2.2604494E+01
 1.0804251E+01  2.2551929E+01
 1.0815750E+01  2.2513622E+01
 1.0827250E+01  2.2457598E+01
 1.0838751E+01  2.2466221E+01
 1.0850250E+01  2.2470148E+01
 1.0861751E+01  2.2543217E+01
 1.0873251E+01  2.2569696E+01
 1.0884750E+01  2.2522503E+01
 1.0896251E+01  2.2457838E+01
 1.0907750E+01  2.2471640E+01
 1.0919250E+01  2.2505562E+01
 1.0930751E+01  2.2611076E+01
 1.0942250E+01  2.2574797E+01
 1.0953751E+01  2.2607201E+01
 1.0965251E+01  2.2530479E+01
 1.0976750E+01  2.2563698E+01
 1.0988251E+01  2.2491766E+01
 1.0999750E+01  2.2514198E+01
 1.1011250E+01  2.2463774E+01
 1.1022751E+01  2.2475027E+01
 1.1034250E+01  2.2440617E+01
 1.1045751E+01  2.2414997E+01
 1.1057251E+01  2.2385551E+01
 1.1068750E+01  2.2369873E+01
 1.1080251E+01  2.2362835E+01
 1.1091750E+01  2.2396194E+01
 1.1103251E+01  2.2363234E+01
 1.1114751E+01  2.2405188E+01
 1.1126250E+01  2.2404295E+01
 1.1137751E+01  2.2407261E+01
 1.1149251E+01  2.2385284E+01
 1.1160750E+01  2.2393948E+01
 1.1172251E+01  2.2426767E+01
 1.1183750E+01  2.2451340E+01
 1.1195251E+01  2.2467323E+01
 1.1206751E+01  2.2503105E+01
 1.1218250E+01  2.2456253E+01
 1.1229751E+01  2.2397324E+01
 1.1241251E+01  2.2456577E+01
 1.1252750E+01  2.2441866E+01
 1.1264251E+01  2.2418091E+01
 1.1275750E+01  2.2307056E+01
 1.1287251E+01  2.2273081E+01
 1.1298751E+01  2.2332924E+01
 1.1310250E+01  2.2329849E+01
 1.1321751E+01  2.2364885E+01
 1.1333251E+01  2.2356766E+01
 1.1344750E+01  2.2349308E+01
 1.1356251E+01  2.2354277E+01
 1.1367750E+01  2.2417515E+01
 1.1379251E+01  2.2472565E+01
 1.1390751E+01  2.2583992E+01
 1.1402250E+01  2.2707453E+01
 1.1413751E+01  2.2692156E+01
 1.1425251E+01  2.2649652E+01
 1.1436750E+01  2.2518070E+01
 1.1448251E+01  2.2433357E+01
 1.1459750E+01  2.2412352E+01
 1.1471251E+01  2.2362635E+01
 1.1482751E+01  2.2405767E+01
 1.1494250E+01  2.2412395E+01
 1.1505751E+01  2.2444233E+01
 1.1517251E+01  2.2511395E+01
 1.1528750E+01  2.2651783E+01
 1.1540251E+01  2.2776932E+01
 1.1551750E+01  2.2971455E+01
 1.1563251E+01  2.3201380E+01
 1.1574751E+01  2.3423428E+01
 1.1586250E+01  2.3767675E+01
 1.1597751E+01  2.3852713E+01
 1.1609251E+01  2.3929127E+01
 1.1620750E+01  2.3658922E+01
 1.1632251E+01  2.3428806E+01
 1.1643750E+01  2.3063519E+01
 1.1655251E+01  2.2878201E+01
 1.1666751E+01  2.2623177E+01
 1.1678250E+01  2.2520020E+01
 1.1689751E+01  2.2353874E+01
 1.1701251E+01  2.2327370E+01
 1.1712750E+01  2.2334419E+01
 1.1724251E+01  2.2364450E+01
 1.1735750E+01  2.2353252E+01
 1.1747251E+01  2.2358427E+01
 1.1758751E+01  2.2310465E+01
 1.1770250E+01  2.2306776E+01
 1.1781751E+01  2.2281511E+01
 1.1793251E+01  2.2304876E+01
 1.1804750E+01  2.2310505E+01
 1.1816251E+01  2.2319237E+01
 1.1827750E+01  2.2308506E+01
 1.1839251E+01  2.2337286E+01
 1.1850751E+01  2.2272308E+01
 1.1862250E+01  2.2291754E+01
 1.1873751E+01  2.2210110E+01
 1.1885251E+01  2.2249195E+01
 1.1896750E+01  2.2228014E+01
 1.1908251E+01  2.2253826E+01
 1.1919750E+01  2.2291023E+01
 1.1931251E+01  2.2323706E+01
 1.1942751E+01  2.2412336E+01
 1.1954250E+01  2.2456467E+01
 1.1965751E+01  2.2516653E+01
 1.1977251E+01  2.2528160E+01
 1.1988750E+01  2.2494810E+01
 1.2000251E+01  2.2331114E+01
 1.2011750E+01  2.2246088E+01
 1.2023251E+01  2.2192099E+01
 1.2034751E+01  2.2274292E+01
 1.2046250E+01  2.2277254E+01
 1.2057751E+01  2.2310686E+01
 1.2069251E+01  2.2401777E+01
 1.2080750E+01  2.2521971E+01
 1.2092251E+01  2.2605385E+01
 1.2103750E+01  2.2672297E+01
 1.2115251E+01  2.2673166E+01
 1.2126751E+01  2.2709629E+01
 1.2138250E+01  2.2699503E+01
 1.2149751E+01  2.2710865E+01
 1.2161251E+01  2.2653208E+01
 1.2172750E+01  2.2566885E+01
 1.2184251E+01  2.2481281E+01
 1.2195750E+01  2.2449434E+01
 1.2207251E+01  2.2392696E+01
 1.2218751E+01  2.2380808E+01
 1.2230250E+01  2.2328966E+01
 1.2241751E+01  2.2300690E+01
 1.2253251E+01  2.2282217E+01
 1.2264750E+01  2.2280777E+01
 1.2276251E+01  2.2287241E+01
 1.2287750E+01  2.2306919E+01
 1.2299251E+01  2.2339689E+01
 1.2310751E+01  2.2432390E+01
 1.2322250E+01  2.2402567E+01
 1.2333751E+01  2.2459648E+01
 1.2345250E+01  2.2446087E+01
 1.2356750E+01  2.2532476E+01
 1.2368251E+01  2.2535097E+01
 1.2379750E+01  2.2547579E+01
 1.2391251E+01  2.2498743E+01
 1.2402751E+01  2.2443453E+01
 1.2414250E+01  2.2405354E+01
 1.2425751E+01  2.2382776E+01
 1.2437250E+01  2.2384953E+01
 1.2448750E+01  2.2393553E+01
 1.2460251E+01  2.2433096E+01
 1.2471750E+01  2.2493225E+01
 1.2483251E+01  2.2584776E+01
 1.2494751E+01  2.2626421E+01
 1.2506250E+01  2.2619774E+01
 1.2517751E+01  2.2580456E+01
 1.2529250E+01  2.2641457E+01
 1.2540751E+01  2.2673294E+01
 1.2552251E+01  2.2791798E+01
 1.2563750E+01  2.2779690E+01
 1.2575251E+01  2.2840704E+01
 1.2586751E+01  2.2806662E+01
 1.2598250E+01  2.2802387E+01
 1.2609751E+01  2.2777056E+01
 1.2621250E+01  2.2786772E+01
 1.2632751E+01  2.2850157E+01
 1.2644251E+01  2.2811548E+01
 1.2655750E+01  2.2747875E+01
 1.2667251E+01  2.2712019E+01
 1.2678751E+01  2.2690517E+01
 1.2690250E+01  2.2732059E+01
 1.2701751E+01  2.2769180E+01
 1.2713250E+01  2.2846693E+01
 1.2724751E+01  2.2859217E+01
 1.2736251E+01  2.2827225E+01
 1.2747750E+01  2.2845844E+01
 1.2759251E+01  2.2860403E+01
 1.2770751E+01  2.2931536E+01
 1.2782250E+01  2.2993681E+01
 1.2793751E+01  2.3011086E+01
 1.2805250E+01  2.3036436E+01
 1.2816751E+01  2.3094833E+01
 1.2828251E+01  2.3180717E+01
 1.2839750E+01  2.3226215E+01
 1.2851251E+01  2.3232754E+01
 1.2862751E+01  2.3243645E+01
 1.2874250E+01  2.3269829E+01
 1.2885751E+01  2.3248766E+01
 1.2897250E+01  2.3266544E+01
 1.2908751E+01  2.3237995E+01
 1.2920251E+01  2.3257034E+01
 1.2931750E+01  2.3334936E+01
 1.2943251E+01  2.3410856E+01
 1.2954751E+01  2.3535902E+01
 1.2966250E+01  2.3599333E+01
 1.2977751E+01  2.3679483E+01
 1.2989250E+01  2.3728724E+01
 1.3000751E+01  2.3776842E+01
 1.3012251E+01  2.3846283E+01
 1.3023750E+01  2.3908451E+01
 1.3035251E+01  2.3980978E+01
 1.3046751E+01  2.4082752E+01
 1.3058250E+01  2.4216248E+01
 1.3069751E+01  2.4300751E+01
 1.3081250E+01  2.4404325E+01
 1.3092751E+01  2.4508400E+01
 1.3104251E+01  2.4654455E+01
 1.3115750E+01  2.4784809E+01
 1.3127251E+01  2.4911934E+01
 1.3138751E+01  2.5057894E+01
 1.3150250E+01  2.5201754E+01
 1.3161751E+01  2.5336390E+01
 1.3173250E+01  2.5490101E+01
 1.3184751E+01  2.5588669E+01
 1.3196251E+01  2.5616541E+01
 1.3207750E+01  2.5669914E+01
 1.3219251E+01  2.5747196E+01
 1.3230751E+01  2.5926939E+01
 1.3242250E+01  2.6104347E+01
 1.3253751E+01  2.6251259E+01
 1.3265250E+01  2.6403023E+01
 1.3276751E+01  2.6562536E+01
 1.3288251E+01  2.6777290E+01
 1.3299750E+01  2.6932537E+01
 1.3311251E+01  2.7052788E+01
 1.3322751E+01  2.7172588E+01
 1.3334250E+01  2.7339632E+01
 1.3345751E+01  2.7519976E+01
 1.3357250E+01  2.7691753E+01
 1.3368751E+01  2.7797380E+01
 1.3380251E+01  2.7929813E+01
 1.3391750E+01  2.8075075E+01
 1.3403251E+01  2.8256065E+01
 1.3414751E+01  2.8401443E+01
 1.3426250E+01  2.8495434E+01
 1.3437751E+01  2.8548380E+01
 1.3449250E+01  2.8548830E+01
 1.3460751E+01  2.8665035E+01
 1.3472251E+01  2.8814257E+01
 1.3483750E+01  2.9014570E+01
 1.3495251E+01  2.9099247E+01
 1.3506751E+01  2.9202703E+01
 1.3518250E+01  2.9257893E+01
 1.3529751E+01  2.9313570E+01
 1.3541250E+01  2.9298414E+01
 1.3552751E+01  2.9330910E+01
 1.3564251E+01  2.9453226E+01
 1.3575750E+01  2.9570858E+01
 1.3587251E+01  2.9656889E+01
 1.3598751E+01  2.9739077E+01
 1.3610250E+01  2.9771296E+01
 1.3621751E+01  2.9798189E+01
 1.3633250E+01  2.9794767E+01
 1.3644751E+01  2.9774914E+01
 1.3656251E+01  2.9771692E+01
 1.3667750E+01  2.9745520E+01
 1.3679251E+01  2.9685226E+01
 1.3690751E+01  2.9579578E+01
 1.3702250E+01  2.9436592E+01
 1.3713751E+01  2.9367262E+01
 1.3725250E+01  2.9293901E+01
 1.3736751E+01  2.9263800E+01
 1.3748251E+01  2.9241764E+01
 1.3759750E+01  2.9213219E+01
 1.3771251E+01  2.9132591E+01
 1.3782751E+01  2.9097267E+01
 1.3794250E+01  2.9013195E+01
 1.3805751E+01  2.8940004E+01
 1.3817250E+01  2.8822664E+01
 1.3828751E+01  2.8778030E+01
 1.3840251E+01  2.8758476E+01
 1.3851750E+01  2.8844069E+01
 1.3863251E+01  2.8924818E+01
 1.3874751E+01  2.9034365E+01
 1.3886250E+01  2.9091351E+01
 1.3897751E+01  2.9257307E+01
 1.3909250E+01  2.9463745E+01
 1.3920751E+01  2.9764685E+01
 1.3932251E+01  3.0049097E+01
 1.3943750E+01  3.0228151E+01
 1.3955251E+01  3.0367226E+01
 1.3966751E+01  3.0200344E+01
 1.3978251E+01  2.9934977E+01
 1.3989751E+01  2.9408939E+01
 1.4001250E+01  2.8924795E+01
 1.4012751E+01  2.8432659E+01
 1.4024251E+01  2.8053694E+01
 1.4035750E+01  2.7795534E+01
 1.4047251E+01  2.7683609E+01
 1.4058751E+01  2.7545177E+01
 1.4070251E+01  2.7482498E+01
 1.4081751E+01  2.7309526E+01
 1.4093250E+01  2.7220049E+01
 1.4104751E+01  2.7069817E+01
 1.4116251E+01  2.6978823E+01
 1.4127750E+01  2.6866632E+01
 1.4139251E+01  2.6833117E+01
 1.4150751E+01  2.6745876E+01
 1.4162251E+01  2.6688164E+01
 1.4173751E+01  2.6569986E+01
 1.4185250E+01  2.6544209E+01
 1.4196751E+01  2.6545441E+01
 1.4208251E+01  2.6564962E+01
 1.4219750E+01  2.6558144E+01
 1.4231251E+01  2.6487850E+01
 1.4242751E+01  2.6404613E+01
 1.4254251E+01  2.6294827E+01
 1.4265751E+01  2.6179441E+01
 1.4277250E+01  2.6136351E+01
 1.4288751E+01  2.6062721E+01
 1.4300251E+01  2.6047739E+01
 1.4311750E+01  2.5983946E+01
 1.4323251E+01  2.5943329E+01
 1.4334751E+01  2.5881336E+01
 1.4346251E+01  2.5849848E+01
 1.4357751E+01  2.5858921E+01
 1.4369250E+01  2.5847149E+01
 1.4380751E+01  2.5815954E+01
 1.4392251E+01  2.5803387E+01
 1.4403750E+01  2.5760853E+01
 1.4415251E+01  2.5700296E+01
 1.4426751E+01  2.5590971E+01
 1.4438251E+01  2.5535164E+01
 1.4449751E+01  2.5454546E+01
 1.4461250E+01  2.5416883E+01
 1.4472751E+01  2.5369177E+01
 1.4484251E+01  2.5338049E+01
 1.4495750E+01  2.5339560E+01
 1.4507251E+01  2.5348768E+01
 1.4518751E+01  2.5361231E+01
 1.4530251E+01  2.5378428E+01
 1.4541751E+01  2.5396702E+01
 1.4553250E+01  2.5433811E+01
 1.4564751E+01  2.5447306E+01
 1.4576251E+01  2.5420216E+01
 1.4587750E+01  2.5382624E+01
 1.4599251E+01  2.5317112E+01
 1.4610751E+01  2.5292543E+01
 1.4622251E+01  2.5246473E+01
 1.4633751E+01  2.5247543E+01
 1.4645250E+01  2.5242159E+01
 1.4656751E+01  2.5235664E+01
 1.4668251E+01  2.5193195E+01
 1.4679750E+01  2.5223665E+01
 1.4691251E+01  2.5191143E+01
 1.4702751E+01  2.5167713E+01
 1.4714251E+01  2.5043289E+01
 1.4725751E+01  2.4960812E+01
 1.4737250E+01  2.4877222E+01
 1.4748751E+01  2.4852346E+01
 1.4760251E+01  2.4830566E+01
 1.4771750E+01  2.4808004E+01
 1.4783251E+01  2.4772549E+01
 1.4794751E+01  2.4795647E+01
 1.4806251E+01  2.4790731E+01
 1.4817751E+01  2.4792614E+01
 1.4829250E+01  2.4789410E+01
 1.4840751E+01  2.4807934E+01
 1.4852251E+01  2.4839842E+01
 1.4863750E+01  2.4788923E+01
 1.4875251E+01  2.4725019E+01
 1.4886751E+01  2.4676796E+01
 1.4898251E+01  2.4701971E+01
 1.4909751E+01  2.4752588E+01
 1.4921250E+01  2.4742590E+01
 1.4932751E+01  2.4728214E+01
 1.4944251E+01  2.4680853E+01
 1.4955750E+01  2.4653212E+01
 1.4967251E+01  2.4594736E+01
 1.4978751E+01  2.4597898E+01
 1.4990251E+01  2.4614559E+01
 1.5001751E+01  2.4642202E+01
 1.5013250E+01  2.4707720E+01
 1.5024751E+01  2.4759752E+01
 1.5036251E+01  2.4809809E+01
 1.5047750E+01  2.4768831E+01
 1.5059251E+01  2.4764698E+01
 1.5070751E+01  2.4741407E+01
 1.5082251E+01  2.4725866E+01
 1.5093751E+01  2.4709379E+01
 1.5105250E+01  2.4715523E+01
 1.5116751E+01  2.4728909E+01
 1.5128251E+01  2.4768843E+01
 1.5139750E+01  2.4846453E+01
 1.5151251E+01  2.5048653E+01
 1.5162751E+01  2.5223761E+01
 1.5174251E+01  2.5602734E+01
 1.5185751E+01  2.5788889E+01
 1.5197250E+01  2.6277826E+01
 1.5208751E+01  2.6252569E+01
 1.5220251E+01  2.6375278E+01
 1.5231750E+01  2.5980408E+01
 1.5243251E+01  2.5766460E+01
 1.5254751E+01  2.5321381E+01
 1.5266251E+01  2.4966454E+01
 1.5277751E+01  2.4707594E+01
 1.5289250E+01  2.4575844E+01
 1.5300751E+01  2.4497570E+01
 1.5312251E+01  2.4484550E+01
 1.5323750E+01  2.4474081E+01
 1.5335251E+01  2.4520525E+01
 1.5346751E+01  2.4471073E+01
 1.5358251E+01  2.4413584E+01
 1.5369751E+01  2.4293688E+01
 1.5381250E+01  2.4272789E+01
 1.5392751E+01  2.4284843E+01
 1.5404251E+01  2.4349367E+01
 1.5415751E+01  2.4340635E+01
 1.5427251E+01  2.4357855E+01
 1.5438751E+01  2.4281027E+01
 1.5450251E+01  2.4269653E+01
 1.5461751E+01  2.4272665E+01
 1.5473250E+01  2.4330313E+01
 1.5484751E+01  2.4314219E+01
 1.5496251E+01  2.4299849E+01
 1.5507751E+01  2.4332474E+01
 1.5519251E+01  2.4317751E+01
 1.5530751E+01  2.4295626E+01
 1.5542251E+01  2.4244717E+01
 1.5553751E+01  2.4268642E+01
 1.5565250E+01  2.4329336E+01
 1.5576751E+01  2.4388817E+01
 1.5588251E+01  2.4438881E+01
 1.5599751E+01  2.4453495E+01
 1.5611251E+01  2.4493835E+01
 1.5622751E+01  2.4788984E+01
 1.5634251E+01  2.4781267E+01
 1.5645751E+01  2.4685389E+01
 1.5657250E+01  2.4402771E+01
 1.5668751E+01  2.4382568E+01
 1.5680251E+01  2.4411627E+01
 1.5691751E+01  2.4344534E+01
 1.5703251E+01  2.4357988E+01
 1.5714751E+01  2.4302645E+01
 1.5726251E+01  2.4332642E+01
 1.5737751E+01  2.4290094E+01
 1.5749250E+01  2.4314484E+01
 1.5760751E+01  2.4382423E+01
 1.5772251E+01  2.4458008E+01
 1.5783751E+01  2.4484476E+01
 1.5795251E+01  2.4496666E+01
 1.5806751E+01  2.4532845E+01
 1.5818251E+01  2.4544844E+01
 1.5829751E+01  2.4470951E+01
 1.5841250E+01  2.4427094E+01
 1.5852751E+01  2.4393105E+01
 1.5864251E+01  2.4376740E+01
 1.5875751E+01  2.4416573E+01
 1.5887251E+01  2.4484241E+01
 1.5898750E+01  2.4483440E+01
 1.5910251E+01  2.4490351E+01
 1.5921751E+01  2.4417532E+01
 1.5933250E+01  2.4449741E+01
 1.5944751E+01  2.4337605E+01
 1.5956251E+01  2.4367332E+01
 1.5967751E+01  2.4362318E+01
 1.5979251E+01  2.4432249E+01
 1.5990750E+01  2.4435118E+01
 1.6002251E+01  2.4369965E+01
 1.6013750E+01  2.4264479E+01
 1.6025251E+01  2.4205591E+01
 1.6036751E+01  2.4248316E+01
 1.6048250E+01  2.4329702E+01
 1.6059752E+01  2.4432852E+01
 1.6071251E+01  2.4458735E+01
 1.6082750E+01  2.4539484E+01
 1.6094252E+01  2.4568848E+01
 1.6105751E+01  2.4689470E+01
 1.6117250E+01  2.4676754E+01
 1.6128750E+01  2.4692657E+01
 1.6140251E+01  2.4673370E+01
 1.6151751E+01  2.4670881E+01
 1.6163250E+01  2.4686281E+01
 1.6174751E+01  2.4634464E+01
 1.6186251E+01  2.4727718E+01
 1.6197750E+01  2.4678934E+01
 1.6209251E+01  2.4863935E+01
 1.6220751E+01  2.4840637E+01
 1.6232250E+01  2.5027691E+01
 1.6243752E+01  2.4998976E+01
 1.6255251E+01  2.5081280E+01
 1.6266750E+01  2.5165043E+01
 1.6278252E+01  2.5074165E+01
 1.6289751E+01  2.5182703E+01
 1.6301250E+01  2.4874748E+01
 1.6312750E+01  2.4996103E+01
 1.6324251E+01  2.4701332E+01
 1.6335751E+01  2.4706665E+01
 1.6347250E+01  2.4516279E+01
 1.6358751E+01  2.4491087E+01
 1.6370251E+01  2.4475571E+01
 1.6381750E+01  2.4455933E+01
 1.6393251E+01  2.4510349E+01
 1.6404751E+01  2.4531763E+01
 1.6416250E+01  2.4614407E+01
 1.6427752E+01  2.4587469E+01
 1.6439251E+01  2.4590870E+01
 1.6450750E+01  2.4523079E+01
 1.6462252E+01  2.4457350E+01
 1.6473751E+01  2.4393433E+01
 1.6485250E+01  2.4424379E+01
 1.6496750E+01  2.4479137E+01
 1.6508251E+01  2.4508549E+01
 1.6519751E+01  2.4493925E+01
 1.6531250E+01  2.4497810E+01
 1.6542751E+01  2.4512037E+01
 1.6554251E+01  2.4500441E+01
 1.6565750E+01  2.4524771E+01
 1.6577251E+01  2.4538454E+01
 1.6588751E+01  2.4545536E+01
 1.6600250E+01  2.4498840E+01
 1.6611752E+01  2.4470297E+01
 1.6623251E+01  2.4378374E+01
 1.6634750E+01  2.4361200E+01
 1.6646252E+01  2.4336365E+01
 1.6657751E+01  2.4355251E+01
 1.6669250E+01  2.4357153E+01
 1.6680750E+01  2.4318958E+01
 1.6692251E+01  2.4296160E+01
 1.6703751E+01  2.4224991E+01
 1.6715250E+01  2.4239353E+01
 1.6726751E+01  2.4192024E+01
 1.6738251E+01  2.4221748E+01
 1.6749750E+01  2.4225649E+01
 1.6761251E+01  2.4264561E+01
 1.6772751E+01  2.4300522E+01
 1.6784250E+01  2.4312538E+01
 1.6795752E+01  2.4334703E+01
 1.6807251E+01  2.4335297E+01
 1.6818750E+01  2.4319866E+01
 1.6830252E+01  2.4285631E+01
 1.6841751E+01  2.4248322E+01
 1.6853251E+01  2.4292465E+01
 1.6864750E+01  2.4315428E+01
 1.6876251E+01  2.4338341E+01
 1.6887751E+01  2.4305468E+01
 1.6899250E+01  2.4310970E+01
 1.6910751E+01  2.4256102E+01
 1.6922251E+01  2.4239838E+01
 1.6933750E+01  2.4197079E+01
 1.6945251E+01  2.4185820E+01
 1.6956751E+01  2.4118813E+01
 1.6968250E+01  2.4071371E+01
 1.6979752E+01  2.4033432E+01
 1.6991251E+01  2.4055468E+01
 1.7002750E+01  2.4068272E+01
 1.7014252E+01  2.4141088E+01
 1.7025751E+01  2.4137329E+01
 1.7037251E+01  2.4073635E+01
 1.7048750E+01  2.3978413E+01
 1.7060251E+01  2.3945618E+01
 1.7071751E+01  2.3924221E+01
 1.7083250E+01  2.3953302E+01
 1.7094751E+01  2.4012064E+01
 1.7106251E+01  2.4117132E+01
 1.7117750E+01  2.4153315E+01
 1.7129251E+01  2.4180017E+01
 1.7140751E+01  2.4112606E+01
 1.7152250E+01  2.4022644E+01
 1.7163752E+01  2.3958206E+01
 1.7175251E+01  2.3950308E+01
 1.7186750E+01  2.3966007E+01
 1.7198252E+01  2.4012501E+01
 1.7209751E+01  2.4054707E+01
 1.7221251E+01  2.4070566E+01
 1.7232750E+01  2.4052776E+01
 1.7244251E+01  2.4004259E+01
 1.7255751E+01  2.3936300E+01
 1.7267250E+01  2.3865849E+01
 1.7278751E+01  2.3835588E+01
 1.7290251E+01  2.3859770E+01
 1.7301750E+01  2.3895044E+01
 1.7313251E+01  2.3864073E+01
 1.7324751E+01  2.3866720E+01
 1.7336250E+01  2.3837704E+01
 1.7347752E+01  2.3812716E+01
 1.7359251E+01  2.3825119E+01
 1.7370750E+01  2.3825680E+01
 1.7382252E+01  2.3847712E+01
 1.7393751E+01  2.3829277E+01
 1.7405251E+01  2.3853235E+01
 1.7416750E+01  2.3863733E+01
 1.7428251E+01  2.3921648E+01
 1.7439751E+01  2.3960999E+01
 1.7451250E+01  2.4001480E+01
 1.7462751E+01  2.3906511E+01
 1.7474251E+01  2.3866035E+01
 1.7485750E+01  2.3797800E+01
 1.7497252E+01  2.3829987E+01
 1.7508751E+01  2.3802019E+01
 1.7520250E+01  2.3768181E+01
 1.7531752E+01  2.3737429E+01
 1.7543251E+01  2.3762209E+01
 1.7554750E+01  2.3731487E+01
 1.7566252E+01  2.3697695E+01
 1.7577751E+01  2.3704950E+01
 1.7589251E+01  2.3700792E+01
 1.7600750E+01  2.3717625E+01
 1.7612251E+01  2.3712578E+01
 1.7623751E+01  2.3722729E+01
 1.7635250E+01  2.3663761E+01
 1.7646751E+01  2.3661770E+01
 1.7658251E+01  2.3645863E+01
 1.7669750E+01  2.3655777E+01
 1.7681252E+01  2.3666189E+01
 1.7692751E+01  2.3693457E+01
 1.7704250E+01  2.3740469E+01
 1.7715752E+01  2.3704201E+01
 1.7727251E+01  2.3616592E+01
 1.7738750E+01  2.3532345E+01
 1.7750252E+01  2.3456375E+01
 1.7761751E+01  2.3447487E+01
 1.7773251E+01  2.3468157E+01
 1.7784750E+01  2.3516756E+01
 1.7796251E+01  2.3588583E+01
 1.7807751E+01  2.3594030E+01
 1.7819250E+01  2.3616434E+01
 1.7830751E+01  2.3624430E+01
 1.7842251E+01  2.3620962E+01
 1.7853750E+01  2.3589079E+01
 1.7865252E+01  2.3576876E+01
 1.7876751E+01  2.3608070E+01
 1.7888250E+01  2.3556078E+01
 1.7899752E+01  2.3507013E+01
 1.7911251E+01  2.3451296E+01
 1.7922750E+01  2.3494625E+01
 1.7934252E+01  2.3503786E+01
 1.7945751E+01  2.3513540E+01
 1.7957251E+01  2.3514435E+01
 1.7968750E+01  2.3550035E+01
 1.7980251E+01  2.3578026E+01
 1.7991751E+01  2.3596899E+01
 1.8003250E+01  2.3636868E+01
 1.8014751E+01  2.3647776E+01
 1.8026251E+01  2.3654346E+01
 1.8037750E+01  2.3664370E+01
 1.8049252E+01  2.3666994E+01
 1.8060751E+01  2.3679502E+01
 1.8072250E+01  2.3624870E+01
 1.8083752E+01  2.3662882E+01
 1.8095251E+01  2.3665388E+01
 1.8106750E+01  2.3739269E+01
 1.8118252E+01  2.3752127E+01
 1.8129751E+01  2.3767683E+01
 1.8141251E+01  2.3747000E+01
 1.8152750E+01  2.3679630E+01
 1.8164251E+01  2.3614557E+01
 1.8175751E+01  2.3533838E+01
 1.8187250E+01  2.3472353E+01
 1.8198751E+01  2.3444939E+01
 1.8210251E+01  2.3455433E+01
 1.8221750E+01  2.3464970E+01
 1.8233252E+01  2.3450113E+01
 1.8244751E+01  2.3440594E+01
 1.8256250E+01  2.3434839E+01
 1.8267752E+01  2.3435589E+01
 1.8279251E+01  2.3405516E+01
 1.8290751E+01  2.3379135E+01
 1.8302252E+01  2.3415472E+01
 1.8313751E+01  2.3497549E+01
 1.8325251E+01  2.3520418E+01
 1.8336750E+01  2.3509747E+01
 1.8348251E+01  2.3430487E+01
 1.8359751E+01  2.3425142E+01
 1.8371250E+01  2.3394217E+01
 1.8382751E+01  2.3405958E+01
 1.8394251E+01  2.3447353E+01
 1.8405750E+01  2.3493797E+01
 1.8417252E+01  2.3541140E+01
 1.8428751E+01  2.3498116E+01
 1.8440250E+01  2.3512794E+01
 1.8451752E+01  2.3464212E+01
 1.8463251E+01  2.3492018E+01
 1.8474751E+01  2.3425991E+01
 1.8486252E+01  2.3413811E+01
 1.8497751E+01  2.3352711E+01
 1.8509251E+01  2.3340649E+01
 1.8520750E+01  2.3286396E+01
 1.8532251E+01  2.3260872E+01
 1.8543751E+01  2.3226095E+01
 1.8555250E+01  2.3224430E+01
 1.8566751E+01  2.3197836E+01
 1.8578251E+01  2.3214298E+01
 1.8589750E+01  2.3259037E+01
 1.8601252E+01  2.3335037E+01
 1.8612751E+01  2.3384010E+01
 1.8624250E+01  2.3576082E+01
 1.8635752E+01  2.3699699E+01
 1.8647251E+01  2.3674782E+01
 1.8658751E+01  2.3470348E+01
 1.8670252E+01  2.3326792E+01
 1.8681751E+01  2.3309963E+01
 1.8693251E+01  2.3294554E+01
 1.8704750E+01  2.3273123E+01
 1.8716251E+01  2.3215879E+01
 1.8727751E+01  2.3205338E+01
 1.8739250E+01  2.3177448E+01
 1.8750751E+01  2.3180132E+01
 1.8762251E+01  2.3157854E+01
 1.8773750E+01  2.3152910E+01
 1.8785252E+01  2.3156691E+01
 1.8796751E+01  2.3192707E+01
 1.8808250E+01  2.3234739E+01
 1.8819752E+01  2.3275633E+01
 1.8831251E+01  2.3273010E+01
 1.8842751E+01  2.3265156E+01
 1.8854252E+01  2.3247725E+01
 1.8865751E+01  2.3233391E+01
 1.8877251E+01  2.3228781E+01
 1.8888750E+01  2.3239399E+01
 1.8900251E+01  2.3275686E+01
 1.8911751E+01  2.3317114E+01
 1.8923250E+01  2.3332165E+01
 1.8934752E+01  2.3316622E+01
 1.8946251E+01  2.3294987E+01
 1.8957750E+01  2.3255693E+01
 1.8969252E+01  2.3192520E+01
 1.8980751E+01  2.3163828E+01
 1.8992250E+01  2.3159870E+01
 1.9003752E+01  2.3201035E+01
 1.9015251E+01  2.3276884E+01
 1.9026751E+01  2.3335239E+01
 1.9038252E+01  2.3314411E+01
 1.9049751E+01  2.3246496E+01
 1.9061251E+01  2.3277273E+01
 1.9072750E+01  2.3300529E+01
 1.9084251E+01  2.3326786E+01
 1.9095751E+01  2.3240316E+01
 1.9107250E+01  2.3168343E+01
 1.9118752E+01  2.3095118E+01
 1.9130251E+01  2.3133526E+01
 1.9141750E+01  2.3142820E+01
 1.9153252E+01  2.3154360E+01
 1.9164751E+01  2.3120440E+01
 1.9176250E+01  2.3085510E+01
 1.9187752E+01  2.3155828E+01
 1.9199251E+01  2.3201658E+01
 1.9210751E+01  2.3306351E+01
 1.9222252E+01  2.3313713E+01
 1.9233751E+01  2.3287374E+01
 1.9245251E+01  2.3299904E+01
 1.9256750E+01  2.3248083E+01
 1.9268251E+01  2.3292990E+01
 1.9279751E+01  2.3210222E+01
 1.9291250E+01  2.3244579E+01
 1.9302752E+01  2.3224110E+01
 1.9314251E+01  2.3250650E+01
 1.9325750E+01  2.3262554E+01
 1.9337252E+01  2.3291086E+01
 1.9348751E+01  2.3320301E+01
 1.9360250E+01  2.3291391E+01
 1.9371752E+01  2.3313322E+01
 1.9383251E+01  2.3303864E+01
 1.9394751E+01  2.3376764E+01
 1.9406250E+01  2.3377512E+01
 1.9417751E+01  2.3387491E+01
 1.9429251E+01  2.3377140E+01
 1.9440750E+01  2.3380089E+01
 1.9452251E+01  2.3400587E+01
 1.9463751E+01  2.3387924E+01
 1.9475250E+01  2.3448769E+01
 1.9486752E+01  2.3426842E+01
 1.9498251E+01  2.3414198E+01
 1.9509750E+01  2.3380171E+01
 1.9521252E+01  2.3385891E+01
 1.9532751E+01  2.3346546E+01
 1.9544250E+01  2.3340176E+01
 1.9555752E+01  2.3360754E+01
 1.9567251E+01  2.3381725E+01
 1.9578751E+01  2.3361380E+01
 1.9590250E+01  2.3387686E+01
 1.9601751E+01  2.3342201E+01
 1.9613251E+01  2.3339216E+01
 1.9624750E+01  2.3348265E+01
 1.9636251E+01  2.3441158E+01
 1.9647751E+01  2.3496546E+01
 1.9659250E+01  2.3639053E+01
 1.9670752E+01  2.3740175E+01
 1.9682251E+01  2.3902449E+01
 1.9693750E+01  2.3981056E+01
 1.9705252E+01  2.4150063E+01
 1.9716751E+01  2.4213305E+01
 1.9728251E+01  2.4241600E+01
 1.9739752E+01  2.4199398E+01
 1.9751251E+01  2.4124716E+01
 1.9762751E+01  2.4038187E+01
 1.9774250E+01  2.3939026E+01
 1.9785751E+01  2.3888609E+01
 1.9797251E+01  2.3855488E+01
 1.9808750E+01  2.3883537E+01
 1.9820251E+01  2.3925230E+01
 1.9831751E+01  2.4032513E+01
 1.9843250E+01  2.4028357E+01
 1.9854752E+01  2.4087580E+01
 1.9866251E+01  2.4036396E+01
 1.9877750E+01  2.4017853E+01
 1.9889252E+01  2.3883036E+01
 1.9900751E+01  2.3812061E+01
 1.9912251E+01  2.3702484E+01
 1.9923752E+01  2.3576603E+01
 1.9935251E+01  2.3471426E+01
 1.9946751E+01  2.3426996E+01
 1.9958250E+01  2.3368629E+01
 1.9969751E+01  2.3370115E+01
 1.9981251E+01  2.3340248E+01
 1.9992750E+01  2.3387438E+01
 2.0004251E+01  2.3379725E+01
 2.0015751E+01  2.3445292E+01
 2.0027250E+01  2.3423645E+01
 2.0038752E+01  2.3441736E+01
 2.0050251E+01  2.3419716E+01
 2.0061750E+01  2.3365273E+01
 2.0073252E+01  2.3324770E+01
 2.0084751E+01  2.3310287E+01
 2.0096251E+01  2.3335522E+01
 2.0107752E+01  2.3337601E+01
 2.0119251E+01  2.3384888E+01
 2.0130751E+01  2.3428467E+01
 2.0142250E+01  2.3500101E+01
 2.0153751E+01  2.3509808E+01
 2.0165251E+01  2.3495811E+01
 2.0176750E+01  2.3443485E+01
 2.0188251E+01  2.3434692E+01
 2.0199751E+01  2.3406906E+01
 2.0211250E+01  2.3441135E+01
 2.0222752E+01  2.3463114E+01
 2.0234251E+01  2.3494682E+01
 2.0245750E+01  2.3449400E+01
 2.0257252E+01  2.3416525E+01
 2.0268751E+01  2.3381851E+01
 2.0280251E+01  2.3355782E+01
 2.0291752E+01  2.3378500E+01
 2.0303251E+01  2.3403763E+01
 2.0314751E+01  2.3426888E+01
 2.0326250E+01  2.3394497E+01
 2.0337751E+01  2.3394161E+01
 2.0349251E+01  2.3366686E+01
 2.0360750E+01  2.3377737E+01
 2.0372252E+01  2.3398844E+01
 2.0383751E+01  2.3411366E+01
 2.0395250E+01  2.3439095E+01
 2.0406752E+01  2.3471888E+01
 2.0418251E+01  2.3543308E+01
 2.0429750E+01  2.3577711E+01
 2.0441252E+01  2.3582521E+01
 2.0452751E+01  2.3530773E+01
 2.0464251E+01  2.3485804E+01
 2.0475752E+01  2.3427050E+01
 2.0487251E+01  2.3403679E+01
 2.0498751E+01  2.3425167E+01
 2.0510250E+01  2.3457142E+01
 2.0521751E+01  2.3449360E+01
 2.0533251E+01  2.3403105E+01
 2.0544750E+01  2.3415693E+01
 2.0556252E+01  2.3471933E+01
 2.0567751E+01  2.3507734E+01
 2.0579250E+01  2.3485838E+01
 2.0590752E+01  2.3544670E+01
 2.0602251E+01  2.3543510E+01
 2.0613750E+01  2.3553860E+01
 2.0625252E+01  2.3479300E+01
 2.0636751E+01  2.3501772E+01
 2.0648251E+01  2.3463274E+01
 2.0659752E+01  2.3489117E+01
 2.0671251E+01  2.3482307E+01
 2.0682751E+01  2.3568176E+01
 2.0694250E+01  2.3622568E+01
 2.0705751E+01  2.3707888E+01
 2.0717251E+01  2.3753727E+01
 2.0728750E+01  2.3836145E+01
 2.0740252E+01  2.3893661E+01
 2.0751751E+01  2.3973614E+01
 2.0763250E+01  2.4050770E+01
 2.0774752E+01  2.4056536E+01
 2.0786251E+01  2.4009666E+01
 2.0797750E+01  2.3934780E+01
 2.0809252E+01  2.3870312E+01
 2.0820751E+01  2.3767422E+01
 2.0832251E+01  2.3699825E+01
 2.0843752E+01  2.3683119E+01
 2.0855251E+01  2.3651146E+01
 2.0866751E+01  2.3664850E+01
 2.0878250E+01  2.3648106E+01
 2.0889751E+01  2.3607954E+01
 2.0901251E+01  2.3581961E+01
 2.0912750E+01  2.3607868E+01
 2.0924252E+01  2.3634705E+01
 2.0935751E+01  2.3633661E+01
 2.0947250E+01  2.3605793E+01
 2.0958752E+01  2.3511435E+01
 2.0970251E+01  2.3457258E+01
 2.0981750E+01  2.3442272E+01
 2.0993252E+01  2.3432322E+01
 2.1004751E+01  2.3484741E+01
 2.1016251E+01  2.3546877E+01
 2.1027752E+01  2.3618505E+01
 2.1039251E+01  2.3705160E+01
 2.1050751E+01  2.3714220E+01
 2.1062250E+01  2.3741203E+01
 2.1073751E+01  2.3691196E+01
 2.1085251E+01  2.3620493E+01
 2.1096750E+01  2.3515984E+01
 2.1108252E+01  2.3474419E+01
 2.1119751E+01  2.3478680E+01
 2.1131250E+01  2.3471420E+01
 2.1142752E+01  2.3471478E+01
 2.1154251E+01  2.3486301E+01
 2.1165751E+01  2.3570168E+01
 2.1177252E+01  2.3631886E+01
 2.1188751E+01  2.3660448E+01
 2.1200251E+01  2.3580112E+01
 2.1211752E+01  2.3573256E+01
 2.1223251E+01  2.3522783E+01
 2.1234751E+01  2.3572012E+01
 2.1246250E+01  2.3621851E+01
 2.1257751E+01  2.3700050E+01
 2.1269251E+01  2.3698210E+01
 2.1280750E+01  2.3707371E+01
 2.1292252E+01  2.3688389E+01
 2.1303751E+01  2.3689590E+01
 2.1315250E+01  2.3653511E+01
 2.1326752E+01  2.3616749E+01
 2.1338251E+01  2.3572868E+01
 2.1349751E+01  2.3574997E+01
 2.1361252E+01  2.3576578E+01
 2.1372751E+01  2.3616995E+01
 2.1384251E+01  2.3601982E+01
 2.1395752E+01  2.3662529E+01
 2.1407251E+01  2.3659590E+01
 2.1418751E+01  2.3725803E+01
 2.1430250E+01  2.3752737E+01
 2.1441751E+01  2.3786377E+01
 2.1453251E+01  2.3779442E+01
 2.1464750E+01  2.3786562E+01
 2.1476252E+01  2.3802635E+01
 2.1487751E+01  2.3837177E+01
 2.1499250E+01  2.3853107E+01
 2.1510752E+01  2.3832985E+01
 2.1522251E+01  2.3838568E+01
 2.1533751E+01  2.3805841E+01
 2.1545252E+01  2.3785524E+01
 2.1556751E+01  2.3694660E+01
 2.1568251E+01  2.3652487E+01
 2.1579752E+01  2.3670387E+01
 2.1591251E+01  2.3730289E+01
 2.1602751E+01  2.3841454E+01
 2.1614250E+01  2.3886068E+01
 2.1625751E+01  2.3881630E+01
 2.1637251E+01  2.3797941E+01
 2.1648750E+01  2.3761957E+01
 2.1660252E+01  2.3736977E+01
 2.1671751E+01  2.3785849E+01
 2.1683250E+01  2.3790766E+01
 2.1694752E+01  2.3755383E+01
 2.1706251E+01  2.3740892E+01
 2.1717751E+01  2.3760429E+01
 2.1729252E+01  2.3833464E+01
 2.1740751E+01  2.3871689E+01
 2.1752251E+01  2.3831753E+01
 2.1763752E+01  2.3783697E+01
 2.1775251E+01  2.3736603E+01
 2.1786751E+01  2.3749878E+01
 2.1798250E+01  2.3775753E+01
 2.1809752E+01  2.3843328E+01
 2.1821251E+01  2.3913282E+01
 2.1832750E+01  2.3896847E+01
 2.1844252E+01  2.3857754E+01
 2.1855751E+01  2.3849421E+01
 2.1867250E+01  2.3902348E+01
 2.1878752E+01  2.3915279E+01
 2.1890251E+01  2.3893103E+01
 2.1901751E+01  2.3953732E+01
 2.1913252E+01  2.3976147E+01
 2.1924751E+01  2.4041401E+01
 2.1936251E+01  2.4030104E+01
 2.1947752E+01  2.4015030E+01
 2.1959251E+01  2.3929533E+01
 2.1970751E+01  2.3901352E+01
 2.1982250E+01  2.3915642E+01
 2.1993752E+01  2.3945683E+01
 2.2005251E+01  2.3996107E+01
 2.2016750E+01  2.4034647E+01
 2.2028252E+01  2.4008751E+01
 2.2039751E+01  2.3983891E+01
 2.2051250E+01  2.3945795E+01
 2.2062752E+01  2.3955736E+01
 2.2074251E+01  2.3963196E+01
 2.2085751E+01  2.3991526E+01
 2.2097252E+01  2.4012321E+01
 2.2108751E+01  2.3996887E+01
 2.2120251E+01  2.4014500E+01
 2.2131752E+01  2.4017323E+01
 2.2143251E+01  2.4071831E+01
 2.2154751E+01  2.4052216E+01
 2.2166250E+01  2.4057346E+01
 2.2177752E+01  2.4019041E+01
 2.2189251E+01  2.3997375E+01
 2.2200750E+01  2.3997900E+01
 2.2212252E+01  2.3994385E+01
 2.2223751E+01  2.4020683E+01
 2.2235250E+01  2.4076565E+01
 2.2246752E+01  2.4150501E+01
 2.2258251E+01  2.4161043E+01
 2.2269751E+01  2.4154146E+01
 2.2281252E+01  2.4138559E+01
 2.2292751E+01  2.4146555E+01
 2.2304251E+01  2.4163012E+01
 2.2315752E+01  2.4187437E+01
 2.2327251E+01  2.4179672E+01
 2.2338751E+01  2.4207279E+01
 2.2350250E+01  2.4210985E+01
 2.2361752E+01  2.4257093E+01
 2.2373251E+01  2.4314703E+01
 2.2384750E+01  2.4312138E+01
 2.2396252E+01  2.4283344E+01
 2.2407751E+01  2.4225245E+01
 2.2419250E+01  2.4235598E+01
 2.2430752E+01  2.4287247E+01
 2.2442251E+01  2.4367607E+01
 2.2453751E+01  2.4431038E+01
 2.2465252E+01  2.4401915E+01
 2.2476751E+01  2.4373087E+01
 2.2488251E+01  2.4394846E+01
 2.2499752E+01  2.4441618E+01
 2.2511251E+01  2.4507212E+01
 2.2522751E+01  2.4548685E+01
 2.2534250E+01  2.4548477E+01
 2.2545752E+01  2.4544744E+01
 2.2557251E+01  2.4527451E+01
 2.2568750E+01  2.4552877E+01
 2.2580252E+01  2.4553734E+01
 2.2591751E+01  2.4594147E+01
 2.2603251E+01  2.4611021E+01
 2.2614752E+01  2.4666275E+01
 2.2626251E+01  2.4715691E+01
 2.2637751E+01  2.4813004E+01
 2.2649252E+01  2.4837118E+01
 2.2660751E+01  2.5201107E+01
 2.2672251E+01  2.5205153E+01
 2.2683752E+01  2.5318983E+01
 2.2695251E+01  2.5102036E+01
 2.2706751E+01  2.4934460E+01
 2.2718250E+01  2.4878849E+01
 2.2729752E+01  2.4881256E+01
 2.2741251E+01  2.4915274E+01
 2.2752750E+01  2.4909906E+01
 2.2764252E+01  2.4933889E+01
 2.2775751E+01  2.4943306E+01
 2.2787251E+01  2.4893480E+01
 2.2798752E+01  2.4925739E+01
 2.2810251E+01  2.4995600E+01
 2.2821751E+01  2.5042337E+01
 2.2833252E+01  2.5121325E+01
 2.2844751E+01  2.5195047E+01
 2.2856251E+01  2.5204700E+01
 2.2867750E+01  2.5290350E+01
 2.2879251E+01  2.5326859E+01
 2.2890751E+01  2.5413475E+01
 2.2902250E+01  2.5406767E+01
 2.2913752E+01  2.5451626E+01
 2.2925251E+01  2.5479958E+01
 2.2936750E+01  2.5537281E+01
 2.2948252E+01  2.5585064E+01
 2.2959751E+01  2.5626898E+01
 2.2971251E+01  2.5747169E+01
 2.2982752E+01  2.5813046E+01
 2.2994251E+01  2.5913036E+01
