F:\20151113_APS_34IDE\\Brian\Particle1\OCV\Data_0061.tif
2-Theta Angle (Degrees)
Intensity
       2000
 5.7500005E-03  0.0000000E+00
 1.7250001E-02  0.0000000E+00
 2.8750001E-02  0.0000000E+00
 4.0250003E-02  0.0000000E+00
 5.1750004E-02  0.0000000E+00
 6.3250005E-02  0.0000000E+00
 7.4750006E-02  0.0000000E+00
 8.6250007E-02  0.0000000E+00
 9.7750008E-02  0.0000000E+00
 1.0925001E-01  0.0000000E+00
 1.2075000E-01  0.0000000E+00
 1.3225001E-01  0.0000000E+00
 1.4375001E-01  0.0000000E+00
 1.5525001E-01  0.0000000E+00
 1.6675001E-01  0.0000000E+00
 1.7825001E-01  0.0000000E+00
 1.8975002E-01  0.0000000E+00
 2.0125002E-01  0.0000000E+00
 2.1275002E-01  0.0000000E+00
 2.2425000E-01  0.0000000E+00
 2.3575000E-01  0.0000000E+00
 2.4725001E-01  0.0000000E+00
 2.5875002E-01  0.0000000E+00
 2.7025002E-01  0.0000000E+00
 2.8175002E-01  0.0000000E+00
 2.9325002E-01  0.0000000E+00
 3.0475003E-01  0.0000000E+00
 3.1625003E-01  0.0000000E+00
 3.2775003E-01  0.0000000E+00
 3.3925003E-01  0.0000000E+00
 3.5075003E-01  0.0000000E+00
 3.6225003E-01  0.0000000E+00
 3.7375003E-01  0.0000000E+00
 3.8525003E-01  0.0000000E+00
 3.9675003E-01  0.0000000E+00
 4.0825003E-01  0.0000000E+00
 4.1975003E-01  0.0000000E+00
 4.3125004E-01  0.0000000E+00
 4.4275001E-01  0.0000000E+00
 4.5425001E-01  0.0000000E+00
 4.6575001E-01  0.0000000E+00
 4.7725001E-01  0.0000000E+00
 4.8875001E-01  0.0000000E+00
 5.0025004E-01  0.0000000E+00
 5.1175004E-01  0.0000000E+00
 5.2325004E-01  0.0000000E+00
 5.3475004E-01  0.0000000E+00
 5.4625005E-01  0.0000000E+00
 5.5775005E-01  0.0000000E+00
 5.6925005E-01  0.0000000E+00
 5.8075005E-01  0.0000000E+00
 5.9225005E-01  0.0000000E+00
 6.0375005E-01  0.0000000E+00
 6.1525005E-01  0.0000000E+00
 6.2675005E-01  0.0000000E+00
 6.3825005E-01  0.0000000E+00
 6.4975005E-01  0.0000000E+00
 6.6125005E-01  0.0000000E+00
 6.7275006E-01  0.0000000E+00
 6.8425006E-01  0.0000000E+00
 6.9575006E-01  0.0000000E+00
 7.0725006E-01  0.0000000E+00
 7.1875006E-01  0.0000000E+00
 7.3025006E-01  0.0000000E+00
 7.4175006E-01  0.0000000E+00
 7.5325006E-01  0.0000000E+00
 7.6475006E-01  0.0000000E+00
 7.7625006E-01  0.0000000E+00
 7.8775007E-01  0.0000000E+00
 7.9925007E-01  0.0000000E+00
 8.1075007E-01  0.0000000E+00
 8.2225007E-01  0.0000000E+00
 8.3375007E-01  0.0000000E+00
 8.4525007E-01  0.0000000E+00
 8.5675007E-01  0.0000000E+00
 8.6825007E-01  0.0000000E+00
 8.7975001E-01  0.0000000E+00
 8.9125001E-01  0.0000000E+00
 9.0275002E-01  0.0000000E+00
 9.1425002E-01  0.0000000E+00
 9.2575002E-01  0.0000000E+00
 9.3725002E-01  0.0000000E+00
 9.4875002E-01  0.0000000E+00
 9.6025002E-01  0.0000000E+00
 9.7175002E-01  0.0000000E+00
 9.8325002E-01  0.0000000E+00
 9.9475002E-01  0.0000000E+00
 1.0062500E+00  0.0000000E+00
 1.0177500E+00  0.0000000E+00
 1.0292500E+00  0.0000000E+00
 1.0407500E+00  0.0000000E+00
 1.0522500E+00  0.0000000E+00
 1.0637500E+00  0.0000000E+00
 1.0752500E+00  0.0000000E+00
 1.0867500E+00  0.0000000E+00
 1.0982500E+00  0.0000000E+00
 1.1097500E+00  0.0000000E+00
 1.1212500E+00  0.0000000E+00
 1.1327500E+00  0.0000000E+00
 1.1442500E+00  0.0000000E+00
 1.1557500E+00  0.0000000E+00
 1.1672500E+00  0.0000000E+00
 1.1787500E+00  0.0000000E+00
 1.1902500E+00  0.0000000E+00
 1.2017500E+00  0.0000000E+00
 1.2132500E+00  0.0000000E+00
 1.2247500E+00  0.0000000E+00
 1.2362500E+00  0.0000000E+00
 1.2477500E+00  0.0000000E+00
 1.2592500E+00  0.0000000E+00
 1.2707500E+00  0.0000000E+00
 1.2822500E+00  0.0000000E+00
 1.2937500E+00  0.0000000E+00
 1.3052500E+00  0.0000000E+00
 1.3167500E+00  0.0000000E+00
 1.3282501E+00  0.0000000E+00
 1.3397501E+00  0.0000000E+00
 1.3512501E+00  0.0000000E+00
 1.3627501E+00  0.0000000E+00
 1.3742501E+00  0.0000000E+00
 1.3857501E+00  0.0000000E+00
 1.3972501E+00  0.0000000E+00
 1.4087501E+00  0.0000000E+00
 1.4202501E+00  0.0000000E+00
 1.4317501E+00  0.0000000E+00
 1.4432501E+00  0.0000000E+00
 1.4547501E+00  0.0000000E+00
 1.4662501E+00  0.0000000E+00
 1.4777501E+00  0.0000000E+00
 1.4892501E+00  0.0000000E+00
 1.5007501E+00  0.0000000E+00
 1.5122501E+00  0.0000000E+00
 1.5237501E+00  0.0000000E+00
 1.5352501E+00  0.0000000E+00
 1.5467501E+00  0.0000000E+00
 1.5582501E+00  0.0000000E+00
 1.5697501E+00  0.0000000E+00
 1.5812501E+00  0.0000000E+00
 1.5927501E+00  0.0000000E+00
 1.6042501E+00  0.0000000E+00
 1.6157501E+00  0.0000000E+00
 1.6272501E+00  0.0000000E+00
 1.6387501E+00  0.0000000E+00
 1.6502501E+00  0.0000000E+00
 1.6617501E+00  0.0000000E+00
 1.6732501E+00  0.0000000E+00
 1.6847501E+00  0.0000000E+00
 1.6962501E+00  0.0000000E+00
 1.7077501E+00  0.0000000E+00
 1.7192501E+00  0.0000000E+00
 1.7307501E+00  0.0000000E+00
 1.7422501E+00  0.0000000E+00
 1.7537501E+00  0.0000000E+00
 1.7652501E+00  0.0000000E+00
 1.7767501E+00  0.0000000E+00
 1.7882501E+00  0.0000000E+00
 1.7997501E+00  0.0000000E+00
 1.8112501E+00  0.0000000E+00
 1.8227501E+00  0.0000000E+00
 1.8342501E+00  0.0000000E+00
 1.8457501E+00  0.0000000E+00
 1.8572501E+00  0.0000000E+00
 1.8687501E+00  0.0000000E+00
 1.8802501E+00  0.0000000E+00
 1.8917501E+00  0.0000000E+00
 1.9032501E+00  0.0000000E+00
 1.9147501E+00  0.0000000E+00
 1.9262501E+00  0.0000000E+00
 1.9377501E+00  0.0000000E+00
 1.9492501E+00  0.0000000E+00
 1.9607501E+00  0.0000000E+00
 1.9722501E+00  0.0000000E+00
 1.9837501E+00  0.0000000E+00
 1.9952501E+00  0.0000000E+00
 2.0067501E+00  0.0000000E+00
 2.0182500E+00  0.0000000E+00
 2.0297501E+00  0.0000000E+00
 2.0412500E+00  0.0000000E+00
 2.0527501E+00  0.0000000E+00
 2.0642500E+00  0.0000000E+00
 2.0757501E+00  0.0000000E+00
 2.0872500E+00  0.0000000E+00
 2.0987501E+00  0.0000000E+00
 2.1102500E+00  0.0000000E+00
 2.1217501E+00  0.0000000E+00
 2.1332500E+00  0.0000000E+00
 2.1447501E+00  0.0000000E+00
 2.1562500E+00  0.0000000E+00
 2.1677501E+00  0.0000000E+00
 2.1792500E+00  0.0000000E+00
 2.1907501E+00  0.0000000E+00
 2.2022500E+00  0.0000000E+00
 2.2137501E+00  0.0000000E+00
 2.2252500E+00  0.0000000E+00
 2.2367501E+00  0.0000000E+00
 2.2482500E+00  0.0000000E+00
 2.2597501E+00  0.0000000E+00
 2.2712500E+00  0.0000000E+00
 2.2827501E+00  0.0000000E+00
 2.2942500E+00  0.0000000E+00
 2.3057501E+00  0.0000000E+00
 2.3172500E+00  0.0000000E+00
 2.3287501E+00  0.0000000E+00
 2.3402500E+00  0.0000000E+00
 2.3517501E+00  0.0000000E+00
 2.3632500E+00  0.0000000E+00
 2.3747501E+00  0.0000000E+00
 2.3862500E+00  0.0000000E+00
 2.3977501E+00  0.0000000E+00
 2.4092500E+00  0.0000000E+00
 2.4207501E+00  0.0000000E+00
 2.4322500E+00  0.0000000E+00
 2.4437501E+00  0.0000000E+00
 2.4552500E+00  0.0000000E+00
 2.4667501E+00  0.0000000E+00
 2.4782500E+00  0.0000000E+00
 2.4897501E+00  0.0000000E+00
 2.5012500E+00  0.0000000E+00
 2.5127501E+00  0.0000000E+00
 2.5242500E+00  0.0000000E+00
 2.5357502E+00  0.0000000E+00
 2.5472500E+00  0.0000000E+00
 2.5587502E+00  0.0000000E+00
 2.5702500E+00  0.0000000E+00
 2.5817502E+00  0.0000000E+00
 2.5932500E+00  0.0000000E+00
 2.6047502E+00  0.0000000E+00
 2.6162500E+00  0.0000000E+00
 2.6277502E+00  0.0000000E+00
 2.6392500E+00  0.0000000E+00
 2.6507502E+00  0.0000000E+00
 2.6622500E+00  0.0000000E+00
 2.6737502E+00  0.0000000E+00
 2.6852500E+00  0.0000000E+00
 2.6967502E+00  0.0000000E+00
 2.7082500E+00  0.0000000E+00
 2.7197502E+00  0.0000000E+00
 2.7312500E+00  0.0000000E+00
 2.7427502E+00  0.0000000E+00
 2.7542500E+00  0.0000000E+00
 2.7657502E+00  0.0000000E+00
 2.7772501E+00  0.0000000E+00
 2.7887502E+00  0.0000000E+00
 2.8002501E+00  0.0000000E+00
 2.8117502E+00  0.0000000E+00
 2.8232501E+00  3.3314243E+01
 2.8347502E+00  3.2529354E+01
 2.8462501E+00  3.3097721E+01
 2.8577502E+00  3.3207500E+01
 2.8692501E+00  3.3564823E+01
 2.8807502E+00  3.3796291E+01
 2.8922501E+00  3.4061726E+01
 2.9037502E+00  3.4559124E+01
 2.9152501E+00  3.4634659E+01
 2.9267502E+00  3.4525009E+01
 2.9382501E+00  3.4502445E+01
 2.9497502E+00  3.4750397E+01
 2.9612501E+00  3.4934780E+01
 2.9727502E+00  3.5029041E+01
 2.9842501E+00  3.4818554E+01
 2.9957502E+00  3.5186501E+01
 3.0072501E+00  3.5393055E+01
 3.0187502E+00  3.5891693E+01
 3.0302501E+00  3.6048019E+01
 3.0417502E+00  3.6267864E+01
 3.0532501E+00  3.6130623E+01
 3.0647502E+00  3.6175426E+01
 3.0762501E+00  3.5898445E+01
 3.0877502E+00  3.5729267E+01
 3.0992501E+00  3.5784592E+01
 3.1107502E+00  3.5548122E+01
 3.1222501E+00  3.5611237E+01
 3.1337502E+00  3.5272388E+01
 3.1452501E+00  3.5285179E+01
 3.1567502E+00  3.5272552E+01
 3.1682501E+00  3.5322807E+01
 3.1797502E+00  3.5634377E+01
 3.1912501E+00  3.5484539E+01
 3.2027502E+00  3.5655598E+01
 3.2142501E+00  3.5515968E+01
 3.2257502E+00  3.5471462E+01
 3.2372501E+00  3.5181221E+01
 3.2487502E+00  3.4701302E+01
 3.2602501E+00  3.4570747E+01
 3.2717502E+00  3.4296349E+01
 3.2832501E+00  3.4253922E+01
 3.2947502E+00  3.4298344E+01
 3.3062501E+00  3.4643211E+01
 3.3177502E+00  3.4755302E+01
 3.3292501E+00  3.4798454E+01
 3.3407502E+00  3.4693466E+01
 3.3522501E+00  3.4681107E+01
 3.3637502E+00  3.4476795E+01
 3.3752501E+00  3.4285404E+01
 3.3867502E+00  3.3812263E+01
 3.3982501E+00  3.3806839E+01
 3.4097502E+00  3.3525314E+01
 3.4212501E+00  3.3787754E+01
 3.4327502E+00  3.3883236E+01
 3.4442501E+00  3.3985222E+01
 3.4557502E+00  3.4133915E+01
 3.4672501E+00  3.3942055E+01
 3.4787502E+00  3.3869732E+01
 3.4902501E+00  3.3949944E+01
 3.5017502E+00  3.4141804E+01
 3.5132501E+00  3.4407475E+01
 3.5247502E+00  3.4252766E+01
 3.5362501E+00  3.4012882E+01
 3.5477502E+00  3.3695965E+01
 3.5592501E+00  3.3738529E+01
 3.5707502E+00  3.3408165E+01
 3.5822501E+00  3.3317131E+01
 3.5937502E+00  3.3212349E+01
 3.6052501E+00  3.3168255E+01
 3.6167502E+00  3.3145317E+01
 3.6282501E+00  3.2949467E+01
 3.6397502E+00  3.2984386E+01
 3.6512501E+00  3.3045456E+01
 3.6627502E+00  3.3082664E+01
 3.6742501E+00  3.2871845E+01
 3.6857502E+00  3.2497562E+01
 3.6972501E+00  3.2235138E+01
 3.7087502E+00  3.1855814E+01
 3.7202501E+00  3.1778002E+01
 3.7317502E+00  3.1653553E+01
 3.7432501E+00  3.1940405E+01
 3.7547503E+00  3.2303532E+01
 3.7662501E+00  3.2529560E+01
 3.7777503E+00  3.2743206E+01
 3.7892501E+00  3.2622646E+01
 3.8007503E+00  3.2588924E+01
 3.8122501E+00  3.2517933E+01
 3.8237503E+00  3.2478745E+01
 3.8352501E+00  3.2353439E+01
 3.8467503E+00  3.2320541E+01
 3.8582501E+00  3.2392616E+01
 3.8697503E+00  3.2615093E+01
 3.8812501E+00  3.2753262E+01
 3.8927503E+00  3.2789471E+01
 3.9042501E+00  3.2748497E+01
 3.9157503E+00  3.2566452E+01
 3.9272501E+00  3.2544430E+01
 3.9387503E+00  3.2503883E+01
 3.9502501E+00  3.2394188E+01
 3.9617503E+00  3.2440384E+01
 3.9732502E+00  3.2383957E+01
 3.9847503E+00  3.2510262E+01
 3.9962502E+00  3.2510437E+01
 4.0077500E+00  3.2557922E+01
 4.0192504E+00  3.2528881E+01
 4.0307503E+00  3.2398823E+01
 4.0422502E+00  3.2447083E+01
 4.0537500E+00  3.2368679E+01
 4.0652504E+00  3.2295864E+01
 4.0767503E+00  3.2215508E+01
 4.0882502E+00  3.2162312E+01
 4.0997500E+00  3.2219063E+01
 4.1112504E+00  3.2136864E+01
 4.1227503E+00  3.2148659E+01
 4.1342502E+00  3.2018978E+01
 4.1457500E+00  3.2046730E+01
 4.1572504E+00  3.1771263E+01
 4.1687503E+00  3.1926573E+01
 4.1802502E+00  3.1855928E+01
 4.1917500E+00  3.2169270E+01
 4.2032504E+00  3.2304314E+01
 4.2147503E+00  3.2424011E+01
 4.2262502E+00  3.2551174E+01
 4.2377501E+00  3.2557560E+01
 4.2492504E+00  3.2494667E+01
 4.2607503E+00  3.2465572E+01
 4.2722502E+00  3.2235115E+01
 4.2837501E+00  3.2125427E+01
 4.2952504E+00  3.1839434E+01
 4.3067503E+00  3.1840521E+01
 4.3182502E+00  3.1817181E+01
 4.3297501E+00  3.2031521E+01
 4.3412504E+00  3.2083015E+01
 4.3527503E+00  3.2182507E+01
 4.3642502E+00  3.2321091E+01
 4.3757501E+00  3.2346798E+01
 4.3872504E+00  3.2428654E+01
 4.3987503E+00  3.2323460E+01
 4.4102502E+00  3.2524368E+01
 4.4217501E+00  3.2519131E+01
 4.4332504E+00  3.2711597E+01
 4.4447503E+00  3.2540989E+01
 4.4562502E+00  3.2492931E+01
 4.4677501E+00  3.2382534E+01
 4.4792504E+00  3.2368862E+01
 4.4907503E+00  3.2401096E+01
 4.5022502E+00  3.2425140E+01
 4.5137501E+00  3.2364571E+01
 4.5252504E+00  3.2356110E+01
 4.5367503E+00  3.2339146E+01
 4.5482502E+00  3.2315689E+01
 4.5597501E+00  3.2358486E+01
 4.5712504E+00  3.2386059E+01
 4.5827503E+00  3.2544910E+01
 4.5942502E+00  3.2527069E+01
 4.6057501E+00  3.2518482E+01
 4.6172504E+00  3.2343674E+01
 4.6287503E+00  3.2210606E+01
 4.6402502E+00  3.2110722E+01
 4.6517501E+00  3.2214531E+01
 4.6632504E+00  3.2395969E+01
 4.6747503E+00  3.2592167E+01
 4.6862502E+00  3.2717060E+01
 4.6977501E+00  3.2934719E+01
 4.7092505E+00  3.2884640E+01
 4.7207503E+00  3.2850677E+01
 4.7322502E+00  3.2465611E+01
 4.7437501E+00  3.2301975E+01
 4.7552505E+00  3.2097706E+01
 4.7667503E+00  3.2196304E+01
 4.7782502E+00  3.2153656E+01
 4.7897501E+00  3.2142948E+01
 4.8012505E+00  3.2041573E+01
 4.8127503E+00  3.2142242E+01
 4.8242502E+00  3.2259090E+01
 4.8357501E+00  3.2315674E+01
 4.8472505E+00  3.2417255E+01
 4.8587503E+00  3.2531284E+01
 4.8702502E+00  3.2540394E+01
 4.8817501E+00  3.2535030E+01
 4.8932505E+00  3.2553646E+01
 4.9047503E+00  3.2570988E+01
 4.9162502E+00  3.2751511E+01
 4.9277501E+00  3.2674324E+01
 4.9392505E+00  3.2703602E+01
 4.9507504E+00  3.2557358E+01
 4.9622502E+00  3.2492046E+01
 4.9737501E+00  3.2541500E+01
 4.9852505E+00  3.2649693E+01
 4.9967504E+00  3.2837360E+01
 5.0082502E+00  3.2879181E+01
 5.0197501E+00  3.2914795E+01
 5.0312505E+00  3.2861153E+01
 5.0427504E+00  3.2745674E+01
 5.0542502E+00  3.2667976E+01
 5.0657501E+00  3.2676392E+01
 5.0772505E+00  3.2831825E+01
 5.0887504E+00  3.2903473E+01
 5.1002502E+00  3.2987457E+01
 5.1117501E+00  3.3003254E+01
 5.1232505E+00  3.3143021E+01
 5.1347504E+00  3.3178650E+01
 5.1462502E+00  3.3266174E+01
 5.1577501E+00  3.3320274E+01
 5.1692505E+00  3.3269978E+01
 5.1807504E+00  3.3349419E+01
 5.1922503E+00  3.3386398E+01
 5.2037501E+00  3.3434147E+01
 5.2152505E+00  3.3525867E+01
 5.2267504E+00  3.3525444E+01
 5.2382503E+00  3.3624584E+01
 5.2497501E+00  3.3758598E+01
 5.2612505E+00  3.3845192E+01
 5.2727504E+00  3.3930843E+01
 5.2842503E+00  3.4030628E+01
 5.2957501E+00  3.4136208E+01
 5.3072500E+00  3.4178867E+01
 5.3187504E+00  3.4187477E+01
 5.3302503E+00  3.4126774E+01
 5.3417501E+00  3.4149776E+01
 5.3532500E+00  3.4012108E+01
 5.3647504E+00  3.4026737E+01
 5.3762503E+00  3.3977432E+01
 5.3877501E+00  3.4067986E+01
 5.3992500E+00  3.4006950E+01
 5.4107504E+00  3.3981747E+01
 5.4222503E+00  3.3949814E+01
 5.4337502E+00  3.3876789E+01
 5.4452500E+00  3.4025600E+01
 5.4567504E+00  3.4124119E+01
 5.4682503E+00  3.4235806E+01
 5.4797502E+00  3.4345383E+01
 5.4912500E+00  3.4336857E+01
 5.5027504E+00  3.4410763E+01
 5.5142503E+00  3.4428093E+01
 5.5257502E+00  3.4556000E+01
 5.5372500E+00  3.4620441E+01
 5.5487504E+00  3.4659691E+01
 5.5602503E+00  3.4725731E+01
 5.5717502E+00  3.4788429E+01
 5.5832500E+00  3.4886795E+01
 5.5947504E+00  3.5063797E+01
 5.6062503E+00  3.5199768E+01
 5.6177502E+00  3.5320118E+01
 5.6292500E+00  3.5154156E+01
 5.6407504E+00  3.5040627E+01
 5.6522503E+00  3.4921265E+01
 5.6637502E+00  3.4958107E+01
 5.6752501E+00  3.5036118E+01
 5.6867504E+00  3.5116619E+01
 5.6982503E+00  3.5119652E+01
 5.7097502E+00  3.5211945E+01
 5.7212501E+00  3.5312817E+01
 5.7327504E+00  3.5492661E+01
 5.7442503E+00  3.5450691E+01
 5.7557502E+00  3.5453396E+01
 5.7672501E+00  3.5397091E+01
 5.7787504E+00  3.5470497E+01
 5.7902503E+00  3.5513920E+01
 5.8017502E+00  3.5577438E+01
 5.8132501E+00  3.5576027E+01
 5.8247504E+00  3.5601063E+01
 5.8362503E+00  3.5614914E+01
 5.8477502E+00  3.5725620E+01
 5.8592501E+00  3.5821754E+01
 5.8707504E+00  3.6108471E+01
 5.8822503E+00  3.6399342E+01
 5.8937502E+00  3.6964363E+01
 5.9052501E+00  3.7352531E+01
 5.9167504E+00  3.8499767E+01
 5.9282503E+00  3.9737144E+01
 5.9397502E+00  4.2864132E+01
 5.9512501E+00  4.5579395E+01
 5.9627504E+00  5.0225471E+01
 5.9742503E+00  5.3028469E+01
 5.9857502E+00  5.6900948E+01
 5.9972501E+00  5.5883293E+01
 6.0087504E+00  5.4076992E+01
 6.0202503E+00  4.8718693E+01
 6.0317502E+00  4.5019756E+01
 6.0432501E+00  4.1595860E+01
 6.0547504E+00  3.9632587E+01
 6.0662503E+00  3.8162117E+01
 6.0777502E+00  3.7532814E+01
 6.0892501E+00  3.7056725E+01
 6.1007504E+00  3.6970665E+01
 6.1122503E+00  3.6912079E+01
 6.1237502E+00  3.6848473E+01
 6.1352501E+00  3.6600624E+01
 6.1467505E+00  3.6461872E+01
 6.1582503E+00  3.6441864E+01
 6.1697502E+00  3.6588482E+01
 6.1812501E+00  3.6744068E+01
 6.1927505E+00  3.6840153E+01
 6.2042503E+00  3.6913963E+01
 6.2157502E+00  3.6880180E+01
 6.2272501E+00  3.7008186E+01
 6.2387505E+00  3.7049213E+01
 6.2502503E+00  3.7166035E+01
 6.2617502E+00  3.7176262E+01
 6.2732501E+00  3.7223778E+01
 6.2847505E+00  3.7330452E+01
 6.2962503E+00  3.7376781E+01
 6.3077502E+00  3.7462463E+01
 6.3192501E+00  3.7491943E+01
 6.3307505E+00  3.7580975E+01
 6.3422503E+00  3.7676136E+01
 6.3537502E+00  3.7689785E+01
 6.3652501E+00  3.7661015E+01
 6.3767505E+00  3.7655319E+01
 6.3882504E+00  3.7755749E+01
 6.3997502E+00  3.7812962E+01
 6.4112501E+00  3.7997913E+01
 6.4227505E+00  3.8153473E+01
 6.4342504E+00  3.8311695E+01
 6.4457502E+00  3.8363838E+01
 6.4572501E+00  3.8478836E+01
 6.4687505E+00  3.8525925E+01
 6.4802504E+00  3.8570850E+01
 6.4917502E+00  3.8450325E+01
 6.5032501E+00  3.8510532E+01
 6.5147505E+00  3.8525082E+01
 6.5262504E+00  3.8654499E+01
 6.5377502E+00  3.8798866E+01
 6.5492501E+00  3.8884575E+01
 6.5607505E+00  3.9015350E+01
 6.5722504E+00  3.9009991E+01
 6.5837502E+00  3.9070293E+01
 6.5952501E+00  3.9157490E+01
 6.6067505E+00  3.9291412E+01
 6.6182504E+00  3.9334614E+01
 6.6297503E+00  3.9469532E+01
 6.6412501E+00  3.9497814E+01
 6.6527505E+00  3.9641914E+01
 6.6642504E+00  3.9762558E+01
 6.6757503E+00  3.9667423E+01
 6.6872501E+00  3.9690708E+01
 6.6987505E+00  3.9598145E+01
 6.7102504E+00  3.9744526E+01
 6.7217503E+00  3.9892441E+01
 6.7332501E+00  4.0000629E+01
 6.7447505E+00  4.0198097E+01
 6.7562504E+00  4.0346943E+01
 6.7677503E+00  4.0520741E+01
 6.7792501E+00  4.0694447E+01
 6.7907505E+00  4.0751755E+01
 6.8022504E+00  4.0896336E+01
 6.8137503E+00  4.0982147E+01
 6.8252501E+00  4.1108803E+01
 6.8367505E+00  4.1255852E+01
 6.8482504E+00  4.1307026E+01
 6.8597503E+00  4.1315277E+01
 6.8712502E+00  4.1293159E+01
 6.8827505E+00  4.1299625E+01
 6.8942504E+00  4.1327511E+01
 6.9057503E+00  4.1334724E+01
 6.9172502E+00  4.1319923E+01
 6.9287505E+00  4.1350086E+01
 6.9402504E+00  4.1451855E+01
 6.9517503E+00  4.1500973E+01
 6.9632502E+00  4.1585381E+01
 6.9747505E+00  4.1615868E+01
 6.9862504E+00  4.1722084E+01
 6.9977503E+00  4.1799992E+01
 7.0092502E+00  4.1823673E+01
 7.0207505E+00  4.1909782E+01
 7.0322504E+00  4.1944248E+01
 7.0437503E+00  4.2027866E+01
 7.0552502E+00  4.2021236E+01
 7.0667505E+00  4.2126926E+01
 7.0782504E+00  4.2206673E+01
 7.0897503E+00  4.2378448E+01
 7.1012502E+00  4.2529331E+01
 7.1127505E+00  4.2649067E+01
 7.1242504E+00  4.2682377E+01
 7.1357503E+00  4.2706383E+01
 7.1472502E+00  4.2723671E+01
 7.1587505E+00  4.2794285E+01
 7.1702504E+00  4.2742302E+01
 7.1817503E+00  4.2804878E+01
 7.1932502E+00  4.2768917E+01
 7.2047505E+00  4.2906170E+01
 7.2162504E+00  4.2937397E+01
 7.2277503E+00  4.3021660E+01
 7.2392502E+00  4.3072620E+01
 7.2507505E+00  4.3060696E+01
 7.2622504E+00  4.3032215E+01
 7.2737503E+00  4.3042995E+01
 7.2852502E+00  4.3136311E+01
 7.2967505E+00  4.3182919E+01
 7.3082504E+00  4.3207352E+01
 7.3197503E+00  4.3229965E+01
 7.3312502E+00  4.3380993E+01
 7.3427505E+00  4.3395966E+01
 7.3542504E+00  4.3444382E+01
 7.3657503E+00  4.3418858E+01
 7.3772502E+00  4.3366856E+01
 7.3887506E+00  4.3401787E+01
 7.4002504E+00  4.3432495E+01
 7.4117503E+00  4.3547604E+01
 7.4232502E+00  4.3531307E+01
 7.4347506E+00  4.3475693E+01
 7.4462504E+00  4.3507435E+01
 7.4577503E+00  4.3553879E+01
 7.4692502E+00  4.3590031E+01
 7.4807506E+00  4.3562641E+01
 7.4922504E+00  4.3483044E+01
 7.5037503E+00  4.3466640E+01
 7.5152502E+00  4.3517628E+01
 7.5267506E+00  4.3587513E+01
 7.5382504E+00  4.3569065E+01
 7.5497503E+00  4.3530315E+01
 7.5612502E+00  4.3552509E+01
 7.5727506E+00  4.3630070E+01
 7.5842505E+00  4.3738190E+01
 7.5957503E+00  4.3849777E+01
 7.6072502E+00  4.3964344E+01
 7.6187506E+00  4.4037048E+01
 7.6302505E+00  4.4071953E+01
 7.6417503E+00  4.4087734E+01
 7.6532502E+00  4.4023197E+01
 7.6647506E+00  4.3917122E+01
 7.6762505E+00  4.3886513E+01
 7.6877503E+00  4.3821136E+01
 7.6992502E+00  4.3817135E+01
 7.7107506E+00  4.3762753E+01
 7.7222505E+00  4.3707062E+01
 7.7337503E+00  4.3601791E+01
 7.7452502E+00  4.3577457E+01
 7.7567506E+00  4.3640781E+01
 7.7682505E+00  4.3770844E+01
 7.7797503E+00  4.3745300E+01
 7.7912502E+00  4.3714218E+01
 7.8027506E+00  4.3626022E+01
 7.8142505E+00  4.3650772E+01
 7.8257504E+00  4.3606682E+01
 7.8372502E+00  4.3614296E+01
 7.8487506E+00  4.3588181E+01
 7.8602505E+00  4.3569733E+01
 7.8717504E+00  4.3534229E+01
 7.8832502E+00  4.3412064E+01
 7.8947506E+00  4.3304901E+01
 7.9062505E+00  4.3253735E+01
 7.9177504E+00  4.3191017E+01
 7.9292502E+00  4.3190212E+01
 7.9407506E+00  4.3169254E+01
 7.9522505E+00  4.3080776E+01
 7.9637504E+00  4.3000134E+01
 7.9752502E+00  4.2862053E+01
 7.9867506E+00  4.2847389E+01
 7.9982505E+00  4.2742981E+01
 8.0097504E+00  4.2619537E+01
 8.0212507E+00  4.2578949E+01
 8.0327501E+00  4.2612133E+01
 8.0442505E+00  4.2602322E+01
 8.0557508E+00  4.2637554E+01
 8.0672503E+00  4.2559116E+01
 8.0787506E+00  4.2559647E+01
 8.0902500E+00  4.2466545E+01
 8.1017504E+00  4.2412937E+01
 8.1132507E+00  4.2307236E+01
 8.1247501E+00  4.2221500E+01
 8.1362505E+00  4.2126858E+01
 8.1477509E+00  4.2081745E+01
 8.1592503E+00  4.1933235E+01
 8.1707506E+00  4.1840672E+01
 8.1822500E+00  4.1624065E+01
 8.1937504E+00  4.1475414E+01
 8.2052507E+00  4.1272602E+01
 8.2167501E+00  4.1158875E+01
 8.2282505E+00  4.1031475E+01
 8.2397509E+00  4.0958519E+01
 8.2512503E+00  4.0913250E+01
 8.2627506E+00  4.0670826E+01
 8.2742500E+00  4.0520882E+01
 8.2857504E+00  4.0277031E+01
 8.2972507E+00  4.0163239E+01
 8.3087502E+00  4.0012444E+01
 8.3202505E+00  3.9842865E+01
 8.3317509E+00  3.9727196E+01
 8.3432503E+00  3.9521862E+01
 8.3547506E+00  3.9390423E+01
 8.3662500E+00  3.9395752E+01
 8.3777504E+00  3.9307796E+01
 8.3892508E+00  3.9266037E+01
 8.4007502E+00  3.9045330E+01
 8.4122505E+00  3.8978260E+01
 8.4237509E+00  3.8799885E+01
 8.4352503E+00  3.8637848E+01
 8.4467506E+00  3.8396515E+01
 8.4582500E+00  3.8294312E+01
 8.4697504E+00  3.8214691E+01
 8.4812508E+00  3.8152195E+01
 8.4927502E+00  3.7999290E+01
 8.5042505E+00  3.7900658E+01
 8.5157509E+00  3.7759624E+01
 8.5272503E+00  3.7498375E+01
 8.5387506E+00  3.7270348E+01
 8.5502501E+00  3.7026894E+01
 8.5617504E+00  3.6829021E+01
 8.5732508E+00  3.6581879E+01
 8.5847502E+00  3.6307899E+01
 8.5962505E+00  3.6167042E+01
 8.6077509E+00  3.5908844E+01
 8.6192503E+00  3.5810555E+01
 8.6307507E+00  3.5648514E+01
 8.6422501E+00  3.5543499E+01
 8.6537504E+00  3.5322620E+01
 8.6652508E+00  3.5145653E+01
 8.6767502E+00  3.4987034E+01
 8.6882505E+00  3.4928116E+01
 8.6997509E+00  3.4807686E+01
 8.7112503E+00  3.4608688E+01
 8.7227507E+00  3.4346664E+01
 8.7342501E+00  3.4168961E+01
 8.7457504E+00  3.3991543E+01
 8.7572508E+00  3.3841190E+01
 8.7687502E+00  3.3650272E+01
 8.7802505E+00  3.3493500E+01
 8.7917500E+00  3.3324944E+01
 8.8032503E+00  3.3161953E+01
 8.8147507E+00  3.3021275E+01
 8.8262501E+00  3.2897446E+01
 8.8377504E+00  3.2768097E+01
 8.8492508E+00  3.2698044E+01
 8.8607502E+00  3.2548134E+01
 8.8722506E+00  3.2369862E+01
 8.8837500E+00  3.2166187E+01
 8.8952503E+00  3.1952518E+01
 8.9067507E+00  3.1819651E+01
 8.9182501E+00  3.1646399E+01
 8.9297504E+00  3.1493608E+01
 8.9412508E+00  3.1354166E+01
 8.9527502E+00  3.1188614E+01
 8.9642506E+00  3.1026922E+01
 8.9757500E+00  3.0798712E+01
 8.9872503E+00  3.0576479E+01
 8.9987507E+00  3.0395441E+01
 9.0102501E+00  3.0212936E+01
 9.0217505E+00  3.0082460E+01
 9.0332508E+00  2.9921511E+01
 9.0447502E+00  2.9791328E+01
 9.0562506E+00  2.9722260E+01
 9.0677500E+00  2.9658566E+01
 9.0792503E+00  2.9620716E+01
 9.0907507E+00  2.9485136E+01
 9.1022501E+00  2.9427031E+01
 9.1137505E+00  2.9350433E+01
 9.1252508E+00  2.9278494E+01
 9.1367502E+00  2.9165854E+01
 9.1482506E+00  2.9029997E+01
 9.1597500E+00  2.8812771E+01
 9.1712503E+00  2.8648493E+01
 9.1827507E+00  2.8497639E+01
 9.1942501E+00  2.8439512E+01
 9.2057505E+00  2.8326794E+01
 9.2172508E+00  2.8258860E+01
 9.2287502E+00  2.8121662E+01
 9.2402506E+00  2.8032499E+01
 9.2517500E+00  2.7863216E+01
 9.2632504E+00  2.7811344E+01
 9.2747507E+00  2.7721230E+01
 9.2862501E+00  2.7666555E+01
 9.2977505E+00  2.7562450E+01
 9.3092508E+00  2.7534447E+01
 9.3207502E+00  2.7446033E+01
 9.3322506E+00  2.7381767E+01
 9.3437500E+00  2.7253292E+01
 9.3552504E+00  2.7226425E+01
 9.3667507E+00  2.7160500E+01
 9.3782501E+00  2.7068291E+01
 9.3897505E+00  2.6963713E+01
 9.4012508E+00  2.6825682E+01
 9.4127502E+00  2.6731659E+01
 9.4242506E+00  2.6575127E+01
 9.4357500E+00  2.6497667E+01
 9.4472504E+00  2.6439655E+01
 9.4587507E+00  2.6437742E+01
 9.4702501E+00  2.6388519E+01
 9.4817505E+00  2.6348539E+01
 9.4932508E+00  2.6243437E+01
 9.5047503E+00  2.6202501E+01
 9.5162506E+00  2.6112417E+01
 9.5277500E+00  2.6088049E+01
 9.5392504E+00  2.6027641E+01
 9.5507507E+00  2.5943535E+01
 9.5622501E+00  2.5847567E+01
 9.5737505E+00  2.5743519E+01
 9.5852509E+00  2.5703209E+01
 9.5967503E+00  2.5707460E+01
 9.6082506E+00  2.5670900E+01
 9.6197500E+00  2.5660259E+01
 9.6312504E+00  2.5599663E+01
 9.6427507E+00  2.5523762E+01
 9.6542501E+00  2.5406488E+01
 9.6657505E+00  2.5271135E+01
 9.6772509E+00  2.5161211E+01
 9.6887503E+00  2.5112598E+01
 9.7002506E+00  2.5119873E+01
 9.7117500E+00  2.5162487E+01
 9.7232504E+00  2.5153193E+01
 9.7347507E+00  2.5177317E+01
 9.7462502E+00  2.5167683E+01
 9.7577505E+00  2.5127012E+01
 9.7692509E+00  2.5054773E+01
 9.7807503E+00  2.5020477E+01
 9.7922506E+00  2.4983376E+01
 9.8037500E+00  2.4938019E+01
 9.8152504E+00  2.4853428E+01
 9.8267508E+00  2.4718266E+01
 9.8382502E+00  2.4622526E+01
 9.8497505E+00  2.4560242E+01
 9.8612509E+00  2.4549097E+01
 9.8727503E+00  2.4491106E+01
 9.8842506E+00  2.4441853E+01
 9.8957500E+00  2.4439840E+01
 9.9072504E+00  2.4455587E+01
 9.9187508E+00  2.4427950E+01
 9.9302502E+00  2.4378365E+01
 9.9417505E+00  2.4294487E+01
 9.9532509E+00  2.4297050E+01
 9.9647503E+00  2.4289694E+01
 9.9762506E+00  2.4339041E+01
 9.9877501E+00  2.4315258E+01
 9.9992504E+00  2.4278254E+01
 1.0010751E+01  2.4195044E+01
 1.0022250E+01  2.4190332E+01
 1.0033751E+01  2.4165979E+01
 1.0045251E+01  2.4183380E+01
 1.0056750E+01  2.4139460E+01
 1.0068251E+01  2.4112501E+01
 1.0079750E+01  2.4069561E+01
 1.0091250E+01  2.4021368E+01
 1.0102751E+01  2.4027216E+01
 1.0114250E+01  2.3967176E+01
 1.0125751E+01  2.3947927E+01
 1.0137251E+01  2.3846138E+01
 1.0148750E+01  2.3774366E+01
 1.0160251E+01  2.3687771E+01
 1.0171750E+01  2.3625370E+01
 1.0183250E+01  2.3699709E+01
 1.0194751E+01  2.3694565E+01
 1.0206250E+01  2.3732510E+01
 1.0217751E+01  2.3690392E+01
 1.0229251E+01  2.3649193E+01
 1.0240750E+01  2.3633558E+01
 1.0252251E+01  2.3592577E+01
 1.0263750E+01  2.3585560E+01
 1.0275250E+01  2.3574295E+01
 1.0286751E+01  2.3529800E+01
 1.0298250E+01  2.3474230E+01
 1.0309751E+01  2.3420515E+01
 1.0321251E+01  2.3290379E+01
 1.0332750E+01  2.3266012E+01
 1.0344251E+01  2.3186043E+01
 1.0355750E+01  2.3231350E+01
 1.0367250E+01  2.3197029E+01
 1.0378751E+01  2.3237743E+01
 1.0390250E+01  2.3273876E+01
 1.0401751E+01  2.3273767E+01
 1.0413251E+01  2.3325392E+01
 1.0424750E+01  2.3273371E+01
 1.0436251E+01  2.3269327E+01
 1.0447750E+01  2.3175272E+01
 1.0459250E+01  2.3138309E+01
 1.0470751E+01  2.3097164E+01
 1.0482250E+01  2.3109232E+01
 1.0493751E+01  2.3218315E+01
 1.0505251E+01  2.3253199E+01
 1.0516750E+01  2.3299755E+01
 1.0528251E+01  2.3217619E+01
 1.0539750E+01  2.3154253E+01
 1.0551250E+01  2.3050753E+01
 1.0562751E+01  2.2976448E+01
 1.0574250E+01  2.2943680E+01
 1.0585751E+01  2.2887384E+01
 1.0597251E+01  2.2901060E+01
 1.0608750E+01  2.2936666E+01
 1.0620251E+01  2.2935068E+01
 1.0631750E+01  2.2924816E+01
 1.0643250E+01  2.2889263E+01
 1.0654751E+01  2.2948397E+01
 1.0666250E+01  2.2907541E+01
 1.0677751E+01  2.2942690E+01
 1.0689251E+01  2.2967941E+01
 1.0700750E+01  2.3009132E+01
 1.0712251E+01  2.3047159E+01
 1.0723750E+01  2.3027327E+01
 1.0735250E+01  2.2976997E+01
 1.0746751E+01  2.2897949E+01
 1.0758250E+01  2.2754389E+01
 1.0769751E+01  2.2735744E+01
 1.0781251E+01  2.2687864E+01
 1.0792750E+01  2.2670210E+01
 1.0804251E+01  2.2640722E+01
 1.0815750E+01  2.2615452E+01
 1.0827250E+01  2.2616674E+01
 1.0838751E+01  2.2629721E+01
 1.0850250E+01  2.2641256E+01
 1.0861751E+01  2.2657856E+01
 1.0873251E+01  2.2677343E+01
 1.0884750E+01  2.2644636E+01
 1.0896251E+01  2.2639280E+01
 1.0907750E+01  2.2652901E+01
 1.0919250E+01  2.2658785E+01
 1.0930751E+01  2.2673304E+01
 1.0942250E+01  2.2627295E+01
 1.0953751E+01  2.2622438E+01
 1.0965251E+01  2.2572493E+01
 1.0976750E+01  2.2565895E+01
 1.0988251E+01  2.2515125E+01
 1.0999750E+01  2.2491505E+01
 1.1011250E+01  2.2482021E+01
 1.1022751E+01  2.2490885E+01
 1.1034250E+01  2.2565239E+01
 1.1045751E+01  2.2525517E+01
 1.1057251E+01  2.2490393E+01
 1.1068750E+01  2.2439920E+01
 1.1080251E+01  2.2464466E+01
 1.1091750E+01  2.2521736E+01
 1.1103251E+01  2.2546593E+01
 1.1114751E+01  2.2571026E+01
 1.1126250E+01  2.2603958E+01
 1.1137751E+01  2.2584263E+01
 1.1149251E+01  2.2570522E+01
 1.1160750E+01  2.2596436E+01
 1.1172251E+01  2.2604387E+01
 1.1183750E+01  2.2600023E+01
 1.1195251E+01  2.2545135E+01
 1.1206751E+01  2.2533913E+01
 1.1218250E+01  2.2482624E+01
 1.1229751E+01  2.2438997E+01
 1.1241251E+01  2.2429127E+01
 1.1252750E+01  2.2452164E+01
 1.1264251E+01  2.2417274E+01
 1.1275750E+01  2.2398697E+01
 1.1287251E+01  2.2366343E+01
 1.1298751E+01  2.2388029E+01
 1.1310250E+01  2.2442904E+01
 1.1321751E+01  2.2463772E+01
 1.1333251E+01  2.2500723E+01
 1.1344750E+01  2.2494371E+01
 1.1356251E+01  2.2547367E+01
 1.1367750E+01  2.2617212E+01
 1.1379251E+01  2.2661835E+01
 1.1390751E+01  2.2689156E+01
 1.1402250E+01  2.2871170E+01
 1.1413751E+01  2.2895449E+01
 1.1425251E+01  2.2859573E+01
 1.1436750E+01  2.2754360E+01
 1.1448251E+01  2.2786491E+01
 1.1459750E+01  2.2836143E+01
 1.1471251E+01  2.2862436E+01
 1.1482751E+01  2.2850494E+01
 1.1494250E+01  2.2921597E+01
 1.1505751E+01  2.2965981E+01
 1.1517251E+01  2.3103481E+01
 1.1528750E+01  2.3514391E+01
 1.1540251E+01  2.3975309E+01
 1.1551750E+01  2.4734680E+01
 1.1563251E+01  2.5926874E+01
 1.1574751E+01  2.6777027E+01
 1.1586250E+01  2.8135878E+01
 1.1597751E+01  2.8622547E+01
 1.1609251E+01  2.8505762E+01
 1.1620750E+01  2.7615101E+01
 1.1632251E+01  2.6260231E+01
 1.1643750E+01  2.5317253E+01
 1.1655251E+01  2.4250256E+01
 1.1666751E+01  2.3560358E+01
 1.1678250E+01  2.3216919E+01
 1.1689751E+01  2.2851662E+01
 1.1701251E+01  2.2676699E+01
 1.1712750E+01  2.2569529E+01
 1.1724251E+01  2.2517288E+01
 1.1735750E+01  2.2528448E+01
 1.1747251E+01  2.2572447E+01
 1.1758751E+01  2.2622391E+01
 1.1770250E+01  2.2601227E+01
 1.1781751E+01  2.2637854E+01
 1.1793251E+01  2.2636906E+01
 1.1804750E+01  2.2710222E+01
 1.1816251E+01  2.2710419E+01
 1.1827750E+01  2.2779652E+01
 1.1839251E+01  2.2842796E+01
 1.1850751E+01  2.2850590E+01
 1.1862250E+01  2.2912624E+01
 1.1873751E+01  2.2942036E+01
 1.1885251E+01  2.2991421E+01
 1.1896750E+01  2.3153589E+01
 1.1908251E+01  2.3352871E+01
 1.1919750E+01  2.3882601E+01
 1.1931251E+01  2.5000265E+01
 1.1942751E+01  2.5898371E+01
 1.1954250E+01  2.8201677E+01
 1.1965751E+01  2.9236511E+01
 1.1977251E+01  3.0329287E+01
 1.1988750E+01  3.0604103E+01
 1.2000251E+01  2.9641937E+01
 1.2011750E+01  2.8881910E+01
 1.2023251E+01  2.7249676E+01
 1.2034751E+01  2.6606462E+01
 1.2046250E+01  2.6394915E+01
 1.2057751E+01  2.6480663E+01
 1.2069251E+01  2.7173841E+01
 1.2080750E+01  2.7688412E+01
 1.2092251E+01  2.8702019E+01
 1.2103750E+01  2.8815897E+01
 1.2115251E+01  2.8605186E+01
 1.2126751E+01  2.7339674E+01
 1.2138250E+01  2.6644630E+01
 1.2149751E+01  2.5643875E+01
 1.2161251E+01  2.4634663E+01
 1.2172750E+01  2.3970112E+01
 1.2184251E+01  2.3326820E+01
 1.2195750E+01  2.3076351E+01
 1.2207251E+01  2.2867456E+01
 1.2218751E+01  2.2764019E+01
 1.2230250E+01  2.2666264E+01
 1.2241751E+01  2.2643438E+01
 1.2253251E+01  2.2615337E+01
 1.2264750E+01  2.2570284E+01
 1.2276251E+01  2.2516901E+01
 1.2287750E+01  2.2509706E+01
 1.2299251E+01  2.2485924E+01
 1.2310751E+01  2.2494793E+01
 1.2322250E+01  2.2477297E+01
 1.2333751E+01  2.2490786E+01
 1.2345250E+01  2.2480968E+01
 1.2356750E+01  2.2516998E+01
 1.2368251E+01  2.2511560E+01
 1.2379750E+01  2.2533297E+01
 1.2391251E+01  2.2494825E+01
 1.2402751E+01  2.2454893E+01
 1.2414250E+01  2.2401110E+01
 1.2425751E+01  2.2358936E+01
 1.2437250E+01  2.2450157E+01
 1.2448750E+01  2.2535471E+01
 1.2460251E+01  2.2653740E+01
 1.2471750E+01  2.2711685E+01
 1.2483251E+01  2.2736801E+01
 1.2494751E+01  2.2711109E+01
 1.2506250E+01  2.2639240E+01
 1.2517751E+01  2.2561020E+01
 1.2529250E+01  2.2562721E+01
 1.2540751E+01  2.2577936E+01
 1.2552251E+01  2.2613586E+01
 1.2563750E+01  2.2602512E+01
 1.2575251E+01  2.2581141E+01
 1.2586751E+01  2.2608150E+01
 1.2598250E+01  2.2611244E+01
 1.2609751E+01  2.2708778E+01
 1.2621250E+01  2.2734001E+01
 1.2632751E+01  2.2775347E+01
 1.2644251E+01  2.2700201E+01
 1.2655750E+01  2.2715904E+01
 1.2667251E+01  2.2728739E+01
 1.2678751E+01  2.2766445E+01
 1.2690250E+01  2.2807409E+01
 1.2701751E+01  2.2849117E+01
 1.2713250E+01  2.2903912E+01
 1.2724751E+01  2.2895262E+01
 1.2736251E+01  2.2902575E+01
 1.2747750E+01  2.2901619E+01
 1.2759251E+01  2.2966299E+01
 1.2770751E+01  2.2984056E+01
 1.2782250E+01  2.3034746E+01
 1.2793751E+01  2.2991669E+01
 1.2805250E+01  2.3054024E+01
 1.2816751E+01  2.3123764E+01
 1.2828251E+01  2.3261494E+01
 1.2839750E+01  2.3297123E+01
 1.2851251E+01  2.3334175E+01
 1.2862751E+01  2.3332018E+01
 1.2874250E+01  2.3349163E+01
 1.2885751E+01  2.3314568E+01
 1.2897250E+01  2.3298084E+01
 1.2908751E+01  2.3320705E+01
 1.2920251E+01  2.3397406E+01
 1.2931750E+01  2.3503180E+01
 1.2943251E+01  2.3582224E+01
 1.2954751E+01  2.3668520E+01
 1.2966250E+01  2.3660423E+01
 1.2977751E+01  2.3722603E+01
 1.2989250E+01  2.3719315E+01
 1.3000751E+01  2.3808109E+01
 1.3012251E+01  2.3853043E+01
 1.3023750E+01  2.3991276E+01
 1.3035251E+01  2.4091927E+01
 1.3046751E+01  2.4170965E+01
 1.3058250E+01  2.4218061E+01
 1.3069751E+01  2.4254686E+01
 1.3081250E+01  2.4341150E+01
 1.3092751E+01  2.4448994E+01
 1.3104251E+01  2.4626448E+01
 1.3115750E+01  2.4774303E+01
 1.3127251E+01  2.4849590E+01
 1.3138751E+01  2.4905556E+01
 1.3150250E+01  2.4951441E+01
 1.3161751E+01  2.5054407E+01
 1.3173250E+01  2.5226866E+01
 1.3184751E+01  2.5429192E+01
 1.3196251E+01  2.5618040E+01
 1.3207750E+01  2.5767237E+01
 1.3219251E+01  2.5934042E+01
 1.3230751E+01  2.6097305E+01
 1.3242250E+01  2.6246847E+01
 1.3253751E+01  2.6276989E+01
 1.3265250E+01  2.6378826E+01
 1.3276751E+01  2.6387192E+01
 1.3288251E+01  2.6543274E+01
 1.3299750E+01  2.6645203E+01
 1.3311251E+01  2.6839428E+01
 1.3322751E+01  2.6996916E+01
 1.3334250E+01  2.7226957E+01
 1.3345751E+01  2.7420486E+01
 1.3357250E+01  2.7617870E+01
 1.3368751E+01  2.7728540E+01
 1.3380251E+01  2.7918186E+01
 1.3391750E+01  2.8024324E+01
 1.3403251E+01  2.8162882E+01
 1.3414751E+01  2.8197502E+01
 1.3426250E+01  2.8279030E+01
 1.3437751E+01  2.8405558E+01
 1.3449250E+01  2.8543886E+01
 1.3460751E+01  2.8704035E+01
 1.3472251E+01  2.8758768E+01
 1.3483750E+01  2.8936878E+01
 1.3495251E+01  2.9005514E+01
 1.3506751E+01  2.9137638E+01
 1.3518250E+01  2.9235550E+01
 1.3529751E+01  2.9340862E+01
 1.3541250E+01  2.9440536E+01
 1.3552751E+01  2.9403896E+01
 1.3564251E+01  2.9444054E+01
 1.3575750E+01  2.9442427E+01
 1.3587251E+01  2.9529598E+01
 1.3598751E+01  2.9585361E+01
 1.3610250E+01  2.9558054E+01
 1.3621751E+01  2.9512987E+01
 1.3633250E+01  2.9502987E+01
 1.3644751E+01  2.9578184E+01
 1.3656251E+01  2.9648277E+01
 1.3667750E+01  2.9712286E+01
 1.3679251E+01  2.9704176E+01
 1.3690751E+01  2.9679052E+01
 1.3702250E+01  2.9634203E+01
 1.3713751E+01  2.9618507E+01
 1.3725250E+01  2.9625771E+01
 1.3736751E+01  2.9638098E+01
 1.3748251E+01  2.9672544E+01
 1.3759750E+01  2.9641211E+01
 1.3771251E+01  2.9610268E+01
 1.3782751E+01  2.9592096E+01
 1.3794250E+01  2.9589046E+01
 1.3805751E+01  2.9612261E+01
 1.3817250E+01  2.9661779E+01
 1.3828751E+01  2.9741131E+01
 1.3840251E+01  2.9977278E+01
 1.3851750E+01  3.0251009E+01
 1.3863251E+01  3.0716635E+01
 1.3874751E+01  3.1446766E+01
 1.3886250E+01  3.2456493E+01
 1.3897751E+01  3.4624092E+01
 1.3909250E+01  3.7454876E+01
 1.3920751E+01  4.1745762E+01
 1.3932251E+01  4.6152222E+01
 1.3943750E+01  5.1310509E+01
 1.3955251E+01  5.4380550E+01
 1.3966751E+01  5.6649529E+01
 1.3978251E+01  5.4228508E+01
 1.3989751E+01  4.9852207E+01
 1.4001250E+01  4.3769447E+01
 1.4012751E+01  3.8650829E+01
 1.4024251E+01  3.4963554E+01
 1.4035750E+01  3.2364597E+01
 1.4047251E+01  3.0702892E+01
 1.4058751E+01  2.9661860E+01
 1.4070251E+01  2.8967508E+01
 1.4081751E+01  2.8509872E+01
 1.4093250E+01  2.8194510E+01
 1.4104751E+01  2.7974968E+01
 1.4116251E+01  2.7813288E+01
 1.4127750E+01  2.7653179E+01
 1.4139251E+01  2.7540468E+01
 1.4150751E+01  2.7456839E+01
 1.4162251E+01  2.7358988E+01
 1.4173751E+01  2.7230621E+01
 1.4185250E+01  2.7097263E+01
 1.4196751E+01  2.7014193E+01
 1.4208251E+01  2.6936758E+01
 1.4219750E+01  2.6850132E+01
 1.4231251E+01  2.6734482E+01
 1.4242751E+01  2.6645706E+01
 1.4254251E+01  2.6548857E+01
 1.4265751E+01  2.6516787E+01
 1.4277250E+01  2.6414175E+01
 1.4288751E+01  2.6342438E+01
 1.4300251E+01  2.6201450E+01
 1.4311750E+01  2.6120630E+01
 1.4323251E+01  2.6001457E+01
 1.4334751E+01  2.5957640E+01
 1.4346251E+01  2.5934832E+01
 1.4357751E+01  2.5966389E+01
 1.4369250E+01  2.6015289E+01
 1.4380751E+01  2.6037693E+01
 1.4392251E+01  2.6005421E+01
 1.4403750E+01  2.5951118E+01
 1.4415251E+01  2.5955103E+01
 1.4426751E+01  2.5912680E+01
 1.4438251E+01  2.5842825E+01
 1.4449751E+01  2.5803810E+01
 1.4461250E+01  2.5799936E+01
 1.4472751E+01  2.5792229E+01
 1.4484251E+01  2.5714262E+01
 1.4495750E+01  2.5688307E+01
 1.4507251E+01  2.5683264E+01
 1.4518751E+01  2.5674801E+01
 1.4530251E+01  2.5656639E+01
 1.4541751E+01  2.5592693E+01
 1.4553250E+01  2.5605833E+01
 1.4564751E+01  2.5518854E+01
 1.4576251E+01  2.5469110E+01
 1.4587750E+01  2.5332718E+01
 1.4599251E+01  2.5281933E+01
 1.4610751E+01  2.5230959E+01
 1.4622251E+01  2.5226929E+01
 1.4633751E+01  2.5228064E+01
 1.4645250E+01  2.5226940E+01
 1.4656751E+01  2.5199797E+01
 1.4668251E+01  2.5161228E+01
 1.4679750E+01  2.5137318E+01
 1.4691251E+01  2.5151972E+01
 1.4702751E+01  2.5202036E+01
 1.4714251E+01  2.5170763E+01
 1.4725751E+01  2.5089846E+01
 1.4737250E+01  2.5015684E+01
 1.4748751E+01  2.5039356E+01
 1.4760251E+01  2.5078648E+01
 1.4771750E+01  2.5118769E+01
 1.4783251E+01  2.5109522E+01
 1.4794751E+01  2.5095367E+01
 1.4806251E+01  2.5028519E+01
 1.4817751E+01  2.4967239E+01
 1.4829250E+01  2.4924482E+01
 1.4840751E+01  2.4916128E+01
 1.4852251E+01  2.4886568E+01
 1.4863750E+01  2.4843954E+01
 1.4875251E+01  2.4794258E+01
 1.4886751E+01  2.4858490E+01
 1.4898251E+01  2.4900816E+01
 1.4909751E+01  2.4920328E+01
 1.4921250E+01  2.4925177E+01
 1.4932751E+01  2.4951920E+01
 1.4944251E+01  2.4965420E+01
 1.4955750E+01  2.4898458E+01
 1.4967251E+01  2.4843378E+01
 1.4978751E+01  2.4801025E+01
 1.4990251E+01  2.4757317E+01
 1.5001751E+01  2.4750154E+01
 1.5013250E+01  2.4809172E+01
 1.5024751E+01  2.4854097E+01
 1.5036251E+01  2.4806553E+01
 1.5047750E+01  2.4751705E+01
 1.5059251E+01  2.4712872E+01
 1.5070751E+01  2.4744232E+01
 1.5082251E+01  2.4753300E+01
 1.5093751E+01  2.4805590E+01
 1.5105250E+01  2.4889791E+01
 1.5116751E+01  2.4982563E+01
 1.5128251E+01  2.5121614E+01
 1.5139750E+01  2.5288263E+01
 1.5151251E+01  2.5607674E+01
 1.5162751E+01  2.6068855E+01
 1.5174251E+01  2.6504562E+01
 1.5185751E+01  2.7048323E+01
 1.5197250E+01  2.7371954E+01
 1.5208751E+01  2.7529907E+01
 1.5220251E+01  2.7257450E+01
 1.5231750E+01  2.6840019E+01
 1.5243251E+01  2.6259123E+01
 1.5254751E+01  2.5677067E+01
 1.5266251E+01  2.5143147E+01
 1.5277751E+01  2.4927479E+01
 1.5289250E+01  2.4799013E+01
 1.5300751E+01  2.4774027E+01
 1.5312251E+01  2.4709520E+01
 1.5323750E+01  2.4709265E+01
 1.5335251E+01  2.4664564E+01
 1.5346751E+01  2.4629005E+01
 1.5358251E+01  2.4559105E+01
 1.5369751E+01  2.4556498E+01
 1.5381250E+01  2.4569323E+01
 1.5392751E+01  2.4602745E+01
 1.5404251E+01  2.4658155E+01
 1.5415751E+01  2.4594765E+01
 1.5427251E+01  2.4544458E+01
 1.5438751E+01  2.4481585E+01
 1.5450251E+01  2.4487743E+01
 1.5461751E+01  2.4485765E+01
 1.5473250E+01  2.4481401E+01
 1.5484751E+01  2.4482937E+01
 1.5496251E+01  2.4487576E+01
 1.5507751E+01  2.4513039E+01
 1.5519251E+01  2.4531448E+01
 1.5530751E+01  2.4536257E+01
 1.5542251E+01  2.4498577E+01
 1.5553751E+01  2.4478712E+01
 1.5565250E+01  2.4524237E+01
 1.5576751E+01  2.4561726E+01
 1.5588251E+01  2.4594296E+01
 1.5599751E+01  2.4544121E+01
 1.5611251E+01  2.4532837E+01
 1.5622751E+01  2.4490356E+01
 1.5634251E+01  2.4477825E+01
 1.5645751E+01  2.4464184E+01
 1.5657250E+01  2.4494682E+01
 1.5668751E+01  2.4565380E+01
 1.5680251E+01  2.4609800E+01
 1.5691751E+01  2.4629740E+01
 1.5703251E+01  2.4672043E+01
 1.5714751E+01  2.4639524E+01
 1.5726251E+01  2.4649509E+01
 1.5737751E+01  2.4575823E+01
 1.5749250E+01  2.4597500E+01
 1.5760751E+01  2.4593786E+01
 1.5772251E+01  2.4610397E+01
 1.5783751E+01  2.4565414E+01
 1.5795251E+01  2.4549685E+01
 1.5806751E+01  2.4606554E+01
 1.5818251E+01  2.4652521E+01
 1.5829751E+01  2.4659101E+01
 1.5841250E+01  2.4581284E+01
 1.5852751E+01  2.4596231E+01
 1.5864251E+01  2.4564968E+01
 1.5875751E+01  2.4601555E+01
 1.5887251E+01  2.4589054E+01
 1.5898750E+01  2.4615519E+01
 1.5910251E+01  2.4657476E+01
 1.5921751E+01  2.4678864E+01
 1.5933250E+01  2.4734150E+01
 1.5944751E+01  2.4653727E+01
 1.5956251E+01  2.4636295E+01
 1.5967751E+01  2.4589838E+01
 1.5979251E+01  2.4613998E+01
 1.5990750E+01  2.4641569E+01
 1.6002251E+01  2.4651821E+01
 1.6013750E+01  2.4647871E+01
 1.6025251E+01  2.4625740E+01
 1.6036751E+01  2.4619881E+01
 1.6048250E+01  2.4620342E+01
 1.6059752E+01  2.4585800E+01
 1.6071251E+01  2.4560455E+01
 1.6082750E+01  2.4608591E+01
 1.6094252E+01  2.4632296E+01
 1.6105751E+01  2.4723843E+01
 1.6117250E+01  2.4734055E+01
 1.6128750E+01  2.4746439E+01
 1.6140251E+01  2.4737026E+01
 1.6151751E+01  2.4725012E+01
 1.6163250E+01  2.4796740E+01
 1.6174751E+01  2.4759274E+01
 1.6186251E+01  2.4952101E+01
 1.6197750E+01  2.4905136E+01
 1.6209251E+01  2.5177271E+01
 1.6220751E+01  2.5097553E+01
 1.6232250E+01  2.5391888E+01
 1.6243752E+01  2.5480053E+01
 1.6255251E+01  2.5673101E+01
 1.6266750E+01  2.5882769E+01
 1.6278252E+01  2.5678921E+01
 1.6289751E+01  2.5752556E+01
 1.6301250E+01  2.5208044E+01
 1.6312750E+01  2.5265364E+01
 1.6324251E+01  2.4867849E+01
 1.6335751E+01  2.4921722E+01
 1.6347250E+01  2.4769295E+01
 1.6358751E+01  2.4794977E+01
 1.6370251E+01  2.4740482E+01
 1.6381750E+01  2.4781260E+01
 1.6393251E+01  2.4797842E+01
 1.6404751E+01  2.4845694E+01
 1.6416250E+01  2.4886589E+01
 1.6427752E+01  2.4851295E+01
 1.6439251E+01  2.4782124E+01
 1.6450750E+01  2.4689064E+01
 1.6462252E+01  2.4655241E+01
 1.6473751E+01  2.4649443E+01
 1.6485250E+01  2.4669376E+01
 1.6496750E+01  2.4672039E+01
 1.6508251E+01  2.4663355E+01
 1.6519751E+01  2.4617577E+01
 1.6531250E+01  2.4610703E+01
 1.6542751E+01  2.4622673E+01
 1.6554251E+01  2.4670008E+01
 1.6565750E+01  2.4685732E+01
 1.6577251E+01  2.4693018E+01
 1.6588751E+01  2.4662512E+01
 1.6600250E+01  2.4650183E+01
 1.6611752E+01  2.4620733E+01
 1.6623251E+01  2.4545774E+01
 1.6634750E+01  2.4529049E+01
 1.6646252E+01  2.4521414E+01
 1.6657751E+01  2.4525225E+01
 1.6669250E+01  2.4516722E+01
 1.6680750E+01  2.4493105E+01
 1.6692251E+01  2.4525732E+01
 1.6703751E+01  2.4550219E+01
 1.6715250E+01  2.4546154E+01
 1.6726751E+01  2.4521593E+01
 1.6738251E+01  2.4502117E+01
 1.6749750E+01  2.4548235E+01
 1.6761251E+01  2.4528587E+01
 1.6772751E+01  2.4518480E+01
 1.6784250E+01  2.4483416E+01
 1.6795752E+01  2.4475695E+01
 1.6807251E+01  2.4495251E+01
 1.6818750E+01  2.4527592E+01
 1.6830252E+01  2.4521961E+01
 1.6841751E+01  2.4468187E+01
 1.6853251E+01  2.4405350E+01
 1.6864750E+01  2.4370737E+01
 1.6876251E+01  2.4336046E+01
 1.6887751E+01  2.4329422E+01
 1.6899250E+01  2.4301447E+01
 1.6910751E+01  2.4294846E+01
 1.6922251E+01  2.4270397E+01
 1.6933750E+01  2.4218369E+01
 1.6945251E+01  2.4201080E+01
 1.6956751E+01  2.4208363E+01
 1.6968250E+01  2.4279547E+01
 1.6979752E+01  2.4310751E+01
 1.6991251E+01  2.4309566E+01
 1.7002750E+01  2.4299576E+01
 1.7014252E+01  2.4304956E+01
 1.7025751E+01  2.4303183E+01
 1.7037251E+01  2.4258442E+01
 1.7048750E+01  2.4218399E+01
 1.7060251E+01  2.4192043E+01
 1.7071751E+01  2.4201717E+01
 1.7083250E+01  2.4219027E+01
 1.7094751E+01  2.4227016E+01
 1.7106251E+01  2.4198257E+01
 1.7117750E+01  2.4144604E+01
 1.7129251E+01  2.4116674E+01
 1.7140751E+01  2.4081741E+01
 1.7152250E+01  2.4073647E+01
 1.7163752E+01  2.4074883E+01
 1.7175251E+01  2.4068958E+01
 1.7186750E+01  2.4097940E+01
 1.7198252E+01  2.4113501E+01
 1.7209751E+01  2.4131533E+01
 1.7221251E+01  2.4094709E+01
 1.7232750E+01  2.4120777E+01
 1.7244251E+01  2.4121267E+01
 1.7255751E+01  2.4074368E+01
 1.7267250E+01  2.3986952E+01
 1.7278751E+01  2.3947912E+01
 1.7290251E+01  2.3953526E+01
 1.7301750E+01  2.4010105E+01
 1.7313251E+01  2.4001656E+01
 1.7324751E+01  2.4039639E+01
 1.7336250E+01  2.4038519E+01
 1.7347752E+01  2.4061163E+01
 1.7359251E+01  2.4042784E+01
 1.7370750E+01  2.4039778E+01
 1.7382252E+01  2.4056292E+01
 1.7393751E+01  2.3986320E+01
 1.7405251E+01  2.3919577E+01
 1.7416750E+01  2.3860146E+01
 1.7428251E+01  2.3883244E+01
 1.7439751E+01  2.3922812E+01
 1.7451250E+01  2.3994865E+01
 1.7462751E+01  2.4046970E+01
 1.7474251E+01  2.4001499E+01
 1.7485750E+01  2.3981117E+01
 1.7497252E+01  2.3934259E+01
 1.7508751E+01  2.3934170E+01
 1.7520250E+01  2.3879036E+01
 1.7531752E+01  2.3878990E+01
 1.7543251E+01  2.3912933E+01
 1.7554750E+01  2.3863272E+01
 1.7566252E+01  2.3851858E+01
 1.7577751E+01  2.3793333E+01
 1.7589251E+01  2.3787300E+01
 1.7600750E+01  2.3775082E+01
 1.7612251E+01  2.3836163E+01
 1.7623751E+01  2.3929413E+01
 1.7635250E+01  2.3941484E+01
 1.7646751E+01  2.3966055E+01
 1.7658251E+01  2.3943781E+01
 1.7669750E+01  2.3948147E+01
 1.7681252E+01  2.3933605E+01
 1.7692751E+01  2.3908113E+01
 1.7704250E+01  2.3882692E+01
 1.7715752E+01  2.3851805E+01
 1.7727251E+01  2.3839973E+01
 1.7738750E+01  2.3842466E+01
 1.7750252E+01  2.3852800E+01
 1.7761751E+01  2.3821753E+01
 1.7773251E+01  2.3793037E+01
 1.7784750E+01  2.3735195E+01
 1.7796251E+01  2.3729383E+01
 1.7807751E+01  2.3651049E+01
 1.7819250E+01  2.3673378E+01
 1.7830751E+01  2.3622326E+01
 1.7842251E+01  2.3649307E+01
 1.7853750E+01  2.3616293E+01
 1.7865252E+01  2.3671991E+01
 1.7876751E+01  2.3658249E+01
 1.7888250E+01  2.3671589E+01
 1.7899752E+01  2.3664278E+01
 1.7911251E+01  2.3741329E+01
 1.7922750E+01  2.3810703E+01
 1.7934252E+01  2.3781403E+01
 1.7945751E+01  2.3783665E+01
 1.7957251E+01  2.3798916E+01
 1.7968750E+01  2.3937141E+01
 1.7980251E+01  2.4079222E+01
 1.7991751E+01  2.4211088E+01
 1.8003250E+01  2.4373783E+01
 1.8014751E+01  2.4543533E+01
 1.8026251E+01  2.4783867E+01
 1.8037750E+01  2.5065729E+01
 1.8049252E+01  2.5372555E+01
 1.8060751E+01  2.5594797E+01
 1.8072250E+01  2.5710522E+01
 1.8083752E+01  2.5833738E+01
 1.8095251E+01  2.5929283E+01
 1.8106750E+01  2.6101721E+01
 1.8118252E+01  2.6045738E+01
 1.8129751E+01  2.6057825E+01
 1.8141251E+01  2.5601915E+01
 1.8152750E+01  2.5271555E+01
 1.8164251E+01  2.4738760E+01
 1.8175751E+01  2.4434603E+01
 1.8187250E+01  2.4041637E+01
 1.8198751E+01  2.3895414E+01
 1.8210251E+01  2.3803642E+01
 1.8221750E+01  2.3786045E+01
 1.8233252E+01  2.3726856E+01
 1.8244751E+01  2.3675449E+01
 1.8256250E+01  2.3649611E+01
 1.8267752E+01  2.3620829E+01
 1.8279251E+01  2.3644646E+01
 1.8290751E+01  2.3679937E+01
 1.8302252E+01  2.3715677E+01
 1.8313751E+01  2.3706518E+01
 1.8325251E+01  2.3660196E+01
 1.8336750E+01  2.3623854E+01
 1.8348251E+01  2.3613245E+01
 1.8359751E+01  2.3613565E+01
 1.8371250E+01  2.3585375E+01
 1.8382751E+01  2.3540243E+01
 1.8394251E+01  2.3547915E+01
 1.8405750E+01  2.3586298E+01
 1.8417252E+01  2.3598333E+01
 1.8428751E+01  2.3589512E+01
 1.8440250E+01  2.3554165E+01
 1.8451752E+01  2.3552856E+01
 1.8463251E+01  2.3551125E+01
 1.8474751E+01  2.3577909E+01
 1.8486252E+01  2.3569946E+01
 1.8497751E+01  2.3586630E+01
 1.8509251E+01  2.3624258E+01
 1.8520750E+01  2.3634691E+01
 1.8532251E+01  2.3625782E+01
 1.8543751E+01  2.3565710E+01
 1.8555250E+01  2.3613827E+01
 1.8566751E+01  2.3647022E+01
 1.8578251E+01  2.3701576E+01
 1.8589750E+01  2.3725237E+01
 1.8601252E+01  2.3697573E+01
 1.8612751E+01  2.3631634E+01
 1.8624250E+01  2.3578766E+01
 1.8635752E+01  2.3593742E+01
 1.8647251E+01  2.3621407E+01
 1.8658751E+01  2.3564476E+01
 1.8670252E+01  2.3578943E+01
 1.8681751E+01  2.3575560E+01
 1.8693251E+01  2.3634846E+01
 1.8704750E+01  2.3571148E+01
 1.8716251E+01  2.3525099E+01
 1.8727751E+01  2.3515787E+01
 1.8739250E+01  2.3507746E+01
 1.8750751E+01  2.3482071E+01
 1.8762251E+01  2.3456182E+01
 1.8773750E+01  2.3463802E+01
 1.8785252E+01  2.3491419E+01
 1.8796751E+01  2.3477793E+01
 1.8808250E+01  2.3465916E+01
 1.8819752E+01  2.3449757E+01
 1.8831251E+01  2.3456768E+01
 1.8842751E+01  2.3462284E+01
 1.8854252E+01  2.3472784E+01
 1.8865751E+01  2.3478048E+01
 1.8877251E+01  2.3514261E+01
 1.8888750E+01  2.3541866E+01
 1.8900251E+01  2.3513933E+01
 1.8911751E+01  2.3506693E+01
 1.8923250E+01  2.3481340E+01
 1.8934752E+01  2.3496868E+01
 1.8946251E+01  2.3480545E+01
 1.8957750E+01  2.3500448E+01
 1.8969252E+01  2.3468109E+01
 1.8980751E+01  2.3471292E+01
 1.8992250E+01  2.3394184E+01
 1.9003752E+01  2.3355217E+01
 1.9015251E+01  2.3344957E+01
 1.9026751E+01  2.3416218E+01
 1.9038252E+01  2.3483362E+01
 1.9049751E+01  2.3530451E+01
 1.9061251E+01  2.3531553E+01
 1.9072750E+01  2.3541256E+01
 1.9084251E+01  2.3543592E+01
 1.9095751E+01  2.3532959E+01
 1.9107250E+01  2.3539675E+01
 1.9118752E+01  2.3467777E+01
 1.9130251E+01  2.3498758E+01
 1.9141750E+01  2.3430040E+01
 1.9153252E+01  2.3474728E+01
 1.9164751E+01  2.3429754E+01
 1.9176250E+01  2.3481516E+01
 1.9187752E+01  2.3503468E+01
 1.9199251E+01  2.3565142E+01
 1.9210751E+01  2.3588938E+01
 1.9222252E+01  2.3588369E+01
 1.9233751E+01  2.3576113E+01
 1.9245251E+01  2.3600243E+01
 1.9256750E+01  2.3602621E+01
 1.9268251E+01  2.3615427E+01
 1.9279751E+01  2.3586443E+01
 1.9291250E+01  2.3614492E+01
 1.9302752E+01  2.3641691E+01
 1.9314251E+01  2.3678032E+01
 1.9325750E+01  2.3665621E+01
 1.9337252E+01  2.3664593E+01
 1.9348751E+01  2.3624229E+01
 1.9360250E+01  2.3612452E+01
 1.9371752E+01  2.3649302E+01
 1.9383251E+01  2.3691067E+01
 1.9394751E+01  2.3746952E+01
 1.9406250E+01  2.3740208E+01
 1.9417751E+01  2.3740278E+01
 1.9429251E+01  2.3717926E+01
 1.9440750E+01  2.3720264E+01
 1.9452251E+01  2.3718416E+01
 1.9463751E+01  2.3708971E+01
 1.9475250E+01  2.3673693E+01
 1.9486752E+01  2.3659969E+01
 1.9498251E+01  2.3619940E+01
 1.9509750E+01  2.3629356E+01
 1.9521252E+01  2.3672424E+01
 1.9532751E+01  2.3754053E+01
 1.9544250E+01  2.3850731E+01
 1.9555752E+01  2.3809940E+01
 1.9567251E+01  2.3834776E+01
 1.9578751E+01  2.3848116E+01
 1.9590250E+01  2.3971796E+01
 1.9601751E+01  2.4019554E+01
 1.9613251E+01  2.4134502E+01
 1.9624750E+01  2.4303577E+01
 1.9636251E+01  2.4440199E+01
 1.9647751E+01  2.4903734E+01
 1.9659250E+01  2.5218998E+01
 1.9670752E+01  2.5643385E+01
 1.9682251E+01  2.5988470E+01
 1.9693750E+01  2.6607809E+01
 1.9705252E+01  2.7055044E+01
 1.9716751E+01  2.7163498E+01
 1.9728251E+01  2.7295048E+01
 1.9739752E+01  2.7132311E+01
 1.9751251E+01  2.6834555E+01
 1.9762751E+01  2.6646334E+01
 1.9774250E+01  2.6640980E+01
 1.9785751E+01  2.7115454E+01
 1.9797251E+01  2.7738089E+01
 1.9808750E+01  2.8728500E+01
 1.9820251E+01  2.9125309E+01
 1.9831751E+01  2.9385454E+01
 1.9843250E+01  2.8996626E+01
 1.9854752E+01  2.8995714E+01
 1.9866251E+01  2.8683203E+01
 1.9877750E+01  2.8499086E+01
 1.9889252E+01  2.7824621E+01
 1.9900751E+01  2.7454201E+01
 1.9912251E+01  2.6643621E+01
 1.9923752E+01  2.6021843E+01
 1.9935251E+01  2.5429087E+01
 1.9946751E+01  2.4938349E+01
 1.9958250E+01  2.4604231E+01
 1.9969751E+01  2.4396870E+01
 1.9981251E+01  2.4164007E+01
 1.9992750E+01  2.4029325E+01
 2.0004251E+01  2.3916996E+01
 2.0015751E+01  2.3875076E+01
 2.0027250E+01  2.3854147E+01
 2.0038752E+01  2.3829563E+01
 2.0050251E+01  2.3826872E+01
 2.0061750E+01  2.3761480E+01
 2.0073252E+01  2.3751389E+01
 2.0084751E+01  2.3717962E+01
 2.0096251E+01  2.3707293E+01
 2.0107752E+01  2.3677307E+01
 2.0119251E+01  2.3672060E+01
 2.0130751E+01  2.3697653E+01
 2.0142250E+01  2.3702425E+01
 2.0153751E+01  2.3706491E+01
 2.0165251E+01  2.3694584E+01
 2.0176750E+01  2.3704857E+01
 2.0188251E+01  2.3736917E+01
 2.0199751E+01  2.3802076E+01
 2.0211250E+01  2.3829723E+01
 2.0222752E+01  2.3890949E+01
 2.0234251E+01  2.3891035E+01
 2.0245750E+01  2.3934774E+01
 2.0257252E+01  2.3831484E+01
 2.0268751E+01  2.3777277E+01
 2.0280251E+01  2.3687572E+01
 2.0291752E+01  2.3692163E+01
 2.0303251E+01  2.3620617E+01
 2.0314751E+01  2.3591099E+01
 2.0326250E+01  2.3587358E+01
 2.0337751E+01  2.3619913E+01
 2.0349251E+01  2.3646048E+01
 2.0360750E+01  2.3698145E+01
 2.0372252E+01  2.3720806E+01
 2.0383751E+01  2.3736731E+01
 2.0395250E+01  2.3753532E+01
 2.0406752E+01  2.3792435E+01
 2.0418251E+01  2.3845293E+01
 2.0429750E+01  2.3901516E+01
 2.0441252E+01  2.3859705E+01
 2.0452751E+01  2.3844126E+01
 2.0464251E+01  2.3819635E+01
 2.0475752E+01  2.3876272E+01
 2.0487251E+01  2.3851048E+01
 2.0498751E+01  2.3840467E+01
 2.0510250E+01  2.3783110E+01
 2.0521751E+01  2.3818207E+01
 2.0533251E+01  2.3837326E+01
 2.0544750E+01  2.3858158E+01
 2.0556252E+01  2.3885759E+01
 2.0567751E+01  2.3894194E+01
 2.0579250E+01  2.3899763E+01
 2.0590752E+01  2.3910219E+01
 2.0602251E+01  2.3970177E+01
 2.0613750E+01  2.3994242E+01
 2.0625252E+01  2.3990381E+01
 2.0636751E+01  2.4000570E+01
 2.0648251E+01  2.4037161E+01
 2.0659752E+01  2.4107311E+01
 2.0671251E+01  2.4237928E+01
 2.0682751E+01  2.4435772E+01
 2.0694250E+01  2.4679081E+01
 2.0705751E+01  2.4966673E+01
 2.0717251E+01  2.5402943E+01
 2.0728750E+01  2.6052612E+01
 2.0740252E+01  2.6569065E+01
 2.0751751E+01  2.7305128E+01
 2.0763250E+01  2.7552288E+01
 2.0774752E+01  2.7553570E+01
 2.0786251E+01  2.6961491E+01
 2.0797750E+01  2.6409548E+01
 2.0809252E+01  2.5766001E+01
 2.0820751E+01  2.5213406E+01
 2.0832251E+01  2.4864929E+01
 2.0843752E+01  2.4600729E+01
 2.0855251E+01  2.4421595E+01
 2.0866751E+01  2.4237309E+01
 2.0878250E+01  2.4129404E+01
 2.0889751E+01  2.4073202E+01
 2.0901251E+01  2.4078255E+01
 2.0912750E+01  2.4069632E+01
 2.0924252E+01  2.4081940E+01
 2.0935751E+01  2.4052917E+01
 2.0947250E+01  2.4068935E+01
 2.0958752E+01  2.4026487E+01
 2.0970251E+01  2.4003334E+01
 2.0981750E+01  2.3939875E+01
 2.0993252E+01  2.3950081E+01
 2.1004751E+01  2.3933458E+01
 2.1016251E+01  2.3899666E+01
 2.1027752E+01  2.3927155E+01
 2.1039251E+01  2.3983313E+01
 2.1050751E+01  2.3994724E+01
 2.1062250E+01  2.4004913E+01
 2.1073751E+01  2.4014891E+01
 2.1085251E+01  2.4012314E+01
 2.1096750E+01  2.4020662E+01
 2.1108252E+01  2.4014845E+01
 2.1119751E+01  2.4056227E+01
 2.1131250E+01  2.4057554E+01
 2.1142752E+01  2.4062672E+01
 2.1154251E+01  2.4008076E+01
 2.1165751E+01  2.3959528E+01
 2.1177252E+01  2.3913120E+01
 2.1188751E+01  2.3902733E+01
 2.1200251E+01  2.3924191E+01
 2.1211752E+01  2.4011703E+01
 2.1223251E+01  2.4037371E+01
 2.1234751E+01  2.4085438E+01
 2.1246250E+01  2.4079264E+01
 2.1257751E+01  2.4138138E+01
 2.1269251E+01  2.4071423E+01
 2.1280750E+01  2.4020229E+01
 2.1292252E+01  2.3939924E+01
 2.1303751E+01  2.3948797E+01
 2.1315250E+01  2.3964643E+01
 2.1326752E+01  2.4019045E+01
 2.1338251E+01  2.4019739E+01
 2.1349751E+01  2.4013231E+01
 2.1361252E+01  2.4034933E+01
 2.1372751E+01  2.4082907E+01
 2.1384251E+01  2.4106394E+01
 2.1395752E+01  2.4084517E+01
 2.1407251E+01  2.4044195E+01
 2.1418751E+01  2.4011503E+01
 2.1430250E+01  2.3980888E+01
 2.1441751E+01  2.3988977E+01
 2.1453251E+01  2.3978874E+01
 2.1464750E+01  2.4005749E+01
 2.1476252E+01  2.3979361E+01
 2.1487751E+01  2.4023006E+01
 2.1499250E+01  2.4035130E+01
 2.1510752E+01  2.4045868E+01
 2.1522251E+01  2.4020016E+01
 2.1533751E+01  2.3988495E+01
 2.1545252E+01  2.3997583E+01
 2.1556751E+01  2.3994638E+01
 2.1568251E+01  2.4006250E+01
 2.1579752E+01  2.4029066E+01
 2.1591251E+01  2.4084311E+01
 2.1602751E+01  2.4163445E+01
 2.1614250E+01  2.4213337E+01
 2.1625751E+01  2.4244343E+01
 2.1637251E+01  2.4239622E+01
 2.1648750E+01  2.4193968E+01
 2.1660252E+01  2.4201918E+01
 2.1671751E+01  2.4218956E+01
 2.1683250E+01  2.4248730E+01
 2.1694752E+01  2.4274551E+01
 2.1706251E+01  2.4293007E+01
 2.1717751E+01  2.4290676E+01
 2.1729252E+01  2.4240171E+01
 2.1740751E+01  2.4242889E+01
 2.1752251E+01  2.4221096E+01
 2.1763752E+01  2.4212948E+01
 2.1775251E+01  2.4185493E+01
 2.1786751E+01  2.4167879E+01
 2.1798250E+01  2.4176771E+01
 2.1809752E+01  2.4186747E+01
 2.1821251E+01  2.4202984E+01
 2.1832750E+01  2.4143270E+01
 2.1844252E+01  2.4166586E+01
 2.1855751E+01  2.4200510E+01
 2.1867250E+01  2.4231121E+01
 2.1878752E+01  2.4217785E+01
 2.1890251E+01  2.4189875E+01
 2.1901751E+01  2.4213331E+01
 2.1913252E+01  2.4263735E+01
 2.1924751E+01  2.4262177E+01
 2.1936251E+01  2.4255463E+01
 2.1947752E+01  2.4256735E+01
 2.1959251E+01  2.4281321E+01
 2.1970751E+01  2.4300392E+01
 2.1982250E+01  2.4278708E+01
 2.1993752E+01  2.4295399E+01
 2.2005251E+01  2.4290436E+01
 2.2016750E+01  2.4303648E+01
 2.2028252E+01  2.4300093E+01
 2.2039751E+01  2.4296431E+01
 2.2051250E+01  2.4299183E+01
 2.2062752E+01  2.4288023E+01
 2.2074251E+01  2.4298292E+01
 2.2085751E+01  2.4291117E+01
 2.2097252E+01  2.4276924E+01
 2.2108751E+01  2.4284895E+01
 2.2120251E+01  2.4357843E+01
 2.2131752E+01  2.4413815E+01
 2.2143251E+01  2.4440243E+01
 2.2154751E+01  2.4426975E+01
 2.2166250E+01  2.4413477E+01
 2.2177752E+01  2.4353607E+01
 2.2189251E+01  2.4327061E+01
 2.2200750E+01  2.4323132E+01
 2.2212252E+01  2.4363234E+01
 2.2223751E+01  2.4406803E+01
 2.2235250E+01  2.4450853E+01
 2.2246752E+01  2.4411266E+01
 2.2258251E+01  2.4405491E+01
 2.2269751E+01  2.4417299E+01
 2.2281252E+01  2.4474022E+01
 2.2292751E+01  2.4511164E+01
 2.2304251E+01  2.4543255E+01
 2.2315752E+01  2.4534548E+01
 2.2327251E+01  2.4510689E+01
 2.2338751E+01  2.4482252E+01
 2.2350250E+01  2.4560205E+01
 2.2361752E+01  2.4588114E+01
 2.2373251E+01  2.4612188E+01
 2.2384750E+01  2.4569008E+01
 2.2396252E+01  2.4509884E+01
 2.2407751E+01  2.4434940E+01
 2.2419250E+01  2.4427401E+01
 2.2430752E+01  2.4500200E+01
 2.2442251E+01  2.4593166E+01
 2.2453751E+01  2.4654934E+01
 2.2465252E+01  2.4630060E+01
 2.2476751E+01  2.4614265E+01
 2.2488251E+01  2.4566734E+01
 2.2499752E+01  2.4560307E+01
 2.2511251E+01  2.4593307E+01
 2.2522751E+01  2.4647915E+01
 2.2534250E+01  2.4684772E+01
 2.2545752E+01  2.4708582E+01
 2.2557251E+01  2.4743219E+01
 2.2568750E+01  2.4766996E+01
 2.2580252E+01  2.4823015E+01
 2.2591751E+01  2.4868164E+01
 2.2603251E+01  2.4945925E+01
 2.2614752E+01  2.4969727E+01
 2.2626251E+01  2.4982723E+01
 2.2637751E+01  2.4937109E+01
 2.2649252E+01  2.4903910E+01
 2.2660751E+01  2.4926651E+01
 2.2672251E+01  2.4991394E+01
 2.2683752E+01  2.5070953E+01
 2.2695251E+01  2.5126411E+01
 2.2706751E+01  2.5140259E+01
 2.2718250E+01  2.5185640E+01
 2.2729752E+01  2.5209120E+01
 2.2741251E+01  2.5243549E+01
 2.2752750E+01  2.5264694E+01
 2.2764252E+01  2.5321482E+01
 2.2775751E+01  2.5360086E+01
 2.2787251E+01  2.5364452E+01
 2.2798752E+01  2.5412514E+01
 2.2810251E+01  2.5473345E+01
 2.2821751E+01  2.5547810E+01
 2.2833252E+01  2.5586359E+01
 2.2844751E+01  2.5579596E+01
 2.2856251E+01  2.5555639E+01
 2.2867750E+01  2.5587736E+01
 2.2879251E+01  2.5649912E+01
 2.2890751E+01  2.5736860E+01
 2.2902250E+01  2.5831198E+01
 2.2913752E+01  2.5973637E+01
 2.2925251E+01  2.6113161E+01
 2.2936750E+01  2.6183668E+01
 2.2948252E+01  2.6193739E+01
 2.2959751E+01  2.6208122E+01
 2.2971251E+01  2.6319521E+01
 2.2982752E+01  2.6416321E+01
 2.2994251E+01  2.6485163E+01
