F:\20151113_APS_34IDE\\Brian\Particle1\OCV\Data_0015.tif
2-Theta Angle (Degrees)
Intensity
       2000
 5.7500005E-03  0.0000000E+00
 1.7250001E-02  0.0000000E+00
 2.8750001E-02  0.0000000E+00
 4.0250003E-02  0.0000000E+00
 5.1750004E-02  0.0000000E+00
 6.3250005E-02  0.0000000E+00
 7.4750006E-02  0.0000000E+00
 8.6250007E-02  0.0000000E+00
 9.7750008E-02  0.0000000E+00
 1.0925001E-01  0.0000000E+00
 1.2075000E-01  0.0000000E+00
 1.3225001E-01  0.0000000E+00
 1.4375001E-01  0.0000000E+00
 1.5525001E-01  0.0000000E+00
 1.6675001E-01  0.0000000E+00
 1.7825001E-01  0.0000000E+00
 1.8975002E-01  0.0000000E+00
 2.0125002E-01  0.0000000E+00
 2.1275002E-01  0.0000000E+00
 2.2425000E-01  0.0000000E+00
 2.3575000E-01  0.0000000E+00
 2.4725001E-01  0.0000000E+00
 2.5875002E-01  0.0000000E+00
 2.7025002E-01  0.0000000E+00
 2.8175002E-01  0.0000000E+00
 2.9325002E-01  0.0000000E+00
 3.0475003E-01  0.0000000E+00
 3.1625003E-01  0.0000000E+00
 3.2775003E-01  0.0000000E+00
 3.3925003E-01  0.0000000E+00
 3.5075003E-01  0.0000000E+00
 3.6225003E-01  0.0000000E+00
 3.7375003E-01  0.0000000E+00
 3.8525003E-01  0.0000000E+00
 3.9675003E-01  0.0000000E+00
 4.0825003E-01  0.0000000E+00
 4.1975003E-01  0.0000000E+00
 4.3125004E-01  0.0000000E+00
 4.4275001E-01  0.0000000E+00
 4.5425001E-01  0.0000000E+00
 4.6575001E-01  0.0000000E+00
 4.7725001E-01  0.0000000E+00
 4.8875001E-01  0.0000000E+00
 5.0025004E-01  0.0000000E+00
 5.1175004E-01  0.0000000E+00
 5.2325004E-01  0.0000000E+00
 5.3475004E-01  0.0000000E+00
 5.4625005E-01  0.0000000E+00
 5.5775005E-01  0.0000000E+00
 5.6925005E-01  0.0000000E+00
 5.8075005E-01  0.0000000E+00
 5.9225005E-01  0.0000000E+00
 6.0375005E-01  0.0000000E+00
 6.1525005E-01  0.0000000E+00
 6.2675005E-01  0.0000000E+00
 6.3825005E-01  0.0000000E+00
 6.4975005E-01  0.0000000E+00
 6.6125005E-01  0.0000000E+00
 6.7275006E-01  0.0000000E+00
 6.8425006E-01  0.0000000E+00
 6.9575006E-01  0.0000000E+00
 7.0725006E-01  0.0000000E+00
 7.1875006E-01  0.0000000E+00
 7.3025006E-01  0.0000000E+00
 7.4175006E-01  0.0000000E+00
 7.5325006E-01  0.0000000E+00
 7.6475006E-01  0.0000000E+00
 7.7625006E-01  0.0000000E+00
 7.8775007E-01  0.0000000E+00
 7.9925007E-01  0.0000000E+00
 8.1075007E-01  0.0000000E+00
 8.2225007E-01  0.0000000E+00
 8.3375007E-01  0.0000000E+00
 8.4525007E-01  0.0000000E+00
 8.5675007E-01  0.0000000E+00
 8.6825007E-01  0.0000000E+00
 8.7975001E-01  0.0000000E+00
 8.9125001E-01  0.0000000E+00
 9.0275002E-01  0.0000000E+00
 9.1425002E-01  0.0000000E+00
 9.2575002E-01  0.0000000E+00
 9.3725002E-01  0.0000000E+00
 9.4875002E-01  0.0000000E+00
 9.6025002E-01  0.0000000E+00
 9.7175002E-01  0.0000000E+00
 9.8325002E-01  0.0000000E+00
 9.9475002E-01  0.0000000E+00
 1.0062500E+00  0.0000000E+00
 1.0177500E+00  0.0000000E+00
 1.0292500E+00  0.0000000E+00
 1.0407500E+00  0.0000000E+00
 1.0522500E+00  0.0000000E+00
 1.0637500E+00  0.0000000E+00
 1.0752500E+00  0.0000000E+00
 1.0867500E+00  0.0000000E+00
 1.0982500E+00  0.0000000E+00
 1.1097500E+00  0.0000000E+00
 1.1212500E+00  0.0000000E+00
 1.1327500E+00  0.0000000E+00
 1.1442500E+00  0.0000000E+00
 1.1557500E+00  0.0000000E+00
 1.1672500E+00  0.0000000E+00
 1.1787500E+00  0.0000000E+00
 1.1902500E+00  0.0000000E+00
 1.2017500E+00  0.0000000E+00
 1.2132500E+00  0.0000000E+00
 1.2247500E+00  0.0000000E+00
 1.2362500E+00  0.0000000E+00
 1.2477500E+00  0.0000000E+00
 1.2592500E+00  0.0000000E+00
 1.2707500E+00  0.0000000E+00
 1.2822500E+00  0.0000000E+00
 1.2937500E+00  0.0000000E+00
 1.3052500E+00  0.0000000E+00
 1.3167500E+00  0.0000000E+00
 1.3282501E+00  0.0000000E+00
 1.3397501E+00  0.0000000E+00
 1.3512501E+00  0.0000000E+00
 1.3627501E+00  0.0000000E+00
 1.3742501E+00  0.0000000E+00
 1.3857501E+00  0.0000000E+00
 1.3972501E+00  0.0000000E+00
 1.4087501E+00  0.0000000E+00
 1.4202501E+00  0.0000000E+00
 1.4317501E+00  0.0000000E+00
 1.4432501E+00  0.0000000E+00
 1.4547501E+00  0.0000000E+00
 1.4662501E+00  0.0000000E+00
 1.4777501E+00  0.0000000E+00
 1.4892501E+00  0.0000000E+00
 1.5007501E+00  0.0000000E+00
 1.5122501E+00  0.0000000E+00
 1.5237501E+00  0.0000000E+00
 1.5352501E+00  0.0000000E+00
 1.5467501E+00  0.0000000E+00
 1.5582501E+00  0.0000000E+00
 1.5697501E+00  0.0000000E+00
 1.5812501E+00  0.0000000E+00
 1.5927501E+00  0.0000000E+00
 1.6042501E+00  0.0000000E+00
 1.6157501E+00  0.0000000E+00
 1.6272501E+00  0.0000000E+00
 1.6387501E+00  0.0000000E+00
 1.6502501E+00  0.0000000E+00
 1.6617501E+00  0.0000000E+00
 1.6732501E+00  0.0000000E+00
 1.6847501E+00  0.0000000E+00
 1.6962501E+00  0.0000000E+00
 1.7077501E+00  0.0000000E+00
 1.7192501E+00  0.0000000E+00
 1.7307501E+00  0.0000000E+00
 1.7422501E+00  0.0000000E+00
 1.7537501E+00  0.0000000E+00
 1.7652501E+00  0.0000000E+00
 1.7767501E+00  0.0000000E+00
 1.7882501E+00  0.0000000E+00
 1.7997501E+00  0.0000000E+00
 1.8112501E+00  0.0000000E+00
 1.8227501E+00  0.0000000E+00
 1.8342501E+00  0.0000000E+00
 1.8457501E+00  0.0000000E+00
 1.8572501E+00  0.0000000E+00
 1.8687501E+00  0.0000000E+00
 1.8802501E+00  0.0000000E+00
 1.8917501E+00  0.0000000E+00
 1.9032501E+00  0.0000000E+00
 1.9147501E+00  0.0000000E+00
 1.9262501E+00  0.0000000E+00
 1.9377501E+00  0.0000000E+00
 1.9492501E+00  0.0000000E+00
 1.9607501E+00  0.0000000E+00
 1.9722501E+00  0.0000000E+00
 1.9837501E+00  0.0000000E+00
 1.9952501E+00  0.0000000E+00
 2.0067501E+00  0.0000000E+00
 2.0182500E+00  0.0000000E+00
 2.0297501E+00  0.0000000E+00
 2.0412500E+00  0.0000000E+00
 2.0527501E+00  0.0000000E+00
 2.0642500E+00  0.0000000E+00
 2.0757501E+00  0.0000000E+00
 2.0872500E+00  0.0000000E+00
 2.0987501E+00  0.0000000E+00
 2.1102500E+00  0.0000000E+00
 2.1217501E+00  0.0000000E+00
 2.1332500E+00  0.0000000E+00
 2.1447501E+00  0.0000000E+00
 2.1562500E+00  0.0000000E+00
 2.1677501E+00  0.0000000E+00
 2.1792500E+00  0.0000000E+00
 2.1907501E+00  0.0000000E+00
 2.2022500E+00  0.0000000E+00
 2.2137501E+00  0.0000000E+00
 2.2252500E+00  0.0000000E+00
 2.2367501E+00  0.0000000E+00
 2.2482500E+00  0.0000000E+00
 2.2597501E+00  0.0000000E+00
 2.2712500E+00  0.0000000E+00
 2.2827501E+00  0.0000000E+00
 2.2942500E+00  0.0000000E+00
 2.3057501E+00  0.0000000E+00
 2.3172500E+00  0.0000000E+00
 2.3287501E+00  0.0000000E+00
 2.3402500E+00  0.0000000E+00
 2.3517501E+00  0.0000000E+00
 2.3632500E+00  0.0000000E+00
 2.3747501E+00  0.0000000E+00
 2.3862500E+00  0.0000000E+00
 2.3977501E+00  0.0000000E+00
 2.4092500E+00  0.0000000E+00
 2.4207501E+00  0.0000000E+00
 2.4322500E+00  0.0000000E+00
 2.4437501E+00  0.0000000E+00
 2.4552500E+00  0.0000000E+00
 2.4667501E+00  0.0000000E+00
 2.4782500E+00  0.0000000E+00
 2.4897501E+00  0.0000000E+00
 2.5012500E+00  0.0000000E+00
 2.5127501E+00  0.0000000E+00
 2.5242500E+00  0.0000000E+00
 2.5357502E+00  0.0000000E+00
 2.5472500E+00  0.0000000E+00
 2.5587502E+00  0.0000000E+00
 2.5702500E+00  0.0000000E+00
 2.5817502E+00  0.0000000E+00
 2.5932500E+00  0.0000000E+00
 2.6047502E+00  0.0000000E+00
 2.6162500E+00  0.0000000E+00
 2.6277502E+00  0.0000000E+00
 2.6392500E+00  0.0000000E+00
 2.6507502E+00  0.0000000E+00
 2.6622500E+00  0.0000000E+00
 2.6737502E+00  0.0000000E+00
 2.6852500E+00  0.0000000E+00
 2.6967502E+00  0.0000000E+00
 2.7082500E+00  0.0000000E+00
 2.7197502E+00  0.0000000E+00
 2.7312500E+00  0.0000000E+00
 2.7427502E+00  0.0000000E+00
 2.7542500E+00  0.0000000E+00
 2.7657502E+00  0.0000000E+00
 2.7772501E+00  0.0000000E+00
 2.7887502E+00  0.0000000E+00
 2.8002501E+00  0.0000000E+00
 2.8117502E+00  0.0000000E+00
 2.8232501E+00  3.5765633E+01
 2.8347502E+00  3.3955734E+01
 2.8462501E+00  3.3425369E+01
 2.8577502E+00  3.3720322E+01
 2.8692501E+00  3.4318882E+01
 2.8807502E+00  3.4972614E+01
 2.8922501E+00  3.5499771E+01
 2.9037502E+00  3.5951023E+01
 2.9152501E+00  3.6683372E+01
 2.9267502E+00  3.7222801E+01
 2.9382501E+00  3.7692402E+01
 2.9497502E+00  3.7843716E+01
 2.9612501E+00  3.7492081E+01
 2.9727502E+00  3.7201527E+01
 2.9842501E+00  3.6694695E+01
 2.9957502E+00  3.6308067E+01
 3.0072501E+00  3.6388943E+01
 3.0187502E+00  3.6330536E+01
 3.0302501E+00  3.6527439E+01
 3.0417502E+00  3.6452793E+01
 3.0532501E+00  3.6250992E+01
 3.0647502E+00  3.6207581E+01
 3.0762501E+00  3.6034618E+01
 3.0877502E+00  3.6315948E+01
 3.0992501E+00  3.6665890E+01
 3.1107502E+00  3.6722736E+01
 3.1222501E+00  3.6612309E+01
 3.1337502E+00  3.6294632E+01
 3.1452501E+00  3.6328762E+01
 3.1567502E+00  3.5918602E+01
 3.1682501E+00  3.5971340E+01
 3.1797502E+00  3.5630276E+01
 3.1912501E+00  3.5364574E+01
 3.2027502E+00  3.5145992E+01
 3.2142501E+00  3.5080544E+01
 3.2257502E+00  3.5294865E+01
 3.2372501E+00  3.5456928E+01
 3.2487502E+00  3.5346996E+01
 3.2602501E+00  3.5344997E+01
 3.2717502E+00  3.5351013E+01
 3.2832501E+00  3.5107716E+01
 3.2947502E+00  3.4796528E+01
 3.3062501E+00  3.4152020E+01
 3.3177502E+00  3.3992649E+01
 3.3292501E+00  3.3855934E+01
 3.3407502E+00  3.3971218E+01
 3.3522501E+00  3.4350239E+01
 3.3637502E+00  3.4552216E+01
 3.3752501E+00  3.4922920E+01
 3.3867502E+00  3.5056061E+01
 3.3982501E+00  3.5213146E+01
 3.4097502E+00  3.5047321E+01
 3.4212501E+00  3.4753929E+01
 3.4327502E+00  3.4385643E+01
 3.4442501E+00  3.4061680E+01
 3.4557502E+00  3.3903751E+01
 3.4672501E+00  3.4094952E+01
 3.4787502E+00  3.4591007E+01
 3.4902501E+00  3.5180584E+01
 3.5017502E+00  3.5148296E+01
 3.5132501E+00  3.4930466E+01
 3.5247502E+00  3.4314587E+01
 3.5362501E+00  3.4058075E+01
 3.5477502E+00  3.3754215E+01
 3.5592501E+00  3.3784740E+01
 3.5707502E+00  3.3630295E+01
 3.5822501E+00  3.3681881E+01
 3.5937502E+00  3.3604454E+01
 3.6052501E+00  3.3361118E+01
 3.6167502E+00  3.3376194E+01
 3.6282501E+00  3.3108154E+01
 3.6397502E+00  3.3242691E+01
 3.6512501E+00  3.3411194E+01
 3.6627502E+00  3.3587868E+01
 3.6742501E+00  3.3537502E+01
 3.6857502E+00  3.3440067E+01
 3.6972501E+00  3.3286488E+01
 3.7087502E+00  3.3221287E+01
 3.7202501E+00  3.2902939E+01
 3.7317502E+00  3.3007690E+01
 3.7432501E+00  3.3043373E+01
 3.7547503E+00  3.3079803E+01
 3.7662501E+00  3.3038937E+01
 3.7777503E+00  3.2955154E+01
 3.7892501E+00  3.2921505E+01
 3.8007503E+00  3.2749432E+01
 3.8122501E+00  3.2742146E+01
 3.8237503E+00  3.2821590E+01
 3.8352501E+00  3.2919220E+01
 3.8467503E+00  3.2999474E+01
 3.8582501E+00  3.2995659E+01
 3.8697503E+00  3.3033680E+01
 3.8812501E+00  3.3142925E+01
 3.8927503E+00  3.2960880E+01
 3.9042501E+00  3.2802818E+01
 3.9157503E+00  3.2459629E+01
 3.9272501E+00  3.2413052E+01
 3.9387503E+00  3.2474087E+01
 3.9502501E+00  3.2489403E+01
 3.9617503E+00  3.2705620E+01
 3.9732502E+00  3.2620689E+01
 3.9847503E+00  3.2799061E+01
 3.9962502E+00  3.2835590E+01
 4.0077500E+00  3.2888020E+01
 4.0192504E+00  3.2879742E+01
 4.0307503E+00  3.2698330E+01
 4.0422502E+00  3.2579647E+01
 4.0537500E+00  3.2549809E+01
 4.0652504E+00  3.2484562E+01
 4.0767503E+00  3.2527775E+01
 4.0882502E+00  3.2564137E+01
 4.0997500E+00  3.2677189E+01
 4.1112504E+00  3.2789665E+01
 4.1227503E+00  3.2725227E+01
 4.1342502E+00  3.2752098E+01
 4.1457500E+00  3.2688667E+01
 4.1572504E+00  3.2588524E+01
 4.1687503E+00  3.2470959E+01
 4.1802502E+00  3.2470665E+01
 4.1917500E+00  3.2491634E+01
 4.2032504E+00  3.2459862E+01
 4.2147503E+00  3.2433891E+01
 4.2262502E+00  3.2376156E+01
 4.2377501E+00  3.2483456E+01
 4.2492504E+00  3.2495701E+01
 4.2607503E+00  3.2735924E+01
 4.2722502E+00  3.2802666E+01
 4.2837501E+00  3.3016144E+01
 4.2952504E+00  3.3022678E+01
 4.3067503E+00  3.2965786E+01
 4.3182502E+00  3.2951786E+01
 4.3297501E+00  3.2873184E+01
 4.3412504E+00  3.2861664E+01
 4.3527503E+00  3.2667179E+01
 4.3642502E+00  3.2432762E+01
 4.3757501E+00  3.2559639E+01
 4.3872504E+00  3.2542774E+01
 4.3987503E+00  3.2812740E+01
 4.4102502E+00  3.2940731E+01
 4.4217501E+00  3.3012787E+01
 4.4332504E+00  3.3098457E+01
 4.4447503E+00  3.3055504E+01
 4.4562502E+00  3.3078976E+01
 4.4677501E+00  3.3132435E+01
 4.4792504E+00  3.3185608E+01
 4.4907503E+00  3.3160389E+01
 4.5022502E+00  3.3049427E+01
 4.5137501E+00  3.2853691E+01
 4.5252504E+00  3.2749691E+01
 4.5367503E+00  3.2582516E+01
 4.5482502E+00  3.2499924E+01
 4.5597501E+00  3.2498837E+01
 4.5712504E+00  3.2539398E+01
 4.5827503E+00  3.2422016E+01
 4.5942502E+00  3.2507648E+01
 4.6057501E+00  3.2419712E+01
 4.6172504E+00  3.2506115E+01
 4.6287503E+00  3.2438778E+01
 4.6402502E+00  3.2533291E+01
 4.6517501E+00  3.2661144E+01
 4.6632504E+00  3.2837673E+01
 4.6747503E+00  3.3018501E+01
 4.6862502E+00  3.3093094E+01
 4.6977501E+00  3.3136955E+01
 4.7092505E+00  3.3098923E+01
 4.7207503E+00  3.3188454E+01
 4.7322502E+00  3.3130016E+01
 4.7437501E+00  3.3137852E+01
 4.7552505E+00  3.3085773E+01
 4.7667503E+00  3.3129627E+01
 4.7782502E+00  3.3069378E+01
 4.7897501E+00  3.3007774E+01
 4.8012505E+00  3.2847145E+01
 4.8127503E+00  3.2824753E+01
 4.8242502E+00  3.2685425E+01
 4.8357501E+00  3.2723557E+01
 4.8472505E+00  3.2693489E+01
 4.8587503E+00  3.2878624E+01
 4.8702502E+00  3.2988613E+01
 4.8817501E+00  3.3132103E+01
 4.8932505E+00  3.3176834E+01
 4.9047503E+00  3.3292526E+01
 4.9162502E+00  3.3270439E+01
 4.9277501E+00  3.3221363E+01
 4.9392505E+00  3.3194260E+01
 4.9507504E+00  3.3135338E+01
 4.9622502E+00  3.3166054E+01
 4.9737501E+00  3.3166473E+01
 4.9852505E+00  3.3235081E+01
 4.9967504E+00  3.3317158E+01
 5.0082502E+00  3.3296078E+01
 5.0197501E+00  3.3333324E+01
 5.0312505E+00  3.3275227E+01
 5.0427504E+00  3.3327984E+01
 5.0542502E+00  3.3289158E+01
 5.0657501E+00  3.3418499E+01
 5.0772505E+00  3.3572041E+01
 5.0887504E+00  3.3701168E+01
 5.1002502E+00  3.3787762E+01
 5.1117501E+00  3.3804039E+01
 5.1232505E+00  3.3878506E+01
 5.1347504E+00  3.3905151E+01
 5.1462502E+00  3.4000488E+01
 5.1577501E+00  3.3956657E+01
 5.1692505E+00  3.3932106E+01
 5.1807504E+00  3.3812847E+01
 5.1922503E+00  3.3839001E+01
 5.2037501E+00  3.3821621E+01
 5.2152505E+00  3.3799786E+01
 5.2267504E+00  3.3812561E+01
 5.2382503E+00  3.3877491E+01
 5.2497501E+00  3.3963867E+01
 5.2612505E+00  3.4019821E+01
 5.2727504E+00  3.3988892E+01
 5.2842503E+00  3.4009850E+01
 5.2957501E+00  3.4067230E+01
 5.3072500E+00  3.4157967E+01
 5.3187504E+00  3.4231182E+01
 5.3302503E+00  3.4332443E+01
 5.3417501E+00  3.4309292E+01
 5.3532500E+00  3.4344059E+01
 5.3647504E+00  3.4378792E+01
 5.3762503E+00  3.4460262E+01
 5.3877501E+00  3.4706280E+01
 5.3992500E+00  3.4727432E+01
 5.4107504E+00  3.4832272E+01
 5.4222503E+00  3.4772316E+01
 5.4337502E+00  3.4731056E+01
 5.4452500E+00  3.4860416E+01
 5.4567504E+00  3.4858566E+01
 5.4682503E+00  3.4888474E+01
 5.4797502E+00  3.4815128E+01
 5.4912500E+00  3.4844173E+01
 5.5027504E+00  3.4873287E+01
 5.5142503E+00  3.4935837E+01
 5.5257502E+00  3.4986130E+01
 5.5372500E+00  3.4989056E+01
 5.5487504E+00  3.5046993E+01
 5.5602503E+00  3.5092667E+01
 5.5717502E+00  3.5286350E+01
 5.5832500E+00  3.5424316E+01
 5.5947504E+00  3.5577225E+01
 5.6062503E+00  3.5586292E+01
 5.6177502E+00  3.5539410E+01
 5.6292500E+00  3.5434734E+01
 5.6407504E+00  3.5440445E+01
 5.6522503E+00  3.5438858E+01
 5.6637502E+00  3.5504959E+01
 5.6752501E+00  3.5621056E+01
 5.6867504E+00  3.5744392E+01
 5.6982503E+00  3.5728748E+01
 5.7097502E+00  3.5705982E+01
 5.7212501E+00  3.5684559E+01
 5.7327504E+00  3.5707981E+01
 5.7442503E+00  3.5790031E+01
 5.7557502E+00  3.5848873E+01
 5.7672501E+00  3.6025566E+01
 5.7787504E+00  3.6046345E+01
 5.7902503E+00  3.6059753E+01
 5.8017502E+00  3.5922558E+01
 5.8132501E+00  3.5920692E+01
 5.8247504E+00  3.5876698E+01
 5.8362503E+00  3.6058411E+01
 5.8477502E+00  3.6094921E+01
 5.8592501E+00  3.6241016E+01
 5.8707504E+00  3.6379929E+01
 5.8822503E+00  3.6666431E+01
 5.8937502E+00  3.6985447E+01
 5.9052501E+00  3.7359592E+01
 5.9167504E+00  3.8049755E+01
 5.9282503E+00  3.9077927E+01
 5.9397502E+00  4.0766376E+01
 5.9512501E+00  4.3271114E+01
 5.9627504E+00  4.5916828E+01
 5.9742503E+00  4.8264889E+01
 5.9857502E+00  5.0027782E+01
 5.9972501E+00  4.9418480E+01
 6.0087504E+00  4.8303383E+01
 6.0202503E+00  4.5246193E+01
 6.0317502E+00  4.3234093E+01
 6.0432501E+00  4.0798866E+01
 6.0547504E+00  3.9369797E+01
 6.0662503E+00  3.8320580E+01
 6.0777502E+00  3.7845898E+01
 6.0892501E+00  3.7667164E+01
 6.1007504E+00  3.7428173E+01
 6.1122503E+00  3.7373043E+01
 6.1237502E+00  3.7297535E+01
 6.1352501E+00  3.7071838E+01
 6.1467505E+00  3.6999924E+01
 6.1582503E+00  3.6991787E+01
 6.1697502E+00  3.7168720E+01
 6.1812501E+00  3.7253799E+01
 6.1927505E+00  3.7320190E+01
 6.2042503E+00  3.7337925E+01
 6.2157502E+00  3.7444771E+01
 6.2272501E+00  3.7500973E+01
 6.2387505E+00  3.7508717E+01
 6.2502503E+00  3.7470974E+01
 6.2617502E+00  3.7405933E+01
 6.2732501E+00  3.7533516E+01
 6.2847505E+00  3.7569183E+01
 6.2962503E+00  3.7685825E+01
 6.3077502E+00  3.7736374E+01
 6.3192501E+00  3.7798550E+01
 6.3307505E+00  3.8004028E+01
 6.3422503E+00  3.8127991E+01
 6.3537502E+00  3.8242634E+01
 6.3652501E+00  3.8315247E+01
 6.3767505E+00  3.8415543E+01
 6.3882504E+00  3.8558769E+01
 6.3997502E+00  3.8582458E+01
 6.4112501E+00  3.8760391E+01
 6.4227505E+00  3.8780289E+01
 6.4342504E+00  3.8892853E+01
 6.4457502E+00  3.8829220E+01
 6.4572501E+00  3.8955410E+01
 6.4687505E+00  3.9051998E+01
 6.4802504E+00  3.9192486E+01
 6.4917502E+00  3.9428577E+01
 6.5032501E+00  3.9562325E+01
 6.5147505E+00  3.9709049E+01
 6.5262504E+00  3.9639332E+01
 6.5377502E+00  3.9701767E+01
 6.5492501E+00  3.9648235E+01
 6.5607505E+00  3.9749378E+01
 6.5722504E+00  3.9718208E+01
 6.5837502E+00  3.9817554E+01
 6.5952501E+00  3.9771076E+01
 6.6067505E+00  3.9821220E+01
 6.6182504E+00  3.9917751E+01
 6.6297503E+00  4.0028118E+01
 6.6412501E+00  4.0277802E+01
 6.6527505E+00  4.0446945E+01
 6.6642504E+00  4.0627842E+01
 6.6757503E+00  4.0612358E+01
 6.6872501E+00  4.0568085E+01
 6.6987505E+00  4.0563087E+01
 6.7102504E+00  4.0667461E+01
 6.7217503E+00  4.0752907E+01
 6.7332501E+00  4.0816551E+01
 6.7447505E+00  4.0918499E+01
 6.7562504E+00  4.1020287E+01
 6.7677503E+00  4.1185909E+01
 6.7792501E+00  4.1214779E+01
 6.7907505E+00  4.1242939E+01
 6.8022504E+00  4.1319324E+01
 6.8137503E+00  4.1459915E+01
 6.8252501E+00  4.1547791E+01
 6.8367505E+00  4.1619427E+01
 6.8482504E+00  4.1719326E+01
 6.8597503E+00  4.1898544E+01
 6.8712502E+00  4.1965679E+01
 6.8827505E+00  4.2047455E+01
 6.8942504E+00  4.2022858E+01
 6.9057503E+00  4.2087528E+01
 6.9172502E+00  4.2113800E+01
 6.9287505E+00  4.2083866E+01
 6.9402504E+00  4.2246662E+01
 6.9517503E+00  4.2283661E+01
 6.9632502E+00  4.2428230E+01
 6.9747505E+00  4.2496159E+01
 6.9862504E+00  4.2540344E+01
 6.9977503E+00  4.2509636E+01
 7.0092502E+00  4.2475983E+01
 7.0207505E+00  4.2536835E+01
 7.0322504E+00  4.2744545E+01
 7.0437503E+00  4.2788918E+01
 7.0552502E+00  4.2888073E+01
 7.0667505E+00  4.2948120E+01
 7.0782504E+00  4.3052948E+01
 7.0897503E+00  4.3182293E+01
 7.1012502E+00  4.3218231E+01
 7.1127505E+00  4.3325649E+01
 7.1242504E+00  4.3334675E+01
 7.1357503E+00  4.3370075E+01
 7.1472502E+00  4.3367622E+01
 7.1587505E+00  4.3348877E+01
 7.1702504E+00  4.3373402E+01
 7.1817503E+00  4.3316574E+01
 7.1932502E+00  4.3401142E+01
 7.2047505E+00  4.3448566E+01
 7.2162504E+00  4.3573017E+01
 7.2277503E+00  4.3621311E+01
 7.2392502E+00  4.3765057E+01
 7.2507505E+00  4.3989147E+01
 7.2622504E+00  4.4111324E+01
 7.2737503E+00  4.4191219E+01
 7.2852502E+00  4.4213585E+01
 7.2967505E+00  4.4284351E+01
 7.3082504E+00  4.4239338E+01
 7.3197503E+00  4.4215942E+01
 7.3312502E+00  4.4183262E+01
 7.3427505E+00  4.4149780E+01
 7.3542504E+00  4.4226170E+01
 7.3657503E+00  4.4248283E+01
 7.3772502E+00  4.4290535E+01
 7.3887506E+00  4.4292694E+01
 7.4002504E+00  4.4357265E+01
 7.4117503E+00  4.4441872E+01
 7.4232502E+00  4.4516045E+01
 7.4347506E+00  4.4581177E+01
 7.4462504E+00  4.4650150E+01
 7.4577503E+00  4.4679096E+01
 7.4692502E+00  4.4655155E+01
 7.4807506E+00  4.4617195E+01
 7.4922504E+00  4.4632683E+01
 7.5037503E+00  4.4659302E+01
 7.5152502E+00  4.4693069E+01
 7.5267506E+00  4.4784946E+01
 7.5382504E+00  4.4778839E+01
 7.5497503E+00  4.4834641E+01
 7.5612502E+00  4.4818798E+01
 7.5727506E+00  4.4893997E+01
 7.5842505E+00  4.4876785E+01
 7.5957503E+00  4.4993824E+01
 7.6072502E+00  4.4993763E+01
 7.6187506E+00  4.5055969E+01
 7.6302505E+00  4.5003143E+01
 7.6417503E+00  4.4940918E+01
 7.6532502E+00  4.4935833E+01
 7.6647506E+00  4.4842484E+01
 7.6762505E+00  4.4797695E+01
 7.6877503E+00  4.4864517E+01
 7.6992502E+00  4.4836807E+01
 7.7107506E+00  4.4940701E+01
 7.7222505E+00  4.4950115E+01
 7.7337503E+00  4.5033985E+01
 7.7452502E+00  4.4975277E+01
 7.7567506E+00  4.4875095E+01
 7.7682505E+00  4.4877102E+01
 7.7797503E+00  4.4848400E+01
 7.7912502E+00  4.4814129E+01
 7.8027506E+00  4.4699875E+01
 7.8142505E+00  4.4604210E+01
 7.8257504E+00  4.4547886E+01
 7.8372502E+00  4.4592197E+01
 7.8487506E+00  4.4574875E+01
 7.8602505E+00  4.4690506E+01
 7.8717504E+00  4.4636669E+01
 7.8832502E+00  4.4677181E+01
 7.8947506E+00  4.4556309E+01
 7.9062505E+00  4.4436268E+01
 7.9177504E+00  4.4393074E+01
 7.9292502E+00  4.4332436E+01
 7.9407506E+00  4.4360912E+01
 7.9522505E+00  4.4303772E+01
 7.9637504E+00  4.4163185E+01
 7.9752502E+00  4.4021133E+01
 7.9867506E+00  4.3941872E+01
 7.9982505E+00  4.3895622E+01
 8.0097504E+00  4.3809090E+01
 8.0212507E+00  4.3667679E+01
 8.0327501E+00  4.3657810E+01
 8.0442505E+00  4.3664692E+01
 8.0557508E+00  4.3584015E+01
 8.0672503E+00  4.3537975E+01
 8.0787506E+00  4.3411800E+01
 8.0902500E+00  4.3477768E+01
 8.1017504E+00  4.3464844E+01
 8.1132507E+00  4.3515141E+01
 8.1247501E+00  4.3380367E+01
 8.1362505E+00  4.3271091E+01
 8.1477509E+00  4.3127159E+01
 8.1592503E+00  4.2972206E+01
 8.1707506E+00  4.2792442E+01
 8.1822500E+00  4.2681736E+01
 8.1937504E+00  4.2531796E+01
 8.2052507E+00  4.2396912E+01
 8.2167501E+00  4.2228413E+01
 8.2282505E+00  4.2133068E+01
 8.2397509E+00  4.2083252E+01
 8.2512503E+00  4.2063995E+01
 8.2627506E+00  4.1941868E+01
 8.2742500E+00  4.1865082E+01
 8.2857504E+00  4.1671261E+01
 8.2972507E+00  4.1584038E+01
 8.3087502E+00  4.1390720E+01
 8.3202505E+00  4.1294895E+01
 8.3317509E+00  4.1180370E+01
 8.3432503E+00  4.1062504E+01
 8.3547506E+00  4.0861519E+01
 8.3662500E+00  4.0710823E+01
 8.3777504E+00  4.0495617E+01
 8.3892508E+00  4.0287567E+01
 8.4007502E+00  4.0128609E+01
 8.4122505E+00  3.9946999E+01
 8.4237509E+00  3.9786133E+01
 8.4352503E+00  3.9468163E+01
 8.4467506E+00  3.9287224E+01
 8.4582500E+00  3.9061268E+01
 8.4697504E+00  3.8921803E+01
 8.4812508E+00  3.8814426E+01
 8.4927502E+00  3.8626331E+01
 8.5042505E+00  3.8505169E+01
 8.5157509E+00  3.8320091E+01
 8.5272503E+00  3.8248367E+01
 8.5387506E+00  3.8113770E+01
 8.5502501E+00  3.7925980E+01
 8.5617504E+00  3.7709137E+01
 8.5732508E+00  3.7568985E+01
 8.5847502E+00  3.7375904E+01
 8.5962505E+00  3.7340179E+01
 8.6077509E+00  3.7217369E+01
 8.6192503E+00  3.7193233E+01
 8.6307507E+00  3.6971416E+01
 8.6422501E+00  3.6746376E+01
 8.6537504E+00  3.6459167E+01
 8.6652508E+00  3.6261662E+01
 8.6767502E+00  3.6060497E+01
 8.6882505E+00  3.5842686E+01
 8.6997509E+00  3.5619076E+01
 8.7112503E+00  3.5406754E+01
 8.7227507E+00  3.5237572E+01
 8.7342501E+00  3.5088524E+01
 8.7457504E+00  3.4981030E+01
 8.7572508E+00  3.4910919E+01
 8.7687502E+00  3.4827477E+01
 8.7802505E+00  3.4674088E+01
 8.7917500E+00  3.4485523E+01
 8.8032503E+00  3.4263744E+01
 8.8147507E+00  3.4112720E+01
 8.8262501E+00  3.3844887E+01
 8.8377504E+00  3.3687458E+01
 8.8492508E+00  3.3479931E+01
 8.8607502E+00  3.3384346E+01
 8.8722506E+00  3.3225891E+01
 8.8837500E+00  3.3046112E+01
 8.8952503E+00  3.2830643E+01
 8.9067507E+00  3.2708569E+01
 8.9182501E+00  3.2566238E+01
 8.9297504E+00  3.2362381E+01
 8.9412508E+00  3.2232433E+01
 8.9527502E+00  3.2130581E+01
 8.9642506E+00  3.2112286E+01
 8.9757500E+00  3.2001492E+01
 8.9872503E+00  3.1915871E+01
 8.9987507E+00  3.1749840E+01
 9.0102501E+00  3.1587311E+01
 9.0217505E+00  3.1399843E+01
 9.0332508E+00  3.1318537E+01
 9.0447502E+00  3.1177900E+01
 9.0562506E+00  3.1013203E+01
 9.0677500E+00  3.0905869E+01
 9.0792503E+00  3.0774769E+01
 9.0907507E+00  3.0537323E+01
 9.1022501E+00  3.0338964E+01
 9.1137505E+00  3.0143892E+01
 9.1252508E+00  3.0122381E+01
 9.1367502E+00  3.0022005E+01
 9.1482506E+00  2.9943184E+01
 9.1597500E+00  2.9860533E+01
 9.1712503E+00  2.9732029E+01
 9.1827507E+00  2.9697676E+01
 9.1942501E+00  2.9575583E+01
 9.2057505E+00  2.9458630E+01
 9.2172508E+00  2.9360739E+01
 9.2287502E+00  2.9181067E+01
 9.2402506E+00  2.9096722E+01
 9.2517500E+00  2.8975620E+01
 9.2632504E+00  2.8878258E+01
 9.2747507E+00  2.8784960E+01
 9.2862501E+00  2.8663998E+01
 9.2977505E+00  2.8619303E+01
 9.3092508E+00  2.8544504E+01
 9.3207502E+00  2.8476727E+01
 9.3322506E+00  2.8390411E+01
 9.3437500E+00  2.8312162E+01
 9.3552504E+00  2.8213167E+01
 9.3667507E+00  2.8126579E+01
 9.3782501E+00  2.7997053E+01
 9.3897505E+00  2.7845135E+01
 9.4012508E+00  2.7689434E+01
 9.4127502E+00  2.7552658E+01
 9.4242506E+00  2.7444534E+01
 9.4357500E+00  2.7303308E+01
 9.4472504E+00  2.7241444E+01
 9.4587507E+00  2.7127144E+01
 9.4702501E+00  2.7124247E+01
 9.4817505E+00  2.7095577E+01
 9.4932508E+00  2.7086254E+01
 9.5047503E+00  2.7024094E+01
 9.5162506E+00  2.6915358E+01
 9.5277500E+00  2.6864735E+01
 9.5392504E+00  2.6797102E+01
 9.5507507E+00  2.6737816E+01
 9.5622501E+00  2.6647989E+01
 9.5737505E+00  2.6528011E+01
 9.5852509E+00  2.6502087E+01
 9.5967503E+00  2.6496111E+01
 9.6082506E+00  2.6578444E+01
 9.6197500E+00  2.6548065E+01
 9.6312504E+00  2.6452374E+01
 9.6427507E+00  2.6341568E+01
 9.6542501E+00  2.6250620E+01
 9.6657505E+00  2.6118917E+01
 9.6772509E+00  2.5945343E+01
 9.6887503E+00  2.5754585E+01
 9.7002506E+00  2.5671556E+01
 9.7117500E+00  2.5699528E+01
 9.7232504E+00  2.5705154E+01
 9.7347507E+00  2.5729279E+01
 9.7462502E+00  2.5688354E+01
 9.7577505E+00  2.5661289E+01
 9.7692509E+00  2.5728302E+01
 9.7807503E+00  2.5704981E+01
 9.7922506E+00  2.5766613E+01
 9.8037500E+00  2.5726809E+01
 9.8152504E+00  2.5715601E+01
 9.8267508E+00  2.5670628E+01
 9.8382502E+00  2.5633806E+01
 9.8497505E+00  2.5547466E+01
 9.8612509E+00  2.5442665E+01
 9.8727503E+00  2.5311459E+01
 9.8842506E+00  2.5200846E+01
 9.8957500E+00  2.5119532E+01
 9.9072504E+00  2.5101721E+01
 9.9187508E+00  2.5174511E+01
 9.9302502E+00  2.5160049E+01
 9.9417505E+00  2.5167931E+01
 9.9532509E+00  2.5099529E+01
 9.9647503E+00  2.5097115E+01
 9.9762506E+00  2.4970390E+01
 9.9877501E+00  2.4902447E+01
 9.9992504E+00  2.4794382E+01
 1.0010751E+01  2.4782755E+01
 1.0022250E+01  2.4724895E+01
 1.0033751E+01  2.4755255E+01
 1.0045251E+01  2.4763899E+01
 1.0056750E+01  2.4737989E+01
 1.0068251E+01  2.4729719E+01
 1.0079750E+01  2.4681564E+01
 1.0091250E+01  2.4682751E+01
 1.0102751E+01  2.4681824E+01
 1.0114250E+01  2.4690332E+01
 1.0125751E+01  2.4711721E+01
 1.0137251E+01  2.4662968E+01
 1.0148750E+01  2.4602739E+01
 1.0160251E+01  2.4554020E+01
 1.0171750E+01  2.4510948E+01
 1.0183250E+01  2.4475660E+01
 1.0194751E+01  2.4437731E+01
 1.0206250E+01  2.4379959E+01
 1.0217751E+01  2.4417902E+01
 1.0229251E+01  2.4398582E+01
 1.0240750E+01  2.4374477E+01
 1.0252251E+01  2.4312481E+01
 1.0263750E+01  2.4260942E+01
 1.0275250E+01  2.4285172E+01
 1.0286751E+01  2.4302107E+01
 1.0298250E+01  2.4334990E+01
 1.0309751E+01  2.4377230E+01
 1.0321251E+01  2.4358564E+01
 1.0332750E+01  2.4345984E+01
 1.0344251E+01  2.4316278E+01
 1.0355750E+01  2.4279327E+01
 1.0367250E+01  2.4217220E+01
 1.0378751E+01  2.4161629E+01
 1.0390250E+01  2.4173025E+01
 1.0401751E+01  2.4136150E+01
 1.0413251E+01  2.4090727E+01
 1.0424750E+01  2.4018129E+01
 1.0436251E+01  2.4024721E+01
 1.0447750E+01  2.3963890E+01
 1.0459250E+01  2.3932388E+01
 1.0470751E+01  2.3908083E+01
 1.0482250E+01  2.3960613E+01
 1.0493751E+01  2.3995489E+01
 1.0505251E+01  2.4047794E+01
 1.0516750E+01  2.4006357E+01
 1.0528251E+01  2.3952126E+01
 1.0539750E+01  2.3864370E+01
 1.0551250E+01  2.3853315E+01
 1.0562751E+01  2.3788837E+01
 1.0574250E+01  2.3729675E+01
 1.0585751E+01  2.3601433E+01
 1.0597251E+01  2.3556948E+01
 1.0608750E+01  2.3552536E+01
 1.0620251E+01  2.3568073E+01
 1.0631750E+01  2.3614168E+01
 1.0643250E+01  2.3612782E+01
 1.0654751E+01  2.3660009E+01
 1.0666250E+01  2.3643948E+01
 1.0677751E+01  2.3630520E+01
 1.0689251E+01  2.3563120E+01
 1.0700750E+01  2.3576229E+01
 1.0712251E+01  2.3530407E+01
 1.0723750E+01  2.3546003E+01
 1.0735250E+01  2.3440041E+01
 1.0746751E+01  2.3407728E+01
 1.0758250E+01  2.3341650E+01
 1.0769751E+01  2.3348803E+01
 1.0781251E+01  2.3339148E+01
 1.0792750E+01  2.3375082E+01
 1.0804251E+01  2.3352736E+01
 1.0815750E+01  2.3356775E+01
 1.0827250E+01  2.3330975E+01
 1.0838751E+01  2.3327030E+01
 1.0850250E+01  2.3316956E+01
 1.0861751E+01  2.3362629E+01
 1.0873251E+01  2.3384172E+01
 1.0884750E+01  2.3362495E+01
 1.0896251E+01  2.3290752E+01
 1.0907750E+01  2.3267757E+01
 1.0919250E+01  2.3241627E+01
 1.0930751E+01  2.3222582E+01
 1.0942250E+01  2.3183975E+01
 1.0953751E+01  2.3213238E+01
 1.0965251E+01  2.3210274E+01
 1.0976750E+01  2.3270851E+01
 1.0988251E+01  2.3287502E+01
 1.0999750E+01  2.3243822E+01
 1.1011250E+01  2.3170235E+01
 1.1022751E+01  2.3090439E+01
 1.1034250E+01  2.3075066E+01
 1.1045751E+01  2.3088324E+01
 1.1057251E+01  2.3071211E+01
 1.1068750E+01  2.3103771E+01
 1.1080251E+01  2.3103802E+01
 1.1091750E+01  2.3106815E+01
 1.1103251E+01  2.3116409E+01
 1.1114751E+01  2.3109581E+01
 1.1126250E+01  2.3159754E+01
 1.1137751E+01  2.3141756E+01
 1.1149251E+01  2.3115036E+01
 1.1160750E+01  2.3080519E+01
 1.1172251E+01  2.3051641E+01
 1.1183750E+01  2.3019108E+01
 1.1195251E+01  2.3012474E+01
 1.1206751E+01  2.2970177E+01
 1.1218250E+01  2.2981670E+01
 1.1229751E+01  2.2933067E+01
 1.1241251E+01  2.2981239E+01
 1.1252750E+01  2.2934671E+01
 1.1264251E+01  2.2906775E+01
 1.1275750E+01  2.2885962E+01
 1.1287251E+01  2.2890976E+01
 1.1298751E+01  2.2939247E+01
 1.1310250E+01  2.2960016E+01
 1.1321751E+01  2.2998585E+01
 1.1333251E+01  2.2965097E+01
 1.1344750E+01  2.3013136E+01
 1.1356251E+01  2.3034670E+01
 1.1367750E+01  2.3078402E+01
 1.1379251E+01  2.3089478E+01
 1.1390751E+01  2.3081121E+01
 1.1402250E+01  2.3197577E+01
 1.1413751E+01  2.3202227E+01
 1.1425251E+01  2.3227510E+01
 1.1436750E+01  2.3218914E+01
 1.1448251E+01  2.3206444E+01
 1.1459750E+01  2.3237062E+01
 1.1471251E+01  2.3218185E+01
 1.1482751E+01  2.3244696E+01
 1.1494250E+01  2.3331877E+01
 1.1505751E+01  2.3438421E+01
 1.1517251E+01  2.3654930E+01
 1.1528750E+01  2.3975134E+01
 1.1540251E+01  2.4342239E+01
 1.1551750E+01  2.5198929E+01
 1.1563251E+01  2.6485739E+01
 1.1574751E+01  2.7254406E+01
 1.1586250E+01  2.8868196E+01
 1.1597751E+01  2.9321489E+01
 1.1609251E+01  2.9263208E+01
 1.1620750E+01  2.7916401E+01
 1.1632251E+01  2.6430489E+01
 1.1643750E+01  2.5525917E+01
 1.1655251E+01  2.4386683E+01
 1.1666751E+01  2.3774940E+01
 1.1678250E+01  2.3434208E+01
 1.1689751E+01  2.3167723E+01
 1.1701251E+01  2.3050465E+01
 1.1712750E+01  2.3015648E+01
 1.1724251E+01  2.2930582E+01
 1.1735750E+01  2.2990911E+01
 1.1747251E+01  2.2930534E+01
 1.1758751E+01  2.2957235E+01
 1.1770250E+01  2.2876835E+01
 1.1781751E+01  2.2942373E+01
 1.1793251E+01  2.2961948E+01
 1.1804750E+01  2.2977421E+01
 1.1816251E+01  2.2936829E+01
 1.1827750E+01  2.2914619E+01
 1.1839251E+01  2.2904226E+01
 1.1850751E+01  2.2889982E+01
 1.1862250E+01  2.2865160E+01
 1.1873751E+01  2.2854239E+01
 1.1885251E+01  2.2834299E+01
 1.1896750E+01  2.2832592E+01
 1.1908251E+01  2.2922785E+01
 1.1919750E+01  2.3039227E+01
 1.1931251E+01  2.3111185E+01
 1.1942751E+01  2.3188808E+01
 1.1954250E+01  2.3321396E+01
 1.1965751E+01  2.3496279E+01
 1.1977251E+01  2.3597326E+01
 1.1988750E+01  2.3735378E+01
 1.2000251E+01  2.3800583E+01
 1.2011750E+01  2.3790182E+01
 1.2023251E+01  2.3757849E+01
 1.2034751E+01  2.3798475E+01
 1.2046250E+01  2.4018000E+01
 1.2057751E+01  2.4258013E+01
 1.2069251E+01  2.4696426E+01
 1.2080750E+01  2.5151720E+01
 1.2092251E+01  2.5547474E+01
 1.2103750E+01  2.5554247E+01
 1.2115251E+01  2.5298468E+01
 1.2126751E+01  2.4893955E+01
 1.2138250E+01  2.4506577E+01
 1.2149751E+01  2.4075203E+01
 1.2161251E+01  2.3705675E+01
 1.2172750E+01  2.3417217E+01
 1.2184251E+01  2.3254723E+01
 1.2195750E+01  2.3118603E+01
 1.2207251E+01  2.3079706E+01
 1.2218751E+01  2.2978464E+01
 1.2230250E+01  2.2934624E+01
 1.2241751E+01  2.2878010E+01
 1.2253251E+01  2.2885033E+01
 1.2264750E+01  2.2897205E+01
 1.2276251E+01  2.2870913E+01
 1.2287750E+01  2.2941462E+01
 1.2299251E+01  2.3018661E+01
 1.2310751E+01  2.3130947E+01
 1.2322250E+01  2.3158491E+01
 1.2333751E+01  2.3225254E+01
 1.2345250E+01  2.3168741E+01
 1.2356750E+01  2.3145227E+01
 1.2368251E+01  2.2988245E+01
 1.2379750E+01  2.3018526E+01
 1.2391251E+01  2.2980963E+01
 1.2402751E+01  2.3018024E+01
 1.2414250E+01  2.2972719E+01
 1.2425751E+01  2.2962286E+01
 1.2437250E+01  2.2996250E+01
 1.2448750E+01  2.3056103E+01
 1.2460251E+01  2.3105412E+01
 1.2471750E+01  2.3119556E+01
 1.2483251E+01  2.3116993E+01
 1.2494751E+01  2.3108526E+01
 1.2506250E+01  2.3071260E+01
 1.2517751E+01  2.3038019E+01
 1.2529250E+01  2.3056482E+01
 1.2540751E+01  2.3119379E+01
 1.2552251E+01  2.3124996E+01
 1.2563750E+01  2.3116268E+01
 1.2575251E+01  2.3102776E+01
 1.2586751E+01  2.3144779E+01
 1.2598250E+01  2.3161116E+01
 1.2609751E+01  2.3218880E+01
 1.2621250E+01  2.3295092E+01
 1.2632751E+01  2.3356356E+01
 1.2644251E+01  2.3327284E+01
 1.2655750E+01  2.3321047E+01
 1.2667251E+01  2.3302380E+01
 1.2678751E+01  2.3340164E+01
 1.2690250E+01  2.3336437E+01
 1.2701751E+01  2.3403627E+01
 1.2713250E+01  2.3466860E+01
 1.2724751E+01  2.3533226E+01
 1.2736251E+01  2.3551065E+01
 1.2747750E+01  2.3572084E+01
 1.2759251E+01  2.3565540E+01
 1.2770751E+01  2.3578959E+01
 1.2782250E+01  2.3587246E+01
 1.2793751E+01  2.3587759E+01
 1.2805250E+01  2.3584263E+01
 1.2816751E+01  2.3608742E+01
 1.2828251E+01  2.3661894E+01
 1.2839750E+01  2.3691538E+01
 1.2851251E+01  2.3699537E+01
 1.2862751E+01  2.3729216E+01
 1.2874250E+01  2.3823286E+01
 1.2885751E+01  2.3899958E+01
 1.2897250E+01  2.3966942E+01
 1.2908751E+01  2.3972311E+01
 1.2920251E+01  2.4012978E+01
 1.2931750E+01  2.4034632E+01
 1.2943251E+01  2.4075941E+01
 1.2954751E+01  2.4113665E+01
 1.2966250E+01  2.4198830E+01
 1.2977751E+01  2.4306215E+01
 1.2989250E+01  2.4339092E+01
 1.3000751E+01  2.4374714E+01
 1.3012251E+01  2.4393368E+01
 1.3023750E+01  2.4496649E+01
 1.3035251E+01  2.4565502E+01
 1.3046751E+01  2.4643730E+01
 1.3058250E+01  2.4721256E+01
 1.3069751E+01  2.4781677E+01
 1.3081250E+01  2.4855003E+01
 1.3092751E+01  2.4967033E+01
 1.3104251E+01  2.5126999E+01
 1.3115750E+01  2.5293436E+01
 1.3127251E+01  2.5393457E+01
 1.3138751E+01  2.5495049E+01
 1.3150250E+01  2.5587143E+01
 1.3161751E+01  2.5660860E+01
 1.3173250E+01  2.5729280E+01
 1.3184751E+01  2.5839670E+01
 1.3196251E+01  2.5964170E+01
 1.3207750E+01  2.6150387E+01
 1.3219251E+01  2.6320028E+01
 1.3230751E+01  2.6532408E+01
 1.3242250E+01  2.6764992E+01
 1.3253751E+01  2.6905628E+01
 1.3265250E+01  2.7052805E+01
 1.3276751E+01  2.7147955E+01
 1.3288251E+01  2.7217228E+01
 1.3299750E+01  2.7325546E+01
 1.3311251E+01  2.7379286E+01
 1.3322751E+01  2.7548668E+01
 1.3334250E+01  2.7715927E+01
 1.3345751E+01  2.7895863E+01
 1.3357250E+01  2.8058264E+01
 1.3368751E+01  2.8160975E+01
 1.3380251E+01  2.8372038E+01
 1.3391750E+01  2.8532030E+01
 1.3403251E+01  2.8741688E+01
 1.3414751E+01  2.8809973E+01
 1.3426250E+01  2.8936935E+01
 1.3437751E+01  2.8993462E+01
 1.3449250E+01  2.9050396E+01
 1.3460751E+01  2.9114986E+01
 1.3472251E+01  2.9196293E+01
 1.3483750E+01  2.9363842E+01
 1.3495251E+01  2.9496069E+01
 1.3506751E+01  2.9647808E+01
 1.3518250E+01  2.9748243E+01
 1.3529751E+01  2.9817463E+01
 1.3541250E+01  2.9838455E+01
 1.3552751E+01  2.9886877E+01
 1.3564251E+01  2.9944645E+01
 1.3575750E+01  3.0007351E+01
 1.3587251E+01  3.0073675E+01
 1.3598751E+01  3.0142679E+01
 1.3610250E+01  3.0192192E+01
 1.3621751E+01  3.0252174E+01
 1.3633250E+01  3.0255825E+01
 1.3644751E+01  3.0226406E+01
 1.3656251E+01  3.0162428E+01
 1.3667750E+01  3.0144974E+01
 1.3679251E+01  3.0137875E+01
 1.3690751E+01  3.0030460E+01
 1.3702250E+01  2.9950365E+01
 1.3713751E+01  2.9861795E+01
 1.3725250E+01  2.9843998E+01
 1.3736751E+01  2.9825254E+01
 1.3748251E+01  2.9837831E+01
 1.3759750E+01  2.9867336E+01
 1.3771251E+01  2.9877190E+01
 1.3782751E+01  2.9920321E+01
 1.3794250E+01  2.9948513E+01
 1.3805751E+01  2.9929155E+01
 1.3817250E+01  2.9917267E+01
 1.3828751E+01  2.9974165E+01
 1.3840251E+01  3.0036194E+01
 1.3851750E+01  3.0185398E+01
 1.3863251E+01  3.0462776E+01
 1.3874751E+01  3.0707300E+01
 1.3886250E+01  3.1313177E+01
 1.3897751E+01  3.2291550E+01
 1.3909250E+01  3.3257080E+01
 1.3920751E+01  3.5194908E+01
 1.3932251E+01  3.6558804E+01
 1.3943750E+01  3.7775795E+01
 1.3955251E+01  3.7941074E+01
 1.3966751E+01  3.7337368E+01
 1.3978251E+01  3.6194359E+01
 1.3989751E+01  3.4176289E+01
 1.4001250E+01  3.2656662E+01
 1.4012751E+01  3.1210617E+01
 1.4024251E+01  3.0063774E+01
 1.4035750E+01  2.9378325E+01
 1.4047251E+01  2.8920979E+01
 1.4058751E+01  2.8634861E+01
 1.4070251E+01  2.8438250E+01
 1.4081751E+01  2.8229382E+01
 1.4093250E+01  2.8104090E+01
 1.4104751E+01  2.7966702E+01
 1.4116251E+01  2.7851643E+01
 1.4127750E+01  2.7789867E+01
 1.4139251E+01  2.7719137E+01
 1.4150751E+01  2.7658068E+01
 1.4162251E+01  2.7588707E+01
 1.4173751E+01  2.7507662E+01
 1.4185250E+01  2.7369013E+01
 1.4196751E+01  2.7256252E+01
 1.4208251E+01  2.7201895E+01
 1.4219750E+01  2.7163862E+01
 1.4231251E+01  2.7039272E+01
 1.4242751E+01  2.6984800E+01
 1.4254251E+01  2.6901941E+01
 1.4265751E+01  2.6857607E+01
 1.4277250E+01  2.6766558E+01
 1.4288751E+01  2.6772701E+01
 1.4300251E+01  2.6810757E+01
 1.4311750E+01  2.6779669E+01
 1.4323251E+01  2.6729792E+01
 1.4334751E+01  2.6577057E+01
 1.4346251E+01  2.6559809E+01
 1.4357751E+01  2.6493904E+01
 1.4369250E+01  2.6525024E+01
 1.4380751E+01  2.6490009E+01
 1.4392251E+01  2.6452951E+01
 1.4403750E+01  2.6402597E+01
 1.4415251E+01  2.6373716E+01
 1.4426751E+01  2.6370647E+01
 1.4438251E+01  2.6288931E+01
 1.4449751E+01  2.6218719E+01
 1.4461250E+01  2.6104263E+01
 1.4472751E+01  2.6089712E+01
 1.4484251E+01  2.6047678E+01
 1.4495750E+01  2.6090416E+01
 1.4507251E+01  2.6120142E+01
 1.4518751E+01  2.6117191E+01
 1.4530251E+01  2.6110464E+01
 1.4541751E+01  2.6046795E+01
 1.4553250E+01  2.6036999E+01
 1.4564751E+01  2.6046598E+01
 1.4576251E+01  2.6061827E+01
 1.4587750E+01  2.6025473E+01
 1.4599251E+01  2.5976665E+01
 1.4610751E+01  2.5894825E+01
 1.4622251E+01  2.5846680E+01
 1.4633751E+01  2.5790403E+01
 1.4645250E+01  2.5772667E+01
 1.4656751E+01  2.5778217E+01
 1.4668251E+01  2.5737268E+01
 1.4679750E+01  2.5745386E+01
 1.4691251E+01  2.5690716E+01
 1.4702751E+01  2.5686964E+01
 1.4714251E+01  2.5624310E+01
 1.4725751E+01  2.5620346E+01
 1.4737250E+01  2.5575804E+01
 1.4748751E+01  2.5596273E+01
 1.4760251E+01  2.5525179E+01
 1.4771750E+01  2.5498087E+01
 1.4783251E+01  2.5401999E+01
 1.4794751E+01  2.5427572E+01
 1.4806251E+01  2.5398222E+01
 1.4817751E+01  2.5401663E+01
 1.4829250E+01  2.5441198E+01
 1.4840751E+01  2.5507746E+01
 1.4852251E+01  2.5511827E+01
 1.4863750E+01  2.5470716E+01
 1.4875251E+01  2.5426846E+01
 1.4886751E+01  2.5459398E+01
 1.4898251E+01  2.5497032E+01
 1.4909751E+01  2.5532583E+01
 1.4921250E+01  2.5462791E+01
 1.4932751E+01  2.5453123E+01
 1.4944251E+01  2.5416260E+01
 1.4955750E+01  2.5469740E+01
 1.4967251E+01  2.5430399E+01
 1.4978751E+01  2.5433277E+01
 1.4990251E+01  2.5406765E+01
 1.5001751E+01  2.5368713E+01
 1.5013250E+01  2.5392185E+01
 1.5024751E+01  2.5384159E+01
 1.5036251E+01  2.5395044E+01
 1.5047750E+01  2.5355270E+01
 1.5059251E+01  2.5293882E+01
 1.5070751E+01  2.5284716E+01
 1.5082251E+01  2.5243202E+01
 1.5093751E+01  2.5316797E+01
 1.5105250E+01  2.5355597E+01
 1.5116751E+01  2.5415854E+01
 1.5128251E+01  2.5415060E+01
 1.5139750E+01  2.5464916E+01
 1.5151251E+01  2.5674200E+01
 1.5162751E+01  2.5888002E+01
 1.5174251E+01  2.6181494E+01
 1.5185751E+01  2.6351259E+01
 1.5197250E+01  2.6443174E+01
 1.5208751E+01  2.6428202E+01
 1.5220251E+01  2.6314875E+01
 1.5231750E+01  2.6131802E+01
 1.5243251E+01  2.5834335E+01
 1.5254751E+01  2.5544252E+01
 1.5266251E+01  2.5297203E+01
 1.5277751E+01  2.5224306E+01
 1.5289250E+01  2.5214283E+01
 1.5300751E+01  2.5250723E+01
 1.5312251E+01  2.5214231E+01
 1.5323750E+01  2.5193003E+01
 1.5335251E+01  2.5102558E+01
 1.5346751E+01  2.5020485E+01
 1.5358251E+01  2.4953403E+01
 1.5369751E+01  2.4975891E+01
 1.5381250E+01  2.4935366E+01
 1.5392751E+01  2.4948099E+01
 1.5404251E+01  2.4911469E+01
 1.5415751E+01  2.4862932E+01
 1.5427251E+01  2.4813202E+01
 1.5438751E+01  2.4794254E+01
 1.5450251E+01  2.4821465E+01
 1.5461751E+01  2.4805168E+01
 1.5473250E+01  2.4813807E+01
 1.5484751E+01  2.4882023E+01
 1.5496251E+01  2.4978352E+01
 1.5507751E+01  2.4986046E+01
 1.5519251E+01  2.4928793E+01
 1.5530751E+01  2.4890089E+01
 1.5542251E+01  2.4887899E+01
 1.5553751E+01  2.4905815E+01
 1.5565250E+01  2.4898439E+01
 1.5576751E+01  2.4945002E+01
 1.5588251E+01  2.4924934E+01
 1.5599751E+01  2.4894243E+01
 1.5611251E+01  2.4858616E+01
 1.5622751E+01  2.4860582E+01
 1.5634251E+01  2.4895000E+01
 1.5645751E+01  2.4963741E+01
 1.5657250E+01  2.5029247E+01
 1.5668751E+01  2.5063971E+01
 1.5680251E+01  2.5055138E+01
 1.5691751E+01  2.5008657E+01
 1.5703251E+01  2.5006876E+01
 1.5714751E+01  2.5003777E+01
 1.5726251E+01  2.5014769E+01
 1.5737751E+01  2.4990788E+01
 1.5749250E+01  2.5019400E+01
 1.5760751E+01  2.5034616E+01
 1.5772251E+01  2.5042889E+01
 1.5783751E+01  2.5026896E+01
 1.5795251E+01  2.5081066E+01
 1.5806751E+01  2.5057079E+01
 1.5818251E+01  2.4973541E+01
 1.5829751E+01  2.4903622E+01
 1.5841250E+01  2.4883163E+01
 1.5852751E+01  2.4943054E+01
 1.5864251E+01  2.4920984E+01
 1.5875751E+01  2.4910965E+01
 1.5887251E+01  2.4875130E+01
 1.5898750E+01  2.4858913E+01
 1.5910251E+01  2.4916771E+01
 1.5921751E+01  2.4919968E+01
 1.5933250E+01  2.4952053E+01
 1.5944751E+01  2.4885056E+01
 1.5956251E+01  2.4907362E+01
 1.5967751E+01  2.4962477E+01
 1.5979251E+01  2.5049047E+01
 1.5990750E+01  2.5149940E+01
 1.6002251E+01  2.5171724E+01
 1.6013750E+01  2.5215378E+01
 1.6025251E+01  2.5199295E+01
 1.6036751E+01  2.5208775E+01
 1.6048250E+01  2.5199514E+01
 1.6059752E+01  2.5183853E+01
 1.6071251E+01  2.5109388E+01
 1.6082750E+01  2.5096979E+01
 1.6094252E+01  2.5075037E+01
 1.6105751E+01  2.5182867E+01
 1.6117250E+01  2.5225208E+01
 1.6128750E+01  2.5259689E+01
 1.6140251E+01  2.5287336E+01
 1.6151751E+01  2.5265791E+01
 1.6163250E+01  2.5371889E+01
 1.6174751E+01  2.5358040E+01
 1.6186251E+01  2.5699673E+01
 1.6197750E+01  2.5675123E+01
 1.6209251E+01  2.6223902E+01
 1.6220751E+01  2.6138189E+01
 1.6232250E+01  2.6632200E+01
 1.6243752E+01  2.6634079E+01
 1.6255251E+01  2.6865356E+01
 1.6266750E+01  2.6975683E+01
 1.6278252E+01  2.6638294E+01
 1.6289751E+01  2.6629423E+01
 1.6301250E+01  2.5893194E+01
 1.6312750E+01  2.5917486E+01
 1.6324251E+01  2.5397406E+01
 1.6335751E+01  2.5383877E+01
 1.6347250E+01  2.5057785E+01
 1.6358751E+01  2.4997860E+01
 1.6370251E+01  2.4928846E+01
 1.6381750E+01  2.4949209E+01
 1.6393251E+01  2.5007843E+01
 1.6404751E+01  2.5142120E+01
 1.6416250E+01  2.5257893E+01
 1.6427752E+01  2.5248154E+01
 1.6439251E+01  2.5226089E+01
 1.6450750E+01  2.5147720E+01
 1.6462252E+01  2.5104292E+01
 1.6473751E+01  2.5064714E+01
 1.6485250E+01  2.5141973E+01
 1.6496750E+01  2.5143366E+01
 1.6508251E+01  2.5147348E+01
 1.6519751E+01  2.5067812E+01
 1.6531250E+01  2.5096615E+01
 1.6542751E+01  2.5148863E+01
 1.6554251E+01  2.5214678E+01
 1.6565750E+01  2.5232214E+01
 1.6577251E+01  2.5223898E+01
 1.6588751E+01  2.5168701E+01
 1.6600250E+01  2.5108208E+01
 1.6611752E+01  2.5073429E+01
 1.6623251E+01  2.5060425E+01
 1.6634750E+01  2.5005537E+01
 1.6646252E+01  2.4974308E+01
 1.6657751E+01  2.4950191E+01
 1.6669250E+01  2.4951078E+01
 1.6680750E+01  2.4913080E+01
 1.6692251E+01  2.4826124E+01
 1.6703751E+01  2.4777451E+01
 1.6715250E+01  2.4777634E+01
 1.6726751E+01  2.4812090E+01
 1.6738251E+01  2.4784752E+01
 1.6749750E+01  2.4770361E+01
 1.6761251E+01  2.4755558E+01
 1.6772751E+01  2.4783697E+01
 1.6784250E+01  2.4761309E+01
 1.6795752E+01  2.4772039E+01
 1.6807251E+01  2.4749475E+01
 1.6818750E+01  2.4764442E+01
 1.6830252E+01  2.4759420E+01
 1.6841751E+01  2.4730135E+01
 1.6853251E+01  2.4757769E+01
 1.6864750E+01  2.4781879E+01
 1.6876251E+01  2.4858017E+01
 1.6887751E+01  2.4849424E+01
 1.6899250E+01  2.4871462E+01
 1.6910751E+01  2.4851559E+01
 1.6922251E+01  2.4823256E+01
 1.6933750E+01  2.4780184E+01
 1.6945251E+01  2.4744038E+01
 1.6956751E+01  2.4759275E+01
 1.6968250E+01  2.4732372E+01
 1.6979752E+01  2.4763882E+01
 1.6991251E+01  2.4765112E+01
 1.7002750E+01  2.4769012E+01
 1.7014252E+01  2.4743212E+01
 1.7025751E+01  2.4751524E+01
 1.7037251E+01  2.4692240E+01
 1.7048750E+01  2.4624878E+01
 1.7060251E+01  2.4585344E+01
 1.7071751E+01  2.4604193E+01
 1.7083250E+01  2.4655266E+01
 1.7094751E+01  2.4637218E+01
 1.7106251E+01  2.4642319E+01
 1.7117750E+01  2.4593971E+01
 1.7129251E+01  2.4609194E+01
 1.7140751E+01  2.4590103E+01
 1.7152250E+01  2.4618202E+01
 1.7163752E+01  2.4597204E+01
 1.7175251E+01  2.4634388E+01
 1.7186750E+01  2.4615795E+01
 1.7198252E+01  2.4601347E+01
 1.7209751E+01  2.4538458E+01
 1.7221251E+01  2.4484690E+01
 1.7232750E+01  2.4438513E+01
 1.7244251E+01  2.4389235E+01
 1.7255751E+01  2.4385931E+01
 1.7267250E+01  2.4404245E+01
 1.7278751E+01  2.4431612E+01
 1.7290251E+01  2.4484165E+01
 1.7301750E+01  2.4564631E+01
 1.7313251E+01  2.4595585E+01
 1.7324751E+01  2.4615183E+01
 1.7336250E+01  2.4562769E+01
 1.7347752E+01  2.4545849E+01
 1.7359251E+01  2.4456034E+01
 1.7370750E+01  2.4408894E+01
 1.7382252E+01  2.4347729E+01
 1.7393751E+01  2.4335115E+01
 1.7405251E+01  2.4292711E+01
 1.7416750E+01  2.4278646E+01
 1.7428251E+01  2.4229736E+01
 1.7439751E+01  2.4248539E+01
 1.7451250E+01  2.4223066E+01
 1.7462751E+01  2.4241251E+01
 1.7474251E+01  2.4196833E+01
 1.7485750E+01  2.4255814E+01
 1.7497252E+01  2.4260342E+01
 1.7508751E+01  2.4331360E+01
 1.7520250E+01  2.4306549E+01
 1.7531752E+01  2.4312229E+01
 1.7543251E+01  2.4349890E+01
 1.7554750E+01  2.4378981E+01
 1.7566252E+01  2.4374475E+01
 1.7577751E+01  2.4330269E+01
 1.7589251E+01  2.4308378E+01
 1.7600750E+01  2.4301117E+01
 1.7612251E+01  2.4287510E+01
 1.7623751E+01  2.4307186E+01
 1.7635250E+01  2.4300861E+01
 1.7646751E+01  2.4293051E+01
 1.7658251E+01  2.4276020E+01
 1.7669750E+01  2.4275288E+01
 1.7681252E+01  2.4285368E+01
 1.7692751E+01  2.4296028E+01
 1.7704250E+01  2.4282063E+01
 1.7715752E+01  2.4260931E+01
 1.7727251E+01  2.4217941E+01
 1.7738750E+01  2.4203159E+01
 1.7750252E+01  2.4175333E+01
 1.7761751E+01  2.4195953E+01
 1.7773251E+01  2.4219202E+01
 1.7784750E+01  2.4274572E+01
 1.7796251E+01  2.4319492E+01
 1.7807751E+01  2.4307892E+01
 1.7819250E+01  2.4266537E+01
 1.7830751E+01  2.4198460E+01
 1.7842251E+01  2.4196650E+01
 1.7853750E+01  2.4174973E+01
 1.7865252E+01  2.4185951E+01
 1.7876751E+01  2.4182997E+01
 1.7888250E+01  2.4153252E+01
 1.7899752E+01  2.4145466E+01
 1.7911251E+01  2.4225544E+01
 1.7922750E+01  2.4306503E+01
 1.7934252E+01  2.4328373E+01
 1.7945751E+01  2.4384617E+01
 1.7957251E+01  2.4402189E+01
 1.7968750E+01  2.4480185E+01
 1.7980251E+01  2.4482016E+01
 1.7991751E+01  2.4545719E+01
 1.8003250E+01  2.4625385E+01
 1.8014751E+01  2.4751095E+01
 1.8026251E+01  2.4934137E+01
 1.8037750E+01  2.5158375E+01
 1.8049252E+01  2.5414762E+01
 1.8060751E+01  2.5778477E+01
 1.8072250E+01  2.6200947E+01
 1.8083752E+01  2.6587898E+01
 1.8095251E+01  2.7060579E+01
 1.8106750E+01  2.7147659E+01
 1.8118252E+01  2.7171652E+01
 1.8129751E+01  2.6772003E+01
 1.8141251E+01  2.6276371E+01
 1.8152750E+01  2.5691763E+01
 1.8164251E+01  2.5173626E+01
 1.8175751E+01  2.4821960E+01
 1.8187250E+01  2.4548248E+01
 1.8198751E+01  2.4396978E+01
 1.8210251E+01  2.4328402E+01
 1.8221750E+01  2.4305077E+01
 1.8233252E+01  2.4242807E+01
 1.8244751E+01  2.4198486E+01
 1.8256250E+01  2.4157450E+01
 1.8267752E+01  2.4117500E+01
 1.8279251E+01  2.4069096E+01
 1.8290751E+01  2.4037554E+01
 1.8302252E+01  2.4050125E+01
 1.8313751E+01  2.4069248E+01
 1.8325251E+01  2.4072145E+01
 1.8336750E+01  2.4062986E+01
 1.8348251E+01  2.4034691E+01
 1.8359751E+01  2.4022142E+01
 1.8371250E+01  2.4003242E+01
 1.8382751E+01  2.4042427E+01
 1.8394251E+01  2.4106056E+01
 1.8405750E+01  2.4163662E+01
 1.8417252E+01  2.4184826E+01
 1.8428751E+01  2.4155472E+01
 1.8440250E+01  2.4073753E+01
 1.8451752E+01  2.4004755E+01
 1.8463251E+01  2.3957066E+01
 1.8474751E+01  2.3993425E+01
 1.8486252E+01  2.3939175E+01
 1.8497751E+01  2.3923122E+01
 1.8509251E+01  2.3902817E+01
 1.8520750E+01  2.3898773E+01
 1.8532251E+01  2.3870922E+01
 1.8543751E+01  2.3855337E+01
 1.8555250E+01  2.3916149E+01
 1.8566751E+01  2.4005455E+01
 1.8578251E+01  2.4049053E+01
 1.8589750E+01  2.4070045E+01
 1.8601252E+01  2.4059294E+01
 1.8612751E+01  2.4046272E+01
 1.8624250E+01  2.3993643E+01
 1.8635752E+01  2.3954014E+01
 1.8647251E+01  2.3926178E+01
 1.8658751E+01  2.3848345E+01
 1.8670252E+01  2.3810390E+01
 1.8681751E+01  2.3772123E+01
 1.8693251E+01  2.3798685E+01
 1.8704750E+01  2.3884958E+01
 1.8716251E+01  2.3979313E+01
 1.8727751E+01  2.3987360E+01
 1.8739250E+01  2.3965872E+01
 1.8750751E+01  2.3902281E+01
 1.8762251E+01  2.3914495E+01
 1.8773750E+01  2.3863255E+01
 1.8785252E+01  2.3880655E+01
 1.8796751E+01  2.3868711E+01
 1.8808250E+01  2.3856958E+01
 1.8819752E+01  2.3823385E+01
 1.8831251E+01  2.3758150E+01
 1.8842751E+01  2.3747938E+01
 1.8854252E+01  2.3761986E+01
 1.8865751E+01  2.3791803E+01
 1.8877251E+01  2.3799187E+01
 1.8888750E+01  2.3813637E+01
 1.8900251E+01  2.3823759E+01
 1.8911751E+01  2.3854179E+01
 1.8923250E+01  2.3879881E+01
 1.8934752E+01  2.3913794E+01
 1.8946251E+01  2.3911430E+01
 1.8957750E+01  2.3894470E+01
 1.8969252E+01  2.3851683E+01
 1.8980751E+01  2.3864031E+01
 1.8992250E+01  2.3863939E+01
 1.9003752E+01  2.3895409E+01
 1.9015251E+01  2.3881380E+01
 1.9026751E+01  2.3882034E+01
 1.9038252E+01  2.3886560E+01
 1.9049751E+01  2.3877117E+01
 1.9061251E+01  2.3943056E+01
 1.9072750E+01  2.3968988E+01
 1.9084251E+01  2.4002350E+01
 1.9095751E+01  2.3968365E+01
 1.9107250E+01  2.3925407E+01
 1.9118752E+01  2.3847956E+01
 1.9130251E+01  2.3808641E+01
 1.9141750E+01  2.3789845E+01
 1.9153252E+01  2.3826572E+01
 1.9164751E+01  2.3807455E+01
 1.9176250E+01  2.3813143E+01
 1.9187752E+01  2.3809916E+01
 1.9199251E+01  2.3844154E+01
 1.9210751E+01  2.3903116E+01
 1.9222252E+01  2.3890829E+01
 1.9233751E+01  2.3899002E+01
 1.9245251E+01  2.3888363E+01
 1.9256750E+01  2.3969954E+01
 1.9268251E+01  2.3991119E+01
 1.9279751E+01  2.3971329E+01
 1.9291250E+01  2.3937136E+01
 1.9302752E+01  2.3944977E+01
 1.9314251E+01  2.4036804E+01
 1.9325750E+01  2.4093403E+01
 1.9337252E+01  2.4106302E+01
 1.9348751E+01  2.4134802E+01
 1.9360250E+01  2.4087868E+01
 1.9371752E+01  2.4073952E+01
 1.9383251E+01  2.3986313E+01
 1.9394751E+01  2.4055304E+01
 1.9406250E+01  2.4026903E+01
 1.9417751E+01  2.4069342E+01
 1.9429251E+01  2.4019571E+01
 1.9440750E+01  2.4001535E+01
 1.9452251E+01  2.3962429E+01
 1.9463751E+01  2.3977560E+01
 1.9475250E+01  2.3986059E+01
 1.9486752E+01  2.4004749E+01
 1.9498251E+01  2.4028515E+01
 1.9509750E+01  2.4050463E+01
 1.9521252E+01  2.4083033E+01
 1.9532751E+01  2.4167540E+01
 1.9544250E+01  2.4222847E+01
 1.9555752E+01  2.4218805E+01
 1.9567251E+01  2.4173134E+01
 1.9578751E+01  2.4183628E+01
 1.9590250E+01  2.4197241E+01
 1.9601751E+01  2.4238008E+01
 1.9613251E+01  2.4303230E+01
 1.9624750E+01  2.4418997E+01
 1.9636251E+01  2.4583601E+01
 1.9647751E+01  2.4810984E+01
 1.9659250E+01  2.5176306E+01
 1.9670752E+01  2.5917803E+01
 1.9682251E+01  2.6297131E+01
 1.9693750E+01  2.7162573E+01
 1.9705252E+01  2.7170052E+01
 1.9716751E+01  2.7360826E+01
 1.9728251E+01  2.6765930E+01
 1.9739752E+01  2.6471024E+01
 1.9751251E+01  2.5975945E+01
 1.9762751E+01  2.5552101E+01
 1.9774250E+01  2.5401381E+01
 1.9785751E+01  2.5292139E+01
 1.9797251E+01  2.5340839E+01
 1.9808750E+01  2.5565973E+01
 1.9820251E+01  2.5924505E+01
 1.9831751E+01  2.6344000E+01
 1.9843250E+01  2.6751900E+01
 1.9854752E+01  2.7023111E+01
 1.9866251E+01  2.7027758E+01
 1.9877750E+01  2.6660858E+01
 1.9889252E+01  2.6147028E+01
 1.9900751E+01  2.5685816E+01
 1.9912251E+01  2.5234570E+01
 1.9923752E+01  2.4878658E+01
 1.9935251E+01  2.4614695E+01
 1.9946751E+01  2.4485504E+01
 1.9958250E+01  2.4384941E+01
 1.9969751E+01  2.4348173E+01
 1.9981251E+01  2.4287519E+01
 1.9992750E+01  2.4315485E+01
 2.0004251E+01  2.4246489E+01
 2.0015751E+01  2.4217602E+01
 2.0027250E+01  2.4199041E+01
 2.0038752E+01  2.4237001E+01
 2.0050251E+01  2.4274984E+01
 2.0061750E+01  2.4225464E+01
 2.0073252E+01  2.4218517E+01
 2.0084751E+01  2.4182915E+01
 2.0096251E+01  2.4220076E+01
 2.0107752E+01  2.4190159E+01
 2.0119251E+01  2.4203876E+01
 2.0130751E+01  2.4201981E+01
 2.0142250E+01  2.4225233E+01
 2.0153751E+01  2.4228264E+01
 2.0165251E+01  2.4192684E+01
 2.0176750E+01  2.4172094E+01
 2.0188251E+01  2.4138954E+01
 2.0199751E+01  2.4145109E+01
 2.0211250E+01  2.4142685E+01
 2.0222752E+01  2.4149574E+01
 2.0234251E+01  2.4138493E+01
 2.0245750E+01  2.4133207E+01
 2.0257252E+01  2.4106539E+01
 2.0268751E+01  2.4082119E+01
 2.0280251E+01  2.4107367E+01
 2.0291752E+01  2.4078897E+01
 2.0303251E+01  2.4069532E+01
 2.0314751E+01  2.4022785E+01
 2.0326250E+01  2.4026243E+01
 2.0337751E+01  2.4008987E+01
 2.0349251E+01  2.4036743E+01
 2.0360750E+01  2.4030544E+01
 2.0372252E+01  2.4027973E+01
 2.0383751E+01  2.4025360E+01
 2.0395250E+01  2.4053799E+01
 2.0406752E+01  2.4071617E+01
 2.0418251E+01  2.4129194E+01
 2.0429750E+01  2.4187075E+01
 2.0441252E+01  2.4175844E+01
 2.0452751E+01  2.4173904E+01
 2.0464251E+01  2.4153646E+01
 2.0475752E+01  2.4176926E+01
 2.0487251E+01  2.4190111E+01
 2.0498751E+01  2.4222832E+01
 2.0510250E+01  2.4192354E+01
 2.0521751E+01  2.4151878E+01
 2.0533251E+01  2.4114494E+01
 2.0544750E+01  2.4134645E+01
 2.0556252E+01  2.4172512E+01
 2.0567751E+01  2.4186510E+01
 2.0579250E+01  2.4245003E+01
 2.0590752E+01  2.4308193E+01
 2.0602251E+01  2.4357874E+01
 2.0613750E+01  2.4403709E+01
 2.0625252E+01  2.4440474E+01
 2.0636751E+01  2.4434692E+01
 2.0648251E+01  2.4410254E+01
 2.0659752E+01  2.4398540E+01
 2.0671251E+01  2.4503054E+01
 2.0682751E+01  2.4735920E+01
 2.0694250E+01  2.5027042E+01
 2.0705751E+01  2.5361488E+01
 2.0717251E+01  2.5698965E+01
 2.0728750E+01  2.5945574E+01
 2.0740252E+01  2.6044884E+01
 2.0751751E+01  2.6185120E+01
 2.0763250E+01  2.6145990E+01
 2.0774752E+01  2.6093801E+01
 2.0786251E+01  2.5865524E+01
 2.0797750E+01  2.5657450E+01
 2.0809252E+01  2.5225298E+01
 2.0820751E+01  2.4954348E+01
 2.0832251E+01  2.4768547E+01
 2.0843752E+01  2.4614929E+01
 2.0855251E+01  2.4543051E+01
 2.0866751E+01  2.4443415E+01
 2.0878250E+01  2.4428476E+01
 2.0889751E+01  2.4432819E+01
 2.0901251E+01  2.4434998E+01
 2.0912750E+01  2.4452499E+01
 2.0924252E+01  2.4416746E+01
 2.0935751E+01  2.4421238E+01
 2.0947250E+01  2.4394924E+01
 2.0958752E+01  2.4375269E+01
 2.0970251E+01  2.4307077E+01
 2.0981750E+01  2.4286367E+01
 2.0993252E+01  2.4286312E+01
 2.1004751E+01  2.4311495E+01
 2.1016251E+01  2.4304005E+01
 2.1027752E+01  2.4324835E+01
 2.1039251E+01  2.4321688E+01
 2.1050751E+01  2.4365685E+01
 2.1062250E+01  2.4409473E+01
 2.1073751E+01  2.4434856E+01
 2.1085251E+01  2.4400715E+01
 2.1096750E+01  2.4354523E+01
 2.1108252E+01  2.4355347E+01
 2.1119751E+01  2.4338308E+01
 2.1131250E+01  2.4306074E+01
 2.1142752E+01  2.4210356E+01
 2.1154251E+01  2.4139185E+01
 2.1165751E+01  2.4116287E+01
 2.1177252E+01  2.4191261E+01
 2.1188751E+01  2.4228601E+01
 2.1200251E+01  2.4288240E+01
 2.1211752E+01  2.4275509E+01
 2.1223251E+01  2.4267340E+01
 2.1234751E+01  2.4232201E+01
 2.1246250E+01  2.4245323E+01
 2.1257751E+01  2.4254528E+01
 2.1269251E+01  2.4251442E+01
 2.1280750E+01  2.4236099E+01
 2.1292252E+01  2.4196466E+01
 2.1303751E+01  2.4163685E+01
 2.1315250E+01  2.4128935E+01
 2.1326752E+01  2.4160362E+01
 2.1338251E+01  2.4213333E+01
 2.1349751E+01  2.4254900E+01
 2.1361252E+01  2.4280596E+01
 2.1372751E+01  2.4328423E+01
 2.1384251E+01  2.4309839E+01
 2.1395752E+01  2.4328259E+01
 2.1407251E+01  2.4292866E+01
 2.1418751E+01  2.4292255E+01
 2.1430250E+01  2.4291069E+01
 2.1441751E+01  2.4263351E+01
 2.1453251E+01  2.4315763E+01
 2.1464750E+01  2.4356798E+01
 2.1476252E+01  2.4392944E+01
 2.1487751E+01  2.4406048E+01
 2.1499250E+01  2.4404877E+01
 2.1510752E+01  2.4428165E+01
 2.1522251E+01  2.4464605E+01
 2.1533751E+01  2.4482817E+01
 2.1545252E+01  2.4460014E+01
 2.1556751E+01  2.4451956E+01
 2.1568251E+01  2.4398926E+01
 2.1579752E+01  2.4415165E+01
 2.1591251E+01  2.4419905E+01
 2.1602751E+01  2.4476685E+01
 2.1614250E+01  2.4491800E+01
 2.1625751E+01  2.4549011E+01
 2.1637251E+01  2.4556986E+01
 2.1648750E+01  2.4539995E+01
 2.1660252E+01  2.4537735E+01
 2.1671751E+01  2.4458708E+01
 2.1683250E+01  2.4444288E+01
 2.1694752E+01  2.4447647E+01
 2.1706251E+01  2.4507881E+01
 2.1717751E+01  2.4550117E+01
 2.1729252E+01  2.4555483E+01
 2.1740751E+01  2.4548698E+01
 2.1752251E+01  2.4585062E+01
 2.1763752E+01  2.4600887E+01
 2.1775251E+01  2.4601473E+01
 2.1786751E+01  2.4617838E+01
 2.1798250E+01  2.4635332E+01
 2.1809752E+01  2.4624256E+01
 2.1821251E+01  2.4570259E+01
 2.1832750E+01  2.4499170E+01
 2.1844252E+01  2.4474054E+01
 2.1855751E+01  2.4490644E+01
 2.1867250E+01  2.4527122E+01
 2.1878752E+01  2.4500057E+01
 2.1890251E+01  2.4474573E+01
 2.1901751E+01  2.4474602E+01
 2.1913252E+01  2.4515865E+01
 2.1924751E+01  2.4549929E+01
 2.1936251E+01  2.4605629E+01
 2.1947752E+01  2.4568050E+01
 2.1959251E+01  2.4549604E+01
 2.1970751E+01  2.4534582E+01
 2.1982250E+01  2.4534025E+01
 2.1993752E+01  2.4508816E+01
 2.2005251E+01  2.4519951E+01
 2.2016750E+01  2.4553883E+01
 2.2028252E+01  2.4582426E+01
 2.2039751E+01  2.4526941E+01
 2.2051250E+01  2.4566730E+01
 2.2062752E+01  2.4593756E+01
 2.2074251E+01  2.4640020E+01
 2.2085751E+01  2.4620445E+01
 2.2097252E+01  2.4600206E+01
 2.2108751E+01  2.4582718E+01
 2.2120251E+01  2.4640739E+01
 2.2131752E+01  2.4712393E+01
 2.2143251E+01  2.4781939E+01
 2.2154751E+01  2.4770535E+01
 2.2166250E+01  2.4800629E+01
 2.2177752E+01  2.4775921E+01
 2.2189251E+01  2.4743755E+01
 2.2200750E+01  2.4738441E+01
 2.2212252E+01  2.4745331E+01
 2.2223751E+01  2.4751888E+01
 2.2235250E+01  2.4769419E+01
 2.2246752E+01  2.4796797E+01
 2.2258251E+01  2.4822783E+01
 2.2269751E+01  2.4766859E+01
 2.2281252E+01  2.4806046E+01
 2.2292751E+01  2.4802944E+01
 2.2304251E+01  2.4884378E+01
 2.2315752E+01  2.4877642E+01
 2.2327251E+01  2.4891134E+01
 2.2338751E+01  2.4916334E+01
 2.2350250E+01  2.5009871E+01
 2.2361752E+01  2.5108879E+01
 2.2373251E+01  2.5119381E+01
 2.2384750E+01  2.5043507E+01
 2.2396252E+01  2.4950912E+01
 2.2407751E+01  2.4869673E+01
 2.2419250E+01  2.4842146E+01
 2.2430752E+01  2.4887939E+01
 2.2442251E+01  2.4968060E+01
 2.2453751E+01  2.5005754E+01
 2.2465252E+01  2.5011232E+01
 2.2476751E+01  2.4999294E+01
 2.2488251E+01  2.5083384E+01
 2.2499752E+01  2.5136845E+01
 2.2511251E+01  2.5189480E+01
 2.2522751E+01  2.5202320E+01
 2.2534250E+01  2.5220875E+01
 2.2545752E+01  2.5259356E+01
 2.2557251E+01  2.5270748E+01
 2.2568750E+01  2.5335293E+01
 2.2580252E+01  2.5362373E+01
 2.2591751E+01  2.5411627E+01
 2.2603251E+01  2.5371243E+01
 2.2614752E+01  2.5389925E+01
 2.2626251E+01  2.5402832E+01
 2.2637751E+01  2.5396645E+01
 2.2649252E+01  2.5359976E+01
 2.2660751E+01  2.5350790E+01
 2.2672251E+01  2.5336290E+01
 2.2683752E+01  2.5378092E+01
 2.2695251E+01  2.5446079E+01
 2.2706751E+01  2.5500473E+01
 2.2718250E+01  2.5594856E+01
 2.2729752E+01  2.5599413E+01
 2.2741251E+01  2.5620770E+01
 2.2752750E+01  2.5615591E+01
 2.2764252E+01  2.5632990E+01
 2.2775751E+01  2.5600256E+01
 2.2787251E+01  2.5536020E+01
 2.2798752E+01  2.5590582E+01
 2.2810251E+01  2.5650263E+01
 2.2821751E+01  2.5740078E+01
 2.2833252E+01  2.5815403E+01
 2.2844751E+01  2.5847795E+01
 2.2856251E+01  2.5846235E+01
 2.2867750E+01  2.5846233E+01
 2.2879251E+01  2.5864582E+01
 2.2890751E+01  2.5981352E+01
 2.2902250E+01  2.6014965E+01
 2.2913752E+01  2.6179577E+01
 2.2925251E+01  2.6261007E+01
 2.2936750E+01  2.6339663E+01
 2.2948252E+01  2.6331333E+01
 2.2959751E+01  2.6332952E+01
 2.2971251E+01  2.6401104E+01
 2.2982752E+01  2.6514967E+01
 2.2994251E+01  2.6595818E+01
