F:\20151113_APS_34IDE\\Brian\Particle1\OCV\Data_0008.tif
2-Theta Angle (Degrees)
Intensity
       2000
 5.7500005E-03  0.0000000E+00
 1.7250001E-02  0.0000000E+00
 2.8750001E-02  0.0000000E+00
 4.0250003E-02  0.0000000E+00
 5.1750004E-02  0.0000000E+00
 6.3250005E-02  0.0000000E+00
 7.4750006E-02  0.0000000E+00
 8.6250007E-02  0.0000000E+00
 9.7750008E-02  0.0000000E+00
 1.0925001E-01  0.0000000E+00
 1.2075000E-01  0.0000000E+00
 1.3225001E-01  0.0000000E+00
 1.4375001E-01  0.0000000E+00
 1.5525001E-01  0.0000000E+00
 1.6675001E-01  0.0000000E+00
 1.7825001E-01  0.0000000E+00
 1.8975002E-01  0.0000000E+00
 2.0125002E-01  0.0000000E+00
 2.1275002E-01  0.0000000E+00
 2.2425000E-01  0.0000000E+00
 2.3575000E-01  0.0000000E+00
 2.4725001E-01  0.0000000E+00
 2.5875002E-01  0.0000000E+00
 2.7025002E-01  0.0000000E+00
 2.8175002E-01  0.0000000E+00
 2.9325002E-01  0.0000000E+00
 3.0475003E-01  0.0000000E+00
 3.1625003E-01  0.0000000E+00
 3.2775003E-01  0.0000000E+00
 3.3925003E-01  0.0000000E+00
 3.5075003E-01  0.0000000E+00
 3.6225003E-01  0.0000000E+00
 3.7375003E-01  0.0000000E+00
 3.8525003E-01  0.0000000E+00
 3.9675003E-01  0.0000000E+00
 4.0825003E-01  0.0000000E+00
 4.1975003E-01  0.0000000E+00
 4.3125004E-01  0.0000000E+00
 4.4275001E-01  0.0000000E+00
 4.5425001E-01  0.0000000E+00
 4.6575001E-01  0.0000000E+00
 4.7725001E-01  0.0000000E+00
 4.8875001E-01  0.0000000E+00
 5.0025004E-01  0.0000000E+00
 5.1175004E-01  0.0000000E+00
 5.2325004E-01  0.0000000E+00
 5.3475004E-01  0.0000000E+00
 5.4625005E-01  0.0000000E+00
 5.5775005E-01  0.0000000E+00
 5.6925005E-01  0.0000000E+00
 5.8075005E-01  0.0000000E+00
 5.9225005E-01  0.0000000E+00
 6.0375005E-01  0.0000000E+00
 6.1525005E-01  0.0000000E+00
 6.2675005E-01  0.0000000E+00
 6.3825005E-01  0.0000000E+00
 6.4975005E-01  0.0000000E+00
 6.6125005E-01  0.0000000E+00
 6.7275006E-01  0.0000000E+00
 6.8425006E-01  0.0000000E+00
 6.9575006E-01  0.0000000E+00
 7.0725006E-01  0.0000000E+00
 7.1875006E-01  0.0000000E+00
 7.3025006E-01  0.0000000E+00
 7.4175006E-01  0.0000000E+00
 7.5325006E-01  0.0000000E+00
 7.6475006E-01  0.0000000E+00
 7.7625006E-01  0.0000000E+00
 7.8775007E-01  0.0000000E+00
 7.9925007E-01  0.0000000E+00
 8.1075007E-01  0.0000000E+00
 8.2225007E-01  0.0000000E+00
 8.3375007E-01  0.0000000E+00
 8.4525007E-01  0.0000000E+00
 8.5675007E-01  0.0000000E+00
 8.6825007E-01  0.0000000E+00
 8.7975001E-01  0.0000000E+00
 8.9125001E-01  0.0000000E+00
 9.0275002E-01  0.0000000E+00
 9.1425002E-01  0.0000000E+00
 9.2575002E-01  0.0000000E+00
 9.3725002E-01  0.0000000E+00
 9.4875002E-01  0.0000000E+00
 9.6025002E-01  0.0000000E+00
 9.7175002E-01  0.0000000E+00
 9.8325002E-01  0.0000000E+00
 9.9475002E-01  0.0000000E+00
 1.0062500E+00  0.0000000E+00
 1.0177500E+00  0.0000000E+00
 1.0292500E+00  0.0000000E+00
 1.0407500E+00  0.0000000E+00
 1.0522500E+00  0.0000000E+00
 1.0637500E+00  0.0000000E+00
 1.0752500E+00  0.0000000E+00
 1.0867500E+00  0.0000000E+00
 1.0982500E+00  0.0000000E+00
 1.1097500E+00  0.0000000E+00
 1.1212500E+00  0.0000000E+00
 1.1327500E+00  0.0000000E+00
 1.1442500E+00  0.0000000E+00
 1.1557500E+00  0.0000000E+00
 1.1672500E+00  0.0000000E+00
 1.1787500E+00  0.0000000E+00
 1.1902500E+00  0.0000000E+00
 1.2017500E+00  0.0000000E+00
 1.2132500E+00  0.0000000E+00
 1.2247500E+00  0.0000000E+00
 1.2362500E+00  0.0000000E+00
 1.2477500E+00  0.0000000E+00
 1.2592500E+00  0.0000000E+00
 1.2707500E+00  0.0000000E+00
 1.2822500E+00  0.0000000E+00
 1.2937500E+00  0.0000000E+00
 1.3052500E+00  0.0000000E+00
 1.3167500E+00  0.0000000E+00
 1.3282501E+00  0.0000000E+00
 1.3397501E+00  0.0000000E+00
 1.3512501E+00  0.0000000E+00
 1.3627501E+00  0.0000000E+00
 1.3742501E+00  0.0000000E+00
 1.3857501E+00  0.0000000E+00
 1.3972501E+00  0.0000000E+00
 1.4087501E+00  0.0000000E+00
 1.4202501E+00  0.0000000E+00
 1.4317501E+00  0.0000000E+00
 1.4432501E+00  0.0000000E+00
 1.4547501E+00  0.0000000E+00
 1.4662501E+00  0.0000000E+00
 1.4777501E+00  0.0000000E+00
 1.4892501E+00  0.0000000E+00
 1.5007501E+00  0.0000000E+00
 1.5122501E+00  0.0000000E+00
 1.5237501E+00  0.0000000E+00
 1.5352501E+00  0.0000000E+00
 1.5467501E+00  0.0000000E+00
 1.5582501E+00  0.0000000E+00
 1.5697501E+00  0.0000000E+00
 1.5812501E+00  0.0000000E+00
 1.5927501E+00  0.0000000E+00
 1.6042501E+00  0.0000000E+00
 1.6157501E+00  0.0000000E+00
 1.6272501E+00  0.0000000E+00
 1.6387501E+00  0.0000000E+00
 1.6502501E+00  0.0000000E+00
 1.6617501E+00  0.0000000E+00
 1.6732501E+00  0.0000000E+00
 1.6847501E+00  0.0000000E+00
 1.6962501E+00  0.0000000E+00
 1.7077501E+00  0.0000000E+00
 1.7192501E+00  0.0000000E+00
 1.7307501E+00  0.0000000E+00
 1.7422501E+00  0.0000000E+00
 1.7537501E+00  0.0000000E+00
 1.7652501E+00  0.0000000E+00
 1.7767501E+00  0.0000000E+00
 1.7882501E+00  0.0000000E+00
 1.7997501E+00  0.0000000E+00
 1.8112501E+00  0.0000000E+00
 1.8227501E+00  0.0000000E+00
 1.8342501E+00  0.0000000E+00
 1.8457501E+00  0.0000000E+00
 1.8572501E+00  0.0000000E+00
 1.8687501E+00  0.0000000E+00
 1.8802501E+00  0.0000000E+00
 1.8917501E+00  0.0000000E+00
 1.9032501E+00  0.0000000E+00
 1.9147501E+00  0.0000000E+00
 1.9262501E+00  0.0000000E+00
 1.9377501E+00  0.0000000E+00
 1.9492501E+00  0.0000000E+00
 1.9607501E+00  0.0000000E+00
 1.9722501E+00  0.0000000E+00
 1.9837501E+00  0.0000000E+00
 1.9952501E+00  0.0000000E+00
 2.0067501E+00  0.0000000E+00
 2.0182500E+00  0.0000000E+00
 2.0297501E+00  0.0000000E+00
 2.0412500E+00  0.0000000E+00
 2.0527501E+00  0.0000000E+00
 2.0642500E+00  0.0000000E+00
 2.0757501E+00  0.0000000E+00
 2.0872500E+00  0.0000000E+00
 2.0987501E+00  0.0000000E+00
 2.1102500E+00  0.0000000E+00
 2.1217501E+00  0.0000000E+00
 2.1332500E+00  0.0000000E+00
 2.1447501E+00  0.0000000E+00
 2.1562500E+00  0.0000000E+00
 2.1677501E+00  0.0000000E+00
 2.1792500E+00  0.0000000E+00
 2.1907501E+00  0.0000000E+00
 2.2022500E+00  0.0000000E+00
 2.2137501E+00  0.0000000E+00
 2.2252500E+00  0.0000000E+00
 2.2367501E+00  0.0000000E+00
 2.2482500E+00  0.0000000E+00
 2.2597501E+00  0.0000000E+00
 2.2712500E+00  0.0000000E+00
 2.2827501E+00  0.0000000E+00
 2.2942500E+00  0.0000000E+00
 2.3057501E+00  0.0000000E+00
 2.3172500E+00  0.0000000E+00
 2.3287501E+00  0.0000000E+00
 2.3402500E+00  0.0000000E+00
 2.3517501E+00  0.0000000E+00
 2.3632500E+00  0.0000000E+00
 2.3747501E+00  0.0000000E+00
 2.3862500E+00  0.0000000E+00
 2.3977501E+00  0.0000000E+00
 2.4092500E+00  0.0000000E+00
 2.4207501E+00  0.0000000E+00
 2.4322500E+00  0.0000000E+00
 2.4437501E+00  0.0000000E+00
 2.4552500E+00  0.0000000E+00
 2.4667501E+00  0.0000000E+00
 2.4782500E+00  0.0000000E+00
 2.4897501E+00  0.0000000E+00
 2.5012500E+00  0.0000000E+00
 2.5127501E+00  0.0000000E+00
 2.5242500E+00  0.0000000E+00
 2.5357502E+00  0.0000000E+00
 2.5472500E+00  0.0000000E+00
 2.5587502E+00  0.0000000E+00
 2.5702500E+00  0.0000000E+00
 2.5817502E+00  0.0000000E+00
 2.5932500E+00  0.0000000E+00
 2.6047502E+00  0.0000000E+00
 2.6162500E+00  0.0000000E+00
 2.6277502E+00  0.0000000E+00
 2.6392500E+00  0.0000000E+00
 2.6507502E+00  0.0000000E+00
 2.6622500E+00  0.0000000E+00
 2.6737502E+00  0.0000000E+00
 2.6852500E+00  0.0000000E+00
 2.6967502E+00  0.0000000E+00
 2.7082500E+00  0.0000000E+00
 2.7197502E+00  0.0000000E+00
 2.7312500E+00  0.0000000E+00
 2.7427502E+00  0.0000000E+00
 2.7542500E+00  0.0000000E+00
 2.7657502E+00  0.0000000E+00
 2.7772501E+00  0.0000000E+00
 2.7887502E+00  0.0000000E+00
 2.8002501E+00  0.0000000E+00
 2.8117502E+00  0.0000000E+00
 2.8232501E+00  3.3425648E+01
 2.8347502E+00  3.3548340E+01
 2.8462501E+00  3.4416603E+01
 2.8577502E+00  3.4591202E+01
 2.8692501E+00  3.4369911E+01
 2.8807502E+00  3.5139824E+01
 2.8922501E+00  3.5024918E+01
 2.9037502E+00  3.5312725E+01
 2.9152501E+00  3.4987541E+01
 2.9267502E+00  3.4940113E+01
 2.9382501E+00  3.5111221E+01
 2.9497502E+00  3.5511051E+01
 2.9612501E+00  3.5432777E+01
 2.9727502E+00  3.5426674E+01
 2.9842501E+00  3.4962009E+01
 2.9957502E+00  3.5186302E+01
 3.0072501E+00  3.5730404E+01
 3.0187502E+00  3.6403648E+01
 3.0302501E+00  3.6903168E+01
 3.0417502E+00  3.6850239E+01
 3.0532501E+00  3.6615196E+01
 3.0647502E+00  3.6029732E+01
 3.0762501E+00  3.6009876E+01
 3.0877502E+00  3.5882591E+01
 3.0992501E+00  3.5846233E+01
 3.1107502E+00  3.5550831E+01
 3.1222501E+00  3.5607552E+01
 3.1337502E+00  3.5639763E+01
 3.1452501E+00  3.5686455E+01
 3.1567502E+00  3.5495693E+01
 3.1682501E+00  3.5373524E+01
 3.1797502E+00  3.5503139E+01
 3.1912501E+00  3.5532394E+01
 3.2027502E+00  3.6009167E+01
 3.2142501E+00  3.6321514E+01
 3.2257502E+00  3.6305904E+01
 3.2372501E+00  3.5986263E+01
 3.2487502E+00  3.5467537E+01
 3.2602501E+00  3.5599258E+01
 3.2717502E+00  3.5108063E+01
 3.2832501E+00  3.5043335E+01
 3.2947502E+00  3.4566364E+01
 3.3062501E+00  3.4772778E+01
 3.3177502E+00  3.4509998E+01
 3.3292501E+00  3.4403099E+01
 3.3407502E+00  3.4201176E+01
 3.3522501E+00  3.4163357E+01
 3.3637502E+00  3.4175896E+01
 3.3752501E+00  3.4043076E+01
 3.3867502E+00  3.4164467E+01
 3.3982501E+00  3.3997173E+01
 3.4097502E+00  3.4077168E+01
 3.4212501E+00  3.4196648E+01
 3.4327502E+00  3.4252064E+01
 3.4442501E+00  3.4218414E+01
 3.4557502E+00  3.4037487E+01
 3.4672501E+00  3.4074036E+01
 3.4787502E+00  3.4169704E+01
 3.4902501E+00  3.4311958E+01
 3.5017502E+00  3.4510651E+01
 3.5132501E+00  3.4374405E+01
 3.5247502E+00  3.4434666E+01
 3.5362501E+00  3.4173779E+01
 3.5477502E+00  3.4143974E+01
 3.5592501E+00  3.4076664E+01
 3.5707502E+00  3.3851635E+01
 3.5822501E+00  3.3938839E+01
 3.5937502E+00  3.3718384E+01
 3.6052501E+00  3.3630035E+01
 3.6167502E+00  3.3537754E+01
 3.6282501E+00  3.3412388E+01
 3.6397502E+00  3.3284573E+01
 3.6512501E+00  3.3358440E+01
 3.6627502E+00  3.3197216E+01
 3.6742501E+00  3.3093513E+01
 3.6857502E+00  3.3206104E+01
 3.6972501E+00  3.3141357E+01
 3.7087502E+00  3.3210400E+01
 3.7202501E+00  3.3185909E+01
 3.7317502E+00  3.3151337E+01
 3.7432501E+00  3.3373325E+01
 3.7547503E+00  3.3212490E+01
 3.7662501E+00  3.3181416E+01
 3.7777503E+00  3.3230953E+01
 3.7892501E+00  3.2992668E+01
 3.8007503E+00  3.2853729E+01
 3.8122501E+00  3.2816563E+01
 3.8237503E+00  3.2915340E+01
 3.8352501E+00  3.2971767E+01
 3.8467503E+00  3.2975266E+01
 3.8582501E+00  3.2969753E+01
 3.8697503E+00  3.3109306E+01
 3.8812501E+00  3.3265793E+01
 3.8927503E+00  3.3242889E+01
 3.9042501E+00  3.3262508E+01
 3.9157503E+00  3.2852428E+01
 3.9272501E+00  3.2756744E+01
 3.9387503E+00  3.2694313E+01
 3.9502501E+00  3.2627182E+01
 3.9617503E+00  3.2737957E+01
 3.9732502E+00  3.2773266E+01
 3.9847503E+00  3.2792271E+01
 3.9962502E+00  3.3015293E+01
 4.0077500E+00  3.2955502E+01
 4.0192504E+00  3.2918434E+01
 4.0307503E+00  3.2741940E+01
 4.0422502E+00  3.2556534E+01
 4.0537500E+00  3.2690903E+01
 4.0652504E+00  3.2661919E+01
 4.0767503E+00  3.2458008E+01
 4.0882502E+00  3.2252613E+01
 4.0997500E+00  3.2017960E+01
 4.1112504E+00  3.1959909E+01
 4.1227503E+00  3.2049274E+01
 4.1342502E+00  3.2265949E+01
 4.1457500E+00  3.2442654E+01
 4.1572504E+00  3.2395435E+01
 4.1687503E+00  3.2411846E+01
 4.1802502E+00  3.2341663E+01
 4.1917500E+00  3.2553780E+01
 4.2032504E+00  3.2473438E+01
 4.2147503E+00  3.2496716E+01
 4.2262502E+00  3.2398815E+01
 4.2377501E+00  3.2402790E+01
 4.2492504E+00  3.2247559E+01
 4.2607503E+00  3.2325882E+01
 4.2722502E+00  3.2298183E+01
 4.2837501E+00  3.2409943E+01
 4.2952504E+00  3.2337631E+01
 4.3067503E+00  3.2359051E+01
 4.3182502E+00  3.2458736E+01
 4.3297501E+00  3.2481884E+01
 4.3412504E+00  3.2543709E+01
 4.3527503E+00  3.2416233E+01
 4.3642502E+00  3.2504467E+01
 4.3757501E+00  3.2295547E+01
 4.3872504E+00  3.2263988E+01
 4.3987503E+00  3.2073753E+01
 4.4102502E+00  3.2241451E+01
 4.4217501E+00  3.2251228E+01
 4.4332504E+00  3.2440758E+01
 4.4447503E+00  3.2443600E+01
 4.4562502E+00  3.2466507E+01
 4.4677501E+00  3.2453278E+01
 4.4792504E+00  3.2299820E+01
 4.4907503E+00  3.2179634E+01
 4.5022502E+00  3.1987724E+01
 4.5137501E+00  3.1876913E+01
 4.5252504E+00  3.2093544E+01
 4.5367503E+00  3.2331070E+01
 4.5482502E+00  3.2648777E+01
 4.5597501E+00  3.2654781E+01
 4.5712504E+00  3.2753124E+01
 4.5827503E+00  3.2654728E+01
 4.5942502E+00  3.2755436E+01
 4.6057501E+00  3.2692150E+01
 4.6172504E+00  3.2740978E+01
 4.6287503E+00  3.2588730E+01
 4.6402502E+00  3.2598320E+01
 4.6517501E+00  3.2588722E+01
 4.6632504E+00  3.2824398E+01
 4.6747503E+00  3.2892418E+01
 4.6862502E+00  3.3047489E+01
 4.6977501E+00  3.3128445E+01
 4.7092505E+00  3.3112236E+01
 4.7207503E+00  3.3091717E+01
 4.7322502E+00  3.2904045E+01
 4.7437501E+00  3.2853725E+01
 4.7552505E+00  3.2757820E+01
 4.7667503E+00  3.2731052E+01
 4.7782502E+00  3.2709335E+01
 4.7897501E+00  3.2761555E+01
 4.8012505E+00  3.2812092E+01
 4.8127503E+00  3.2798428E+01
 4.8242502E+00  3.2914692E+01
 4.8357501E+00  3.2989052E+01
 4.8472505E+00  3.3052727E+01
 4.8587503E+00  3.3104111E+01
 4.8702502E+00  3.2952969E+01
 4.8817501E+00  3.2972603E+01
 4.8932505E+00  3.2908379E+01
 4.9047503E+00  3.2963593E+01
 4.9162502E+00  3.3082287E+01
 4.9277501E+00  3.3092144E+01
 4.9392505E+00  3.3261387E+01
 4.9507504E+00  3.3278324E+01
 4.9622502E+00  3.3296814E+01
 4.9737501E+00  3.3240784E+01
 4.9852505E+00  3.3249168E+01
 4.9967504E+00  3.3263924E+01
 5.0082502E+00  3.3355804E+01
 5.0197501E+00  3.3322868E+01
 5.0312505E+00  3.3651997E+01
 5.0427504E+00  3.3733475E+01
 5.0542502E+00  3.3966671E+01
 5.0657501E+00  3.3829025E+01
 5.0772505E+00  3.3744175E+01
 5.0887504E+00  3.3642403E+01
 5.1002502E+00  3.3555977E+01
 5.1117501E+00  3.3506302E+01
 5.1232505E+00  3.3505077E+01
 5.1347504E+00  3.3690388E+01
 5.1462502E+00  3.3921177E+01
 5.1577501E+00  3.4016670E+01
 5.1692505E+00  3.4039783E+01
 5.1807504E+00  3.3925461E+01
 5.1922503E+00  3.3998783E+01
 5.2037501E+00  3.3905590E+01
 5.2152505E+00  3.3917576E+01
 5.2267504E+00  3.3908600E+01
 5.2382503E+00  3.3880253E+01
 5.2497501E+00  3.3965221E+01
 5.2612505E+00  3.4075928E+01
 5.2727504E+00  3.4151276E+01
 5.2842503E+00  3.4305149E+01
 5.2957501E+00  3.4326862E+01
 5.3072500E+00  3.4446186E+01
 5.3187504E+00  3.4454865E+01
 5.3302503E+00  3.4399036E+01
 5.3417501E+00  3.4352871E+01
 5.3532500E+00  3.4333107E+01
 5.3647504E+00  3.4306973E+01
 5.3762503E+00  3.4400894E+01
 5.3877501E+00  3.4433083E+01
 5.3992500E+00  3.4524616E+01
 5.4107504E+00  3.4513302E+01
 5.4222503E+00  3.4622078E+01
 5.4337502E+00  3.4613079E+01
 5.4452500E+00  3.4788536E+01
 5.4567504E+00  3.4779537E+01
 5.4682503E+00  3.4832905E+01
 5.4797502E+00  3.4751751E+01
 5.4912500E+00  3.4637367E+01
 5.5027504E+00  3.4685425E+01
 5.5142503E+00  3.4744377E+01
 5.5257502E+00  3.4946198E+01
 5.5372500E+00  3.4981091E+01
 5.5487504E+00  3.5114868E+01
 5.5602503E+00  3.5118446E+01
 5.5717502E+00  3.5217041E+01
 5.5832500E+00  3.5209488E+01
 5.5947504E+00  3.5158226E+01
 5.6062503E+00  3.5076771E+01
 5.6177502E+00  3.4942467E+01
 5.6292500E+00  3.4900879E+01
 5.6407504E+00  3.4897171E+01
 5.6522503E+00  3.4934834E+01
 5.6637502E+00  3.5073544E+01
 5.6752501E+00  3.5109337E+01
 5.6867504E+00  3.5195549E+01
 5.6982503E+00  3.5141685E+01
 5.7097502E+00  3.5263161E+01
 5.7212501E+00  3.5410362E+01
 5.7327504E+00  3.5497196E+01
 5.7442503E+00  3.5480011E+01
 5.7557502E+00  3.5504818E+01
 5.7672501E+00  3.5579235E+01
 5.7787504E+00  3.5678650E+01
 5.7902503E+00  3.5794918E+01
 5.8017502E+00  3.5887703E+01
 5.8132501E+00  3.5973454E+01
 5.8247504E+00  3.5926571E+01
 5.8362503E+00  3.5946697E+01
 5.8477502E+00  3.5953983E+01
 5.8592501E+00  3.5959560E+01
 5.8707504E+00  3.6002907E+01
 5.8822503E+00  3.6049751E+01
 5.8937502E+00  3.6286522E+01
 5.9052501E+00  3.6419140E+01
 5.9167504E+00  3.6529999E+01
 5.9282503E+00  3.6760181E+01
 5.9397502E+00  3.7181580E+01
 5.9512501E+00  3.7771564E+01
 5.9627504E+00  3.8665707E+01
 5.9742503E+00  3.8977581E+01
 5.9857502E+00  3.9086559E+01
 5.9972501E+00  3.8663567E+01
 6.0087504E+00  3.8197903E+01
 6.0202503E+00  3.7741909E+01
 6.0317502E+00  3.7141071E+01
 6.0432501E+00  3.6860420E+01
 6.0547504E+00  3.6679268E+01
 6.0662503E+00  3.6692013E+01
 6.0777502E+00  3.6755207E+01
 6.0892501E+00  3.6844471E+01
 6.1007504E+00  3.6873455E+01
 6.1122503E+00  3.6809452E+01
 6.1237502E+00  3.6781963E+01
 6.1352501E+00  3.6719048E+01
 6.1467505E+00  3.6745621E+01
 6.1582503E+00  3.6762077E+01
 6.1697502E+00  3.6825642E+01
 6.1812501E+00  3.6856216E+01
 6.1927505E+00  3.6932415E+01
 6.2042503E+00  3.6951492E+01
 6.2157502E+00  3.7037056E+01
 6.2272501E+00  3.7146599E+01
 6.2387505E+00  3.7175201E+01
 6.2502503E+00  3.7310440E+01
 6.2617502E+00  3.7409477E+01
 6.2732501E+00  3.7501286E+01
 6.2847505E+00  3.7593540E+01
 6.2962503E+00  3.7690159E+01
 6.3077502E+00  3.7805386E+01
 6.3192501E+00  3.7903316E+01
 6.3307505E+00  3.7940727E+01
 6.3422503E+00  3.8117168E+01
 6.3537502E+00  3.8168316E+01
 6.3652501E+00  3.8229748E+01
 6.3767505E+00  3.8235474E+01
 6.3882504E+00  3.8324390E+01
 6.3997502E+00  3.8365250E+01
 6.4112501E+00  3.8499813E+01
 6.4227505E+00  3.8522404E+01
 6.4342504E+00  3.8642426E+01
 6.4457502E+00  3.8573734E+01
 6.4572501E+00  3.8613949E+01
 6.4687505E+00  3.8707306E+01
 6.4802504E+00  3.8794094E+01
 6.4917502E+00  3.9008156E+01
 6.5032501E+00  3.9237896E+01
 6.5147505E+00  3.9429974E+01
 6.5262504E+00  3.9549797E+01
 6.5377502E+00  3.9529701E+01
 6.5492501E+00  3.9543289E+01
 6.5607505E+00  3.9533234E+01
 6.5722504E+00  3.9537731E+01
 6.5837502E+00  3.9689346E+01
 6.5952501E+00  3.9803463E+01
 6.6067505E+00  3.9967197E+01
 6.6182504E+00  4.0087524E+01
 6.6297503E+00  4.0210621E+01
 6.6412501E+00  4.0281738E+01
 6.6527505E+00  4.0217361E+01
 6.6642504E+00  4.0267693E+01
 6.6757503E+00  4.0262997E+01
 6.6872501E+00  4.0326607E+01
 6.6987505E+00  4.0372704E+01
 6.7102504E+00  4.0409065E+01
 6.7217503E+00  4.0452854E+01
 6.7332501E+00  4.0452614E+01
 6.7447505E+00  4.0456619E+01
 6.7562504E+00  4.0591045E+01
 6.7677503E+00  4.0628578E+01
 6.7792501E+00  4.0745693E+01
 6.7907505E+00  4.0723854E+01
 6.8022504E+00  4.0808353E+01
 6.8137503E+00  4.1001465E+01
 6.8252501E+00  4.1122181E+01
 6.8367505E+00  4.1288330E+01
 6.8482504E+00  4.1350067E+01
 6.8597503E+00  4.1505993E+01
 6.8712502E+00  4.1579296E+01
 6.8827505E+00  4.1714340E+01
 6.8942504E+00  4.1744667E+01
 6.9057503E+00  4.1904167E+01
 6.9172502E+00  4.1948338E+01
 6.9287505E+00  4.1988449E+01
 6.9402504E+00  4.1999401E+01
 6.9517503E+00  4.2006294E+01
 6.9632502E+00  4.2133392E+01
 6.9747505E+00  4.2310738E+01
 6.9862504E+00  4.2414551E+01
 6.9977503E+00  4.2468620E+01
 7.0092502E+00  4.2410778E+01
 7.0207505E+00  4.2472092E+01
 7.0322504E+00  4.2578564E+01
 7.0437503E+00  4.2632801E+01
 7.0552502E+00  4.2787716E+01
 7.0667505E+00  4.2865116E+01
 7.0782504E+00  4.2920628E+01
 7.0897503E+00  4.3009155E+01
 7.1012502E+00  4.2975006E+01
 7.1127505E+00  4.3111130E+01
 7.1242504E+00  4.3119091E+01
 7.1357503E+00  4.3238144E+01
 7.1472502E+00  4.3356750E+01
 7.1587505E+00  4.3461922E+01
 7.1702504E+00  4.3506214E+01
 7.1817503E+00  4.3544891E+01
 7.1932502E+00  4.3525238E+01
 7.2047505E+00  4.3482742E+01
 7.2162504E+00  4.3399948E+01
 7.2277503E+00  4.3407352E+01
 7.2392502E+00  4.3500469E+01
 7.2507505E+00  4.3652225E+01
 7.2622504E+00  4.3782860E+01
 7.2737503E+00  4.3900936E+01
 7.2852502E+00  4.3986885E+01
 7.2967505E+00  4.4053421E+01
 7.3082504E+00  4.4111622E+01
 7.3197503E+00  4.4046619E+01
 7.3312502E+00  4.4103497E+01
 7.3427505E+00  4.4048477E+01
 7.3542504E+00  4.4133957E+01
 7.3657503E+00  4.4037529E+01
 7.3772502E+00  4.4017231E+01
 7.3887506E+00  4.4055038E+01
 7.4002504E+00  4.4071098E+01
 7.4117503E+00  4.4135628E+01
 7.4232502E+00  4.4171268E+01
 7.4347506E+00  4.4234020E+01
 7.4462504E+00  4.4266895E+01
 7.4577503E+00  4.4211773E+01
 7.4692502E+00  4.4218380E+01
 7.4807506E+00  4.4193081E+01
 7.4922504E+00  4.4138359E+01
 7.5037503E+00  4.4126640E+01
 7.5152502E+00  4.4204987E+01
 7.5267506E+00  4.4235817E+01
 7.5382504E+00  4.4353065E+01
 7.5497503E+00  4.4358135E+01
 7.5612502E+00  4.4456848E+01
 7.5727506E+00  4.4535542E+01
 7.5842505E+00  4.4628784E+01
 7.5957503E+00  4.4758518E+01
 7.6072502E+00  4.4741646E+01
 7.6187506E+00  4.4682869E+01
 7.6302505E+00  4.4650574E+01
 7.6417503E+00  4.4576683E+01
 7.6532502E+00  4.4585484E+01
 7.6647506E+00  4.4593788E+01
 7.6762505E+00  4.4588360E+01
 7.6877503E+00  4.4572224E+01
 7.6992502E+00  4.4467762E+01
 7.7107506E+00  4.4496681E+01
 7.7222505E+00  4.4479244E+01
 7.7337503E+00  4.4558884E+01
 7.7452502E+00  4.4502510E+01
 7.7567506E+00  4.4471939E+01
 7.7682505E+00  4.4382816E+01
 7.7797503E+00  4.4383518E+01
 7.7912502E+00  4.4332340E+01
 7.8027506E+00  4.4373707E+01
 7.8142505E+00  4.4466679E+01
 7.8257504E+00  4.4585533E+01
 7.8372502E+00  4.4614429E+01
 7.8487506E+00  4.4568836E+01
 7.8602505E+00  4.4486160E+01
 7.8717504E+00  4.4355366E+01
 7.8832502E+00  4.4166840E+01
 7.8947506E+00  4.3967930E+01
 7.9062505E+00  4.3841110E+01
 7.9177504E+00  4.3758423E+01
 7.9292502E+00  4.3713982E+01
 7.9407506E+00  4.3724342E+01
 7.9522505E+00  4.3660774E+01
 7.9637504E+00  4.3709835E+01
 7.9752502E+00  4.3641842E+01
 7.9867506E+00  4.3615208E+01
 7.9982505E+00  4.3589897E+01
 8.0097504E+00  4.3505798E+01
 8.0212507E+00  4.3473515E+01
 8.0327501E+00  4.3383080E+01
 8.0442505E+00  4.3298027E+01
 8.0557508E+00  4.3268520E+01
 8.0672503E+00  4.3230129E+01
 8.0787506E+00  4.3210938E+01
 8.0902500E+00  4.3128220E+01
 8.1017504E+00  4.3012375E+01
 8.1132507E+00  4.2908485E+01
 8.1247501E+00  4.2750446E+01
 8.1362505E+00  4.2602997E+01
 8.1477509E+00  4.2470001E+01
 8.1592503E+00  4.2322372E+01
 8.1707506E+00  4.2214111E+01
 8.1822500E+00  4.2052738E+01
 8.1937504E+00  4.2009636E+01
 8.2052507E+00  4.1953003E+01
 8.2167501E+00  4.1885937E+01
 8.2282505E+00  4.1831722E+01
 8.2397509E+00  4.1754559E+01
 8.2512503E+00  4.1758507E+01
 8.2627506E+00  4.1676495E+01
 8.2742500E+00  4.1518215E+01
 8.2857504E+00  4.1298122E+01
 8.2972507E+00  4.1095802E+01
 8.3087502E+00  4.0871738E+01
 8.3202505E+00  4.0806305E+01
 8.3317509E+00  4.0650257E+01
 8.3432503E+00  4.0563629E+01
 8.3547506E+00  4.0403763E+01
 8.3662500E+00  4.0276299E+01
 8.3777504E+00  4.0119534E+01
 8.3892508E+00  3.9918766E+01
 8.4007502E+00  3.9662407E+01
 8.4122505E+00  3.9521832E+01
 8.4237509E+00  3.9320717E+01
 8.4352503E+00  3.9157101E+01
 8.4467506E+00  3.8859936E+01
 8.4582500E+00  3.8595734E+01
 8.4697504E+00  3.8393143E+01
 8.4812508E+00  3.8242188E+01
 8.4927502E+00  3.8099056E+01
 8.5042505E+00  3.7998260E+01
 8.5157509E+00  3.7933754E+01
 8.5272503E+00  3.7772923E+01
 8.5387506E+00  3.7633900E+01
 8.5502501E+00  3.7302113E+01
 8.5617504E+00  3.7147564E+01
 8.5732508E+00  3.6925636E+01
 8.5847502E+00  3.6753841E+01
 8.5962505E+00  3.6616890E+01
 8.6077509E+00  3.6325966E+01
 8.6192503E+00  3.6207165E+01
 8.6307507E+00  3.6054535E+01
 8.6422501E+00  3.5976280E+01
 8.6537504E+00  3.5840115E+01
 8.6652508E+00  3.5658455E+01
 8.6767502E+00  3.5497581E+01
 8.6882505E+00  3.5370083E+01
 8.6997509E+00  3.5215187E+01
 8.7112503E+00  3.5043610E+01
 8.7227507E+00  3.4825928E+01
 8.7342501E+00  3.4587780E+01
 8.7457504E+00  3.4332623E+01
 8.7572508E+00  3.4080688E+01
 8.7687502E+00  3.3780769E+01
 8.7802505E+00  3.3559418E+01
 8.7917500E+00  3.3424850E+01
 8.8032503E+00  3.3364994E+01
 8.8147507E+00  3.3328060E+01
 8.8262501E+00  3.3211887E+01
 8.8377504E+00  3.3101170E+01
 8.8492508E+00  3.2986389E+01
 8.8607502E+00  3.2854858E+01
 8.8722506E+00  3.2759739E+01
 8.8837500E+00  3.2596638E+01
 8.8952503E+00  3.2507362E+01
 8.9067507E+00  3.2449558E+01
 8.9182501E+00  3.2299335E+01
 8.9297504E+00  3.2122181E+01
 8.9412508E+00  3.1846312E+01
 8.9527502E+00  3.1632454E+01
 8.9642506E+00  3.1473377E+01
 8.9757500E+00  3.1292139E+01
 8.9872503E+00  3.1187969E+01
 8.9987507E+00  3.1037909E+01
 9.0102501E+00  3.0931740E+01
 9.0217505E+00  3.0772528E+01
 9.0332508E+00  3.0644695E+01
 9.0447502E+00  3.0540924E+01
 9.0562506E+00  3.0391380E+01
 9.0677500E+00  3.0241590E+01
 9.0792503E+00  3.0050188E+01
 9.0907507E+00  2.9896748E+01
 9.1022501E+00  2.9746866E+01
 9.1137505E+00  2.9601763E+01
 9.1252508E+00  2.9554932E+01
 9.1367502E+00  2.9503717E+01
 9.1482506E+00  2.9416954E+01
 9.1597500E+00  2.9284956E+01
 9.1712503E+00  2.9048767E+01
 9.1827507E+00  2.8865482E+01
 9.1942501E+00  2.8742266E+01
 9.2057505E+00  2.8629131E+01
 9.2172508E+00  2.8563965E+01
 9.2287502E+00  2.8362925E+01
 9.2402506E+00  2.8294834E+01
 9.2517500E+00  2.8213345E+01
 9.2632504E+00  2.8197247E+01
 9.2747507E+00  2.8166767E+01
 9.2862501E+00  2.8077461E+01
 9.2977505E+00  2.7984938E+01
 9.3092508E+00  2.7822098E+01
 9.3207502E+00  2.7697512E+01
 9.3322506E+00  2.7562834E+01
 9.3437500E+00  2.7429586E+01
 9.3552504E+00  2.7307045E+01
 9.3667507E+00  2.7221792E+01
 9.3782501E+00  2.7177435E+01
 9.3897505E+00  2.7132227E+01
 9.4012508E+00  2.7149714E+01
 9.4127502E+00  2.7139629E+01
 9.4242506E+00  2.7082966E+01
 9.4357500E+00  2.6897017E+01
 9.4472504E+00  2.6749413E+01
 9.4587507E+00  2.6640408E+01
 9.4702501E+00  2.6607157E+01
 9.4817505E+00  2.6619005E+01
 9.4932508E+00  2.6590658E+01
 9.5047503E+00  2.6574743E+01
 9.5162506E+00  2.6503613E+01
 9.5277500E+00  2.6428583E+01
 9.5392504E+00  2.6326057E+01
 9.5507507E+00  2.6183079E+01
 9.5622501E+00  2.6101828E+01
 9.5737505E+00  2.5990438E+01
 9.5852509E+00  2.5925667E+01
 9.5967503E+00  2.5864456E+01
 9.6082506E+00  2.5835714E+01
 9.6197500E+00  2.5881130E+01
 9.6312504E+00  2.5838829E+01
 9.6427507E+00  2.5823303E+01
 9.6542501E+00  2.5684502E+01
 9.6657505E+00  2.5592798E+01
 9.6772509E+00  2.5433523E+01
 9.6887503E+00  2.5310669E+01
 9.7002506E+00  2.5273159E+01
 9.7117500E+00  2.5289310E+01
 9.7232504E+00  2.5265203E+01
 9.7347507E+00  2.5205826E+01
 9.7462502E+00  2.5150799E+01
 9.7577505E+00  2.5159813E+01
 9.7692509E+00  2.5161200E+01
 9.7807503E+00  2.5131691E+01
 9.7922506E+00  2.5059643E+01
 9.8037500E+00  2.4978495E+01
 9.8152504E+00  2.4913168E+01
 9.8267508E+00  2.4837856E+01
 9.8382502E+00  2.4807878E+01
 9.8497505E+00  2.4745235E+01
 9.8612509E+00  2.4743460E+01
 9.8727503E+00  2.4705532E+01
 9.8842506E+00  2.4686581E+01
 9.8957500E+00  2.4682087E+01
 9.9072504E+00  2.4717743E+01
 9.9187508E+00  2.4748552E+01
 9.9302502E+00  2.4748802E+01
 9.9417505E+00  2.4655043E+01
 9.9532509E+00  2.4614697E+01
 9.9647503E+00  2.4552990E+01
 9.9762506E+00  2.4495241E+01
 9.9877501E+00  2.4435957E+01
 9.9992504E+00  2.4353844E+01
 1.0010751E+01  2.4250763E+01
 1.0022250E+01  2.4147949E+01
 1.0033751E+01  2.4088001E+01
 1.0045251E+01  2.4091488E+01
 1.0056750E+01  2.4066790E+01
 1.0068251E+01  2.4097496E+01
 1.0079750E+01  2.4110422E+01
 1.0091250E+01  2.4102812E+01
 1.0102751E+01  2.4068899E+01
 1.0114250E+01  2.4069965E+01
 1.0125751E+01  2.4131659E+01
 1.0137251E+01  2.4117338E+01
 1.0148750E+01  2.4159775E+01
 1.0160251E+01  2.4147768E+01
 1.0171750E+01  2.4146284E+01
 1.0183250E+01  2.4061666E+01
 1.0194751E+01  2.3930624E+01
 1.0206250E+01  2.3799238E+01
 1.0217751E+01  2.3729591E+01
 1.0229251E+01  2.3655973E+01
 1.0240750E+01  2.3601240E+01
 1.0252251E+01  2.3499247E+01
 1.0263750E+01  2.3463089E+01
 1.0275250E+01  2.3482954E+01
 1.0286751E+01  2.3498571E+01
 1.0298250E+01  2.3542711E+01
 1.0309751E+01  2.3532055E+01
 1.0321251E+01  2.3530619E+01
 1.0332750E+01  2.3492168E+01
 1.0344251E+01  2.3469559E+01
 1.0355750E+01  2.3427689E+01
 1.0367250E+01  2.3374334E+01
 1.0378751E+01  2.3413322E+01
 1.0390250E+01  2.3492416E+01
 1.0401751E+01  2.3561117E+01
 1.0413251E+01  2.3474592E+01
 1.0424750E+01  2.3394447E+01
 1.0436251E+01  2.3313745E+01
 1.0447750E+01  2.3271063E+01
 1.0459250E+01  2.3235115E+01
 1.0470751E+01  2.3199160E+01
 1.0482250E+01  2.3221476E+01
 1.0493751E+01  2.3210150E+01
 1.0505251E+01  2.3226242E+01
 1.0516750E+01  2.3196827E+01
 1.0528251E+01  2.3185724E+01
 1.0539750E+01  2.3174416E+01
 1.0551250E+01  2.3175835E+01
 1.0562751E+01  2.3126104E+01
 1.0574250E+01  2.3030706E+01
 1.0585751E+01  2.2976851E+01
 1.0597251E+01  2.2985481E+01
 1.0608750E+01  2.3074249E+01
 1.0620251E+01  2.3120899E+01
 1.0631750E+01  2.3176210E+01
 1.0643250E+01  2.3175451E+01
 1.0654751E+01  2.3165386E+01
 1.0666250E+01  2.3137030E+01
 1.0677751E+01  2.3096779E+01
 1.0689251E+01  2.3103174E+01
 1.0700750E+01  2.3056429E+01
 1.0712251E+01  2.3090879E+01
 1.0723750E+01  2.3113527E+01
 1.0735250E+01  2.3118896E+01
 1.0746751E+01  2.3078114E+01
 1.0758250E+01  2.2992710E+01
 1.0769751E+01  2.2947416E+01
 1.0781251E+01  2.2933872E+01
 1.0792750E+01  2.2900352E+01
 1.0804251E+01  2.2858856E+01
 1.0815750E+01  2.2850790E+01
 1.0827250E+01  2.2804609E+01
 1.0838751E+01  2.2809155E+01
 1.0850250E+01  2.2752851E+01
 1.0861751E+01  2.2755754E+01
 1.0873251E+01  2.2729080E+01
 1.0884750E+01  2.2744101E+01
 1.0896251E+01  2.2728941E+01
 1.0907750E+01  2.2722839E+01
 1.0919250E+01  2.2725315E+01
 1.0930751E+01  2.2731245E+01
 1.0942250E+01  2.2728165E+01
 1.0953751E+01  2.2697353E+01
 1.0965251E+01  2.2663889E+01
 1.0976750E+01  2.2666740E+01
 1.0988251E+01  2.2663855E+01
 1.0999750E+01  2.2683977E+01
 1.1011250E+01  2.2719738E+01
 1.1022751E+01  2.2705389E+01
 1.1034250E+01  2.2645596E+01
 1.1045751E+01  2.2538218E+01
 1.1057251E+01  2.2490295E+01
 1.1068750E+01  2.2492266E+01
 1.1080251E+01  2.2524710E+01
 1.1091750E+01  2.2531601E+01
 1.1103251E+01  2.2555815E+01
 1.1114751E+01  2.2532961E+01
 1.1126250E+01  2.2546562E+01
 1.1137751E+01  2.2548958E+01
 1.1149251E+01  2.2600157E+01
 1.1160750E+01  2.2647104E+01
 1.1172251E+01  2.2614510E+01
 1.1183750E+01  2.2579126E+01
 1.1195251E+01  2.2534142E+01
 1.1206751E+01  2.2528042E+01
 1.1218250E+01  2.2543085E+01
 1.1229751E+01  2.2489729E+01
 1.1241251E+01  2.2475439E+01
 1.1252750E+01  2.2429470E+01
 1.1264251E+01  2.2372362E+01
 1.1275750E+01  2.2302565E+01
 1.1287251E+01  2.2235992E+01
 1.1298751E+01  2.2196369E+01
 1.1310250E+01  2.2251120E+01
 1.1321751E+01  2.2336977E+01
 1.1333251E+01  2.2410851E+01
 1.1344750E+01  2.2462875E+01
 1.1356251E+01  2.2459526E+01
 1.1367750E+01  2.2527838E+01
 1.1379251E+01  2.2546722E+01
 1.1390751E+01  2.2558020E+01
 1.1402250E+01  2.2825996E+01
 1.1413751E+01  2.2834648E+01
 1.1425251E+01  2.2859571E+01
 1.1436750E+01  2.2725277E+01
 1.1448251E+01  2.2753637E+01
 1.1459750E+01  2.2777588E+01
 1.1471251E+01  2.2613117E+01
 1.1482751E+01  2.2531084E+01
 1.1494250E+01  2.2490074E+01
 1.1505751E+01  2.2427891E+01
 1.1517251E+01  2.2494869E+01
 1.1528750E+01  2.2598452E+01
 1.1540251E+01  2.2822048E+01
 1.1551750E+01  2.3021505E+01
 1.1563251E+01  2.3221348E+01
 1.1574751E+01  2.3440704E+01
 1.1586250E+01  2.3505276E+01
 1.1597751E+01  2.3556881E+01
 1.1609251E+01  2.3313311E+01
 1.1620750E+01  2.3114836E+01
 1.1632251E+01  2.2797262E+01
 1.1643750E+01  2.2635563E+01
 1.1655251E+01  2.2533335E+01
 1.1666751E+01  2.2473261E+01
 1.1678250E+01  2.2424826E+01
 1.1689751E+01  2.2362558E+01
 1.1701251E+01  2.2321449E+01
 1.1712750E+01  2.2351683E+01
 1.1724251E+01  2.2301989E+01
 1.1735750E+01  2.2391230E+01
 1.1747251E+01  2.2427370E+01
 1.1758751E+01  2.2487572E+01
 1.1770250E+01  2.2425388E+01
 1.1781751E+01  2.2441591E+01
 1.1793251E+01  2.2470680E+01
 1.1804750E+01  2.2451410E+01
 1.1816251E+01  2.2416414E+01
 1.1827750E+01  2.2351732E+01
 1.1839251E+01  2.2335867E+01
 1.1850751E+01  2.2273344E+01
 1.1862250E+01  2.2260105E+01
 1.1873751E+01  2.2210798E+01
 1.1885251E+01  2.2174555E+01
 1.1896750E+01  2.2201099E+01
 1.1908251E+01  2.2254303E+01
 1.1919750E+01  2.2394396E+01
 1.1931251E+01  2.2512615E+01
 1.1942751E+01  2.2610695E+01
 1.1954250E+01  2.2671471E+01
 1.1965751E+01  2.2688177E+01
 1.1977251E+01  2.2752857E+01
 1.1988750E+01  2.2826649E+01
 1.2000251E+01  2.2830004E+01
 1.2011750E+01  2.2866051E+01
 1.2023251E+01  2.2877993E+01
 1.2034751E+01  2.2979136E+01
 1.2046250E+01  2.3111958E+01
 1.2057751E+01  2.3458557E+01
 1.2069251E+01  2.3987570E+01
 1.2080750E+01  2.4309340E+01
 1.2092251E+01  2.4939737E+01
 1.2103750E+01  2.5007227E+01
 1.2115251E+01  2.4849293E+01
 1.2126751E+01  2.4157103E+01
 1.2138250E+01  2.3644337E+01
 1.2149751E+01  2.3335892E+01
 1.2161251E+01  2.3020313E+01
 1.2172750E+01  2.2840202E+01
 1.2184251E+01  2.2717575E+01
 1.2195750E+01  2.2600277E+01
 1.2207251E+01  2.2531374E+01
 1.2218751E+01  2.2513769E+01
 1.2230250E+01  2.2524811E+01
 1.2241751E+01  2.2478970E+01
 1.2253251E+01  2.2474075E+01
 1.2264750E+01  2.2467459E+01
 1.2276251E+01  2.2486746E+01
 1.2287750E+01  2.2534637E+01
 1.2299251E+01  2.2595547E+01
 1.2310751E+01  2.2665350E+01
 1.2322250E+01  2.2628384E+01
 1.2333751E+01  2.2599333E+01
 1.2345250E+01  2.2589962E+01
 1.2356750E+01  2.2606480E+01
 1.2368251E+01  2.2574959E+01
 1.2379750E+01  2.2585533E+01
 1.2391251E+01  2.2603140E+01
 1.2402751E+01  2.2570086E+01
 1.2414250E+01  2.2538227E+01
 1.2425751E+01  2.2477610E+01
 1.2437250E+01  2.2489191E+01
 1.2448750E+01  2.2501371E+01
 1.2460251E+01  2.2575605E+01
 1.2471750E+01  2.2706169E+01
 1.2483251E+01  2.2748249E+01
 1.2494751E+01  2.2775545E+01
 1.2506250E+01  2.2701763E+01
 1.2517751E+01  2.2637901E+01
 1.2529250E+01  2.2581558E+01
 1.2540751E+01  2.2534182E+01
 1.2552251E+01  2.2521933E+01
 1.2563750E+01  2.2518835E+01
 1.2575251E+01  2.2531485E+01
 1.2586751E+01  2.2538931E+01
 1.2598250E+01  2.2576448E+01
 1.2609751E+01  2.2615578E+01
 1.2621250E+01  2.2659876E+01
 1.2632751E+01  2.2674166E+01
 1.2644251E+01  2.2695507E+01
 1.2655750E+01  2.2762663E+01
 1.2667251E+01  2.2801353E+01
 1.2678751E+01  2.2822729E+01
 1.2690250E+01  2.2814651E+01
 1.2701751E+01  2.2790201E+01
 1.2713250E+01  2.2839489E+01
 1.2724751E+01  2.2836275E+01
 1.2736251E+01  2.2900440E+01
 1.2747750E+01  2.2932949E+01
 1.2759251E+01  2.3021532E+01
 1.2770751E+01  2.3078650E+01
 1.2782250E+01  2.3185480E+01
 1.2793751E+01  2.3212240E+01
 1.2805250E+01  2.3243179E+01
 1.2816751E+01  2.3189375E+01
 1.2828251E+01  2.3240547E+01
 1.2839750E+01  2.3234497E+01
 1.2851251E+01  2.3315405E+01
 1.2862751E+01  2.3354969E+01
 1.2874250E+01  2.3417433E+01
 1.2885751E+01  2.3462334E+01
 1.2897250E+01  2.3500534E+01
 1.2908751E+01  2.3595182E+01
 1.2920251E+01  2.3624981E+01
 1.2931750E+01  2.3647692E+01
 1.2943251E+01  2.3638702E+01
 1.2954751E+01  2.3617176E+01
 1.2966250E+01  2.3657982E+01
 1.2977751E+01  2.3683756E+01
 1.2989250E+01  2.3789997E+01
 1.3000751E+01  2.3859112E+01
 1.3012251E+01  2.4000212E+01
 1.3023750E+01  2.4085388E+01
 1.3035251E+01  2.4164299E+01
 1.3046751E+01  2.4179474E+01
 1.3058250E+01  2.4262285E+01
 1.3069751E+01  2.4340181E+01
 1.3081250E+01  2.4418375E+01
 1.3092751E+01  2.4534933E+01
 1.3104251E+01  2.4677309E+01
 1.3115750E+01  2.4843241E+01
 1.3127251E+01  2.4927654E+01
 1.3138751E+01  2.5031376E+01
 1.3150250E+01  2.5140976E+01
 1.3161751E+01  2.5287649E+01
 1.3173250E+01  2.5458183E+01
 1.3184751E+01  2.5631969E+01
 1.3196251E+01  2.5755711E+01
 1.3207750E+01  2.5917904E+01
 1.3219251E+01  2.6002972E+01
 1.3230751E+01  2.6212944E+01
 1.3242250E+01  2.6341097E+01
 1.3253751E+01  2.6447500E+01
 1.3265250E+01  2.6547775E+01
 1.3276751E+01  2.6639223E+01
 1.3288251E+01  2.6749771E+01
 1.3299750E+01  2.6820211E+01
 1.3311251E+01  2.6882660E+01
 1.3322751E+01  2.7048033E+01
 1.3334250E+01  2.7206444E+01
 1.3345751E+01  2.7381748E+01
 1.3357250E+01  2.7562902E+01
 1.3368751E+01  2.7689514E+01
 1.3380251E+01  2.7863420E+01
 1.3391750E+01  2.7997162E+01
 1.3403251E+01  2.8173672E+01
 1.3414751E+01  2.8284008E+01
 1.3426250E+01  2.8419220E+01
 1.3437751E+01  2.8513367E+01
 1.3449250E+01  2.8593328E+01
 1.3460751E+01  2.8635708E+01
 1.3472251E+01  2.8742290E+01
 1.3483750E+01  2.8874996E+01
 1.3495251E+01  2.8948818E+01
 1.3506751E+01  2.9061733E+01
 1.3518250E+01  2.9196932E+01
 1.3529751E+01  2.9369452E+01
 1.3541250E+01  2.9442276E+01
 1.3552751E+01  2.9460869E+01
 1.3564251E+01  2.9466715E+01
 1.3575750E+01  2.9491476E+01
 1.3587251E+01  2.9578964E+01
 1.3598751E+01  2.9679197E+01
 1.3610250E+01  2.9782682E+01
 1.3621751E+01  2.9871222E+01
 1.3633250E+01  2.9915039E+01
 1.3644751E+01  2.9868084E+01
 1.3656251E+01  2.9842365E+01
 1.3667750E+01  2.9827892E+01
 1.3679251E+01  2.9767082E+01
 1.3690751E+01  2.9660700E+01
 1.3702250E+01  2.9532257E+01
 1.3713751E+01  2.9496443E+01
 1.3725250E+01  2.9494202E+01
 1.3736751E+01  2.9508080E+01
 1.3748251E+01  2.9436701E+01
 1.3759750E+01  2.9316196E+01
 1.3771251E+01  2.9195019E+01
 1.3782751E+01  2.9085415E+01
 1.3794250E+01  2.8985216E+01
 1.3805751E+01  2.8869871E+01
 1.3817250E+01  2.8750330E+01
 1.3828751E+01  2.8768072E+01
 1.3840251E+01  2.8808273E+01
 1.3851750E+01  2.8926973E+01
 1.3863251E+01  2.9014359E+01
 1.3874751E+01  2.9175701E+01
 1.3886250E+01  2.9306971E+01
 1.3897751E+01  2.9477301E+01
 1.3909250E+01  2.9684357E+01
 1.3920751E+01  2.9992592E+01
 1.3932251E+01  3.0268942E+01
 1.3943750E+01  3.0471869E+01
 1.3955251E+01  3.0409081E+01
 1.3966751E+01  3.0228638E+01
 1.3978251E+01  2.9770374E+01
 1.3989751E+01  2.9387453E+01
 1.4001250E+01  2.8921978E+01
 1.4012751E+01  2.8573629E+01
 1.4024251E+01  2.8248308E+01
 1.4035750E+01  2.8029503E+01
 1.4047251E+01  2.7862656E+01
 1.4058751E+01  2.7704229E+01
 1.4070251E+01  2.7602362E+01
 1.4081751E+01  2.7495729E+01
 1.4093250E+01  2.7426489E+01
 1.4104751E+01  2.7354143E+01
 1.4116251E+01  2.7262445E+01
 1.4127750E+01  2.7089701E+01
 1.4139251E+01  2.6962725E+01
 1.4150751E+01  2.6870018E+01
 1.4162251E+01  2.6880579E+01
 1.4173751E+01  2.6809244E+01
 1.4185250E+01  2.6783600E+01
 1.4196751E+01  2.6740347E+01
 1.4208251E+01  2.6706396E+01
 1.4219750E+01  2.6685225E+01
 1.4231251E+01  2.6590027E+01
 1.4242751E+01  2.6545242E+01
 1.4254251E+01  2.6461254E+01
 1.4265751E+01  2.6403152E+01
 1.4277250E+01  2.6296858E+01
 1.4288751E+01  2.6241381E+01
 1.4300251E+01  2.6232365E+01
 1.4311750E+01  2.6198225E+01
 1.4323251E+01  2.6158985E+01
 1.4334751E+01  2.6076851E+01
 1.4346251E+01  2.6084360E+01
 1.4357751E+01  2.6084240E+01
 1.4369250E+01  2.6110552E+01
 1.4380751E+01  2.6111759E+01
 1.4392251E+01  2.6072006E+01
 1.4403750E+01  2.5995403E+01
 1.4415251E+01  2.5898077E+01
 1.4426751E+01  2.5844334E+01
 1.4438251E+01  2.5788301E+01
 1.4449751E+01  2.5714594E+01
 1.4461250E+01  2.5616676E+01
 1.4472751E+01  2.5565636E+01
 1.4484251E+01  2.5580475E+01
 1.4495750E+01  2.5647659E+01
 1.4507251E+01  2.5728121E+01
 1.4518751E+01  2.5736036E+01
 1.4530251E+01  2.5663996E+01
 1.4541751E+01  2.5559258E+01
 1.4553250E+01  2.5508831E+01
 1.4564751E+01  2.5491566E+01
 1.4576251E+01  2.5428947E+01
 1.4587750E+01  2.5336126E+01
 1.4599251E+01  2.5262823E+01
 1.4610751E+01  2.5236271E+01
 1.4622251E+01  2.5208397E+01
 1.4633751E+01  2.5155638E+01
 1.4645250E+01  2.5165087E+01
 1.4656751E+01  2.5096069E+01
 1.4668251E+01  2.5067226E+01
 1.4679750E+01  2.4985146E+01
 1.4691251E+01  2.5018206E+01
 1.4702751E+01  2.4997202E+01
 1.4714251E+01  2.4970123E+01
 1.4725751E+01  2.4928394E+01
 1.4737250E+01  2.4938883E+01
 1.4748751E+01  2.4965954E+01
 1.4760251E+01  2.4967503E+01
 1.4771750E+01  2.5001593E+01
 1.4783251E+01  2.4995411E+01
 1.4794751E+01  2.5022453E+01
 1.4806251E+01  2.4982574E+01
 1.4817751E+01  2.4948294E+01
 1.4829250E+01  2.4882345E+01
 1.4840751E+01  2.4857307E+01
 1.4852251E+01  2.4826736E+01
 1.4863750E+01  2.4804432E+01
 1.4875251E+01  2.4784679E+01
 1.4886751E+01  2.4790882E+01
 1.4898251E+01  2.4804779E+01
 1.4909751E+01  2.4789202E+01
 1.4921250E+01  2.4724533E+01
 1.4932751E+01  2.4673952E+01
 1.4944251E+01  2.4654221E+01
 1.4955750E+01  2.4688995E+01
 1.4967251E+01  2.4670710E+01
 1.4978751E+01  2.4716930E+01
 1.4990251E+01  2.4694569E+01
 1.5001751E+01  2.4716211E+01
 1.5013250E+01  2.4729481E+01
 1.5024751E+01  2.4764639E+01
 1.5036251E+01  2.4778261E+01
 1.5047750E+01  2.4749790E+01
 1.5059251E+01  2.4727921E+01
 1.5070751E+01  2.4759081E+01
 1.5082251E+01  2.4762873E+01
 1.5093751E+01  2.4808510E+01
 1.5105250E+01  2.4803799E+01
 1.5116751E+01  2.4767855E+01
 1.5128251E+01  2.4706011E+01
 1.5139750E+01  2.4696806E+01
 1.5151251E+01  2.4749327E+01
 1.5162751E+01  2.4866253E+01
 1.5174251E+01  2.5036110E+01
 1.5185751E+01  2.5183094E+01
 1.5197250E+01  2.5254236E+01
 1.5208751E+01  2.5258545E+01
 1.5220251E+01  2.5177223E+01
 1.5231750E+01  2.5044313E+01
 1.5243251E+01  2.4832491E+01
 1.5254751E+01  2.4704348E+01
 1.5266251E+01  2.4527039E+01
 1.5277751E+01  2.4507572E+01
 1.5289250E+01  2.4521151E+01
 1.5300751E+01  2.4545572E+01
 1.5312251E+01  2.4557529E+01
 1.5323750E+01  2.4498655E+01
 1.5335251E+01  2.4497366E+01
 1.5346751E+01  2.4443918E+01
 1.5358251E+01  2.4426935E+01
 1.5369751E+01  2.4369242E+01
 1.5381250E+01  2.4325125E+01
 1.5392751E+01  2.4314760E+01
 1.5404251E+01  2.4377752E+01
 1.5415751E+01  2.4404196E+01
 1.5427251E+01  2.4471319E+01
 1.5438751E+01  2.4508699E+01
 1.5450251E+01  2.4517166E+01
 1.5461751E+01  2.4443640E+01
 1.5473250E+01  2.4394676E+01
 1.5484751E+01  2.4393400E+01
 1.5496251E+01  2.4426975E+01
 1.5507751E+01  2.4433809E+01
 1.5519251E+01  2.4426088E+01
 1.5530751E+01  2.4434431E+01
 1.5542251E+01  2.4432066E+01
 1.5553751E+01  2.4441275E+01
 1.5565250E+01  2.4449745E+01
 1.5576751E+01  2.4458691E+01
 1.5588251E+01  2.4533146E+01
 1.5599751E+01  2.4539268E+01
 1.5611251E+01  2.4475826E+01
 1.5622751E+01  2.4381674E+01
 1.5634251E+01  2.4330853E+01
 1.5645751E+01  2.4318098E+01
 1.5657250E+01  2.4351280E+01
 1.5668751E+01  2.4438967E+01
 1.5680251E+01  2.4543243E+01
 1.5691751E+01  2.4578463E+01
 1.5703251E+01  2.4621380E+01
 1.5714751E+01  2.4621790E+01
 1.5726251E+01  2.4609280E+01
 1.5737751E+01  2.4550686E+01
 1.5749250E+01  2.4508156E+01
 1.5760751E+01  2.4462406E+01
 1.5772251E+01  2.4477028E+01
 1.5783751E+01  2.4460585E+01
 1.5795251E+01  2.4472630E+01
 1.5806751E+01  2.4491034E+01
 1.5818251E+01  2.4524561E+01
 1.5829751E+01  2.4546247E+01
 1.5841250E+01  2.4545830E+01
 1.5852751E+01  2.4551737E+01
 1.5864251E+01  2.4498524E+01
 1.5875751E+01  2.4524446E+01
 1.5887251E+01  2.4571901E+01
 1.5898750E+01  2.4636833E+01
 1.5910251E+01  2.4646019E+01
 1.5921751E+01  2.4629698E+01
 1.5933250E+01  2.4594391E+01
 1.5944751E+01  2.4511248E+01
 1.5956251E+01  2.4475636E+01
 1.5967751E+01  2.4480965E+01
 1.5979251E+01  2.4523447E+01
 1.5990750E+01  2.4555229E+01
 1.6002251E+01  2.4513077E+01
 1.6013750E+01  2.4536484E+01
 1.6025251E+01  2.4577021E+01
 1.6036751E+01  2.4647694E+01
 1.6048250E+01  2.4675812E+01
 1.6059752E+01  2.4706076E+01
 1.6071251E+01  2.4680944E+01
 1.6082750E+01  2.4677118E+01
 1.6094252E+01  2.4650002E+01
 1.6105751E+01  2.4691099E+01
 1.6117250E+01  2.4656473E+01
 1.6128750E+01  2.4675093E+01
 1.6140251E+01  2.4688910E+01
 1.6151751E+01  2.4732288E+01
 1.6163250E+01  2.4822596E+01
 1.6174751E+01  2.4843510E+01
 1.6186251E+01  2.4943357E+01
 1.6197750E+01  2.4899319E+01
 1.6209251E+01  2.5136087E+01
 1.6220751E+01  2.5133953E+01
 1.6232250E+01  2.5372299E+01
 1.6243752E+01  2.5452904E+01
 1.6255251E+01  2.5575588E+01
 1.6266750E+01  2.5673908E+01
 1.6278252E+01  2.5477282E+01
 1.6289751E+01  2.5545650E+01
 1.6301250E+01  2.5160326E+01
 1.6312750E+01  2.5217152E+01
 1.6324251E+01  2.4883028E+01
 1.6335751E+01  2.4876328E+01
 1.6347250E+01  2.4699839E+01
 1.6358751E+01  2.4654997E+01
 1.6370251E+01  2.4565956E+01
 1.6381750E+01  2.4577419E+01
 1.6393251E+01  2.4653416E+01
 1.6404751E+01  2.4686687E+01
 1.6416250E+01  2.4718637E+01
 1.6427752E+01  2.4716280E+01
 1.6439251E+01  2.4719559E+01
 1.6450750E+01  2.4725971E+01
 1.6462252E+01  2.4681753E+01
 1.6473751E+01  2.4615332E+01
 1.6485250E+01  2.4560572E+01
 1.6496750E+01  2.4556828E+01
 1.6508251E+01  2.4549454E+01
 1.6519751E+01  2.4527660E+01
 1.6531250E+01  2.4484985E+01
 1.6542751E+01  2.4467321E+01
 1.6554251E+01  2.4423332E+01
 1.6565750E+01  2.4462927E+01
 1.6577251E+01  2.4499542E+01
 1.6588751E+01  2.4576668E+01
 1.6600250E+01  2.4612822E+01
 1.6611752E+01  2.4597664E+01
 1.6623251E+01  2.4562111E+01
 1.6634750E+01  2.4503681E+01
 1.6646252E+01  2.4493914E+01
 1.6657751E+01  2.4483507E+01
 1.6669250E+01  2.4521273E+01
 1.6680750E+01  2.4474117E+01
 1.6692251E+01  2.4471111E+01
 1.6703751E+01  2.4426132E+01
 1.6715250E+01  2.4410370E+01
 1.6726751E+01  2.4347279E+01
 1.6738251E+01  2.4331182E+01
 1.6749750E+01  2.4371317E+01
 1.6761251E+01  2.4413599E+01
 1.6772751E+01  2.4416777E+01
 1.6784250E+01  2.4328148E+01
 1.6795752E+01  2.4264961E+01
 1.6807251E+01  2.4238390E+01
 1.6818750E+01  2.4246386E+01
 1.6830252E+01  2.4211514E+01
 1.6841751E+01  2.4199244E+01
 1.6853251E+01  2.4214855E+01
 1.6864750E+01  2.4284973E+01
 1.6876251E+01  2.4334267E+01
 1.6887751E+01  2.4382004E+01
 1.6899250E+01  2.4348808E+01
 1.6910751E+01  2.4295916E+01
 1.6922251E+01  2.4259047E+01
 1.6933750E+01  2.4249771E+01
 1.6945251E+01  2.4256416E+01
 1.6956751E+01  2.4225559E+01
 1.6968250E+01  2.4218563E+01
 1.6979752E+01  2.4147221E+01
 1.6991251E+01  2.4127832E+01
 1.7002750E+01  2.4089128E+01
 1.7014252E+01  2.4146820E+01
 1.7025751E+01  2.4164276E+01
 1.7037251E+01  2.4154652E+01
 1.7048750E+01  2.4134226E+01
 1.7060251E+01  2.4117170E+01
 1.7071751E+01  2.4153433E+01
 1.7083250E+01  2.4164324E+01
 1.7094751E+01  2.4154760E+01
 1.7106251E+01  2.4141695E+01
 1.7117750E+01  2.4126268E+01
 1.7129251E+01  2.4132259E+01
 1.7140751E+01  2.4106750E+01
 1.7152250E+01  2.4089024E+01
 1.7163752E+01  2.4030416E+01
 1.7175251E+01  2.4007740E+01
 1.7186750E+01  2.4026333E+01
 1.7198252E+01  2.4053574E+01
 1.7209751E+01  2.4094465E+01
 1.7221251E+01  2.4111790E+01
 1.7232750E+01  2.4133026E+01
 1.7244251E+01  2.4128227E+01
 1.7255751E+01  2.4056324E+01
 1.7267250E+01  2.4035143E+01
 1.7278751E+01  2.4032364E+01
 1.7290251E+01  2.4123516E+01
 1.7301750E+01  2.4169523E+01
 1.7313251E+01  2.4155577E+01
 1.7324751E+01  2.4133595E+01
 1.7336250E+01  2.4040701E+01
 1.7347752E+01  2.3972221E+01
 1.7359251E+01  2.3930525E+01
 1.7370750E+01  2.3947201E+01
 1.7382252E+01  2.3934681E+01
 1.7393751E+01  2.3948709E+01
 1.7405251E+01  2.3921492E+01
 1.7416750E+01  2.3932175E+01
 1.7428251E+01  2.3904287E+01
 1.7439751E+01  2.3942671E+01
 1.7451250E+01  2.3901178E+01
 1.7462751E+01  2.3904795E+01
 1.7474251E+01  2.3854431E+01
 1.7485750E+01  2.3905516E+01
 1.7497252E+01  2.3843559E+01
 1.7508751E+01  2.3873131E+01
 1.7520250E+01  2.3814606E+01
 1.7531752E+01  2.3809065E+01
 1.7543251E+01  2.3836285E+01
 1.7554750E+01  2.3885935E+01
 1.7566252E+01  2.3884020E+01
 1.7577751E+01  2.3862322E+01
 1.7589251E+01  2.3804480E+01
 1.7600750E+01  2.3780012E+01
 1.7612251E+01  2.3715725E+01
 1.7623751E+01  2.3704405E+01
 1.7635250E+01  2.3636793E+01
 1.7646751E+01  2.3640045E+01
 1.7658251E+01  2.3647682E+01
 1.7669750E+01  2.3693886E+01
 1.7681252E+01  2.3697454E+01
 1.7692751E+01  2.3740286E+01
 1.7704250E+01  2.3779703E+01
 1.7715752E+01  2.3772013E+01
 1.7727251E+01  2.3758989E+01
 1.7738750E+01  2.3699902E+01
 1.7750252E+01  2.3692005E+01
 1.7761751E+01  2.3684887E+01
 1.7773251E+01  2.3728146E+01
 1.7784750E+01  2.3773531E+01
 1.7796251E+01  2.3803596E+01
 1.7807751E+01  2.3801765E+01
 1.7819250E+01  2.3797485E+01
 1.7830751E+01  2.3779297E+01
 1.7842251E+01  2.3769909E+01
 1.7853750E+01  2.3750469E+01
 1.7865252E+01  2.3737286E+01
 1.7876751E+01  2.3715361E+01
 1.7888250E+01  2.3681709E+01
 1.7899752E+01  2.3625042E+01
 1.7911251E+01  2.3616013E+01
 1.7922750E+01  2.3613113E+01
 1.7934252E+01  2.3643503E+01
 1.7945751E+01  2.3695271E+01
 1.7957251E+01  2.3732746E+01
 1.7968750E+01  2.3766312E+01
 1.7980251E+01  2.3809021E+01
 1.7991751E+01  2.3863758E+01
 1.8003250E+01  2.3920959E+01
 1.8014751E+01  2.3930687E+01
 1.8026251E+01  2.3969244E+01
 1.8037750E+01  2.4007662E+01
 1.8049252E+01  2.4049688E+01
 1.8060751E+01  2.4116461E+01
 1.8072250E+01  2.4134157E+01
 1.8083752E+01  2.4120701E+01
 1.8095251E+01  2.4188770E+01
 1.8106750E+01  2.4101402E+01
 1.8118252E+01  2.4112999E+01
 1.8129751E+01  2.4007833E+01
 1.8141251E+01  2.3984568E+01
 1.8152750E+01  2.3876431E+01
 1.8164251E+01  2.3759338E+01
 1.8175751E+01  2.3684935E+01
 1.8187250E+01  2.3637049E+01
 1.8198751E+01  2.3658348E+01
 1.8210251E+01  2.3639868E+01
 1.8221750E+01  2.3584980E+01
 1.8233252E+01  2.3522007E+01
 1.8244751E+01  2.3481998E+01
 1.8256250E+01  2.3468391E+01
 1.8267752E+01  2.3449797E+01
 1.8279251E+01  2.3447771E+01
 1.8290751E+01  2.3491833E+01
 1.8302252E+01  2.3470327E+01
 1.8313751E+01  2.3464605E+01
 1.8325251E+01  2.3424362E+01
 1.8336750E+01  2.3504864E+01
 1.8348251E+01  2.3583349E+01
 1.8359751E+01  2.3635704E+01
 1.8371250E+01  2.3628922E+01
 1.8382751E+01  2.3581131E+01
 1.8394251E+01  2.3632366E+01
 1.8405750E+01  2.3632311E+01
 1.8417252E+01  2.3635015E+01
 1.8428751E+01  2.3540617E+01
 1.8440250E+01  2.3532757E+01
 1.8451752E+01  2.3487444E+01
 1.8463251E+01  2.3481855E+01
 1.8474751E+01  2.3512960E+01
 1.8486252E+01  2.3507723E+01
 1.8497751E+01  2.3505365E+01
 1.8509251E+01  2.3460344E+01
 1.8520750E+01  2.3471191E+01
 1.8532251E+01  2.3457945E+01
 1.8543751E+01  2.3481392E+01
 1.8555250E+01  2.3534168E+01
 1.8566751E+01  2.3567133E+01
 1.8578251E+01  2.3551004E+01
 1.8589750E+01  2.3574087E+01
 1.8601252E+01  2.3571585E+01
 1.8612751E+01  2.3579779E+01
 1.8624250E+01  2.3566088E+01
 1.8635752E+01  2.3601814E+01
 1.8647251E+01  2.3572557E+01
 1.8658751E+01  2.3551079E+01
 1.8670252E+01  2.3534941E+01
 1.8681751E+01  2.3521622E+01
 1.8693251E+01  2.3538700E+01
 1.8704750E+01  2.3513395E+01
 1.8716251E+01  2.3481010E+01
 1.8727751E+01  2.3440460E+01
 1.8739250E+01  2.3418940E+01
 1.8750751E+01  2.3387585E+01
 1.8762251E+01  2.3336369E+01
 1.8773750E+01  2.3316648E+01
 1.8785252E+01  2.3325802E+01
 1.8796751E+01  2.3374767E+01
 1.8808250E+01  2.3394979E+01
 1.8819752E+01  2.3464001E+01
 1.8831251E+01  2.3472744E+01
 1.8842751E+01  2.3522936E+01
 1.8854252E+01  2.3463669E+01
 1.8865751E+01  2.3411732E+01
 1.8877251E+01  2.3375364E+01
 1.8888750E+01  2.3423107E+01
 1.8900251E+01  2.3480310E+01
 1.8911751E+01  2.3504354E+01
 1.8923250E+01  2.3508913E+01
 1.8934752E+01  2.3549692E+01
 1.8946251E+01  2.3591297E+01
 1.8957750E+01  2.3566599E+01
 1.8969252E+01  2.3538816E+01
 1.8980751E+01  2.3527067E+01
 1.8992250E+01  2.3552784E+01
 1.9003752E+01  2.3582788E+01
 1.9015251E+01  2.3613605E+01
 1.9026751E+01  2.3615913E+01
 1.9038252E+01  2.3572142E+01
 1.9049751E+01  2.3495913E+01
 1.9061251E+01  2.3488493E+01
 1.9072750E+01  2.3517475E+01
 1.9084251E+01  2.3534664E+01
 1.9095751E+01  2.3495312E+01
 1.9107250E+01  2.3478310E+01
 1.9118752E+01  2.3461212E+01
 1.9130251E+01  2.3501129E+01
 1.9141750E+01  2.3488943E+01
 1.9153252E+01  2.3476696E+01
 1.9164751E+01  2.3466558E+01
 1.9176250E+01  2.3425140E+01
 1.9187752E+01  2.3431929E+01
 1.9199251E+01  2.3389277E+01
 1.9210751E+01  2.3383051E+01
 1.9222252E+01  2.3355186E+01
 1.9233751E+01  2.3389219E+01
 1.9245251E+01  2.3381535E+01
 1.9256750E+01  2.3394196E+01
 1.9268251E+01  2.3440420E+01
 1.9279751E+01  2.3473082E+01
 1.9291250E+01  2.3514671E+01
 1.9302752E+01  2.3514742E+01
 1.9314251E+01  2.3494024E+01
 1.9325750E+01  2.3460007E+01
 1.9337252E+01  2.3433870E+01
 1.9348751E+01  2.3504791E+01
 1.9360250E+01  2.3512974E+01
 1.9371752E+01  2.3509663E+01
 1.9383251E+01  2.3458372E+01
 1.9394751E+01  2.3524248E+01
 1.9406250E+01  2.3570169E+01
 1.9417751E+01  2.3613455E+01
 1.9429251E+01  2.3642122E+01
 1.9440750E+01  2.3680218E+01
 1.9452251E+01  2.3685253E+01
 1.9463751E+01  2.3717865E+01
 1.9475250E+01  2.3683123E+01
 1.9486752E+01  2.3623697E+01
 1.9498251E+01  2.3573748E+01
 1.9509750E+01  2.3544983E+01
 1.9521252E+01  2.3623014E+01
 1.9532751E+01  2.3655075E+01
 1.9544250E+01  2.3716490E+01
 1.9555752E+01  2.3673538E+01
 1.9567251E+01  2.3659449E+01
 1.9578751E+01  2.3630653E+01
 1.9590250E+01  2.3639839E+01
 1.9601751E+01  2.3635309E+01
 1.9613251E+01  2.3664333E+01
 1.9624750E+01  2.3682106E+01
 1.9636251E+01  2.3743172E+01
 1.9647751E+01  2.3810795E+01
 1.9659250E+01  2.3941088E+01
 1.9670752E+01  2.4039721E+01
 1.9682251E+01  2.4152941E+01
 1.9693750E+01  2.4319857E+01
 1.9705252E+01  2.4456572E+01
 1.9716751E+01  2.4542360E+01
 1.9728251E+01  2.4463797E+01
 1.9739752E+01  2.4389420E+01
 1.9751251E+01  2.4260088E+01
 1.9762751E+01  2.4144409E+01
 1.9774250E+01  2.4073275E+01
 1.9785751E+01  2.4030519E+01
 1.9797251E+01  2.4056902E+01
 1.9808750E+01  2.4179478E+01
 1.9820251E+01  2.4325491E+01
 1.9831751E+01  2.4688150E+01
 1.9843250E+01  2.5040312E+01
 1.9854752E+01  2.5253839E+01
 1.9866251E+01  2.5703409E+01
 1.9877750E+01  2.5466770E+01
 1.9889252E+01  2.5455479E+01
 1.9900751E+01  2.4729424E+01
 1.9912251E+01  2.4482853E+01
 1.9923752E+01  2.4071325E+01
 1.9935251E+01  2.3888954E+01
 1.9946751E+01  2.3773689E+01
 1.9958250E+01  2.3716824E+01
 1.9969751E+01  2.3727591E+01
 1.9981251E+01  2.3721214E+01
 1.9992750E+01  2.3731163E+01
 2.0004251E+01  2.3699627E+01
 2.0015751E+01  2.3642952E+01
 2.0027250E+01  2.3627777E+01
 2.0038752E+01  2.3623796E+01
 2.0050251E+01  2.3676992E+01
 2.0061750E+01  2.3642618E+01
 2.0073252E+01  2.3624598E+01
 2.0084751E+01  2.3552723E+01
 2.0096251E+01  2.3574200E+01
 2.0107752E+01  2.3548098E+01
 2.0119251E+01  2.3602493E+01
 2.0130751E+01  2.3608030E+01
 2.0142250E+01  2.3650370E+01
 2.0153751E+01  2.3657616E+01
 2.0165251E+01  2.3697641E+01
 2.0176750E+01  2.3734604E+01
 2.0188251E+01  2.3738800E+01
 2.0199751E+01  2.3680622E+01
 2.0211250E+01  2.3646490E+01
 2.0222752E+01  2.3670876E+01
 2.0234251E+01  2.3721882E+01
 2.0245750E+01  2.3742224E+01
 2.0257252E+01  2.3744637E+01
 2.0268751E+01  2.3707090E+01
 2.0280251E+01  2.3667984E+01
 2.0291752E+01  2.3649801E+01
 2.0303251E+01  2.3623419E+01
 2.0314751E+01  2.3639753E+01
 2.0326250E+01  2.3649797E+01
 2.0337751E+01  2.3707384E+01
 2.0349251E+01  2.3717903E+01
 2.0360750E+01  2.3714115E+01
 2.0372252E+01  2.3683405E+01
 2.0383751E+01  2.3648378E+01
 2.0395250E+01  2.3703369E+01
 2.0406752E+01  2.3711145E+01
 2.0418251E+01  2.3723478E+01
 2.0429750E+01  2.3702328E+01
 2.0441252E+01  2.3664284E+01
 2.0452751E+01  2.3651047E+01
 2.0464251E+01  2.3647520E+01
 2.0475752E+01  2.3710920E+01
 2.0487251E+01  2.3738785E+01
 2.0498751E+01  2.3818197E+01
 2.0510250E+01  2.3768311E+01
 2.0521751E+01  2.3678179E+01
 2.0533251E+01  2.3542044E+01
 2.0544750E+01  2.3520006E+01
 2.0556252E+01  2.3596155E+01
 2.0567751E+01  2.3651678E+01
 2.0579250E+01  2.3697279E+01
 2.0590752E+01  2.3712265E+01
 2.0602251E+01  2.3752377E+01
 2.0613750E+01  2.3773563E+01
 2.0625252E+01  2.3759451E+01
 2.0636751E+01  2.3764063E+01
 2.0648251E+01  2.3779488E+01
 2.0659752E+01  2.3785381E+01
 2.0671251E+01  2.3779203E+01
 2.0682751E+01  2.3810406E+01
 2.0694250E+01  2.3938360E+01
 2.0705751E+01  2.4063375E+01
 2.0717251E+01  2.4212948E+01
 2.0728750E+01  2.4326294E+01
 2.0740252E+01  2.4395756E+01
 2.0751751E+01  2.4452545E+01
 2.0763250E+01  2.4509047E+01
 2.0774752E+01  2.4523170E+01
 2.0786251E+01  2.4415827E+01
 2.0797750E+01  2.4331291E+01
 2.0809252E+01  2.4207001E+01
 2.0820751E+01  2.4102480E+01
 2.0832251E+01  2.4005247E+01
 2.0843752E+01  2.3976894E+01
 2.0855251E+01  2.3959684E+01
 2.0866751E+01  2.3943335E+01
 2.0878250E+01  2.3895559E+01
 2.0889751E+01  2.3845249E+01
 2.0901251E+01  2.3797073E+01
 2.0912750E+01  2.3800871E+01
 2.0924252E+01  2.3849922E+01
 2.0935751E+01  2.3877836E+01
 2.0947250E+01  2.3915430E+01
 2.0958752E+01  2.3873711E+01
 2.0970251E+01  2.3865767E+01
 2.0981750E+01  2.3815088E+01
 2.0993252E+01  2.3843761E+01
 2.1004751E+01  2.3824598E+01
 2.1016251E+01  2.3795321E+01
 2.1027752E+01  2.3736023E+01
 2.1039251E+01  2.3718113E+01
 2.1050751E+01  2.3681852E+01
 2.1062250E+01  2.3689272E+01
 2.1073751E+01  2.3706841E+01
 2.1085251E+01  2.3715124E+01
 2.1096750E+01  2.3709736E+01
 2.1108252E+01  2.3723562E+01
 2.1119751E+01  2.3768627E+01
 2.1131250E+01  2.3773819E+01
 2.1142752E+01  2.3786716E+01
 2.1154251E+01  2.3738104E+01
 2.1165751E+01  2.3736481E+01
 2.1177252E+01  2.3806345E+01
 2.1188751E+01  2.3824062E+01
 2.1200251E+01  2.3818424E+01
 2.1211752E+01  2.3800816E+01
 2.1223251E+01  2.3805254E+01
 2.1234751E+01  2.3828030E+01
 2.1246250E+01  2.3896162E+01
 2.1257751E+01  2.3960773E+01
 2.1269251E+01  2.3986074E+01
 2.1280750E+01  2.3906918E+01
 2.1292252E+01  2.3902504E+01
 2.1303751E+01  2.3877388E+01
 2.1315250E+01  2.3887833E+01
 2.1326752E+01  2.3861416E+01
 2.1338251E+01  2.3823355E+01
 2.1349751E+01  2.3798351E+01
 2.1361252E+01  2.3809299E+01
 2.1372751E+01  2.3862112E+01
 2.1384251E+01  2.3888659E+01
 2.1395752E+01  2.3923655E+01
 2.1407251E+01  2.3907085E+01
 2.1418751E+01  2.3942314E+01
 2.1430250E+01  2.3928198E+01
 2.1441751E+01  2.3911280E+01
 2.1453251E+01  2.3906034E+01
 2.1464750E+01  2.3917778E+01
 2.1476252E+01  2.3863791E+01
 2.1487751E+01  2.3903923E+01
 2.1499250E+01  2.3906925E+01
 2.1510752E+01  2.3915115E+01
 2.1522251E+01  2.3916677E+01
 2.1533751E+01  2.3974566E+01
 2.1545252E+01  2.4017235E+01
 2.1556751E+01  2.4034006E+01
 2.1568251E+01  2.4038673E+01
 2.1579752E+01  2.4034491E+01
 2.1591251E+01  2.4048689E+01
 2.1602751E+01  2.4049330E+01
 2.1614250E+01  2.4045471E+01
 2.1625751E+01  2.4039631E+01
 2.1637251E+01  2.4031319E+01
 2.1648750E+01  2.4019632E+01
 2.1660252E+01  2.4060495E+01
 2.1671751E+01  2.4062689E+01
 2.1683250E+01  2.4046345E+01
 2.1694752E+01  2.3995295E+01
 2.1706251E+01  2.3997995E+01
 2.1717751E+01  2.4018869E+01
 2.1729252E+01  2.4059855E+01
 2.1740751E+01  2.4067036E+01
 2.1752251E+01  2.4087875E+01
 2.1763752E+01  2.4119314E+01
 2.1775251E+01  2.4166210E+01
 2.1786751E+01  2.4198072E+01
 2.1798250E+01  2.4179167E+01
 2.1809752E+01  2.4188850E+01
 2.1821251E+01  2.4183561E+01
 2.1832750E+01  2.4189747E+01
 2.1844252E+01  2.4203606E+01
 2.1855751E+01  2.4261801E+01
 2.1867250E+01  2.4211758E+01
 2.1878752E+01  2.4171000E+01
 2.1890251E+01  2.4049772E+01
 2.1901751E+01  2.4081837E+01
 2.1913252E+01  2.4108118E+01
 2.1924751E+01  2.4155720E+01
 2.1936251E+01  2.4118731E+01
 2.1947752E+01  2.4124800E+01
 2.1959251E+01  2.4122988E+01
 2.1970751E+01  2.4137131E+01
 2.1982250E+01  2.4125835E+01
 2.1993752E+01  2.4112627E+01
 2.2005251E+01  2.4091097E+01
 2.2016750E+01  2.4151230E+01
 2.2028252E+01  2.4168400E+01
 2.2039751E+01  2.4185036E+01
 2.2051250E+01  2.4152544E+01
 2.2062752E+01  2.4139128E+01
 2.2074251E+01  2.4165194E+01
 2.2085751E+01  2.4134987E+01
 2.2097252E+01  2.4136440E+01
 2.2108751E+01  2.4167963E+01
 2.2120251E+01  2.4296547E+01
 2.2131752E+01  2.4355272E+01
 2.2143251E+01  2.4412863E+01
 2.2154751E+01  2.4387585E+01
 2.2166250E+01  2.4374582E+01
 2.2177752E+01  2.4326567E+01
 2.2189251E+01  2.4285048E+01
 2.2200750E+01  2.4273863E+01
 2.2212252E+01  2.4302052E+01
 2.2223751E+01  2.4322586E+01
 2.2235250E+01  2.4356150E+01
 2.2246752E+01  2.4437605E+01
 2.2258251E+01  2.4490387E+01
 2.2269751E+01  2.4490774E+01
 2.2281252E+01  2.4470455E+01
 2.2292751E+01  2.4452301E+01
 2.2304251E+01  2.4470871E+01
 2.2315752E+01  2.4489712E+01
 2.2327251E+01  2.4460657E+01
 2.2338751E+01  2.4456575E+01
 2.2350250E+01  2.4484739E+01
 2.2361752E+01  2.4512230E+01
 2.2373251E+01  2.4492332E+01
 2.2384750E+01  2.4452343E+01
 2.2396252E+01  2.4426006E+01
 2.2407751E+01  2.4397120E+01
 2.2419250E+01  2.4415165E+01
 2.2430752E+01  2.4500858E+01
 2.2442251E+01  2.4584286E+01
 2.2453751E+01  2.4626469E+01
 2.2465252E+01  2.4633976E+01
 2.2476751E+01  2.4566942E+01
 2.2488251E+01  2.4593304E+01
 2.2499752E+01  2.4591766E+01
 2.2511251E+01  2.4624941E+01
 2.2522751E+01  2.4640108E+01
 2.2534250E+01  2.4658258E+01
 2.2545752E+01  2.4658062E+01
 2.2557251E+01  2.4670176E+01
 2.2568750E+01  2.4681620E+01
 2.2580252E+01  2.4739201E+01
 2.2591751E+01  2.4777491E+01
 2.2603251E+01  2.4800667E+01
 2.2614752E+01  2.4833399E+01
 2.2626251E+01  2.4906311E+01
 2.2637751E+01  2.4956907E+01
 2.2649252E+01  2.4975994E+01
 2.2660751E+01  2.4974260E+01
 2.2672251E+01  2.4990284E+01
 2.2683752E+01  2.5013554E+01
 2.2695251E+01  2.5030823E+01
 2.2706751E+01  2.4982531E+01
 2.2718250E+01  2.4972816E+01
 2.2729752E+01  2.4993685E+01
 2.2741251E+01  2.5055576E+01
 2.2752750E+01  2.5080950E+01
 2.2764252E+01  2.5148975E+01
 2.2775751E+01  2.5193989E+01
 2.2787251E+01  2.5180218E+01
 2.2798752E+01  2.5261927E+01
 2.2810251E+01  2.5326956E+01
 2.2821751E+01  2.5385777E+01
 2.2833252E+01  2.5417051E+01
 2.2844751E+01  2.5457617E+01
 2.2856251E+01  2.5496225E+01
 2.2867750E+01  2.5545925E+01
 2.2879251E+01  2.5588211E+01
 2.2890751E+01  2.5639191E+01
 2.2902250E+01  2.5656363E+01
 2.2913752E+01  2.5746315E+01
 2.2925251E+01  2.5830284E+01
 2.2936750E+01  2.5831724E+01
 2.2948252E+01  2.5834631E+01
 2.2959751E+01  2.5794510E+01
 2.2971251E+01  2.5853838E+01
 2.2982752E+01  2.5932192E+01
 2.2994251E+01  2.6045916E+01
