F:\20151113_APS_34IDE\\Brian\Particle1\OCV\Data_0108.tif
2-Theta Angle (Degrees)
Intensity
       2000
 5.7500005E-03  0.0000000E+00
 1.7250001E-02  0.0000000E+00
 2.8750001E-02  0.0000000E+00
 4.0250003E-02  0.0000000E+00
 5.1750004E-02  0.0000000E+00
 6.3250005E-02  0.0000000E+00
 7.4750006E-02  0.0000000E+00
 8.6250007E-02  0.0000000E+00
 9.7750008E-02  0.0000000E+00
 1.0925001E-01  0.0000000E+00
 1.2075000E-01  0.0000000E+00
 1.3225001E-01  0.0000000E+00
 1.4375001E-01  0.0000000E+00
 1.5525001E-01  0.0000000E+00
 1.6675001E-01  0.0000000E+00
 1.7825001E-01  0.0000000E+00
 1.8975002E-01  0.0000000E+00
 2.0125002E-01  0.0000000E+00
 2.1275002E-01  0.0000000E+00
 2.2425000E-01  0.0000000E+00
 2.3575000E-01  0.0000000E+00
 2.4725001E-01  0.0000000E+00
 2.5875002E-01  0.0000000E+00
 2.7025002E-01  0.0000000E+00
 2.8175002E-01  0.0000000E+00
 2.9325002E-01  0.0000000E+00
 3.0475003E-01  0.0000000E+00
 3.1625003E-01  0.0000000E+00
 3.2775003E-01  0.0000000E+00
 3.3925003E-01  0.0000000E+00
 3.5075003E-01  0.0000000E+00
 3.6225003E-01  0.0000000E+00
 3.7375003E-01  0.0000000E+00
 3.8525003E-01  0.0000000E+00
 3.9675003E-01  0.0000000E+00
 4.0825003E-01  0.0000000E+00
 4.1975003E-01  0.0000000E+00
 4.3125004E-01  0.0000000E+00
 4.4275001E-01  0.0000000E+00
 4.5425001E-01  0.0000000E+00
 4.6575001E-01  0.0000000E+00
 4.7725001E-01  0.0000000E+00
 4.8875001E-01  0.0000000E+00
 5.0025004E-01  0.0000000E+00
 5.1175004E-01  0.0000000E+00
 5.2325004E-01  0.0000000E+00
 5.3475004E-01  0.0000000E+00
 5.4625005E-01  0.0000000E+00
 5.5775005E-01  0.0000000E+00
 5.6925005E-01  0.0000000E+00
 5.8075005E-01  0.0000000E+00
 5.9225005E-01  0.0000000E+00
 6.0375005E-01  0.0000000E+00
 6.1525005E-01  0.0000000E+00
 6.2675005E-01  0.0000000E+00
 6.3825005E-01  0.0000000E+00
 6.4975005E-01  0.0000000E+00
 6.6125005E-01  0.0000000E+00
 6.7275006E-01  0.0000000E+00
 6.8425006E-01  0.0000000E+00
 6.9575006E-01  0.0000000E+00
 7.0725006E-01  0.0000000E+00
 7.1875006E-01  0.0000000E+00
 7.3025006E-01  0.0000000E+00
 7.4175006E-01  0.0000000E+00
 7.5325006E-01  0.0000000E+00
 7.6475006E-01  0.0000000E+00
 7.7625006E-01  0.0000000E+00
 7.8775007E-01  0.0000000E+00
 7.9925007E-01  0.0000000E+00
 8.1075007E-01  0.0000000E+00
 8.2225007E-01  0.0000000E+00
 8.3375007E-01  0.0000000E+00
 8.4525007E-01  0.0000000E+00
 8.5675007E-01  0.0000000E+00
 8.6825007E-01  0.0000000E+00
 8.7975001E-01  0.0000000E+00
 8.9125001E-01  0.0000000E+00
 9.0275002E-01  0.0000000E+00
 9.1425002E-01  0.0000000E+00
 9.2575002E-01  0.0000000E+00
 9.3725002E-01  0.0000000E+00
 9.4875002E-01  0.0000000E+00
 9.6025002E-01  0.0000000E+00
 9.7175002E-01  0.0000000E+00
 9.8325002E-01  0.0000000E+00
 9.9475002E-01  0.0000000E+00
 1.0062500E+00  0.0000000E+00
 1.0177500E+00  0.0000000E+00
 1.0292500E+00  0.0000000E+00
 1.0407500E+00  0.0000000E+00
 1.0522500E+00  0.0000000E+00
 1.0637500E+00  0.0000000E+00
 1.0752500E+00  0.0000000E+00
 1.0867500E+00  0.0000000E+00
 1.0982500E+00  0.0000000E+00
 1.1097500E+00  0.0000000E+00
 1.1212500E+00  0.0000000E+00
 1.1327500E+00  0.0000000E+00
 1.1442500E+00  0.0000000E+00
 1.1557500E+00  0.0000000E+00
 1.1672500E+00  0.0000000E+00
 1.1787500E+00  0.0000000E+00
 1.1902500E+00  0.0000000E+00
 1.2017500E+00  0.0000000E+00
 1.2132500E+00  0.0000000E+00
 1.2247500E+00  0.0000000E+00
 1.2362500E+00  0.0000000E+00
 1.2477500E+00  0.0000000E+00
 1.2592500E+00  0.0000000E+00
 1.2707500E+00  0.0000000E+00
 1.2822500E+00  0.0000000E+00
 1.2937500E+00  0.0000000E+00
 1.3052500E+00  0.0000000E+00
 1.3167500E+00  0.0000000E+00
 1.3282501E+00  0.0000000E+00
 1.3397501E+00  0.0000000E+00
 1.3512501E+00  0.0000000E+00
 1.3627501E+00  0.0000000E+00
 1.3742501E+00  0.0000000E+00
 1.3857501E+00  0.0000000E+00
 1.3972501E+00  0.0000000E+00
 1.4087501E+00  0.0000000E+00
 1.4202501E+00  0.0000000E+00
 1.4317501E+00  0.0000000E+00
 1.4432501E+00  0.0000000E+00
 1.4547501E+00  0.0000000E+00
 1.4662501E+00  0.0000000E+00
 1.4777501E+00  0.0000000E+00
 1.4892501E+00  0.0000000E+00
 1.5007501E+00  0.0000000E+00
 1.5122501E+00  0.0000000E+00
 1.5237501E+00  0.0000000E+00
 1.5352501E+00  0.0000000E+00
 1.5467501E+00  0.0000000E+00
 1.5582501E+00  0.0000000E+00
 1.5697501E+00  0.0000000E+00
 1.5812501E+00  0.0000000E+00
 1.5927501E+00  0.0000000E+00
 1.6042501E+00  0.0000000E+00
 1.6157501E+00  0.0000000E+00
 1.6272501E+00  0.0000000E+00
 1.6387501E+00  0.0000000E+00
 1.6502501E+00  0.0000000E+00
 1.6617501E+00  0.0000000E+00
 1.6732501E+00  0.0000000E+00
 1.6847501E+00  0.0000000E+00
 1.6962501E+00  0.0000000E+00
 1.7077501E+00  0.0000000E+00
 1.7192501E+00  0.0000000E+00
 1.7307501E+00  0.0000000E+00
 1.7422501E+00  0.0000000E+00
 1.7537501E+00  0.0000000E+00
 1.7652501E+00  0.0000000E+00
 1.7767501E+00  0.0000000E+00
 1.7882501E+00  0.0000000E+00
 1.7997501E+00  0.0000000E+00
 1.8112501E+00  0.0000000E+00
 1.8227501E+00  0.0000000E+00
 1.8342501E+00  0.0000000E+00
 1.8457501E+00  0.0000000E+00
 1.8572501E+00  0.0000000E+00
 1.8687501E+00  0.0000000E+00
 1.8802501E+00  0.0000000E+00
 1.8917501E+00  0.0000000E+00
 1.9032501E+00  0.0000000E+00
 1.9147501E+00  0.0000000E+00
 1.9262501E+00  0.0000000E+00
 1.9377501E+00  0.0000000E+00
 1.9492501E+00  0.0000000E+00
 1.9607501E+00  0.0000000E+00
 1.9722501E+00  0.0000000E+00
 1.9837501E+00  0.0000000E+00
 1.9952501E+00  0.0000000E+00
 2.0067501E+00  0.0000000E+00
 2.0182500E+00  0.0000000E+00
 2.0297501E+00  0.0000000E+00
 2.0412500E+00  0.0000000E+00
 2.0527501E+00  0.0000000E+00
 2.0642500E+00  0.0000000E+00
 2.0757501E+00  0.0000000E+00
 2.0872500E+00  0.0000000E+00
 2.0987501E+00  0.0000000E+00
 2.1102500E+00  0.0000000E+00
 2.1217501E+00  0.0000000E+00
 2.1332500E+00  0.0000000E+00
 2.1447501E+00  0.0000000E+00
 2.1562500E+00  0.0000000E+00
 2.1677501E+00  0.0000000E+00
 2.1792500E+00  0.0000000E+00
 2.1907501E+00  0.0000000E+00
 2.2022500E+00  0.0000000E+00
 2.2137501E+00  0.0000000E+00
 2.2252500E+00  0.0000000E+00
 2.2367501E+00  0.0000000E+00
 2.2482500E+00  0.0000000E+00
 2.2597501E+00  0.0000000E+00
 2.2712500E+00  0.0000000E+00
 2.2827501E+00  0.0000000E+00
 2.2942500E+00  0.0000000E+00
 2.3057501E+00  0.0000000E+00
 2.3172500E+00  0.0000000E+00
 2.3287501E+00  0.0000000E+00
 2.3402500E+00  0.0000000E+00
 2.3517501E+00  0.0000000E+00
 2.3632500E+00  0.0000000E+00
 2.3747501E+00  0.0000000E+00
 2.3862500E+00  0.0000000E+00
 2.3977501E+00  0.0000000E+00
 2.4092500E+00  0.0000000E+00
 2.4207501E+00  0.0000000E+00
 2.4322500E+00  0.0000000E+00
 2.4437501E+00  0.0000000E+00
 2.4552500E+00  0.0000000E+00
 2.4667501E+00  0.0000000E+00
 2.4782500E+00  0.0000000E+00
 2.4897501E+00  0.0000000E+00
 2.5012500E+00  0.0000000E+00
 2.5127501E+00  0.0000000E+00
 2.5242500E+00  0.0000000E+00
 2.5357502E+00  0.0000000E+00
 2.5472500E+00  0.0000000E+00
 2.5587502E+00  0.0000000E+00
 2.5702500E+00  0.0000000E+00
 2.5817502E+00  0.0000000E+00
 2.5932500E+00  0.0000000E+00
 2.6047502E+00  0.0000000E+00
 2.6162500E+00  0.0000000E+00
 2.6277502E+00  0.0000000E+00
 2.6392500E+00  0.0000000E+00
 2.6507502E+00  0.0000000E+00
 2.6622500E+00  0.0000000E+00
 2.6737502E+00  0.0000000E+00
 2.6852500E+00  0.0000000E+00
 2.6967502E+00  0.0000000E+00
 2.7082500E+00  0.0000000E+00
 2.7197502E+00  0.0000000E+00
 2.7312500E+00  0.0000000E+00
 2.7427502E+00  0.0000000E+00
 2.7542500E+00  0.0000000E+00
 2.7657502E+00  0.0000000E+00
 2.7772501E+00  0.0000000E+00
 2.7887502E+00  0.0000000E+00
 2.8002501E+00  0.0000000E+00
 2.8117502E+00  0.0000000E+00
 2.8232501E+00  3.3386181E+01
 2.8347502E+00  3.4252125E+01
 2.8462501E+00  3.4461525E+01
 2.8577502E+00  3.4604897E+01
 2.8692501E+00  3.5182629E+01
 2.8807502E+00  3.5762531E+01
 2.8922501E+00  3.5836037E+01
 2.9037502E+00  3.6082314E+01
 2.9152501E+00  3.6004456E+01
 2.9267502E+00  3.6014637E+01
 2.9382501E+00  3.5770779E+01
 2.9497502E+00  3.5490360E+01
 2.9612501E+00  3.5286766E+01
 2.9727502E+00  3.5059807E+01
 2.9842501E+00  3.5406246E+01
 2.9957502E+00  3.5968552E+01
 3.0072501E+00  3.6823044E+01
 3.0187502E+00  3.6763321E+01
 3.0302501E+00  3.6592758E+01
 3.0417502E+00  3.6010132E+01
 3.0532501E+00  3.5513718E+01
 3.0647502E+00  3.5545742E+01
 3.0762501E+00  3.5513847E+01
 3.0877502E+00  3.5869617E+01
 3.0992501E+00  3.6489719E+01
 3.1107502E+00  3.6787819E+01
 3.1222501E+00  3.7168606E+01
 3.1337502E+00  3.6820175E+01
 3.1452501E+00  3.6500660E+01
 3.1567502E+00  3.6303577E+01
 3.1682501E+00  3.5924995E+01
 3.1797502E+00  3.5817863E+01
 3.1912501E+00  3.5484795E+01
 3.2027502E+00  3.5673851E+01
 3.2142501E+00  3.5891251E+01
 3.2257502E+00  3.6183392E+01
 3.2372501E+00  3.6750343E+01
 3.2487502E+00  3.6959751E+01
 3.2602501E+00  3.7186710E+01
 3.2717502E+00  3.6425228E+01
 3.2832501E+00  3.6178116E+01
 3.2947502E+00  3.5729099E+01
 3.3062501E+00  3.5600254E+01
 3.3177502E+00  3.5031689E+01
 3.3292501E+00  3.4682240E+01
 3.3407502E+00  3.4532444E+01
 3.3522501E+00  3.4441082E+01
 3.3637502E+00  3.4276814E+01
 3.3752501E+00  3.4160461E+01
 3.3867502E+00  3.4219234E+01
 3.3982501E+00  3.4214439E+01
 3.4097502E+00  3.4460197E+01
 3.4212501E+00  3.4472305E+01
 3.4327502E+00  3.4914619E+01
 3.4442501E+00  3.4832329E+01
 3.4557502E+00  3.4740967E+01
 3.4672501E+00  3.4655766E+01
 3.4787502E+00  3.4532780E+01
 3.4902501E+00  3.4935810E+01
 3.5017502E+00  3.4613117E+01
 3.5132501E+00  3.4379780E+01
 3.5247502E+00  3.3745464E+01
 3.5362501E+00  3.3636265E+01
 3.5477502E+00  3.3565506E+01
 3.5592501E+00  3.3536999E+01
 3.5707502E+00  3.3476387E+01
 3.5822501E+00  3.3441360E+01
 3.5937502E+00  3.3419498E+01
 3.6052501E+00  3.3334736E+01
 3.6167502E+00  3.3227261E+01
 3.6282501E+00  3.3172573E+01
 3.6397502E+00  3.3140369E+01
 3.6512501E+00  3.3365864E+01
 3.6627502E+00  3.3480110E+01
 3.6742501E+00  3.3561279E+01
 3.6857502E+00  3.3513405E+01
 3.6972501E+00  3.3377731E+01
 3.7087502E+00  3.3402542E+01
 3.7202501E+00  3.3243580E+01
 3.7317502E+00  3.3308174E+01
 3.7432501E+00  3.3469807E+01
 3.7547503E+00  3.3630093E+01
 3.7662501E+00  3.3948505E+01
 3.7777503E+00  3.3947140E+01
 3.7892501E+00  3.4026676E+01
 3.8007503E+00  3.3693886E+01
 3.8122501E+00  3.3630890E+01
 3.8237503E+00  3.3610161E+01
 3.8352501E+00  3.3596775E+01
 3.8467503E+00  3.3381222E+01
 3.8582501E+00  3.3407684E+01
 3.8697503E+00  3.3425484E+01
 3.8812501E+00  3.3482510E+01
 3.8927503E+00  3.3385159E+01
 3.9042501E+00  3.3321480E+01
 3.9157503E+00  3.3226093E+01
 3.9272501E+00  3.3106724E+01
 3.9387503E+00  3.2962322E+01
 3.9502501E+00  3.3007893E+01
 3.9617503E+00  3.3035675E+01
 3.9732502E+00  3.2954819E+01
 3.9847503E+00  3.2912376E+01
 3.9962502E+00  3.2978058E+01
 4.0077500E+00  3.3068531E+01
 4.0192504E+00  3.2978085E+01
 4.0307503E+00  3.2876991E+01
 4.0422502E+00  3.2867939E+01
 4.0537500E+00  3.2797951E+01
 4.0652504E+00  3.2738274E+01
 4.0767503E+00  3.2512955E+01
 4.0882502E+00  3.2386116E+01
 4.0997500E+00  3.2224361E+01
 4.1112504E+00  3.2134762E+01
 4.1227503E+00  3.2136013E+01
 4.1342502E+00  3.2271271E+01
 4.1457500E+00  3.2473270E+01
 4.1572504E+00  3.2707481E+01
 4.1687503E+00  3.2766712E+01
 4.1802502E+00  3.2697819E+01
 4.1917500E+00  3.2784801E+01
 4.2032504E+00  3.2806484E+01
 4.2147503E+00  3.2951820E+01
 4.2262502E+00  3.3047951E+01
 4.2377501E+00  3.2950367E+01
 4.2492504E+00  3.2897625E+01
 4.2607503E+00  3.2815159E+01
 4.2722502E+00  3.2666973E+01
 4.2837501E+00  3.2574879E+01
 4.2952504E+00  3.2348610E+01
 4.3067503E+00  3.2303917E+01
 4.3182502E+00  3.2183243E+01
 4.3297501E+00  3.2101711E+01
 4.3412504E+00  3.2164970E+01
 4.3527503E+00  3.2367775E+01
 4.3642502E+00  3.2486034E+01
 4.3757501E+00  3.2508801E+01
 4.3872504E+00  3.2556976E+01
 4.3987503E+00  3.2613544E+01
 4.4102502E+00  3.2750114E+01
 4.4217501E+00  3.2802231E+01
 4.4332504E+00  3.2834099E+01
 4.4447503E+00  3.2788479E+01
 4.4562502E+00  3.2685551E+01
 4.4677501E+00  3.2670425E+01
 4.4792504E+00  3.2732136E+01
 4.4907503E+00  3.2749046E+01
 4.5022502E+00  3.2759068E+01
 4.5137501E+00  3.2579254E+01
 4.5252504E+00  3.2508179E+01
 4.5367503E+00  3.2333683E+01
 4.5482502E+00  3.2413757E+01
 4.5597501E+00  3.2347218E+01
 4.5712504E+00  3.2518551E+01
 4.5827503E+00  3.2593395E+01
 4.5942502E+00  3.2862679E+01
 4.6057501E+00  3.2815956E+01
 4.6172504E+00  3.2875515E+01
 4.6287503E+00  3.2764400E+01
 4.6402502E+00  3.2846733E+01
 4.6517501E+00  3.2870796E+01
 4.6632504E+00  3.2899754E+01
 4.6747503E+00  3.2955395E+01
 4.6862502E+00  3.2800720E+01
 4.6977501E+00  3.2737892E+01
 4.7092505E+00  3.2557610E+01
 4.7207503E+00  3.2311947E+01
 4.7322502E+00  3.2172165E+01
 4.7437501E+00  3.2019463E+01
 4.7552505E+00  3.2033245E+01
 4.7667503E+00  3.2213394E+01
 4.7782502E+00  3.2259148E+01
 4.7897501E+00  3.2382935E+01
 4.8012505E+00  3.2358410E+01
 4.8127503E+00  3.2455715E+01
 4.8242502E+00  3.2540539E+01
 4.8357501E+00  3.2615559E+01
 4.8472505E+00  3.2620857E+01
 4.8587503E+00  3.2767532E+01
 4.8702502E+00  3.2754028E+01
 4.8817501E+00  3.2792053E+01
 4.8932505E+00  3.2682156E+01
 4.9047503E+00  3.2617252E+01
 4.9162502E+00  3.2684193E+01
 4.9277501E+00  3.2779648E+01
 4.9392505E+00  3.2822098E+01
 4.9507504E+00  3.2931698E+01
 4.9622502E+00  3.2890717E+01
 4.9737501E+00  3.2926231E+01
 4.9852505E+00  3.2843029E+01
 4.9967504E+00  3.2830883E+01
 5.0082502E+00  3.2879105E+01
 5.0197501E+00  3.2917458E+01
 5.0312505E+00  3.3048912E+01
 5.0427504E+00  3.3189140E+01
 5.0542502E+00  3.3293613E+01
 5.0657501E+00  3.3327854E+01
 5.0772505E+00  3.3360504E+01
 5.0887504E+00  3.3437645E+01
 5.1002502E+00  3.3522324E+01
 5.1117501E+00  3.3585293E+01
 5.1232505E+00  3.3568314E+01
 5.1347504E+00  3.3681225E+01
 5.1462502E+00  3.3726543E+01
 5.1577501E+00  3.3934349E+01
 5.1692505E+00  3.3936943E+01
 5.1807504E+00  3.3892334E+01
 5.1922503E+00  3.3772198E+01
 5.2037501E+00  3.3734146E+01
 5.2152505E+00  3.3807175E+01
 5.2267504E+00  3.3847160E+01
 5.2382503E+00  3.3863136E+01
 5.2497501E+00  3.4023907E+01
 5.2612505E+00  3.4106483E+01
 5.2727504E+00  3.4299076E+01
 5.2842503E+00  3.4330860E+01
 5.2957501E+00  3.4358566E+01
 5.3072500E+00  3.4223751E+01
 5.3187504E+00  3.4162727E+01
 5.3302503E+00  3.4104427E+01
 5.3417501E+00  3.4043781E+01
 5.3532500E+00  3.4093246E+01
 5.3647504E+00  3.4112228E+01
 5.3762503E+00  3.4282936E+01
 5.3877501E+00  3.4343788E+01
 5.3992500E+00  3.4402424E+01
 5.4107504E+00  3.4469406E+01
 5.4222503E+00  3.4582352E+01
 5.4337502E+00  3.4539734E+01
 5.4452500E+00  3.4628986E+01
 5.4567504E+00  3.4466728E+01
 5.4682503E+00  3.4529812E+01
 5.4797502E+00  3.4392838E+01
 5.4912500E+00  3.4411549E+01
 5.5027504E+00  3.4447163E+01
 5.5142503E+00  3.4470840E+01
 5.5257502E+00  3.4423233E+01
 5.5372500E+00  3.4411072E+01
 5.5487504E+00  3.4589603E+01
 5.5602503E+00  3.4682468E+01
 5.5717502E+00  3.4863632E+01
 5.5832500E+00  3.4801540E+01
 5.5947504E+00  3.4907784E+01
 5.6062503E+00  3.4899830E+01
 5.6177502E+00  3.5025944E+01
 5.6292500E+00  3.5010365E+01
 5.6407504E+00  3.5079918E+01
 5.6522503E+00  3.5144405E+01
 5.6637502E+00  3.5286930E+01
 5.6752501E+00  3.5308937E+01
 5.6867504E+00  3.5331558E+01
 5.6982503E+00  3.5197983E+01
 5.7097502E+00  3.5131756E+01
 5.7212501E+00  3.5019577E+01
 5.7327504E+00  3.5067043E+01
 5.7442503E+00  3.5149456E+01
 5.7557502E+00  3.5137028E+01
 5.7672501E+00  3.5259750E+01
 5.7787504E+00  3.5286232E+01
 5.7902503E+00  3.5479744E+01
 5.8017502E+00  3.5544224E+01
 5.8132501E+00  3.5654797E+01
 5.8247504E+00  3.5670258E+01
 5.8362503E+00  3.5696224E+01
 5.8477502E+00  3.5742626E+01
 5.8592501E+00  3.5773739E+01
 5.8707504E+00  3.5916264E+01
 5.8822503E+00  3.6032173E+01
 5.8937502E+00  3.6285774E+01
 5.9052501E+00  3.6422493E+01
 5.9167504E+00  3.6580082E+01
 5.9282503E+00  3.6925842E+01
 5.9397502E+00  3.7338394E+01
 5.9512501E+00  3.8189327E+01
 5.9627504E+00  3.8720955E+01
 5.9742503E+00  3.9482090E+01
 5.9857502E+00  3.9502777E+01
 5.9972501E+00  3.9531013E+01
 6.0087504E+00  3.8771286E+01
 6.0202503E+00  3.8296921E+01
 6.0317502E+00  3.7562576E+01
 6.0432501E+00  3.7207264E+01
 6.0547504E+00  3.6746975E+01
 6.0662503E+00  3.6637890E+01
 6.0777502E+00  3.6549038E+01
 6.0892501E+00  3.6624489E+01
 6.1007504E+00  3.6578442E+01
 6.1122503E+00  3.6590431E+01
 6.1237502E+00  3.6495392E+01
 6.1352501E+00  3.6399990E+01
 6.1467505E+00  3.6304951E+01
 6.1582503E+00  3.6452656E+01
 6.1697502E+00  3.6629150E+01
 6.1812501E+00  3.6794678E+01
 6.1927505E+00  3.6901775E+01
 6.2042503E+00  3.6918880E+01
 6.2157502E+00  3.7017494E+01
 6.2272501E+00  3.6935909E+01
 6.2387505E+00  3.6916153E+01
 6.2502503E+00  3.6901615E+01
 6.2617502E+00  3.7008495E+01
 6.2732501E+00  3.7280594E+01
 6.2847505E+00  3.7494106E+01
 6.2962503E+00  3.7735443E+01
 6.3077502E+00  3.7737583E+01
 6.3192501E+00  3.7807728E+01
 6.3307505E+00  3.7877712E+01
 6.3422503E+00  3.8035011E+01
 6.3537502E+00  3.8077091E+01
 6.3652501E+00  3.8085251E+01
 6.3767505E+00  3.8133911E+01
 6.3882504E+00  3.8235065E+01
 6.3997502E+00  3.8153839E+01
 6.4112501E+00  3.8092808E+01
 6.4227505E+00  3.8016624E+01
 6.4342504E+00  3.8061527E+01
 6.4457502E+00  3.8088383E+01
 6.4572501E+00  3.8136936E+01
 6.4687505E+00  3.8301983E+01
 6.4802504E+00  3.8443779E+01
 6.4917502E+00  3.8705994E+01
 6.5032501E+00  3.8877090E+01
 6.5147505E+00  3.9182972E+01
 6.5262504E+00  3.9257210E+01
 6.5377502E+00  3.9310104E+01
 6.5492501E+00  3.9306000E+01
 6.5607505E+00  3.9403034E+01
 6.5722504E+00  3.9486446E+01
 6.5837502E+00  3.9476486E+01
 6.5952501E+00  3.9534866E+01
 6.6067505E+00  3.9613918E+01
 6.6182504E+00  3.9674606E+01
 6.6297503E+00  3.9635208E+01
 6.6412501E+00  3.9646820E+01
 6.6527505E+00  3.9695587E+01
 6.6642504E+00  3.9881168E+01
 6.6757503E+00  3.9962589E+01
 6.6872501E+00  4.0096092E+01
 6.6987505E+00  4.0095695E+01
 6.7102504E+00  4.0187691E+01
 6.7217503E+00  4.0315750E+01
 6.7332501E+00  4.0420471E+01
 6.7447505E+00  4.0497478E+01
 6.7562504E+00  4.0636265E+01
 6.7677503E+00  4.0657887E+01
 6.7792501E+00  4.0745392E+01
 6.7907505E+00  4.0732346E+01
 6.8022504E+00  4.0814671E+01
 6.8137503E+00  4.0946251E+01
 6.8252501E+00  4.1030537E+01
 6.8367505E+00  4.1183754E+01
 6.8482504E+00  4.1346592E+01
 6.8597503E+00  4.1503117E+01
 6.8712502E+00  4.1591347E+01
 6.8827505E+00  4.1640244E+01
 6.8942504E+00  4.1637264E+01
 6.9057503E+00  4.1605865E+01
 6.9172502E+00  4.1561073E+01
 6.9287505E+00  4.1437061E+01
 6.9402504E+00  4.1510509E+01
 6.9517503E+00  4.1498379E+01
 6.9632502E+00  4.1617672E+01
 6.9747505E+00  4.1708298E+01
 6.9862504E+00  4.1900711E+01
 6.9977503E+00  4.1961647E+01
 7.0092502E+00  4.1985325E+01
 7.0207505E+00  4.2053650E+01
 7.0322504E+00  4.2195301E+01
 7.0437503E+00  4.2277050E+01
 7.0552502E+00  4.2243584E+01
 7.0667505E+00  4.2292152E+01
 7.0782504E+00  4.2319107E+01
 7.0897503E+00  4.2399639E+01
 7.1012502E+00  4.2423908E+01
 7.1127505E+00  4.2643089E+01
 7.1242504E+00  4.2777733E+01
 7.1357503E+00  4.2859798E+01
 7.1472502E+00  4.2801975E+01
 7.1587505E+00  4.2809746E+01
 7.1702504E+00  4.2885860E+01
 7.1817503E+00  4.2952030E+01
 7.1932502E+00  4.3022282E+01
 7.2047505E+00  4.3118145E+01
 7.2162504E+00  4.3200123E+01
 7.2277503E+00  4.3271091E+01
 7.2392502E+00  4.3297588E+01
 7.2507505E+00  4.3347843E+01
 7.2622504E+00  4.3362728E+01
 7.2737503E+00  4.3385151E+01
 7.2852502E+00  4.3286663E+01
 7.2967505E+00  4.3233185E+01
 7.3082504E+00  4.3193668E+01
 7.3197503E+00  4.3246769E+01
 7.3312502E+00  4.3336311E+01
 7.3427505E+00  4.3437389E+01
 7.3542504E+00  4.3559311E+01
 7.3657503E+00  4.3560425E+01
 7.3772502E+00  4.3565659E+01
 7.3887506E+00  4.3544662E+01
 7.4002504E+00  4.3577309E+01
 7.4117503E+00  4.3586929E+01
 7.4232502E+00  4.3563152E+01
 7.4347506E+00  4.3592377E+01
 7.4462504E+00  4.3667477E+01
 7.4577503E+00  4.3688766E+01
 7.4692502E+00  4.3743153E+01
 7.4807506E+00  4.3838947E+01
 7.4922504E+00  4.3954056E+01
 7.5037503E+00  4.4102459E+01
 7.5152502E+00  4.4043179E+01
 7.5267506E+00  4.4107616E+01
 7.5382504E+00  4.4076759E+01
 7.5497503E+00  4.3979187E+01
 7.5612502E+00  4.3991684E+01
 7.5727506E+00  4.3972038E+01
 7.5842505E+00  4.4078808E+01
 7.5957503E+00  4.4118565E+01
 7.6072502E+00  4.4183212E+01
 7.6187506E+00  4.4243736E+01
 7.6302505E+00  4.4215855E+01
 7.6417503E+00  4.4218178E+01
 7.6532502E+00  4.4182480E+01
 7.6647506E+00  4.4135872E+01
 7.6762505E+00  4.4048828E+01
 7.6877503E+00  4.4019051E+01
 7.6992502E+00  4.3931870E+01
 7.7107506E+00  4.3936577E+01
 7.7222505E+00  4.3879814E+01
 7.7337503E+00  4.3938705E+01
 7.7452502E+00  4.3925468E+01
 7.7567506E+00  4.4002533E+01
 7.7682505E+00  4.3998608E+01
 7.7797503E+00  4.3969463E+01
 7.7912502E+00  4.3970985E+01
 7.8027506E+00  4.3903133E+01
 7.8142505E+00  4.3908638E+01
 7.8257504E+00  4.3926659E+01
 7.8372502E+00  4.4002369E+01
 7.8487506E+00  4.4096161E+01
 7.8602505E+00  4.4044483E+01
 7.8717504E+00  4.3950874E+01
 7.8832502E+00  4.3779163E+01
 7.8947506E+00  4.3558952E+01
 7.9062505E+00  4.3495476E+01
 7.9177504E+00  4.3390240E+01
 7.9292502E+00  4.3337475E+01
 7.9407506E+00  4.3158882E+01
 7.9522505E+00  4.2994541E+01
 7.9637504E+00  4.2939667E+01
 7.9752502E+00  4.2879932E+01
 7.9867506E+00  4.2977993E+01
 7.9982505E+00  4.3031685E+01
 8.0097504E+00  4.3179478E+01
 8.0212507E+00  4.3268230E+01
 8.0327501E+00  4.3312737E+01
 8.0442505E+00  4.3266045E+01
 8.0557508E+00  4.3068142E+01
 8.0672503E+00  4.2840481E+01
 8.0787506E+00  4.2620674E+01
 8.0902500E+00  4.2440216E+01
 8.1017504E+00  4.2384979E+01
 8.1132507E+00  4.2404106E+01
 8.1247501E+00  4.2357487E+01
 8.1362505E+00  4.2266678E+01
 8.1477509E+00  4.2059673E+01
 8.1592503E+00  4.1978561E+01
 8.1707506E+00  4.1843266E+01
 8.1822500E+00  4.1761642E+01
 8.1937504E+00  4.1618111E+01
 8.2052507E+00  4.1407848E+01
 8.2167501E+00  4.1194027E+01
 8.2282505E+00  4.1024403E+01
 8.2397509E+00  4.0841427E+01
 8.2512503E+00  4.0762985E+01
 8.2627506E+00  4.0641266E+01
 8.2742500E+00  4.0600163E+01
 8.2857504E+00  4.0381466E+01
 8.2972507E+00  4.0195827E+01
 8.3087502E+00  4.0029930E+01
 8.3202505E+00  3.9954380E+01
 8.3317509E+00  3.9928452E+01
 8.3432503E+00  3.9909962E+01
 8.3547506E+00  3.9888741E+01
 8.3662500E+00  3.9822910E+01
 8.3777504E+00  3.9668362E+01
 8.3892508E+00  3.9475742E+01
 8.4007502E+00  3.9285831E+01
 8.4122505E+00  3.9103848E+01
 8.4237509E+00  3.8822006E+01
 8.4352503E+00  3.8538246E+01
 8.4467506E+00  3.8276154E+01
 8.4582500E+00  3.8050629E+01
 8.4697504E+00  3.7901569E+01
 8.4812508E+00  3.7729755E+01
 8.4927502E+00  3.7679871E+01
 8.5042505E+00  3.7498646E+01
 8.5157509E+00  3.7321651E+01
 8.5272503E+00  3.7124386E+01
 8.5387506E+00  3.6993870E+01
 8.5502501E+00  3.6858841E+01
 8.5617504E+00  3.6734810E+01
 8.5732508E+00  3.6623741E+01
 8.5847502E+00  3.6430340E+01
 8.5962505E+00  3.6227581E+01
 8.6077509E+00  3.6016342E+01
 8.6192503E+00  3.5861004E+01
 8.6307507E+00  3.5763321E+01
 8.6422501E+00  3.5611877E+01
 8.6537504E+00  3.5489059E+01
 8.6652508E+00  3.5269245E+01
 8.6767502E+00  3.5049770E+01
 8.6882505E+00  3.4879246E+01
 8.6997509E+00  3.4735367E+01
 8.7112503E+00  3.4458961E+01
 8.7227507E+00  3.4234833E+01
 8.7342501E+00  3.3950901E+01
 8.7457504E+00  3.3720165E+01
 8.7572508E+00  3.3574627E+01
 8.7687502E+00  3.3452259E+01
 8.7802505E+00  3.3433056E+01
 8.7917500E+00  3.3227497E+01
 8.8032503E+00  3.3028744E+01
 8.8147507E+00  3.2858776E+01
 8.8262501E+00  3.2640049E+01
 8.8377504E+00  3.2519638E+01
 8.8492508E+00  3.2276730E+01
 8.8607502E+00  3.2158543E+01
 8.8722506E+00  3.2063923E+01
 8.8837500E+00  3.2015186E+01
 8.8952503E+00  3.1872952E+01
 8.9067507E+00  3.1748867E+01
 8.9182501E+00  3.1632282E+01
 8.9297504E+00  3.1532743E+01
 8.9412508E+00  3.1367847E+01
 8.9527502E+00  3.1152842E+01
 8.9642506E+00  3.1001488E+01
 8.9757500E+00  3.0782906E+01
 8.9872503E+00  3.0641342E+01
 8.9987507E+00  3.0394058E+01
 9.0102501E+00  3.0204651E+01
 9.0217505E+00  2.9999359E+01
 9.0332508E+00  2.9933830E+01
 9.0447502E+00  2.9770237E+01
 9.0562506E+00  2.9657980E+01
 9.0677500E+00  2.9509132E+01
 9.0792503E+00  2.9476616E+01
 9.0907507E+00  2.9298803E+01
 9.1022501E+00  2.9127886E+01
 9.1137505E+00  2.8974457E+01
 9.1252508E+00  2.8908304E+01
 9.1367502E+00  2.8799227E+01
 9.1482506E+00  2.8670986E+01
 9.1597500E+00  2.8531172E+01
 9.1712503E+00  2.8451468E+01
 9.1827507E+00  2.8377897E+01
 9.1942501E+00  2.8353910E+01
 9.2057505E+00  2.8213974E+01
 9.2172508E+00  2.8124548E+01
 9.2287502E+00  2.7916851E+01
 9.2402506E+00  2.7847359E+01
 9.2517500E+00  2.7764893E+01
 9.2632504E+00  2.7690329E+01
 9.2747507E+00  2.7619289E+01
 9.2862501E+00  2.7447329E+01
 9.2977505E+00  2.7378174E+01
 9.3092508E+00  2.7300961E+01
 9.3207502E+00  2.7291290E+01
 9.3322506E+00  2.7180941E+01
 9.3437500E+00  2.7042873E+01
 9.3552504E+00  2.6894760E+01
 9.3667507E+00  2.6784071E+01
 9.3782501E+00  2.6701473E+01
 9.3897505E+00  2.6583935E+01
 9.4012508E+00  2.6573406E+01
 9.4127502E+00  2.6465769E+01
 9.4242506E+00  2.6404406E+01
 9.4357500E+00  2.6278135E+01
 9.4472504E+00  2.6203831E+01
 9.4587507E+00  2.6120724E+01
 9.4702501E+00  2.6059269E+01
 9.4817505E+00  2.6001589E+01
 9.4932508E+00  2.5954798E+01
 9.5047503E+00  2.5859108E+01
 9.5162506E+00  2.5863785E+01
 9.5277500E+00  2.5811148E+01
 9.5392504E+00  2.5792459E+01
 9.5507507E+00  2.5711296E+01
 9.5622501E+00  2.5623936E+01
 9.5737505E+00  2.5505976E+01
 9.5852509E+00  2.5411392E+01
 9.5967503E+00  2.5403526E+01
 9.6082506E+00  2.5408728E+01
 9.6197500E+00  2.5395473E+01
 9.6312504E+00  2.5355669E+01
 9.6427507E+00  2.5281633E+01
 9.6542501E+00  2.5162426E+01
 9.6657505E+00  2.5002525E+01
 9.6772509E+00  2.4918470E+01
 9.6887503E+00  2.4865082E+01
 9.7002506E+00  2.4887508E+01
 9.7117500E+00  2.4920105E+01
 9.7232504E+00  2.4987711E+01
 9.7347507E+00  2.4993723E+01
 9.7462502E+00  2.4937170E+01
 9.7577505E+00  2.4784575E+01
 9.7692509E+00  2.4667990E+01
 9.7807503E+00  2.4508696E+01
 9.7922506E+00  2.4430721E+01
 9.8037500E+00  2.4356539E+01
 9.8152504E+00  2.4332113E+01
 9.8267508E+00  2.4270201E+01
 9.8382502E+00  2.4240345E+01
 9.8497505E+00  2.4214781E+01
 9.8612509E+00  2.4201260E+01
 9.8727503E+00  2.4213459E+01
 9.8842506E+00  2.4195766E+01
 9.8957500E+00  2.4215744E+01
 9.9072504E+00  2.4162218E+01
 9.9187508E+00  2.4064775E+01
 9.9302502E+00  2.3974960E+01
 9.9417505E+00  2.3912626E+01
 9.9532509E+00  2.3920654E+01
 9.9647503E+00  2.3924440E+01
 9.9762506E+00  2.3915886E+01
 9.9877501E+00  2.3904652E+01
 9.9992504E+00  2.3876162E+01
 1.0010751E+01  2.3857357E+01
 1.0022250E+01  2.3823925E+01
 1.0033751E+01  2.3839285E+01
 1.0045251E+01  2.3831335E+01
 1.0056750E+01  2.3776878E+01
 1.0068251E+01  2.3816166E+01
 1.0079750E+01  2.4109169E+01
 1.0091250E+01  2.4251648E+01
 1.0102751E+01  2.4441946E+01
 1.0114250E+01  2.4409960E+01
 1.0125751E+01  2.4392790E+01
 1.0137251E+01  2.4212816E+01
 1.0148750E+01  2.3922556E+01
 1.0160251E+01  2.3754353E+01
 1.0171750E+01  2.3570778E+01
 1.0183250E+01  2.3453239E+01
 1.0194751E+01  2.3437107E+01
 1.0206250E+01  2.3429455E+01
 1.0217751E+01  2.3382965E+01
 1.0229251E+01  2.3312117E+01
 1.0240750E+01  2.3228642E+01
 1.0252251E+01  2.3214794E+01
 1.0263750E+01  2.3259809E+01
 1.0275250E+01  2.3304375E+01
 1.0286751E+01  2.3332546E+01
 1.0298250E+01  2.3286228E+01
 1.0309751E+01  2.3244919E+01
 1.0321251E+01  2.3156132E+01
 1.0332750E+01  2.3088356E+01
 1.0344251E+01  2.3005131E+01
 1.0355750E+01  2.2934179E+01
 1.0367250E+01  2.2852726E+01
 1.0378751E+01  2.2849714E+01
 1.0390250E+01  2.2867550E+01
 1.0401751E+01  2.2885960E+01
 1.0413251E+01  2.2851086E+01
 1.0424750E+01  2.2856686E+01
 1.0436251E+01  2.2823204E+01
 1.0447750E+01  2.2804016E+01
 1.0459250E+01  2.2751982E+01
 1.0470751E+01  2.2755856E+01
 1.0482250E+01  2.2790747E+01
 1.0493751E+01  2.2832794E+01
 1.0505251E+01  2.2826933E+01
 1.0516750E+01  2.2867350E+01
 1.0528251E+01  2.2846859E+01
 1.0539750E+01  2.2868689E+01
 1.0551250E+01  2.2844452E+01
 1.0562751E+01  2.2819601E+01
 1.0574250E+01  2.2757042E+01
 1.0585751E+01  2.2631725E+01
 1.0597251E+01  2.2590454E+01
 1.0608750E+01  2.2593504E+01
 1.0620251E+01  2.2648348E+01
 1.0631750E+01  2.2670975E+01
 1.0643250E+01  2.2660959E+01
 1.0654751E+01  2.2646528E+01
 1.0666250E+01  2.2577362E+01
 1.0677751E+01  2.2557440E+01
 1.0689251E+01  2.2516409E+01
 1.0700750E+01  2.2534359E+01
 1.0712251E+01  2.2535423E+01
 1.0723750E+01  2.2492001E+01
 1.0735250E+01  2.2445850E+01
 1.0746751E+01  2.2355761E+01
 1.0758250E+01  2.2290970E+01
 1.0769751E+01  2.2288820E+01
 1.0781251E+01  2.2332188E+01
 1.0792750E+01  2.2375301E+01
 1.0804251E+01  2.2387947E+01
 1.0815750E+01  2.2377701E+01
 1.0827250E+01  2.2372852E+01
 1.0838751E+01  2.2267574E+01
 1.0850250E+01  2.2211727E+01
 1.0861751E+01  2.2160519E+01
 1.0873251E+01  2.2215595E+01
 1.0884750E+01  2.2205770E+01
 1.0896251E+01  2.2219078E+01
 1.0907750E+01  2.2240578E+01
 1.0919250E+01  2.2240156E+01
 1.0930751E+01  2.2243412E+01
 1.0942250E+01  2.2216421E+01
 1.0953751E+01  2.2175770E+01
 1.0965251E+01  2.2150110E+01
 1.0976750E+01  2.2141733E+01
 1.0988251E+01  2.2140875E+01
 1.0999750E+01  2.2126764E+01
 1.1011250E+01  2.2139332E+01
 1.1022751E+01  2.2189075E+01
 1.1034250E+01  2.2280178E+01
 1.1045751E+01  2.2286753E+01
 1.1057251E+01  2.2281076E+01
 1.1068750E+01  2.2259914E+01
 1.1080251E+01  2.2284105E+01
 1.1091750E+01  2.2314083E+01
 1.1103251E+01  2.2318027E+01
 1.1114751E+01  2.2339354E+01
 1.1126250E+01  2.2308260E+01
 1.1137751E+01  2.2209036E+01
 1.1149251E+01  2.2173132E+01
 1.1160750E+01  2.2170406E+01
 1.1172251E+01  2.2215900E+01
 1.1183750E+01  2.2178360E+01
 1.1195251E+01  2.2148775E+01
 1.1206751E+01  2.2121393E+01
 1.1218250E+01  2.2078415E+01
 1.1229751E+01  2.2062906E+01
 1.1241251E+01  2.2105444E+01
 1.1252750E+01  2.2120073E+01
 1.1264251E+01  2.2142756E+01
 1.1275750E+01  2.2108898E+01
 1.1287251E+01  2.2022766E+01
 1.1298751E+01  2.1979452E+01
 1.1310250E+01  2.1962400E+01
 1.1321751E+01  2.2041149E+01
 1.1333251E+01  2.2120264E+01
 1.1344750E+01  2.2181299E+01
 1.1356251E+01  2.2199266E+01
 1.1367750E+01  2.2197807E+01
 1.1379251E+01  2.2203409E+01
 1.1390751E+01  2.2261463E+01
 1.1402250E+01  2.2356438E+01
 1.1413751E+01  2.2343380E+01
 1.1425251E+01  2.2272383E+01
 1.1436750E+01  2.2185936E+01
 1.1448251E+01  2.2194786E+01
 1.1459750E+01  2.2236139E+01
 1.1471251E+01  2.2256227E+01
 1.1482751E+01  2.2253168E+01
 1.1494250E+01  2.2293234E+01
 1.1505751E+01  2.2282585E+01
 1.1517251E+01  2.2349169E+01
 1.1528750E+01  2.2465290E+01
 1.1540251E+01  2.2675842E+01
 1.1551750E+01  2.2924875E+01
 1.1563251E+01  2.3241024E+01
 1.1574751E+01  2.3493738E+01
 1.1586250E+01  2.3709131E+01
 1.1597751E+01  2.3638977E+01
 1.1609251E+01  2.3529121E+01
 1.1620750E+01  2.3177204E+01
 1.1632251E+01  2.2919537E+01
 1.1643750E+01  2.2549911E+01
 1.1655251E+01  2.2407791E+01
 1.1666751E+01  2.2208380E+01
 1.1678250E+01  2.2159777E+01
 1.1689751E+01  2.2081316E+01
 1.1701251E+01  2.2037985E+01
 1.1712750E+01  2.2026678E+01
 1.1724251E+01  2.1991417E+01
 1.1735750E+01  2.2057606E+01
 1.1747251E+01  2.2068897E+01
 1.1758751E+01  2.2088135E+01
 1.1770250E+01  2.2033167E+01
 1.1781751E+01  2.2019104E+01
 1.1793251E+01  2.2028803E+01
 1.1804750E+01  2.2072304E+01
 1.1816251E+01  2.2107288E+01
 1.1827750E+01  2.2162426E+01
 1.1839251E+01  2.2166122E+01
 1.1850751E+01  2.2163069E+01
 1.1862250E+01  2.2141106E+01
 1.1873751E+01  2.2115803E+01
 1.1885251E+01  2.2202248E+01
 1.1896750E+01  2.2204983E+01
 1.1908251E+01  2.2206120E+01
 1.1919750E+01  2.2191454E+01
 1.1931251E+01  2.2216389E+01
 1.1942751E+01  2.2283951E+01
 1.1954250E+01  2.2262672E+01
 1.1965751E+01  2.2292736E+01
 1.1977251E+01  2.2310495E+01
 1.1988750E+01  2.2280954E+01
 1.2000251E+01  2.2303541E+01
 1.2011750E+01  2.2312517E+01
 1.2023251E+01  2.2404177E+01
 1.2034751E+01  2.2437920E+01
 1.2046250E+01  2.2435749E+01
 1.2057751E+01  2.2402235E+01
 1.2069251E+01  2.2380505E+01
 1.2080750E+01  2.2488537E+01
 1.2092251E+01  2.2518967E+01
 1.2103750E+01  2.2605379E+01
 1.2115251E+01  2.2506639E+01
 1.2126751E+01  2.2499428E+01
 1.2138250E+01  2.2386686E+01
 1.2149751E+01  2.2361244E+01
 1.2161251E+01  2.2283766E+01
 1.2172750E+01  2.2213249E+01
 1.2184251E+01  2.2182755E+01
 1.2195750E+01  2.2170588E+01
 1.2207251E+01  2.2100370E+01
 1.2218751E+01  2.2053730E+01
 1.2230250E+01  2.2045563E+01
 1.2241751E+01  2.2109718E+01
 1.2253251E+01  2.2155909E+01
 1.2264750E+01  2.2169437E+01
 1.2276251E+01  2.2198484E+01
 1.2287750E+01  2.2206022E+01
 1.2299251E+01  2.2158566E+01
 1.2310751E+01  2.2157681E+01
 1.2322250E+01  2.2079630E+01
 1.2333751E+01  2.2116556E+01
 1.2345250E+01  2.2021189E+01
 1.2356750E+01  2.2010704E+01
 1.2368251E+01  2.1981709E+01
 1.2379750E+01  2.2060452E+01
 1.2391251E+01  2.2137339E+01
 1.2402751E+01  2.2135036E+01
 1.2414250E+01  2.2161983E+01
 1.2425751E+01  2.2168324E+01
 1.2437250E+01  2.2219341E+01
 1.2448750E+01  2.2231232E+01
 1.2460251E+01  2.2255569E+01
 1.2471750E+01  2.2304560E+01
 1.2483251E+01  2.2378641E+01
 1.2494751E+01  2.2423695E+01
 1.2506250E+01  2.2402603E+01
 1.2517751E+01  2.2311695E+01
 1.2529250E+01  2.2311558E+01
 1.2540751E+01  2.2321959E+01
 1.2552251E+01  2.2377918E+01
 1.2563750E+01  2.2388939E+01
 1.2575251E+01  2.2388922E+01
 1.2586751E+01  2.2330624E+01
 1.2598250E+01  2.2270082E+01
 1.2609751E+01  2.2256311E+01
 1.2621250E+01  2.2254982E+01
 1.2632751E+01  2.2289402E+01
 1.2644251E+01  2.2277365E+01
 1.2655750E+01  2.2309092E+01
 1.2667251E+01  2.2293507E+01
 1.2678751E+01  2.2353128E+01
 1.2690250E+01  2.2394684E+01
 1.2701751E+01  2.2466885E+01
 1.2713250E+01  2.2556038E+01
 1.2724751E+01  2.2592787E+01
 1.2736251E+01  2.2600544E+01
 1.2747750E+01  2.2582001E+01
 1.2759251E+01  2.2595684E+01
 1.2770751E+01  2.2643375E+01
 1.2782250E+01  2.2687050E+01
 1.2793751E+01  2.2737957E+01
 1.2805250E+01  2.2746735E+01
 1.2816751E+01  2.2800936E+01
 1.2828251E+01  2.2849169E+01
 1.2839750E+01  2.2893980E+01
 1.2851251E+01  2.2954794E+01
 1.2862751E+01  2.2983017E+01
 1.2874250E+01  2.3056036E+01
 1.2885751E+01  2.3062439E+01
 1.2897250E+01  2.3115877E+01
 1.2908751E+01  2.3142332E+01
 1.2920251E+01  2.3156130E+01
 1.2931750E+01  2.3218958E+01
 1.2943251E+01  2.3269100E+01
 1.2954751E+01  2.3356533E+01
 1.2966250E+01  2.3368402E+01
 1.2977751E+01  2.3458261E+01
 1.2989250E+01  2.3450220E+01
 1.3000751E+01  2.3552254E+01
 1.3012251E+01  2.3621931E+01
 1.3023750E+01  2.3733364E+01
 1.3035251E+01  2.3824270E+01
 1.3046751E+01  2.3888567E+01
 1.3058250E+01  2.4025587E+01
 1.3069751E+01  2.4063133E+01
 1.3081250E+01  2.4162796E+01
 1.3092751E+01  2.4210434E+01
 1.3104251E+01  2.4368546E+01
 1.3115750E+01  2.4493784E+01
 1.3127251E+01  2.4607807E+01
 1.3138751E+01  2.4658291E+01
 1.3150250E+01  2.4735275E+01
 1.3161751E+01  2.4806206E+01
 1.3173250E+01  2.4944197E+01
 1.3184751E+01  2.5012049E+01
 1.3196251E+01  2.5151762E+01
 1.3207750E+01  2.5259090E+01
 1.3219251E+01  2.5475811E+01
 1.3230751E+01  2.5650181E+01
 1.3242250E+01  2.5818859E+01
 1.3253751E+01  2.5941656E+01
 1.3265250E+01  2.6074131E+01
 1.3276751E+01  2.6244974E+01
 1.3288251E+01  2.6367516E+01
 1.3299750E+01  2.6539434E+01
 1.3311251E+01  2.6580679E+01
 1.3322751E+01  2.6717634E+01
 1.3334250E+01  2.6844759E+01
 1.3345751E+01  2.6988796E+01
 1.3357250E+01  2.7104145E+01
 1.3368751E+01  2.7207952E+01
 1.3380251E+01  2.7403839E+01
 1.3391750E+01  2.7533945E+01
 1.3403251E+01  2.7675867E+01
 1.3414751E+01  2.7808958E+01
 1.3426250E+01  2.7923777E+01
 1.3437751E+01  2.8045591E+01
 1.3449250E+01  2.8149622E+01
 1.3460751E+01  2.8349060E+01
 1.3472251E+01  2.8527103E+01
 1.3483750E+01  2.8720743E+01
 1.3495251E+01  2.8834217E+01
 1.3506751E+01  2.8929708E+01
 1.3518250E+01  2.8969969E+01
 1.3529751E+01  2.8992186E+01
 1.3541250E+01  2.9025539E+01
 1.3552751E+01  2.9059702E+01
 1.3564251E+01  2.9135124E+01
 1.3575750E+01  2.9169962E+01
 1.3587251E+01  2.9195133E+01
 1.3598751E+01  2.9219725E+01
 1.3610250E+01  2.9183352E+01
 1.3621751E+01  2.9214245E+01
 1.3633250E+01  2.9217920E+01
 1.3644751E+01  2.9257690E+01
 1.3656251E+01  2.9287422E+01
 1.3667750E+01  2.9343287E+01
 1.3679251E+01  2.9333744E+01
 1.3690751E+01  2.9247620E+01
 1.3702250E+01  2.9145922E+01
 1.3713751E+01  2.9080334E+01
 1.3725250E+01  2.9070814E+01
 1.3736751E+01  2.9050562E+01
 1.3748251E+01  2.9093908E+01
 1.3759750E+01  2.9049755E+01
 1.3771251E+01  2.8982498E+01
 1.3782751E+01  2.8848272E+01
 1.3794250E+01  2.8736940E+01
 1.3805751E+01  2.8693359E+01
 1.3817250E+01  2.8671484E+01
 1.3828751E+01  2.8678308E+01
 1.3840251E+01  2.8681660E+01
 1.3851750E+01  2.8759233E+01
 1.3863251E+01  2.8897797E+01
 1.3874751E+01  2.9130407E+01
 1.3886250E+01  2.9412416E+01
 1.3897751E+01  2.9982527E+01
 1.3909250E+01  3.0644402E+01
 1.3920751E+01  3.1482077E+01
 1.3932251E+01  3.2331894E+01
 1.3943750E+01  3.2997036E+01
 1.3955251E+01  3.3213791E+01
 1.3966751E+01  3.3156414E+01
 1.3978251E+01  3.2619507E+01
 1.3989751E+01  3.1802431E+01
 1.4001250E+01  3.0764425E+01
 1.4012751E+01  2.9773485E+01
 1.4024251E+01  2.9025351E+01
 1.4035750E+01  2.8249125E+01
 1.4047251E+01  2.7866892E+01
 1.4058751E+01  2.7554632E+01
 1.4070251E+01  2.7328814E+01
 1.4081751E+01  2.7187445E+01
 1.4093250E+01  2.7109713E+01
 1.4104751E+01  2.7038445E+01
 1.4116251E+01  2.6930813E+01
 1.4127750E+01  2.6855392E+01
 1.4139251E+01  2.6822147E+01
 1.4150751E+01  2.6723999E+01
 1.4162251E+01  2.6671471E+01
 1.4173751E+01  2.6554220E+01
 1.4185250E+01  2.6548296E+01
 1.4196751E+01  2.6474899E+01
 1.4208251E+01  2.6432627E+01
 1.4219750E+01  2.6320021E+01
 1.4231251E+01  2.6217531E+01
 1.4242751E+01  2.6114603E+01
 1.4254251E+01  2.6051569E+01
 1.4265751E+01  2.6031582E+01
 1.4277250E+01  2.6017437E+01
 1.4288751E+01  2.6052052E+01
 1.4300251E+01  2.6009333E+01
 1.4311750E+01  2.6010448E+01
 1.4323251E+01  2.5978374E+01
 1.4334751E+01  2.5924538E+01
 1.4346251E+01  2.5937103E+01
 1.4357751E+01  2.5883118E+01
 1.4369250E+01  2.5892336E+01
 1.4380751E+01  2.5840473E+01
 1.4392251E+01  2.5805222E+01
 1.4403750E+01  2.5768387E+01
 1.4415251E+01  2.5703310E+01
 1.4426751E+01  2.5632603E+01
 1.4438251E+01  2.5569214E+01
 1.4449751E+01  2.5485466E+01
 1.4461250E+01  2.5436609E+01
 1.4472751E+01  2.5344944E+01
 1.4484251E+01  2.5336708E+01
 1.4495750E+01  2.5303772E+01
 1.4507251E+01  2.5322477E+01
 1.4518751E+01  2.5259581E+01
 1.4530251E+01  2.5214128E+01
 1.4541751E+01  2.5199760E+01
 1.4553250E+01  2.5199575E+01
 1.4564751E+01  2.5183544E+01
 1.4576251E+01  2.5086750E+01
 1.4587750E+01  2.5015615E+01
 1.4599251E+01  2.4966797E+01
 1.4610751E+01  2.4935638E+01
 1.4622251E+01  2.4944698E+01
 1.4633751E+01  2.4887486E+01
 1.4645250E+01  2.4864040E+01
 1.4656751E+01  2.4758507E+01
 1.4668251E+01  2.4753473E+01
 1.4679750E+01  2.4741693E+01
 1.4691251E+01  2.4758461E+01
 1.4702751E+01  2.4740158E+01
 1.4714251E+01  2.4745949E+01
 1.4725751E+01  2.4758011E+01
 1.4737250E+01  2.4771427E+01
 1.4748751E+01  2.4784363E+01
 1.4760251E+01  2.4754204E+01
 1.4771750E+01  2.4779955E+01
 1.4783251E+01  2.4778725E+01
 1.4794751E+01  2.4815924E+01
 1.4806251E+01  2.4793497E+01
 1.4817751E+01  2.4731873E+01
 1.4829250E+01  2.4719147E+01
 1.4840751E+01  2.4690506E+01
 1.4852251E+01  2.4676895E+01
 1.4863750E+01  2.4578463E+01
 1.4875251E+01  2.4522255E+01
 1.4886751E+01  2.4469347E+01
 1.4898251E+01  2.4527727E+01
 1.4909751E+01  2.4530954E+01
 1.4921250E+01  2.4580069E+01
 1.4932751E+01  2.4551666E+01
 1.4944251E+01  2.4514313E+01
 1.4955750E+01  2.4417036E+01
 1.4967251E+01  2.4375835E+01
 1.4978751E+01  2.4370138E+01
 1.4990251E+01  2.4422440E+01
 1.5001751E+01  2.4482405E+01
 1.5013250E+01  2.4563656E+01
 1.5024751E+01  2.4589153E+01
 1.5036251E+01  2.4547047E+01
 1.5047750E+01  2.4500450E+01
 1.5059251E+01  2.4459137E+01
 1.5070751E+01  2.4439222E+01
 1.5082251E+01  2.4411715E+01
 1.5093751E+01  2.4408937E+01
 1.5105250E+01  2.4420441E+01
 1.5116751E+01  2.4450783E+01
 1.5128251E+01  2.4451056E+01
 1.5139750E+01  2.4525196E+01
 1.5151251E+01  2.4650732E+01
 1.5162751E+01  2.4767857E+01
 1.5174251E+01  2.4895451E+01
 1.5185751E+01  2.4940367E+01
 1.5197250E+01  2.4941668E+01
 1.5208751E+01  2.4880745E+01
 1.5220251E+01  2.4786694E+01
 1.5231750E+01  2.4679962E+01
 1.5243251E+01  2.4527454E+01
 1.5254751E+01  2.4465347E+01
 1.5266251E+01  2.4398195E+01
 1.5277751E+01  2.4407978E+01
 1.5289250E+01  2.4386309E+01
 1.5300751E+01  2.4361181E+01
 1.5312251E+01  2.4304605E+01
 1.5323750E+01  2.4261057E+01
 1.5335251E+01  2.4238733E+01
 1.5346751E+01  2.4196928E+01
 1.5358251E+01  2.4196795E+01
 1.5369751E+01  2.4180048E+01
 1.5381250E+01  2.4215544E+01
 1.5392751E+01  2.4228148E+01
 1.5404251E+01  2.4284477E+01
 1.5415751E+01  2.4278770E+01
 1.5427251E+01  2.4261742E+01
 1.5438751E+01  2.4212652E+01
 1.5450251E+01  2.4176630E+01
 1.5461751E+01  2.4146650E+01
 1.5473250E+01  2.4157907E+01
 1.5484751E+01  2.4193918E+01
 1.5496251E+01  2.4187973E+01
 1.5507751E+01  2.4209740E+01
 1.5519251E+01  2.4201948E+01
 1.5530751E+01  2.4166487E+01
 1.5542251E+01  2.4072638E+01
 1.5553751E+01  2.3986317E+01
 1.5565250E+01  2.4003920E+01
 1.5576751E+01  2.4062452E+01
 1.5588251E+01  2.4150957E+01
 1.5599751E+01  2.4187487E+01
 1.5611251E+01  2.4183273E+01
 1.5622751E+01  2.4174309E+01
 1.5634251E+01  2.4179731E+01
 1.5645751E+01  2.4244198E+01
 1.5657250E+01  2.4283709E+01
 1.5668751E+01  2.4264957E+01
 1.5680251E+01  2.4224794E+01
 1.5691751E+01  2.4200258E+01
 1.5703251E+01  2.4236628E+01
 1.5714751E+01  2.4256895E+01
 1.5726251E+01  2.4287340E+01
 1.5737751E+01  2.4211504E+01
 1.5749250E+01  2.4183599E+01
 1.5760751E+01  2.4155048E+01
 1.5772251E+01  2.4185705E+01
 1.5783751E+01  2.4190077E+01
 1.5795251E+01  2.4214554E+01
 1.5806751E+01  2.4247236E+01
 1.5818251E+01  2.4283497E+01
 1.5829751E+01  2.4291548E+01
 1.5841250E+01  2.4299656E+01
 1.5852751E+01  2.4343533E+01
 1.5864251E+01  2.4328733E+01
 1.5875751E+01  2.4321320E+01
 1.5887251E+01  2.4229897E+01
 1.5898750E+01  2.4230709E+01
 1.5910251E+01  2.4229465E+01
 1.5921751E+01  2.4236406E+01
 1.5933250E+01  2.4223015E+01
 1.5944751E+01  2.4182756E+01
 1.5956251E+01  2.4235331E+01
 1.5967751E+01  2.4314764E+01
 1.5979251E+01  2.4410633E+01
 1.5990750E+01  2.4447327E+01
 1.6002251E+01  2.4404312E+01
 1.6013750E+01  2.4385090E+01
 1.6025251E+01  2.4359905E+01
 1.6036751E+01  2.4404327E+01
 1.6048250E+01  2.4442732E+01
 1.6059752E+01  2.4489796E+01
 1.6071251E+01  2.4459375E+01
 1.6082750E+01  2.4493727E+01
 1.6094252E+01  2.4497883E+01
 1.6105751E+01  2.4517164E+01
 1.6117250E+01  2.4461092E+01
 1.6128750E+01  2.4401718E+01
 1.6140251E+01  2.4433279E+01
 1.6151751E+01  2.4409130E+01
 1.6163250E+01  2.4446447E+01
 1.6174751E+01  2.4384954E+01
 1.6186251E+01  2.4446865E+01
 1.6197750E+01  2.4358011E+01
 1.6209251E+01  2.4510147E+01
 1.6220751E+01  2.4472683E+01
 1.6232250E+01  2.4685291E+01
 1.6243752E+01  2.4792015E+01
 1.6255251E+01  2.4953278E+01
 1.6266750E+01  2.5081821E+01
 1.6278252E+01  2.4933037E+01
 1.6289751E+01  2.5065378E+01
 1.6301250E+01  2.4733246E+01
 1.6312750E+01  2.4842464E+01
 1.6324251E+01  2.4540417E+01
 1.6335751E+01  2.4594643E+01
 1.6347250E+01  2.4426683E+01
 1.6358751E+01  2.4389086E+01
 1.6370251E+01  2.4295057E+01
 1.6381750E+01  2.4281740E+01
 1.6393251E+01  2.4302637E+01
 1.6404751E+01  2.4317705E+01
 1.6416250E+01  2.4299389E+01
 1.6427752E+01  2.4292803E+01
 1.6439251E+01  2.4339951E+01
 1.6450750E+01  2.4331179E+01
 1.6462252E+01  2.4378660E+01
 1.6473751E+01  2.4313343E+01
 1.6485250E+01  2.4309858E+01
 1.6496750E+01  2.4240515E+01
 1.6508251E+01  2.4237747E+01
 1.6519751E+01  2.4270418E+01
 1.6531250E+01  2.4280529E+01
 1.6542751E+01  2.4319710E+01
 1.6554251E+01  2.4235304E+01
 1.6565750E+01  2.4242083E+01
 1.6577251E+01  2.4209560E+01
 1.6588751E+01  2.4259918E+01
 1.6600250E+01  2.4254166E+01
 1.6611752E+01  2.4206205E+01
 1.6623251E+01  2.4181084E+01
 1.6634750E+01  2.4155329E+01
 1.6646252E+01  2.4162199E+01
 1.6657751E+01  2.4148151E+01
 1.6669250E+01  2.4139145E+01
 1.6680750E+01  2.4110727E+01
 1.6692251E+01  2.4117134E+01
 1.6703751E+01  2.4161264E+01
 1.6715250E+01  2.4218323E+01
 1.6726751E+01  2.4252323E+01
 1.6738251E+01  2.4260275E+01
 1.6749750E+01  2.4253435E+01
 1.6761251E+01  2.4212826E+01
 1.6772751E+01  2.4194893E+01
 1.6784250E+01  2.4163700E+01
 1.6795752E+01  2.4104534E+01
 1.6807251E+01  2.4066998E+01
 1.6818750E+01  2.4045475E+01
 1.6830252E+01  2.3989777E+01
 1.6841751E+01  2.3990028E+01
 1.6853251E+01  2.3967916E+01
 1.6864750E+01  2.4006449E+01
 1.6876251E+01  2.3982935E+01
 1.6887751E+01  2.3974846E+01
 1.6899250E+01  2.3930832E+01
 1.6910751E+01  2.3900530E+01
 1.6922251E+01  2.3901865E+01
 1.6933750E+01  2.3910374E+01
 1.6945251E+01  2.3915005E+01
 1.6956751E+01  2.3894745E+01
 1.6968250E+01  2.3935057E+01
 1.6979752E+01  2.3973536E+01
 1.6991251E+01  2.4047569E+01
 1.7002750E+01  2.4051733E+01
 1.7014252E+01  2.4043705E+01
 1.7025751E+01  2.4011530E+01
 1.7037251E+01  2.3955929E+01
 1.7048750E+01  2.3927711E+01
 1.7060251E+01  2.3865887E+01
 1.7071751E+01  2.3843699E+01
 1.7083250E+01  2.3844734E+01
 1.7094751E+01  2.3854408E+01
 1.7106251E+01  2.3870022E+01
 1.7117750E+01  2.3807486E+01
 1.7129251E+01  2.3793884E+01
 1.7140751E+01  2.3772062E+01
 1.7152250E+01  2.3768835E+01
 1.7163752E+01  2.3780302E+01
 1.7175251E+01  2.3806381E+01
 1.7186750E+01  2.3845087E+01
 1.7198252E+01  2.3873814E+01
 1.7209751E+01  2.3888254E+01
 1.7221251E+01  2.3841228E+01
 1.7232750E+01  2.3755980E+01
 1.7244251E+01  2.3688723E+01
 1.7255751E+01  2.3626509E+01
 1.7267250E+01  2.3600855E+01
 1.7278751E+01  2.3602224E+01
 1.7290251E+01  2.3625147E+01
 1.7301750E+01  2.3676003E+01
 1.7313251E+01  2.3708101E+01
 1.7324751E+01  2.3771959E+01
 1.7336250E+01  2.3755749E+01
 1.7347752E+01  2.3726673E+01
 1.7359251E+01  2.3701036E+01
 1.7370750E+01  2.3658205E+01
 1.7382252E+01  2.3636932E+01
 1.7393751E+01  2.3575708E+01
 1.7405251E+01  2.3572134E+01
 1.7416750E+01  2.3548576E+01
 1.7428251E+01  2.3571997E+01
 1.7439751E+01  2.3609070E+01
 1.7451250E+01  2.3602869E+01
 1.7462751E+01  2.3593142E+01
 1.7474251E+01  2.3558882E+01
 1.7485750E+01  2.3567251E+01
 1.7497252E+01  2.3536285E+01
 1.7508751E+01  2.3507891E+01
 1.7520250E+01  2.3437822E+01
 1.7531752E+01  2.3443834E+01
 1.7543251E+01  2.3472239E+01
 1.7554750E+01  2.3522690E+01
 1.7566252E+01  2.3520067E+01
 1.7577751E+01  2.3545465E+01
 1.7589251E+01  2.3512669E+01
 1.7600750E+01  2.3464321E+01
 1.7612251E+01  2.3439770E+01
 1.7623751E+01  2.3482006E+01
 1.7635250E+01  2.3474312E+01
 1.7646751E+01  2.3453468E+01
 1.7658251E+01  2.3394106E+01
 1.7669750E+01  2.3350021E+01
 1.7681252E+01  2.3309874E+01
 1.7692751E+01  2.3341280E+01
 1.7704250E+01  2.3357384E+01
 1.7715752E+01  2.3346247E+01
 1.7727251E+01  2.3345057E+01
 1.7738750E+01  2.3349991E+01
 1.7750252E+01  2.3355207E+01
 1.7761751E+01  2.3358063E+01
 1.7773251E+01  2.3386499E+01
 1.7784750E+01  2.3387753E+01
 1.7796251E+01  2.3360548E+01
 1.7807751E+01  2.3313330E+01
 1.7819250E+01  2.3286077E+01
 1.7830751E+01  2.3235346E+01
 1.7842251E+01  2.3241404E+01
 1.7853750E+01  2.3263220E+01
 1.7865252E+01  2.3294613E+01
 1.7876751E+01  2.3307543E+01
 1.7888250E+01  2.3339708E+01
 1.7899752E+01  2.3343893E+01
 1.7911251E+01  2.3373459E+01
 1.7922750E+01  2.3393967E+01
 1.7934252E+01  2.3375408E+01
 1.7945751E+01  2.3299358E+01
 1.7957251E+01  2.3245377E+01
 1.7968750E+01  2.3236210E+01
 1.7980251E+01  2.3247477E+01
 1.7991751E+01  2.3267635E+01
 1.8003250E+01  2.3301176E+01
 1.8014751E+01  2.3325550E+01
 1.8026251E+01  2.3397114E+01
 1.8037750E+01  2.3466736E+01
 1.8049252E+01  2.3551531E+01
 1.8060751E+01  2.3621679E+01
 1.8072250E+01  2.3651960E+01
 1.8083752E+01  2.3715485E+01
 1.8095251E+01  2.3702570E+01
 1.8106750E+01  2.3750591E+01
 1.8118252E+01  2.3729435E+01
 1.8129751E+01  2.3738520E+01
 1.8141251E+01  2.3664160E+01
 1.8152750E+01  2.3594690E+01
 1.8164251E+01  2.3547132E+01
 1.8175751E+01  2.3471451E+01
 1.8187250E+01  2.3380661E+01
 1.8198751E+01  2.3311077E+01
 1.8210251E+01  2.3306267E+01
 1.8221750E+01  2.3264809E+01
 1.8233252E+01  2.3224016E+01
 1.8244751E+01  2.3207237E+01
 1.8256250E+01  2.3236469E+01
 1.8267752E+01  2.3197550E+01
 1.8279251E+01  2.3121714E+01
 1.8290751E+01  2.3101723E+01
 1.8302252E+01  2.3106634E+01
 1.8313751E+01  2.3139524E+01
 1.8325251E+01  2.3118082E+01
 1.8336750E+01  2.3149382E+01
 1.8348251E+01  2.3164410E+01
 1.8359751E+01  2.3229164E+01
 1.8371250E+01  2.3229483E+01
 1.8382751E+01  2.3212221E+01
 1.8394251E+01  2.3206724E+01
 1.8405750E+01  2.3203907E+01
 1.8417252E+01  2.3199102E+01
 1.8428751E+01  2.3180288E+01
 1.8440250E+01  2.3166225E+01
 1.8451752E+01  2.3163057E+01
 1.8463251E+01  2.3194267E+01
 1.8474751E+01  2.3243559E+01
 1.8486252E+01  2.3223232E+01
 1.8497751E+01  2.3156982E+01
 1.8509251E+01  2.3115639E+01
 1.8520750E+01  2.3104685E+01
 1.8532251E+01  2.3105564E+01
 1.8543751E+01  2.3100283E+01
 1.8555250E+01  2.3153288E+01
 1.8566751E+01  2.3146873E+01
 1.8578251E+01  2.3169661E+01
 1.8589750E+01  2.3142918E+01
 1.8601252E+01  2.3168293E+01
 1.8612751E+01  2.3157463E+01
 1.8624250E+01  2.3162199E+01
 1.8635752E+01  2.3175524E+01
 1.8647251E+01  2.3155979E+01
 1.8658751E+01  2.3139269E+01
 1.8670252E+01  2.3119854E+01
 1.8681751E+01  2.3132338E+01
 1.8693251E+01  2.3125723E+01
 1.8704750E+01  2.3137383E+01
 1.8716251E+01  2.3083290E+01
 1.8727751E+01  2.3053173E+01
 1.8739250E+01  2.3008116E+01
 1.8750751E+01  2.3049227E+01
 1.8762251E+01  2.3035105E+01
 1.8773750E+01  2.3040735E+01
 1.8785252E+01  2.3058285E+01
 1.8796751E+01  2.3108923E+01
 1.8808250E+01  2.3125189E+01
 1.8819752E+01  2.3096268E+01
 1.8831251E+01  2.3067638E+01
 1.8842751E+01  2.3053156E+01
 1.8854252E+01  2.3050360E+01
 1.8865751E+01  2.3053238E+01
 1.8877251E+01  2.3047569E+01
 1.8888750E+01  2.3019281E+01
 1.8900251E+01  2.3002014E+01
 1.8911751E+01  2.3004993E+01
 1.8923250E+01  2.3061853E+01
 1.8934752E+01  2.3096270E+01
 1.8946251E+01  2.3107447E+01
 1.8957750E+01  2.3082220E+01
 1.8969252E+01  2.3077623E+01
 1.8980751E+01  2.3067806E+01
 1.8992250E+01  2.2989285E+01
 1.9003752E+01  2.2977341E+01
 1.9015251E+01  2.2958860E+01
 1.9026751E+01  2.2972145E+01
 1.9038252E+01  2.2938944E+01
 1.9049751E+01  2.2918505E+01
 1.9061251E+01  2.2978432E+01
 1.9072750E+01  2.3024185E+01
 1.9084251E+01  2.3091726E+01
 1.9095751E+01  2.3115530E+01
 1.9107250E+01  2.3111847E+01
 1.9118752E+01  2.3052681E+01
 1.9130251E+01  2.3069145E+01
 1.9141750E+01  2.3100485E+01
 1.9153252E+01  2.3113815E+01
 1.9164751E+01  2.3051254E+01
 1.9176250E+01  2.3019342E+01
 1.9187752E+01  2.2999460E+01
 1.9199251E+01  2.2984211E+01
 1.9210751E+01  2.2980412E+01
 1.9222252E+01  2.2993382E+01
 1.9233751E+01  2.2994272E+01
 1.9245251E+01  2.3026312E+01
 1.9256750E+01  2.3059368E+01
 1.9268251E+01  2.3058851E+01
 1.9279751E+01  2.3048279E+01
 1.9291250E+01  2.3050020E+01
 1.9302752E+01  2.3119892E+01
 1.9314251E+01  2.3135115E+01
 1.9325750E+01  2.3156137E+01
 1.9337252E+01  2.3177168E+01
 1.9348751E+01  2.3180862E+01
 1.9360250E+01  2.3161573E+01
 1.9371752E+01  2.3139812E+01
 1.9383251E+01  2.3099905E+01
 1.9394751E+01  2.3111988E+01
 1.9406250E+01  2.3096415E+01
 1.9417751E+01  2.3131067E+01
 1.9429251E+01  2.3158798E+01
 1.9440750E+01  2.3183260E+01
 1.9452251E+01  2.3200336E+01
 1.9463751E+01  2.3182556E+01
 1.9475250E+01  2.3162165E+01
 1.9486752E+01  2.3126799E+01
 1.9498251E+01  2.3121214E+01
 1.9509750E+01  2.3155609E+01
 1.9521252E+01  2.3214211E+01
 1.9532751E+01  2.3275175E+01
 1.9544250E+01  2.3260456E+01
 1.9555752E+01  2.3232224E+01
 1.9567251E+01  2.3174364E+01
 1.9578751E+01  2.3193880E+01
 1.9590250E+01  2.3180227E+01
 1.9601751E+01  2.3229525E+01
 1.9613251E+01  2.3281124E+01
 1.9624750E+01  2.3341024E+01
 1.9636251E+01  2.3320280E+01
 1.9647751E+01  2.3342710E+01
 1.9659250E+01  2.3368418E+01
 1.9670752E+01  2.3443539E+01
 1.9682251E+01  2.3561022E+01
 1.9693750E+01  2.3740028E+01
 1.9705252E+01  2.3964705E+01
 1.9716751E+01  2.4102816E+01
 1.9728251E+01  2.4281183E+01
 1.9739752E+01  2.4296267E+01
 1.9751251E+01  2.4230000E+01
 1.9762751E+01  2.4101595E+01
 1.9774250E+01  2.3912260E+01
 1.9785751E+01  2.3812735E+01
 1.9797251E+01  2.3743267E+01
 1.9808750E+01  2.3761990E+01
 1.9820251E+01  2.3881969E+01
 1.9831751E+01  2.4023745E+01
 1.9843250E+01  2.4119101E+01
 1.9854752E+01  2.4180336E+01
 1.9866251E+01  2.4177637E+01
 1.9877750E+01  2.4165571E+01
 1.9889252E+01  2.4036207E+01
 1.9900751E+01  2.3935463E+01
 1.9912251E+01  2.3792486E+01
 1.9923752E+01  2.3634438E+01
 1.9935251E+01  2.3501835E+01
 1.9946751E+01  2.3388065E+01
 1.9958250E+01  2.3329615E+01
 1.9969751E+01  2.3342388E+01
 1.9981251E+01  2.3296450E+01
 1.9992750E+01  2.3268915E+01
 2.0004251E+01  2.3228638E+01
 2.0015751E+01  2.3191559E+01
 2.0027250E+01  2.3201439E+01
 2.0038752E+01  2.3216497E+01
 2.0050251E+01  2.3289669E+01
 2.0061750E+01  2.3300140E+01
 2.0073252E+01  2.3261999E+01
 2.0084751E+01  2.3223623E+01
 2.0096251E+01  2.3203478E+01
 2.0107752E+01  2.3232563E+01
 2.0119251E+01  2.3238569E+01
 2.0130751E+01  2.3237082E+01
 2.0142250E+01  2.3252853E+01
 2.0153751E+01  2.3271631E+01
 2.0165251E+01  2.3268774E+01
 2.0176750E+01  2.3259495E+01
 2.0188251E+01  2.3259783E+01
 2.0199751E+01  2.3246788E+01
 2.0211250E+01  2.3185524E+01
 2.0222752E+01  2.3148212E+01
 2.0234251E+01  2.3133730E+01
 2.0245750E+01  2.3177893E+01
 2.0257252E+01  2.3206295E+01
 2.0268751E+01  2.3264784E+01
 2.0280251E+01  2.3319832E+01
 2.0291752E+01  2.3312347E+01
 2.0303251E+01  2.3297525E+01
 2.0314751E+01  2.3247185E+01
 2.0326250E+01  2.3252859E+01
 2.0337751E+01  2.3194613E+01
 2.0349251E+01  2.3224920E+01
 2.0360750E+01  2.3239719E+01
 2.0372252E+01  2.3238083E+01
 2.0383751E+01  2.3200171E+01
 2.0395250E+01  2.3162170E+01
 2.0406752E+01  2.3177505E+01
 2.0418251E+01  2.3206776E+01
 2.0429750E+01  2.3266228E+01
 2.0441252E+01  2.3302130E+01
 2.0452751E+01  2.3331585E+01
 2.0464251E+01  2.3329216E+01
 2.0475752E+01  2.3278807E+01
 2.0487251E+01  2.3228008E+01
 2.0498751E+01  2.3217869E+01
 2.0510250E+01  2.3203817E+01
 2.0521751E+01  2.3203470E+01
 2.0533251E+01  2.3202557E+01
 2.0544750E+01  2.3236839E+01
 2.0556252E+01  2.3291500E+01
 2.0567751E+01  2.3328468E+01
 2.0579250E+01  2.3349436E+01
 2.0590752E+01  2.3420729E+01
 2.0602251E+01  2.3511974E+01
 2.0613750E+01  2.3532009E+01
 2.0625252E+01  2.3520912E+01
 2.0636751E+01  2.3502600E+01
 2.0648251E+01  2.3508150E+01
 2.0659752E+01  2.3495096E+01
 2.0671251E+01  2.3478737E+01
 2.0682751E+01  2.3486559E+01
 2.0694250E+01  2.3504002E+01
 2.0705751E+01  2.3591913E+01
 2.0717251E+01  2.3748276E+01
 2.0728750E+01  2.3863409E+01
 2.0740252E+01  2.3968555E+01
 2.0751751E+01  2.3997906E+01
 2.0763250E+01  2.4017019E+01
 2.0774752E+01  2.3963116E+01
 2.0786251E+01  2.3902061E+01
 2.0797750E+01  2.3804836E+01
 2.0809252E+01  2.3687033E+01
 2.0820751E+01  2.3567453E+01
 2.0832251E+01  2.3498884E+01
 2.0843752E+01  2.3465925E+01
 2.0855251E+01  2.3486673E+01
 2.0866751E+01  2.3445387E+01
 2.0878250E+01  2.3458546E+01
 2.0889751E+01  2.3444357E+01
 2.0901251E+01  2.3453115E+01
 2.0912750E+01  2.3507793E+01
 2.0924252E+01  2.3521734E+01
 2.0935751E+01  2.3537811E+01
 2.0947250E+01  2.3490286E+01
 2.0958752E+01  2.3454027E+01
 2.0970251E+01  2.3391163E+01
 2.0981750E+01  2.3412411E+01
 2.0993252E+01  2.3447371E+01
 2.1004751E+01  2.3480179E+01
 2.1016251E+01  2.3436270E+01
 2.1027752E+01  2.3439810E+01
 2.1039251E+01  2.3438578E+01
 2.1050751E+01  2.3413200E+01
 2.1062250E+01  2.3371010E+01
 2.1073751E+01  2.3417915E+01
 2.1085251E+01  2.3397213E+01
 2.1096750E+01  2.3415993E+01
 2.1108252E+01  2.3447462E+01
 2.1119751E+01  2.3525486E+01
 2.1131250E+01  2.3585077E+01
 2.1142752E+01  2.3540674E+01
 2.1154251E+01  2.3468847E+01
 2.1165751E+01  2.3405096E+01
 2.1177252E+01  2.3460810E+01
 2.1188751E+01  2.3456406E+01
 2.1200251E+01  2.3446196E+01
 2.1211752E+01  2.3406111E+01
 2.1223251E+01  2.3396149E+01
 2.1234751E+01  2.3406420E+01
 2.1246250E+01  2.3444021E+01
 2.1257751E+01  2.3501816E+01
 2.1269251E+01  2.3508368E+01
 2.1280750E+01  2.3477673E+01
 2.1292252E+01  2.3475666E+01
 2.1303751E+01  2.3530935E+01
 2.1315250E+01  2.3520599E+01
 2.1326752E+01  2.3502522E+01
 2.1338251E+01  2.3497519E+01
 2.1349751E+01  2.3521345E+01
 2.1361252E+01  2.3521429E+01
 2.1372751E+01  2.3554047E+01
 2.1384251E+01  2.3582943E+01
 2.1395752E+01  2.3630272E+01
 2.1407251E+01  2.3664541E+01
 2.1418751E+01  2.3615656E+01
 2.1430250E+01  2.3600037E+01
 2.1441751E+01  2.3548866E+01
 2.1453251E+01  2.3621639E+01
 2.1464750E+01  2.3634714E+01
 2.1476252E+01  2.3652279E+01
 2.1487751E+01  2.3602327E+01
 2.1499250E+01  2.3598125E+01
 2.1510752E+01  2.3579962E+01
 2.1522251E+01  2.3607269E+01
 2.1533751E+01  2.3623526E+01
 2.1545252E+01  2.3585066E+01
 2.1556751E+01  2.3542604E+01
 2.1568251E+01  2.3530134E+01
 2.1579752E+01  2.3612051E+01
 2.1591251E+01  2.3654221E+01
 2.1602751E+01  2.3711630E+01
 2.1614250E+01  2.3703327E+01
 2.1625751E+01  2.3723118E+01
 2.1637251E+01  2.3684635E+01
 2.1648750E+01  2.3723434E+01
 2.1660252E+01  2.3720690E+01
 2.1671751E+01  2.3758066E+01
 2.1683250E+01  2.3714277E+01
 2.1694752E+01  2.3712851E+01
 2.1706251E+01  2.3689777E+01
 2.1717751E+01  2.3701292E+01
 2.1729252E+01  2.3694109E+01
 2.1740751E+01  2.3716995E+01
 2.1752251E+01  2.3702454E+01
 2.1763752E+01  2.3734798E+01
 2.1775251E+01  2.3771027E+01
 2.1786751E+01  2.3808662E+01
 2.1798250E+01  2.3813793E+01
 2.1809752E+01  2.3812580E+01
 2.1821251E+01  2.3790499E+01
 2.1832750E+01  2.3753374E+01
 2.1844252E+01  2.3778915E+01
 2.1855751E+01  2.3779139E+01
 2.1867250E+01  2.3776419E+01
 2.1878752E+01  2.3764887E+01
 2.1890251E+01  2.3744995E+01
 2.1901751E+01  2.3760786E+01
 2.1913252E+01  2.3800703E+01
 2.1924751E+01  2.3786493E+01
 2.1936251E+01  2.3760920E+01
 2.1947752E+01  2.3738840E+01
 2.1959251E+01  2.3792660E+01
 2.1970751E+01  2.3829342E+01
 2.1982250E+01  2.3797386E+01
 2.1993752E+01  2.3753508E+01
 2.2005251E+01  2.3716930E+01
 2.2016750E+01  2.3736969E+01
 2.2028252E+01  2.3777102E+01
 2.2039751E+01  2.3821497E+01
 2.2051250E+01  2.3833405E+01
 2.2062752E+01  2.3843960E+01
 2.2074251E+01  2.3855026E+01
 2.2085751E+01  2.3872692E+01
 2.2097252E+01  2.3852819E+01
 2.2108751E+01  2.3840065E+01
 2.2120251E+01  2.3855328E+01
 2.2131752E+01  2.3856726E+01
 2.2143251E+01  2.3851873E+01
 2.2154751E+01  2.3843184E+01
 2.2166250E+01  2.3872532E+01
 2.2177752E+01  2.3883327E+01
 2.2189251E+01  2.3872614E+01
 2.2200750E+01  2.3881300E+01
 2.2212252E+01  2.3849102E+01
 2.2223751E+01  2.3872307E+01
 2.2235250E+01  2.3876633E+01
 2.2246752E+01  2.3908930E+01
 2.2258251E+01  2.3929079E+01
 2.2269751E+01  2.3928757E+01
 2.2281252E+01  2.3986937E+01
 2.2292751E+01  2.4024288E+01
 2.2304251E+01  2.4072937E+01
 2.2315752E+01  2.4087347E+01
 2.2327251E+01  2.4101421E+01
 2.2338751E+01  2.4089272E+01
 2.2350250E+01  2.4126192E+01
 2.2361752E+01  2.4134081E+01
 2.2373251E+01  2.4234676E+01
 2.2384750E+01  2.4181568E+01
 2.2396252E+01  2.4184803E+01
 2.2407751E+01  2.4091557E+01
 2.2419250E+01  2.4044983E+01
 2.2430752E+01  2.4066101E+01
 2.2442251E+01  2.4135920E+01
 2.2453751E+01  2.4230387E+01
 2.2465252E+01  2.4250723E+01
 2.2476751E+01  2.4249395E+01
 2.2488251E+01  2.4273220E+01
 2.2499752E+01  2.4288359E+01
 2.2511251E+01  2.4283186E+01
 2.2522751E+01  2.4235014E+01
 2.2534250E+01  2.4213604E+01
 2.2545752E+01  2.4247564E+01
 2.2557251E+01  2.4297943E+01
 2.2568750E+01  2.4331892E+01
 2.2580252E+01  2.4351269E+01
 2.2591751E+01  2.4379456E+01
 2.2603251E+01  2.4393658E+01
 2.2614752E+01  2.4428904E+01
 2.2626251E+01  2.4442333E+01
 2.2637751E+01  2.4445297E+01
 2.2649252E+01  2.4472109E+01
 2.2660751E+01  2.4469727E+01
 2.2672251E+01  2.4488127E+01
 2.2683752E+01  2.4540716E+01
 2.2695251E+01  2.4652420E+01
 2.2706751E+01  2.4650110E+01
 2.2718250E+01  2.4673246E+01
 2.2729752E+01  2.4709173E+01
 2.2741251E+01  2.4759815E+01
 2.2752750E+01  2.4765532E+01
 2.2764252E+01  2.4746298E+01
 2.2775751E+01  2.4760077E+01
 2.2787251E+01  2.4765081E+01
 2.2798752E+01  2.4838390E+01
 2.2810251E+01  2.4899712E+01
 2.2821751E+01  2.4932161E+01
 2.2833252E+01  2.4954868E+01
 2.2844751E+01  2.4988737E+01
 2.2856251E+01  2.5064436E+01
 2.2867750E+01  2.5174377E+01
 2.2879251E+01  2.5181644E+01
 2.2890751E+01  2.5199162E+01
 2.2902250E+01  2.5225407E+01
 2.2913752E+01  2.5379099E+01
 2.2925251E+01  2.5458105E+01
 2.2936750E+01  2.5542515E+01
 2.2948252E+01  2.5566130E+01
 2.2959751E+01  2.5564741E+01
 2.2971251E+01  2.5633282E+01
 2.2982752E+01  2.5719276E+01
 2.2994251E+01  2.5798555E+01
