F:\20151113_APS_34IDE\\Brian\Particle1\OCV\Data_0105.tif
2-Theta Angle (Degrees)
Intensity
       2000
 5.7500005E-03  0.0000000E+00
 1.7250001E-02  0.0000000E+00
 2.8750001E-02  0.0000000E+00
 4.0250003E-02  0.0000000E+00
 5.1750004E-02  0.0000000E+00
 6.3250005E-02  0.0000000E+00
 7.4750006E-02  0.0000000E+00
 8.6250007E-02  0.0000000E+00
 9.7750008E-02  0.0000000E+00
 1.0925001E-01  0.0000000E+00
 1.2075000E-01  0.0000000E+00
 1.3225001E-01  0.0000000E+00
 1.4375001E-01  0.0000000E+00
 1.5525001E-01  0.0000000E+00
 1.6675001E-01  0.0000000E+00
 1.7825001E-01  0.0000000E+00
 1.8975002E-01  0.0000000E+00
 2.0125002E-01  0.0000000E+00
 2.1275002E-01  0.0000000E+00
 2.2425000E-01  0.0000000E+00
 2.3575000E-01  0.0000000E+00
 2.4725001E-01  0.0000000E+00
 2.5875002E-01  0.0000000E+00
 2.7025002E-01  0.0000000E+00
 2.8175002E-01  0.0000000E+00
 2.9325002E-01  0.0000000E+00
 3.0475003E-01  0.0000000E+00
 3.1625003E-01  0.0000000E+00
 3.2775003E-01  0.0000000E+00
 3.3925003E-01  0.0000000E+00
 3.5075003E-01  0.0000000E+00
 3.6225003E-01  0.0000000E+00
 3.7375003E-01  0.0000000E+00
 3.8525003E-01  0.0000000E+00
 3.9675003E-01  0.0000000E+00
 4.0825003E-01  0.0000000E+00
 4.1975003E-01  0.0000000E+00
 4.3125004E-01  0.0000000E+00
 4.4275001E-01  0.0000000E+00
 4.5425001E-01  0.0000000E+00
 4.6575001E-01  0.0000000E+00
 4.7725001E-01  0.0000000E+00
 4.8875001E-01  0.0000000E+00
 5.0025004E-01  0.0000000E+00
 5.1175004E-01  0.0000000E+00
 5.2325004E-01  0.0000000E+00
 5.3475004E-01  0.0000000E+00
 5.4625005E-01  0.0000000E+00
 5.5775005E-01  0.0000000E+00
 5.6925005E-01  0.0000000E+00
 5.8075005E-01  0.0000000E+00
 5.9225005E-01  0.0000000E+00
 6.0375005E-01  0.0000000E+00
 6.1525005E-01  0.0000000E+00
 6.2675005E-01  0.0000000E+00
 6.3825005E-01  0.0000000E+00
 6.4975005E-01  0.0000000E+00
 6.6125005E-01  0.0000000E+00
 6.7275006E-01  0.0000000E+00
 6.8425006E-01  0.0000000E+00
 6.9575006E-01  0.0000000E+00
 7.0725006E-01  0.0000000E+00
 7.1875006E-01  0.0000000E+00
 7.3025006E-01  0.0000000E+00
 7.4175006E-01  0.0000000E+00
 7.5325006E-01  0.0000000E+00
 7.6475006E-01  0.0000000E+00
 7.7625006E-01  0.0000000E+00
 7.8775007E-01  0.0000000E+00
 7.9925007E-01  0.0000000E+00
 8.1075007E-01  0.0000000E+00
 8.2225007E-01  0.0000000E+00
 8.3375007E-01  0.0000000E+00
 8.4525007E-01  0.0000000E+00
 8.5675007E-01  0.0000000E+00
 8.6825007E-01  0.0000000E+00
 8.7975001E-01  0.0000000E+00
 8.9125001E-01  0.0000000E+00
 9.0275002E-01  0.0000000E+00
 9.1425002E-01  0.0000000E+00
 9.2575002E-01  0.0000000E+00
 9.3725002E-01  0.0000000E+00
 9.4875002E-01  0.0000000E+00
 9.6025002E-01  0.0000000E+00
 9.7175002E-01  0.0000000E+00
 9.8325002E-01  0.0000000E+00
 9.9475002E-01  0.0000000E+00
 1.0062500E+00  0.0000000E+00
 1.0177500E+00  0.0000000E+00
 1.0292500E+00  0.0000000E+00
 1.0407500E+00  0.0000000E+00
 1.0522500E+00  0.0000000E+00
 1.0637500E+00  0.0000000E+00
 1.0752500E+00  0.0000000E+00
 1.0867500E+00  0.0000000E+00
 1.0982500E+00  0.0000000E+00
 1.1097500E+00  0.0000000E+00
 1.1212500E+00  0.0000000E+00
 1.1327500E+00  0.0000000E+00
 1.1442500E+00  0.0000000E+00
 1.1557500E+00  0.0000000E+00
 1.1672500E+00  0.0000000E+00
 1.1787500E+00  0.0000000E+00
 1.1902500E+00  0.0000000E+00
 1.2017500E+00  0.0000000E+00
 1.2132500E+00  0.0000000E+00
 1.2247500E+00  0.0000000E+00
 1.2362500E+00  0.0000000E+00
 1.2477500E+00  0.0000000E+00
 1.2592500E+00  0.0000000E+00
 1.2707500E+00  0.0000000E+00
 1.2822500E+00  0.0000000E+00
 1.2937500E+00  0.0000000E+00
 1.3052500E+00  0.0000000E+00
 1.3167500E+00  0.0000000E+00
 1.3282501E+00  0.0000000E+00
 1.3397501E+00  0.0000000E+00
 1.3512501E+00  0.0000000E+00
 1.3627501E+00  0.0000000E+00
 1.3742501E+00  0.0000000E+00
 1.3857501E+00  0.0000000E+00
 1.3972501E+00  0.0000000E+00
 1.4087501E+00  0.0000000E+00
 1.4202501E+00  0.0000000E+00
 1.4317501E+00  0.0000000E+00
 1.4432501E+00  0.0000000E+00
 1.4547501E+00  0.0000000E+00
 1.4662501E+00  0.0000000E+00
 1.4777501E+00  0.0000000E+00
 1.4892501E+00  0.0000000E+00
 1.5007501E+00  0.0000000E+00
 1.5122501E+00  0.0000000E+00
 1.5237501E+00  0.0000000E+00
 1.5352501E+00  0.0000000E+00
 1.5467501E+00  0.0000000E+00
 1.5582501E+00  0.0000000E+00
 1.5697501E+00  0.0000000E+00
 1.5812501E+00  0.0000000E+00
 1.5927501E+00  0.0000000E+00
 1.6042501E+00  0.0000000E+00
 1.6157501E+00  0.0000000E+00
 1.6272501E+00  0.0000000E+00
 1.6387501E+00  0.0000000E+00
 1.6502501E+00  0.0000000E+00
 1.6617501E+00  0.0000000E+00
 1.6732501E+00  0.0000000E+00
 1.6847501E+00  0.0000000E+00
 1.6962501E+00  0.0000000E+00
 1.7077501E+00  0.0000000E+00
 1.7192501E+00  0.0000000E+00
 1.7307501E+00  0.0000000E+00
 1.7422501E+00  0.0000000E+00
 1.7537501E+00  0.0000000E+00
 1.7652501E+00  0.0000000E+00
 1.7767501E+00  0.0000000E+00
 1.7882501E+00  0.0000000E+00
 1.7997501E+00  0.0000000E+00
 1.8112501E+00  0.0000000E+00
 1.8227501E+00  0.0000000E+00
 1.8342501E+00  0.0000000E+00
 1.8457501E+00  0.0000000E+00
 1.8572501E+00  0.0000000E+00
 1.8687501E+00  0.0000000E+00
 1.8802501E+00  0.0000000E+00
 1.8917501E+00  0.0000000E+00
 1.9032501E+00  0.0000000E+00
 1.9147501E+00  0.0000000E+00
 1.9262501E+00  0.0000000E+00
 1.9377501E+00  0.0000000E+00
 1.9492501E+00  0.0000000E+00
 1.9607501E+00  0.0000000E+00
 1.9722501E+00  0.0000000E+00
 1.9837501E+00  0.0000000E+00
 1.9952501E+00  0.0000000E+00
 2.0067501E+00  0.0000000E+00
 2.0182500E+00  0.0000000E+00
 2.0297501E+00  0.0000000E+00
 2.0412500E+00  0.0000000E+00
 2.0527501E+00  0.0000000E+00
 2.0642500E+00  0.0000000E+00
 2.0757501E+00  0.0000000E+00
 2.0872500E+00  0.0000000E+00
 2.0987501E+00  0.0000000E+00
 2.1102500E+00  0.0000000E+00
 2.1217501E+00  0.0000000E+00
 2.1332500E+00  0.0000000E+00
 2.1447501E+00  0.0000000E+00
 2.1562500E+00  0.0000000E+00
 2.1677501E+00  0.0000000E+00
 2.1792500E+00  0.0000000E+00
 2.1907501E+00  0.0000000E+00
 2.2022500E+00  0.0000000E+00
 2.2137501E+00  0.0000000E+00
 2.2252500E+00  0.0000000E+00
 2.2367501E+00  0.0000000E+00
 2.2482500E+00  0.0000000E+00
 2.2597501E+00  0.0000000E+00
 2.2712500E+00  0.0000000E+00
 2.2827501E+00  0.0000000E+00
 2.2942500E+00  0.0000000E+00
 2.3057501E+00  0.0000000E+00
 2.3172500E+00  0.0000000E+00
 2.3287501E+00  0.0000000E+00
 2.3402500E+00  0.0000000E+00
 2.3517501E+00  0.0000000E+00
 2.3632500E+00  0.0000000E+00
 2.3747501E+00  0.0000000E+00
 2.3862500E+00  0.0000000E+00
 2.3977501E+00  0.0000000E+00
 2.4092500E+00  0.0000000E+00
 2.4207501E+00  0.0000000E+00
 2.4322500E+00  0.0000000E+00
 2.4437501E+00  0.0000000E+00
 2.4552500E+00  0.0000000E+00
 2.4667501E+00  0.0000000E+00
 2.4782500E+00  0.0000000E+00
 2.4897501E+00  0.0000000E+00
 2.5012500E+00  0.0000000E+00
 2.5127501E+00  0.0000000E+00
 2.5242500E+00  0.0000000E+00
 2.5357502E+00  0.0000000E+00
 2.5472500E+00  0.0000000E+00
 2.5587502E+00  0.0000000E+00
 2.5702500E+00  0.0000000E+00
 2.5817502E+00  0.0000000E+00
 2.5932500E+00  0.0000000E+00
 2.6047502E+00  0.0000000E+00
 2.6162500E+00  0.0000000E+00
 2.6277502E+00  0.0000000E+00
 2.6392500E+00  0.0000000E+00
 2.6507502E+00  0.0000000E+00
 2.6622500E+00  0.0000000E+00
 2.6737502E+00  0.0000000E+00
 2.6852500E+00  0.0000000E+00
 2.6967502E+00  0.0000000E+00
 2.7082500E+00  0.0000000E+00
 2.7197502E+00  0.0000000E+00
 2.7312500E+00  0.0000000E+00
 2.7427502E+00  0.0000000E+00
 2.7542500E+00  0.0000000E+00
 2.7657502E+00  0.0000000E+00
 2.7772501E+00  0.0000000E+00
 2.7887502E+00  0.0000000E+00
 2.8002501E+00  0.0000000E+00
 2.8117502E+00  0.0000000E+00
 2.8232501E+00  3.4291218E+01
 2.8347502E+00  3.4933529E+01
 2.8462501E+00  3.5063793E+01
 2.8577502E+00  3.5024956E+01
 2.8692501E+00  3.4530594E+01
 2.8807502E+00  3.4288944E+01
 2.8922501E+00  3.3817738E+01
 2.9037502E+00  3.4255909E+01
 2.9152501E+00  3.4593185E+01
 2.9267502E+00  3.5362671E+01
 2.9382501E+00  3.6005619E+01
 2.9497502E+00  3.6330730E+01
 2.9612501E+00  3.6287971E+01
 2.9727502E+00  3.6300457E+01
 2.9842501E+00  3.5831642E+01
 2.9957502E+00  3.5639469E+01
 3.0072501E+00  3.4793232E+01
 3.0187502E+00  3.4717617E+01
 3.0302501E+00  3.4498402E+01
 3.0417502E+00  3.4850426E+01
 3.0532501E+00  3.4566090E+01
 3.0647502E+00  3.4558540E+01
 3.0762501E+00  3.4762794E+01
 3.0877502E+00  3.4964539E+01
 3.0992501E+00  3.5426064E+01
 3.1107502E+00  3.5473698E+01
 3.1222501E+00  3.5733055E+01
 3.1337502E+00  3.5857918E+01
 3.1452501E+00  3.5997696E+01
 3.1567502E+00  3.5894394E+01
 3.1682501E+00  3.5811714E+01
 3.1797502E+00  3.5500439E+01
 3.1912501E+00  3.5290688E+01
 3.2027502E+00  3.5098515E+01
 3.2142501E+00  3.5364967E+01
 3.2257502E+00  3.5336590E+01
 3.2372501E+00  3.5459740E+01
 3.2487502E+00  3.5405609E+01
 3.2602501E+00  3.5566570E+01
 3.2717502E+00  3.5322544E+01
 3.2832501E+00  3.5083870E+01
 3.2947502E+00  3.5087780E+01
 3.3062501E+00  3.4917629E+01
 3.3177502E+00  3.5079453E+01
 3.3292501E+00  3.4736839E+01
 3.3407502E+00  3.5098328E+01
 3.3522501E+00  3.4730141E+01
 3.3637502E+00  3.4694435E+01
 3.3752501E+00  3.4262627E+01
 3.3867502E+00  3.4166275E+01
 3.3982501E+00  3.3780220E+01
 3.4097502E+00  3.3831375E+01
 3.4212501E+00  3.3768021E+01
 3.4327502E+00  3.4030678E+01
 3.4442501E+00  3.4179790E+01
 3.4557502E+00  3.4484890E+01
 3.4672501E+00  3.4644325E+01
 3.4787502E+00  3.4881702E+01
 3.4902501E+00  3.4714355E+01
 3.5017502E+00  3.4653831E+01
 3.5132501E+00  3.4229416E+01
 3.5247502E+00  3.4028618E+01
 3.5362501E+00  3.3608490E+01
 3.5477502E+00  3.3472813E+01
 3.5592501E+00  3.3239529E+01
 3.5707502E+00  3.3176666E+01
 3.5822501E+00  3.3112038E+01
 3.5937502E+00  3.3117241E+01
 3.6052501E+00  3.3055855E+01
 3.6167502E+00  3.3148346E+01
 3.6282501E+00  3.3299335E+01
 3.6397502E+00  3.3298363E+01
 3.6512501E+00  3.3185421E+01
 3.6627502E+00  3.3028988E+01
 3.6742501E+00  3.2831432E+01
 3.6857502E+00  3.2832081E+01
 3.6972501E+00  3.2756565E+01
 3.7087502E+00  3.2693913E+01
 3.7202501E+00  3.2585052E+01
 3.7317502E+00  3.2588043E+01
 3.7432501E+00  3.2731438E+01
 3.7547503E+00  3.2784615E+01
 3.7662501E+00  3.2872242E+01
 3.7777503E+00  3.2772568E+01
 3.7892501E+00  3.2683750E+01
 3.8007503E+00  3.2396206E+01
 3.8122501E+00  3.2341484E+01
 3.8237503E+00  3.2287079E+01
 3.8352501E+00  3.2282413E+01
 3.8467503E+00  3.2259739E+01
 3.8582501E+00  3.2590767E+01
 3.8697503E+00  3.2700745E+01
 3.8812501E+00  3.2733620E+01
 3.8927503E+00  3.2521576E+01
 3.9042501E+00  3.2443256E+01
 3.9157503E+00  3.2496033E+01
 3.9272501E+00  3.2546036E+01
 3.9387503E+00  3.2756542E+01
 3.9502501E+00  3.2990604E+01
 3.9617503E+00  3.3027191E+01
 3.9732502E+00  3.2949635E+01
 3.9847503E+00  3.2852875E+01
 3.9962502E+00  3.2603073E+01
 4.0077500E+00  3.2378563E+01
 4.0192504E+00  3.2108608E+01
 4.0307503E+00  3.1819862E+01
 4.0422502E+00  3.1796440E+01
 4.0537500E+00  3.1665627E+01
 4.0652504E+00  3.1743925E+01
 4.0767503E+00  3.1643681E+01
 4.0882502E+00  3.1722958E+01
 4.0997500E+00  3.1661583E+01
 4.1112504E+00  3.1827854E+01
 4.1227503E+00  3.1802969E+01
 4.1342502E+00  3.1990196E+01
 4.1457500E+00  3.2060612E+01
 4.1572504E+00  3.2015438E+01
 4.1687503E+00  3.2181305E+01
 4.1802502E+00  3.2201012E+01
 4.1917500E+00  3.2449959E+01
 4.2032504E+00  3.2442616E+01
 4.2147503E+00  3.2526833E+01
 4.2262502E+00  3.2553551E+01
 4.2377501E+00  3.2528053E+01
 4.2492504E+00  3.2484138E+01
 4.2607503E+00  3.2389210E+01
 4.2722502E+00  3.2271206E+01
 4.2837501E+00  3.2194489E+01
 4.2952504E+00  3.2085247E+01
 4.3067503E+00  3.2131329E+01
 4.3182502E+00  3.2090641E+01
 4.3297501E+00  3.2131847E+01
 4.3412504E+00  3.2305923E+01
 4.3527503E+00  3.2335167E+01
 4.3642502E+00  3.2376034E+01
 4.3757501E+00  3.2298073E+01
 4.3872504E+00  3.2332729E+01
 4.3987503E+00  3.2391445E+01
 4.4102502E+00  3.2476341E+01
 4.4217501E+00  3.2427876E+01
 4.4332504E+00  3.2423885E+01
 4.4447503E+00  3.2263046E+01
 4.4562502E+00  3.2277996E+01
 4.4677501E+00  3.2184612E+01
 4.4792504E+00  3.2249352E+01
 4.4907503E+00  3.2249741E+01
 4.5022502E+00  3.2436443E+01
 4.5137501E+00  3.2526779E+01
 4.5252504E+00  3.2689209E+01
 4.5367503E+00  3.2670357E+01
 4.5482502E+00  3.2828568E+01
 4.5597501E+00  3.2865948E+01
 4.5712504E+00  3.3156834E+01
 4.5827503E+00  3.3138374E+01
 4.5942502E+00  3.3217052E+01
 4.6057501E+00  3.3062687E+01
 4.6172504E+00  3.2881893E+01
 4.6287503E+00  3.2639534E+01
 4.6402502E+00  3.2512558E+01
 4.6517501E+00  3.2473179E+01
 4.6632504E+00  3.2637177E+01
 4.6747503E+00  3.2696796E+01
 4.6862502E+00  3.2738899E+01
 4.6977501E+00  3.2696430E+01
 4.7092505E+00  3.2601555E+01
 4.7207503E+00  3.2516632E+01
 4.7322502E+00  3.2402435E+01
 4.7437501E+00  3.2367832E+01
 4.7552505E+00  3.2239231E+01
 4.7667503E+00  3.2283051E+01
 4.7782502E+00  3.2229805E+01
 4.7897501E+00  3.2398788E+01
 4.8012505E+00  3.2432983E+01
 4.8127503E+00  3.2488712E+01
 4.8242502E+00  3.2503807E+01
 4.8357501E+00  3.2603874E+01
 4.8472505E+00  3.2692444E+01
 4.8587503E+00  3.2914436E+01
 4.8702502E+00  3.2882835E+01
 4.8817501E+00  3.2955429E+01
 4.8932505E+00  3.2953941E+01
 4.9047503E+00  3.2951546E+01
 4.9162502E+00  3.3003609E+01
 4.9277501E+00  3.3016418E+01
 4.9392505E+00  3.3070641E+01
 4.9507504E+00  3.3064461E+01
 4.9622502E+00  3.2835468E+01
 4.9737501E+00  3.2796051E+01
 4.9852505E+00  3.2742409E+01
 4.9967504E+00  3.2837624E+01
 5.0082502E+00  3.2981682E+01
 5.0197501E+00  3.3061691E+01
 5.0312505E+00  3.3201809E+01
 5.0427504E+00  3.3191513E+01
 5.0542502E+00  3.3148819E+01
 5.0657501E+00  3.3233589E+01
 5.0772505E+00  3.3288223E+01
 5.0887504E+00  3.3435616E+01
 5.1002502E+00  3.3556118E+01
 5.1117501E+00  3.3555714E+01
 5.1232505E+00  3.3532043E+01
 5.1347504E+00  3.3457451E+01
 5.1462502E+00  3.3482960E+01
 5.1577501E+00  3.3505783E+01
 5.1692505E+00  3.3442719E+01
 5.1807504E+00  3.3474831E+01
 5.1922503E+00  3.3566647E+01
 5.2037501E+00  3.3604389E+01
 5.2152505E+00  3.3712662E+01
 5.2267504E+00  3.3658009E+01
 5.2382503E+00  3.3738651E+01
 5.2497501E+00  3.3664825E+01
 5.2612505E+00  3.3655457E+01
 5.2727504E+00  3.3752892E+01
 5.2842503E+00  3.3843395E+01
 5.2957501E+00  3.4016876E+01
 5.3072500E+00  3.4003368E+01
 5.3187504E+00  3.4034725E+01
 5.3302503E+00  3.3993362E+01
 5.3417501E+00  3.3979362E+01
 5.3532500E+00  3.3903278E+01
 5.3647504E+00  3.3865540E+01
 5.3762503E+00  3.4000435E+01
 5.3877501E+00  3.4123512E+01
 5.3992500E+00  3.4253246E+01
 5.4107504E+00  3.4284733E+01
 5.4222503E+00  3.4395737E+01
 5.4337502E+00  3.4405228E+01
 5.4452500E+00  3.4466743E+01
 5.4567504E+00  3.4536312E+01
 5.4682503E+00  3.4688438E+01
 5.4797502E+00  3.4826069E+01
 5.4912500E+00  3.4779301E+01
 5.5027504E+00  3.4707066E+01
 5.5142503E+00  3.4612663E+01
 5.5257502E+00  3.4579433E+01
 5.5372500E+00  3.4616791E+01
 5.5487504E+00  3.4661335E+01
 5.5602503E+00  3.4668118E+01
 5.5717502E+00  3.4708328E+01
 5.5832500E+00  3.4725704E+01
 5.5947504E+00  3.4841274E+01
 5.6062503E+00  3.4897373E+01
 5.6177502E+00  3.4942478E+01
 5.6292500E+00  3.4985023E+01
 5.6407504E+00  3.4961399E+01
 5.6522503E+00  3.5095798E+01
 5.6637502E+00  3.5220154E+01
 5.6752501E+00  3.5342747E+01
 5.6867504E+00  3.5274742E+01
 5.6982503E+00  3.5154438E+01
 5.7097502E+00  3.5189537E+01
 5.7212501E+00  3.5319450E+01
 5.7327504E+00  3.5457760E+01
 5.7442503E+00  3.5529560E+01
 5.7557502E+00  3.5539463E+01
 5.7672501E+00  3.5473248E+01
 5.7787504E+00  3.5436398E+01
 5.7902503E+00  3.5496075E+01
 5.8017502E+00  3.5555153E+01
 5.8132501E+00  3.5658592E+01
 5.8247504E+00  3.5662487E+01
 5.8362503E+00  3.5784241E+01
 5.8477502E+00  3.5882973E+01
 5.8592501E+00  3.5809963E+01
 5.8707504E+00  3.5901585E+01
 5.8822503E+00  3.6020092E+01
 5.8937502E+00  3.6468346E+01
 5.9052501E+00  3.6827309E+01
 5.9167504E+00  3.7410561E+01
 5.9282503E+00  3.8358166E+01
 5.9397502E+00  3.9717144E+01
 5.9512501E+00  4.1968815E+01
 5.9627504E+00  4.3244236E+01
 5.9742503E+00  4.4487518E+01
 5.9857502E+00  4.4687397E+01
 5.9972501E+00  4.4228214E+01
 6.0087504E+00  4.3063061E+01
 6.0202503E+00  4.1269485E+01
 6.0317502E+00  3.9813023E+01
 6.0432501E+00  3.8638542E+01
 6.0547504E+00  3.7679726E+01
 6.0662503E+00  3.7261002E+01
 6.0777502E+00  3.7055855E+01
 6.0892501E+00  3.6990894E+01
 6.1007504E+00  3.6887882E+01
 6.1122503E+00  3.6832363E+01
 6.1237502E+00  3.6846752E+01
 6.1352501E+00  3.6819092E+01
 6.1467505E+00  3.6911686E+01
 6.1582503E+00  3.6959538E+01
 6.1697502E+00  3.7069744E+01
 6.1812501E+00  3.7083153E+01
 6.1927505E+00  3.7032890E+01
 6.2042503E+00  3.6921608E+01
 6.2157502E+00  3.6896103E+01
 6.2272501E+00  3.6955540E+01
 6.2387505E+00  3.7023098E+01
 6.2502503E+00  3.7113815E+01
 6.2617502E+00  3.7075310E+01
 6.2732501E+00  3.7230446E+01
 6.2847505E+00  3.7314587E+01
 6.2962503E+00  3.7446167E+01
 6.3077502E+00  3.7500427E+01
 6.3192501E+00  3.7554226E+01
 6.3307505E+00  3.7561413E+01
 6.3422503E+00  3.7539063E+01
 6.3537502E+00  3.7502216E+01
 6.3652501E+00  3.7561382E+01
 6.3767505E+00  3.7677372E+01
 6.3882504E+00  3.7941669E+01
 6.3997502E+00  3.8024506E+01
 6.4112501E+00  3.8294655E+01
 6.4227505E+00  3.8321831E+01
 6.4342504E+00  3.8520569E+01
 6.4457502E+00  3.8562298E+01
 6.4572501E+00  3.8705276E+01
 6.4687505E+00  3.8881386E+01
 6.4802504E+00  3.8847565E+01
 6.4917502E+00  3.8922733E+01
 6.5032501E+00  3.8942657E+01
 6.5147505E+00  3.9101444E+01
 6.5262504E+00  3.9138607E+01
 6.5377502E+00  3.9259422E+01
 6.5492501E+00  3.9330952E+01
 6.5607505E+00  3.9475044E+01
 6.5722504E+00  3.9576069E+01
 6.5837502E+00  3.9715576E+01
 6.5952501E+00  3.9786419E+01
 6.6067505E+00  3.9793728E+01
 6.6182504E+00  3.9774029E+01
 6.6297503E+00  3.9801662E+01
 6.6412501E+00  3.9927094E+01
 6.6527505E+00  4.0092705E+01
 6.6642504E+00  4.0258198E+01
 6.6757503E+00  4.0183468E+01
 6.6872501E+00  4.0228245E+01
 6.6987505E+00  4.0277252E+01
 6.7102504E+00  4.0355885E+01
 6.7217503E+00  4.0451111E+01
 6.7332501E+00  4.0431400E+01
 6.7447505E+00  4.0478115E+01
 6.7562504E+00  4.0537373E+01
 6.7677503E+00  4.0620434E+01
 6.7792501E+00  4.0799408E+01
 6.7907505E+00  4.0835339E+01
 6.8022504E+00  4.0899502E+01
 6.8137503E+00  4.1006905E+01
 6.8252501E+00  4.1172409E+01
 6.8367505E+00  4.1210461E+01
 6.8482504E+00  4.1328266E+01
 6.8597503E+00  4.1333759E+01
 6.8712502E+00  4.1477737E+01
 6.8827505E+00  4.1517540E+01
 6.8942504E+00  4.1592567E+01
 6.9057503E+00  4.1653252E+01
 6.9172502E+00  4.1738544E+01
 6.9287505E+00  4.1747250E+01
 6.9402504E+00  4.1855698E+01
 6.9517503E+00  4.1924232E+01
 6.9632502E+00  4.1976063E+01
 6.9747505E+00  4.2048740E+01
 6.9862504E+00  4.2124458E+01
 6.9977503E+00  4.2172928E+01
 7.0092502E+00  4.2294113E+01
 7.0207505E+00  4.2274174E+01
 7.0322504E+00  4.2455257E+01
 7.0437503E+00  4.2447105E+01
 7.0552502E+00  4.2572216E+01
 7.0667505E+00  4.2497143E+01
 7.0782504E+00  4.2532658E+01
 7.0897503E+00  4.2548138E+01
 7.1012502E+00  4.2702473E+01
 7.1127505E+00  4.2740562E+01
 7.1242504E+00  4.2842564E+01
 7.1357503E+00  4.2838566E+01
 7.1472502E+00  4.2837032E+01
 7.1587505E+00  4.2846832E+01
 7.1702504E+00  4.2843472E+01
 7.1817503E+00  4.2994141E+01
 7.1932502E+00  4.3143051E+01
 7.2047505E+00  4.3247116E+01
 7.2162504E+00  4.3360203E+01
 7.2277503E+00  4.3363735E+01
 7.2392502E+00  4.3429474E+01
 7.2507505E+00  4.3588852E+01
 7.2622504E+00  4.3627991E+01
 7.2737503E+00  4.3653339E+01
 7.2852502E+00  4.3567417E+01
 7.2967505E+00  4.3567661E+01
 7.3082504E+00  4.3631344E+01
 7.3197503E+00  4.3639248E+01
 7.3312502E+00  4.3729080E+01
 7.3427505E+00  4.3736755E+01
 7.3542504E+00  4.3853195E+01
 7.3657503E+00  4.3835117E+01
 7.3772502E+00  4.3832336E+01
 7.3887506E+00  4.3847477E+01
 7.4002504E+00  4.3833580E+01
 7.4117503E+00  4.3882481E+01
 7.4232502E+00  4.3770157E+01
 7.4347506E+00  4.3774132E+01
 7.4462504E+00  4.3777046E+01
 7.4577503E+00  4.3900253E+01
 7.4692502E+00  4.3953041E+01
 7.4807506E+00  4.4018890E+01
 7.4922504E+00  4.4014290E+01
 7.5037503E+00  4.4064957E+01
 7.5152502E+00  4.4055149E+01
 7.5267506E+00  4.4070141E+01
 7.5382504E+00  4.4067970E+01
 7.5497503E+00  4.4093975E+01
 7.5612502E+00  4.4072399E+01
 7.5727506E+00  4.4155914E+01
 7.5842505E+00  4.4104046E+01
 7.5957503E+00  4.4081532E+01
 7.6072502E+00  4.4044445E+01
 7.6187506E+00  4.4084103E+01
 7.6302505E+00  4.4158779E+01
 7.6417503E+00  4.4115692E+01
 7.6532502E+00  4.4148167E+01
 7.6647506E+00  4.4145920E+01
 7.6762505E+00  4.4093506E+01
 7.6877503E+00  4.3997936E+01
 7.6992502E+00  4.3965332E+01
 7.7107506E+00  4.3972866E+01
 7.7222505E+00  4.4103371E+01
 7.7337503E+00  4.4101051E+01
 7.7452502E+00  4.4180161E+01
 7.7567506E+00  4.4075191E+01
 7.7682505E+00  4.4132473E+01
 7.7797503E+00  4.3947697E+01
 7.7912502E+00  4.3945023E+01
 7.8027506E+00  4.3810139E+01
 7.8142505E+00  4.3866634E+01
 7.8257504E+00  4.3770508E+01
 7.8372502E+00  4.3848610E+01
 7.8487506E+00  4.3869381E+01
 7.8602505E+00  4.3931965E+01
 7.8717504E+00  4.3861481E+01
 7.8832502E+00  4.3793449E+01
 7.8947506E+00  4.3670841E+01
 7.9062505E+00  4.3593815E+01
 7.9177504E+00  4.3552555E+01
 7.9292502E+00  4.3548756E+01
 7.9407506E+00  4.3574566E+01
 7.9522505E+00  4.3471016E+01
 7.9637504E+00  4.3479389E+01
 7.9752502E+00  4.3340935E+01
 7.9867506E+00  4.3325615E+01
 7.9982505E+00  4.3207771E+01
 8.0097504E+00  4.3093300E+01
 8.0212507E+00  4.2998272E+01
 8.0327501E+00  4.2958298E+01
 8.0442505E+00  4.2920689E+01
 8.0557508E+00  4.2890190E+01
 8.0672503E+00  4.2790527E+01
 8.0787506E+00  4.2722813E+01
 8.0902500E+00  4.2751766E+01
 8.1017504E+00  4.2808243E+01
 8.1132507E+00  4.2941875E+01
 8.1247501E+00  4.2800556E+01
 8.1362505E+00  4.2711880E+01
 8.1477509E+00  4.2456619E+01
 8.1592503E+00  4.2346031E+01
 8.1707506E+00  4.2120838E+01
 8.1822500E+00  4.1890053E+01
 8.1937504E+00  4.1755947E+01
 8.2052507E+00  4.1635090E+01
 8.2167501E+00  4.1578728E+01
 8.2282505E+00  4.1501465E+01
 8.2397509E+00  4.1415359E+01
 8.2512503E+00  4.1291988E+01
 8.2627506E+00  4.1203800E+01
 8.2742500E+00  4.1062634E+01
 8.2857504E+00  4.0930069E+01
 8.2972507E+00  4.0726334E+01
 8.3087502E+00  4.0565006E+01
 8.3202505E+00  4.0444153E+01
 8.3317509E+00  4.0280087E+01
 8.3432503E+00  4.0115234E+01
 8.3547506E+00  3.9894371E+01
 8.3662500E+00  3.9733234E+01
 8.3777504E+00  3.9538410E+01
 8.3892508E+00  3.9425262E+01
 8.4007502E+00  3.9370293E+01
 8.4122505E+00  3.9243786E+01
 8.4237509E+00  3.9223396E+01
 8.4352503E+00  3.8919327E+01
 8.4467506E+00  3.8829742E+01
 8.4582500E+00  3.8526974E+01
 8.4697504E+00  3.8474487E+01
 8.4812508E+00  3.8217201E+01
 8.4927502E+00  3.8035202E+01
 8.5042505E+00  3.7763168E+01
 8.5157509E+00  3.7579498E+01
 8.5272503E+00  3.7364540E+01
 8.5387506E+00  3.7208351E+01
 8.5502501E+00  3.6964348E+01
 8.5617504E+00  3.6819130E+01
 8.5732508E+00  3.6625748E+01
 8.5847502E+00  3.6472870E+01
 8.5962505E+00  3.6338272E+01
 8.6077509E+00  3.6161804E+01
 8.6192503E+00  3.6033489E+01
 8.6307507E+00  3.5863483E+01
 8.6422501E+00  3.5640648E+01
 8.6537504E+00  3.5474525E+01
 8.6652508E+00  3.5246746E+01
 8.6767502E+00  3.5202667E+01
 8.6882505E+00  3.5124733E+01
 8.6997509E+00  3.5152832E+01
 8.7112503E+00  3.5165653E+01
 8.7227507E+00  3.4996052E+01
 8.7342501E+00  3.4697102E+01
 8.7457504E+00  3.4321064E+01
 8.7572508E+00  3.4064846E+01
 8.7687502E+00  3.3913879E+01
 8.7802505E+00  3.3734928E+01
 8.7917500E+00  3.3533405E+01
 8.8032503E+00  3.3320866E+01
 8.8147507E+00  3.3164162E+01
 8.8262501E+00  3.3005829E+01
 8.8377504E+00  3.2885372E+01
 8.8492508E+00  3.2716564E+01
 8.8607502E+00  3.2601437E+01
 8.8722506E+00  3.2423973E+01
 8.8837500E+00  3.2208885E+01
 8.8952503E+00  3.2029366E+01
 8.9067507E+00  3.1837708E+01
 8.9182501E+00  3.1730013E+01
 8.9297504E+00  3.1526543E+01
 8.9412508E+00  3.1382000E+01
 8.9527502E+00  3.1173946E+01
 8.9642506E+00  3.1068419E+01
 8.9757500E+00  3.0903088E+01
 8.9872503E+00  3.0764496E+01
 8.9987507E+00  3.0565680E+01
 9.0102501E+00  3.0430775E+01
 9.0217505E+00  3.0317730E+01
 9.0332508E+00  3.0274302E+01
 9.0447502E+00  3.0151371E+01
 9.0562506E+00  3.0007662E+01
 9.0677500E+00  2.9920050E+01
 9.0792503E+00  2.9814718E+01
 9.0907507E+00  2.9761869E+01
 9.1022501E+00  2.9602240E+01
 9.1137505E+00  2.9471249E+01
 9.1252508E+00  2.9357956E+01
 9.1367502E+00  2.9229849E+01
 9.1482506E+00  2.9166391E+01
 9.1597500E+00  2.8972290E+01
 9.1712503E+00  2.8803001E+01
 9.1827507E+00  2.8654545E+01
 9.1942501E+00  2.8568705E+01
 9.2057505E+00  2.8434763E+01
 9.2172508E+00  2.8244553E+01
 9.2287502E+00  2.8034615E+01
 9.2402506E+00  2.7946171E+01
 9.2517500E+00  2.7846972E+01
 9.2632504E+00  2.7735744E+01
 9.2747507E+00  2.7611938E+01
 9.2862501E+00  2.7538189E+01
 9.2977505E+00  2.7552849E+01
 9.3092508E+00  2.7510880E+01
 9.3207502E+00  2.7452581E+01
 9.3322506E+00  2.7396101E+01
 9.3437500E+00  2.7382996E+01
 9.3552504E+00  2.7327745E+01
 9.3667507E+00  2.7298035E+01
 9.3782501E+00  2.7234863E+01
 9.3897505E+00  2.7218374E+01
 9.4012508E+00  2.7144472E+01
 9.4127502E+00  2.7077196E+01
 9.4242506E+00  2.7095528E+01
 9.4357500E+00  2.7008183E+01
 9.4472504E+00  2.6902122E+01
 9.4587507E+00  2.6824173E+01
 9.4702501E+00  2.6722395E+01
 9.4817505E+00  2.6591415E+01
 9.4932508E+00  2.6370338E+01
 9.5047503E+00  2.6238102E+01
 9.5162506E+00  2.6174688E+01
 9.5277500E+00  2.6133823E+01
 9.5392504E+00  2.6048277E+01
 9.5507507E+00  2.5940147E+01
 9.5622501E+00  2.5807808E+01
 9.5737505E+00  2.5710712E+01
 9.5852509E+00  2.5640501E+01
 9.5967503E+00  2.5618050E+01
 9.6082506E+00  2.5542120E+01
 9.6197500E+00  2.5523724E+01
 9.6312504E+00  2.5413319E+01
 9.6427507E+00  2.5417618E+01
 9.6542501E+00  2.5402081E+01
 9.6657505E+00  2.5391254E+01
 9.6772509E+00  2.5426096E+01
 9.6887503E+00  2.5361801E+01
 9.7002506E+00  2.5401474E+01
 9.7117500E+00  2.5350426E+01
 9.7232504E+00  2.5349182E+01
 9.7347507E+00  2.5295816E+01
 9.7462502E+00  2.5238522E+01
 9.7577505E+00  2.5195036E+01
 9.7692509E+00  2.5124729E+01
 9.7807503E+00  2.5063530E+01
 9.7922506E+00  2.5030434E+01
 9.8037500E+00  2.5026979E+01
 9.8152504E+00  2.4969767E+01
 9.8267508E+00  2.4870867E+01
 9.8382502E+00  2.4802853E+01
 9.8497505E+00  2.4780296E+01
 9.8612509E+00  2.4757813E+01
 9.8727503E+00  2.4729572E+01
 9.8842506E+00  2.4641338E+01
 9.8957500E+00  2.4619596E+01
 9.9072504E+00  2.4487654E+01
 9.9187508E+00  2.4458244E+01
 9.9302502E+00  2.4344046E+01
 9.9417505E+00  2.4269484E+01
 9.9532509E+00  2.4148575E+01
 9.9647503E+00  2.4139460E+01
 9.9762506E+00  2.4153555E+01
 9.9877501E+00  2.4140842E+01
 9.9992504E+00  2.4159494E+01
 1.0010751E+01  2.4122534E+01
 1.0022250E+01  2.4142378E+01
 1.0033751E+01  2.4121265E+01
 1.0045251E+01  2.4109528E+01
 1.0056750E+01  2.4098253E+01
 1.0068251E+01  2.4048803E+01
 1.0079750E+01  2.4033480E+01
 1.0091250E+01  2.3992340E+01
 1.0102751E+01  2.3948790E+01
 1.0114250E+01  2.3924379E+01
 1.0125751E+01  2.3926174E+01
 1.0137251E+01  2.3875181E+01
 1.0148750E+01  2.3839891E+01
 1.0160251E+01  2.3786007E+01
 1.0171750E+01  2.3768847E+01
 1.0183250E+01  2.3756800E+01
 1.0194751E+01  2.3712635E+01
 1.0206250E+01  2.3649546E+01
 1.0217751E+01  2.3634340E+01
 1.0229251E+01  2.3649645E+01
 1.0240750E+01  2.3665634E+01
 1.0252251E+01  2.3634605E+01
 1.0263750E+01  2.3561323E+01
 1.0275250E+01  2.3580601E+01
 1.0286751E+01  2.3522535E+01
 1.0298250E+01  2.3447300E+01
 1.0309751E+01  2.3386429E+01
 1.0321251E+01  2.3345047E+01
 1.0332750E+01  2.3341076E+01
 1.0344251E+01  2.3312878E+01
 1.0355750E+01  2.3307407E+01
 1.0367250E+01  2.3251684E+01
 1.0378751E+01  2.3272966E+01
 1.0390250E+01  2.3368174E+01
 1.0401751E+01  2.3465193E+01
 1.0413251E+01  2.3503883E+01
 1.0424750E+01  2.3411507E+01
 1.0436251E+01  2.3387682E+01
 1.0447750E+01  2.3273130E+01
 1.0459250E+01  2.3258533E+01
 1.0470751E+01  2.3196589E+01
 1.0482250E+01  2.3245399E+01
 1.0493751E+01  2.3231886E+01
 1.0505251E+01  2.3241896E+01
 1.0516750E+01  2.3246702E+01
 1.0528251E+01  2.3206490E+01
 1.0539750E+01  2.3145721E+01
 1.0551250E+01  2.3077885E+01
 1.0562751E+01  2.3060566E+01
 1.0574250E+01  2.3090376E+01
 1.0585751E+01  2.3025433E+01
 1.0597251E+01  2.3038582E+01
 1.0608750E+01  2.3018564E+01
 1.0620251E+01  2.3028744E+01
 1.0631750E+01  2.2925186E+01
 1.0643250E+01  2.2871979E+01
 1.0654751E+01  2.2858345E+01
 1.0666250E+01  2.2878576E+01
 1.0677751E+01  2.2884987E+01
 1.0689251E+01  2.2837114E+01
 1.0700750E+01  2.2868607E+01
 1.0712251E+01  2.2863914E+01
 1.0723750E+01  2.2915405E+01
 1.0735250E+01  2.2918989E+01
 1.0746751E+01  2.2931637E+01
 1.0758250E+01  2.2857256E+01
 1.0769751E+01  2.2817217E+01
 1.0781251E+01  2.2817881E+01
 1.0792750E+01  2.2827526E+01
 1.0804251E+01  2.2806149E+01
 1.0815750E+01  2.2761435E+01
 1.0827250E+01  2.2755056E+01
 1.0838751E+01  2.2709818E+01
 1.0850250E+01  2.2724470E+01
 1.0861751E+01  2.2707966E+01
 1.0873251E+01  2.2756451E+01
 1.0884750E+01  2.2694777E+01
 1.0896251E+01  2.2669277E+01
 1.0907750E+01  2.2652811E+01
 1.0919250E+01  2.2645044E+01
 1.0930751E+01  2.2640451E+01
 1.0942250E+01  2.2579090E+01
 1.0953751E+01  2.2538452E+01
 1.0965251E+01  2.2550413E+01
 1.0976750E+01  2.2553352E+01
 1.0988251E+01  2.2582941E+01
 1.0999750E+01  2.2551737E+01
 1.1011250E+01  2.2481190E+01
 1.1022751E+01  2.2458668E+01
 1.1034250E+01  2.2464539E+01
 1.1045751E+01  2.2471424E+01
 1.1057251E+01  2.2460558E+01
 1.1068750E+01  2.2453295E+01
 1.1080251E+01  2.2493780E+01
 1.1091750E+01  2.2534842E+01
 1.1103251E+01  2.2535355E+01
 1.1114751E+01  2.2527870E+01
 1.1126250E+01  2.2498978E+01
 1.1137751E+01  2.2442732E+01
 1.1149251E+01  2.2454538E+01
 1.1160750E+01  2.2392359E+01
 1.1172251E+01  2.2377939E+01
 1.1183750E+01  2.2303291E+01
 1.1195251E+01  2.2322807E+01
 1.1206751E+01  2.2367846E+01
 1.1218250E+01  2.2376711E+01
 1.1229751E+01  2.2462543E+01
 1.1241251E+01  2.2483320E+01
 1.1252750E+01  2.2505764E+01
 1.1264251E+01  2.2375122E+01
 1.1275750E+01  2.2296602E+01
 1.1287251E+01  2.2333208E+01
 1.1298751E+01  2.2376917E+01
 1.1310250E+01  2.2461292E+01
 1.1321751E+01  2.2488499E+01
 1.1333251E+01  2.2490471E+01
 1.1344750E+01  2.2481499E+01
 1.1356251E+01  2.2403435E+01
 1.1367750E+01  2.2468914E+01
 1.1379251E+01  2.2508041E+01
 1.1390751E+01  2.2586451E+01
 1.1402250E+01  2.2758762E+01
 1.1413751E+01  2.2814743E+01
 1.1425251E+01  2.2860144E+01
 1.1436750E+01  2.2785208E+01
 1.1448251E+01  2.2857557E+01
 1.1459750E+01  2.2966778E+01
 1.1471251E+01  2.3053888E+01
 1.1482751E+01  2.3138985E+01
 1.1494250E+01  2.3365412E+01
 1.1505751E+01  2.3710890E+01
 1.1517251E+01  2.4717884E+01
 1.1528750E+01  2.5791742E+01
 1.1540251E+01  2.8840488E+01
 1.1551750E+01  3.0804150E+01
 1.1563251E+01  3.4687489E+01
 1.1574751E+01  3.4581573E+01
 1.1586250E+01  3.5610909E+01
 1.1597751E+01  3.2659847E+01
 1.1609251E+01  3.1260248E+01
 1.1620750E+01  2.8148558E+01
 1.1632251E+01  2.6714792E+01
 1.1643750E+01  2.5080952E+01
 1.1655251E+01  2.4259819E+01
 1.1666751E+01  2.3483189E+01
 1.1678250E+01  2.3164886E+01
 1.1689751E+01  2.2981354E+01
 1.1701251E+01  2.2884676E+01
 1.1712750E+01  2.2801569E+01
 1.1724251E+01  2.2675323E+01
 1.1735750E+01  2.2588041E+01
 1.1747251E+01  2.2519377E+01
 1.1758751E+01  2.2541090E+01
 1.1770250E+01  2.2544926E+01
 1.1781751E+01  2.2570841E+01
 1.1793251E+01  2.2559286E+01
 1.1804750E+01  2.2564779E+01
 1.1816251E+01  2.2546295E+01
 1.1827750E+01  2.2554409E+01
 1.1839251E+01  2.2560936E+01
 1.1850751E+01  2.2491919E+01
 1.1862250E+01  2.2460436E+01
 1.1873751E+01  2.2415302E+01
 1.1885251E+01  2.2475927E+01
 1.1896750E+01  2.2611414E+01
 1.1908251E+01  2.2735462E+01
 1.1919750E+01  2.3036522E+01
 1.1931251E+01  2.3445557E+01
 1.1942751E+01  2.3631472E+01
 1.1954250E+01  2.4263660E+01
 1.1965751E+01  2.4512228E+01
 1.1977251E+01  2.4749517E+01
 1.1988750E+01  2.4510725E+01
 1.2000251E+01  2.4196159E+01
 1.2011750E+01  2.4073811E+01
 1.2023251E+01  2.3766293E+01
 1.2034751E+01  2.3698477E+01
 1.2046250E+01  2.3803112E+01
 1.2057751E+01  2.4113899E+01
 1.2069251E+01  2.4496914E+01
 1.2080750E+01  2.5060946E+01
 1.2092251E+01  2.5201872E+01
 1.2103750E+01  2.5495481E+01
 1.2115251E+01  2.5056108E+01
 1.2126751E+01  2.4818657E+01
 1.2138250E+01  2.4132704E+01
 1.2149751E+01  2.3747080E+01
 1.2161251E+01  2.3290333E+01
 1.2172750E+01  2.3057667E+01
 1.2184251E+01  2.2937263E+01
 1.2195750E+01  2.2858463E+01
 1.2207251E+01  2.2770563E+01
 1.2218751E+01  2.2676319E+01
 1.2230250E+01  2.2622152E+01
 1.2241751E+01  2.2582512E+01
 1.2253251E+01  2.2555338E+01
 1.2264750E+01  2.2516680E+01
 1.2276251E+01  2.2478828E+01
 1.2287750E+01  2.2447060E+01
 1.2299251E+01  2.2482252E+01
 1.2310751E+01  2.2557213E+01
 1.2322250E+01  2.2544218E+01
 1.2333751E+01  2.2558327E+01
 1.2345250E+01  2.2481459E+01
 1.2356750E+01  2.2544531E+01
 1.2368251E+01  2.2483452E+01
 1.2379750E+01  2.2568050E+01
 1.2391251E+01  2.2550047E+01
 1.2402751E+01  2.2567225E+01
 1.2414250E+01  2.2512857E+01
 1.2425751E+01  2.2482744E+01
 1.2437250E+01  2.2536213E+01
 1.2448750E+01  2.2551582E+01
 1.2460251E+01  2.2661026E+01
 1.2471750E+01  2.2659292E+01
 1.2483251E+01  2.2701870E+01
 1.2494751E+01  2.2664400E+01
 1.2506250E+01  2.2666904E+01
 1.2517751E+01  2.2702385E+01
 1.2529250E+01  2.2718300E+01
 1.2540751E+01  2.2747082E+01
 1.2552251E+01  2.2686285E+01
 1.2563750E+01  2.2622261E+01
 1.2575251E+01  2.2576277E+01
 1.2586751E+01  2.2584793E+01
 1.2598250E+01  2.2591551E+01
 1.2609751E+01  2.2575863E+01
 1.2621250E+01  2.2608950E+01
 1.2632751E+01  2.2636400E+01
 1.2644251E+01  2.2646542E+01
 1.2655750E+01  2.2634846E+01
 1.2667251E+01  2.2617922E+01
 1.2678751E+01  2.2653273E+01
 1.2690250E+01  2.2673664E+01
 1.2701751E+01  2.2737511E+01
 1.2713250E+01  2.2880022E+01
 1.2724751E+01  2.2914835E+01
 1.2736251E+01  2.2965549E+01
 1.2747750E+01  2.2957462E+01
 1.2759251E+01  2.2989586E+01
 1.2770751E+01  2.3004148E+01
 1.2782250E+01  2.3041500E+01
 1.2793751E+01  2.3048191E+01
 1.2805250E+01  2.3089527E+01
 1.2816751E+01  2.3080544E+01
 1.2828251E+01  2.3116497E+01
 1.2839750E+01  2.3161077E+01
 1.2851251E+01  2.3242348E+01
 1.2862751E+01  2.3436764E+01
 1.2874250E+01  2.3737925E+01
 1.2885751E+01  2.3989935E+01
 1.2897250E+01  2.4202856E+01
 1.2908751E+01  2.4300257E+01
 1.2920251E+01  2.4404371E+01
 1.2931750E+01  2.4302195E+01
 1.2943251E+01  2.4081896E+01
 1.2954751E+01  2.3833563E+01
 1.2966250E+01  2.3766314E+01
 1.2977751E+01  2.3767889E+01
 1.2989250E+01  2.3783993E+01
 1.3000751E+01  2.3816938E+01
 1.3012251E+01  2.3878969E+01
 1.3023750E+01  2.3967737E+01
 1.3035251E+01  2.4086443E+01
 1.3046751E+01  2.4112837E+01
 1.3058250E+01  2.4240509E+01
 1.3069751E+01  2.4255247E+01
 1.3081250E+01  2.4416039E+01
 1.3092751E+01  2.4498981E+01
 1.3104251E+01  2.4674829E+01
 1.3115750E+01  2.4818907E+01
 1.3127251E+01  2.4948551E+01
 1.3138751E+01  2.5096861E+01
 1.3150250E+01  2.5229841E+01
 1.3161751E+01  2.5295532E+01
 1.3173250E+01  2.5355715E+01
 1.3184751E+01  2.5417156E+01
 1.3196251E+01  2.5557451E+01
 1.3207750E+01  2.5676435E+01
 1.3219251E+01  2.5854452E+01
 1.3230751E+01  2.6019732E+01
 1.3242250E+01  2.6180634E+01
 1.3253751E+01  2.6308693E+01
 1.3265250E+01  2.6420507E+01
 1.3276751E+01  2.6495068E+01
 1.3288251E+01  2.6542995E+01
 1.3299750E+01  2.6641790E+01
 1.3311251E+01  2.6738039E+01
 1.3322751E+01  2.6894043E+01
 1.3334250E+01  2.7124676E+01
 1.3345751E+01  2.7335632E+01
 1.3357250E+01  2.7502613E+01
 1.3368751E+01  2.7577389E+01
 1.3380251E+01  2.7726768E+01
 1.3391750E+01  2.7883728E+01
 1.3403251E+01  2.8114733E+01
 1.3414751E+01  2.8230410E+01
 1.3426250E+01  2.8363596E+01
 1.3437751E+01  2.8442646E+01
 1.3449250E+01  2.8631561E+01
 1.3460751E+01  2.8731621E+01
 1.3472251E+01  2.8833874E+01
 1.3483750E+01  2.8940800E+01
 1.3495251E+01  2.9044062E+01
 1.3506751E+01  2.9166952E+01
 1.3518250E+01  2.9236948E+01
 1.3529751E+01  2.9370153E+01
 1.3541250E+01  2.9489618E+01
 1.3552751E+01  2.9602745E+01
 1.3564251E+01  2.9645947E+01
 1.3575750E+01  2.9730097E+01
 1.3587251E+01  2.9735817E+01
 1.3598751E+01  2.9797812E+01
 1.3610250E+01  2.9713396E+01
 1.3621751E+01  2.9763653E+01
 1.3633250E+01  2.9719732E+01
 1.3644751E+01  2.9708157E+01
 1.3656251E+01  2.9682299E+01
 1.3667750E+01  2.9681597E+01
 1.3679251E+01  2.9713512E+01
 1.3690751E+01  2.9689301E+01
 1.3702250E+01  2.9619492E+01
 1.3713751E+01  2.9538422E+01
 1.3725250E+01  2.9491215E+01
 1.3736751E+01  2.9522282E+01
 1.3748251E+01  2.9514250E+01
 1.3759750E+01  2.9506996E+01
 1.3771251E+01  2.9511944E+01
 1.3782751E+01  2.9508074E+01
 1.3794250E+01  2.9471992E+01
 1.3805751E+01  2.9408838E+01
 1.3817250E+01  2.9450396E+01
 1.3828751E+01  2.9529022E+01
 1.3840251E+01  2.9758947E+01
 1.3851750E+01  2.9974817E+01
 1.3863251E+01  3.0511038E+01
 1.3874751E+01  3.1195820E+01
 1.3886250E+01  3.2426037E+01
 1.3897751E+01  3.4594910E+01
 1.3909250E+01  3.7039822E+01
 1.3920751E+01  4.0353703E+01
 1.3932251E+01  4.3452713E+01
 1.3943750E+01  4.5637318E+01
 1.3955251E+01  4.6380672E+01
 1.3966751E+01  4.5744083E+01
 1.3978251E+01  4.3155804E+01
 1.3989751E+01  4.0491264E+01
 1.4001250E+01  3.6731300E+01
 1.4012751E+01  3.4286705E+01
 1.4024251E+01  3.1564690E+01
 1.4035750E+01  3.0219679E+01
 1.4047251E+01  2.9230724E+01
 1.4058751E+01  2.8510994E+01
 1.4070251E+01  2.8246498E+01
 1.4081751E+01  2.7989100E+01
 1.4093250E+01  2.7901604E+01
 1.4104751E+01  2.7791168E+01
 1.4116251E+01  2.7694763E+01
 1.4127750E+01  2.7516808E+01
 1.4139251E+01  2.7339891E+01
 1.4150751E+01  2.7125633E+01
 1.4162251E+01  2.6927197E+01
 1.4173751E+01  2.6768114E+01
 1.4185250E+01  2.6677290E+01
 1.4196751E+01  2.6623642E+01
 1.4208251E+01  2.6587238E+01
 1.4219750E+01  2.6536169E+01
 1.4231251E+01  2.6454679E+01
 1.4242751E+01  2.6377472E+01
 1.4254251E+01  2.6319851E+01
 1.4265751E+01  2.6249380E+01
 1.4277250E+01  2.6212288E+01
 1.4288751E+01  2.6164351E+01
 1.4300251E+01  2.6198952E+01
 1.4311750E+01  2.6172821E+01
 1.4323251E+01  2.6155426E+01
 1.4334751E+01  2.6118553E+01
 1.4346251E+01  2.6106659E+01
 1.4357751E+01  2.6088692E+01
 1.4369250E+01  2.6035383E+01
 1.4380751E+01  2.6001158E+01
 1.4392251E+01  2.5984726E+01
 1.4403750E+01  2.5982821E+01
 1.4415251E+01  2.5979181E+01
 1.4426751E+01  2.5961277E+01
 1.4438251E+01  2.5954130E+01
 1.4449751E+01  2.5915819E+01
 1.4461250E+01  2.5865055E+01
 1.4472751E+01  2.5808973E+01
 1.4484251E+01  2.5735617E+01
 1.4495750E+01  2.5681847E+01
 1.4507251E+01  2.5610241E+01
 1.4518751E+01  2.5550175E+01
 1.4530251E+01  2.5557066E+01
 1.4541751E+01  2.5552847E+01
 1.4553250E+01  2.5552010E+01
 1.4564751E+01  2.5493874E+01
 1.4576251E+01  2.5456985E+01
 1.4587750E+01  2.5445131E+01
 1.4599251E+01  2.5371948E+01
 1.4610751E+01  2.5339283E+01
 1.4622251E+01  2.5283920E+01
 1.4633751E+01  2.5292620E+01
 1.4645250E+01  2.5242886E+01
 1.4656751E+01  2.5181782E+01
 1.4668251E+01  2.5083319E+01
 1.4679750E+01  2.5069841E+01
 1.4691251E+01  2.5065506E+01
 1.4702751E+01  2.5123642E+01
 1.4714251E+01  2.5123409E+01
 1.4725751E+01  2.5147816E+01
 1.4737250E+01  2.5065168E+01
 1.4748751E+01  2.5037916E+01
 1.4760251E+01  2.5011507E+01
 1.4771750E+01  2.5048367E+01
 1.4783251E+01  2.5018532E+01
 1.4794751E+01  2.4972857E+01
 1.4806251E+01  2.4897827E+01
 1.4817751E+01  2.4876686E+01
 1.4829250E+01  2.4876511E+01
 1.4840751E+01  2.4934174E+01
 1.4852251E+01  2.4902794E+01
 1.4863750E+01  2.4874601E+01
 1.4875251E+01  2.4806158E+01
 1.4886751E+01  2.4779652E+01
 1.4898251E+01  2.4813826E+01
 1.4909751E+01  2.4824942E+01
 1.4921250E+01  2.4854967E+01
 1.4932751E+01  2.4837017E+01
 1.4944251E+01  2.4813263E+01
 1.4955750E+01  2.4780687E+01
 1.4967251E+01  2.4731817E+01
 1.4978751E+01  2.4761724E+01
 1.4990251E+01  2.4772247E+01
 1.5001751E+01  2.4813253E+01
 1.5013250E+01  2.4886692E+01
 1.5024751E+01  2.4968607E+01
 1.5036251E+01  2.5003334E+01
 1.5047750E+01  2.4984163E+01
 1.5059251E+01  2.4973896E+01
 1.5070751E+01  2.4993113E+01
 1.5082251E+01  2.4976913E+01
 1.5093751E+01  2.5000921E+01
 1.5105250E+01  2.5106613E+01
 1.5116751E+01  2.5310148E+01
 1.5128251E+01  2.5718195E+01
 1.5139750E+01  2.6218592E+01
 1.5151251E+01  2.7230185E+01
 1.5162751E+01  2.8067022E+01
 1.5174251E+01  2.8977949E+01
 1.5185751E+01  2.9025795E+01
 1.5197250E+01  2.8882282E+01
 1.5208751E+01  2.8081680E+01
 1.5220251E+01  2.7505804E+01
 1.5231750E+01  2.6729246E+01
 1.5243251E+01  2.6150219E+01
 1.5254751E+01  2.5613344E+01
 1.5266251E+01  2.5299871E+01
 1.5277751E+01  2.5124323E+01
 1.5289250E+01  2.4977757E+01
 1.5300751E+01  2.4901737E+01
 1.5312251E+01  2.4773249E+01
 1.5323750E+01  2.4692507E+01
 1.5335251E+01  2.4598841E+01
 1.5346751E+01  2.4519196E+01
 1.5358251E+01  2.4444586E+01
 1.5369751E+01  2.4434956E+01
 1.5381250E+01  2.4435072E+01
 1.5392751E+01  2.4463341E+01
 1.5404251E+01  2.4519028E+01
 1.5415751E+01  2.4531750E+01
 1.5427251E+01  2.4474489E+01
 1.5438751E+01  2.4397480E+01
 1.5450251E+01  2.4326317E+01
 1.5461751E+01  2.4342173E+01
 1.5473250E+01  2.4358328E+01
 1.5484751E+01  2.4422565E+01
 1.5496251E+01  2.4433208E+01
 1.5507751E+01  2.4444157E+01
 1.5519251E+01  2.4438688E+01
 1.5530751E+01  2.4454397E+01
 1.5542251E+01  2.4470392E+01
 1.5553751E+01  2.4461512E+01
 1.5565250E+01  2.4479919E+01
 1.5576751E+01  2.4473654E+01
 1.5588251E+01  2.4511728E+01
 1.5599751E+01  2.4501923E+01
 1.5611251E+01  2.4525116E+01
 1.5622751E+01  2.4528509E+01
 1.5634251E+01  2.4467749E+01
 1.5645751E+01  2.4451796E+01
 1.5657250E+01  2.4404221E+01
 1.5668751E+01  2.4430437E+01
 1.5680251E+01  2.4403662E+01
 1.5691751E+01  2.4423998E+01
 1.5703251E+01  2.4436729E+01
 1.5714751E+01  2.4394831E+01
 1.5726251E+01  2.4349157E+01
 1.5737751E+01  2.4231150E+01
 1.5749250E+01  2.4230938E+01
 1.5760751E+01  2.4284876E+01
 1.5772251E+01  2.4418587E+01
 1.5783751E+01  2.4480339E+01
 1.5795251E+01  2.4530945E+01
 1.5806751E+01  2.4607685E+01
 1.5818251E+01  2.4608376E+01
 1.5829751E+01  2.4634495E+01
 1.5841250E+01  2.4564234E+01
 1.5852751E+01  2.4564114E+01
 1.5864251E+01  2.4530613E+01
 1.5875751E+01  2.4537516E+01
 1.5887251E+01  2.4517056E+01
 1.5898750E+01  2.4499895E+01
 1.5910251E+01  2.4475790E+01
 1.5921751E+01  2.4486130E+01
 1.5933250E+01  2.4545397E+01
 1.5944751E+01  2.4568958E+01
 1.5956251E+01  2.4594311E+01
 1.5967751E+01  2.4566963E+01
 1.5979251E+01  2.4604673E+01
 1.5990750E+01  2.4658249E+01
 1.6002251E+01  2.4668472E+01
 1.6013750E+01  2.4692545E+01
 1.6025251E+01  2.4632584E+01
 1.6036751E+01  2.4610350E+01
 1.6048250E+01  2.4573343E+01
 1.6059752E+01  2.4582399E+01
 1.6071251E+01  2.4537870E+01
 1.6082750E+01  2.4542076E+01
 1.6094252E+01  2.4544592E+01
 1.6105751E+01  2.4610569E+01
 1.6117250E+01  2.4681252E+01
 1.6128750E+01  2.4702059E+01
 1.6140251E+01  2.4756395E+01
 1.6151751E+01  2.4742277E+01
 1.6163250E+01  2.4897312E+01
 1.6174751E+01  2.4902000E+01
 1.6186251E+01  2.5037970E+01
 1.6197750E+01  2.4886683E+01
 1.6209251E+01  2.5117592E+01
 1.6220751E+01  2.5084560E+01
 1.6232250E+01  2.5441496E+01
 1.6243752E+01  2.5528519E+01
 1.6255251E+01  2.5758650E+01
 1.6266750E+01  2.5893530E+01
 1.6278252E+01  2.5669230E+01
 1.6289751E+01  2.5713667E+01
 1.6301250E+01  2.5163324E+01
 1.6312750E+01  2.5250011E+01
 1.6324251E+01  2.4875881E+01
 1.6335751E+01  2.4984289E+01
 1.6347250E+01  2.4808199E+01
 1.6358751E+01  2.4775585E+01
 1.6370251E+01  2.4676273E+01
 1.6381750E+01  2.4569128E+01
 1.6393251E+01  2.4536757E+01
 1.6404751E+01  2.4497416E+01
 1.6416250E+01  2.4553217E+01
 1.6427752E+01  2.4543823E+01
 1.6439251E+01  2.4603485E+01
 1.6450750E+01  2.4576345E+01
 1.6462252E+01  2.4577297E+01
 1.6473751E+01  2.4537561E+01
 1.6485250E+01  2.4576897E+01
 1.6496750E+01  2.4597927E+01
 1.6508251E+01  2.4596706E+01
 1.6519751E+01  2.4576269E+01
 1.6531250E+01  2.4596241E+01
 1.6542751E+01  2.4644068E+01
 1.6554251E+01  2.4679203E+01
 1.6565750E+01  2.4697697E+01
 1.6577251E+01  2.4651390E+01
 1.6588751E+01  2.4607239E+01
 1.6600250E+01  2.4550190E+01
 1.6611752E+01  2.4495436E+01
 1.6623251E+01  2.4437616E+01
 1.6634750E+01  2.4352215E+01
 1.6646252E+01  2.4359600E+01
 1.6657751E+01  2.4358717E+01
 1.6669250E+01  2.4460732E+01
 1.6680750E+01  2.4483969E+01
 1.6692251E+01  2.4531689E+01
 1.6703751E+01  2.4525553E+01
 1.6715250E+01  2.4509548E+01
 1.6726751E+01  2.4451841E+01
 1.6738251E+01  2.4432068E+01
 1.6749750E+01  2.4487940E+01
 1.6761251E+01  2.4482670E+01
 1.6772751E+01  2.4450296E+01
 1.6784250E+01  2.4357449E+01
 1.6795752E+01  2.4332359E+01
 1.6807251E+01  2.4309258E+01
 1.6818750E+01  2.4308151E+01
 1.6830252E+01  2.4289806E+01
 1.6841751E+01  2.4263332E+01
 1.6853251E+01  2.4277081E+01
 1.6864750E+01  2.4289751E+01
 1.6876251E+01  2.4284969E+01
 1.6887751E+01  2.4248743E+01
 1.6899250E+01  2.4195862E+01
 1.6910751E+01  2.4221399E+01
 1.6922251E+01  2.4261179E+01
 1.6933750E+01  2.4316280E+01
 1.6945251E+01  2.4314192E+01
 1.6956751E+01  2.4338179E+01
 1.6968250E+01  2.4321264E+01
 1.6979752E+01  2.4322042E+01
 1.6991251E+01  2.4310629E+01
 1.7002750E+01  2.4319502E+01
 1.7014252E+01  2.4341808E+01
 1.7025751E+01  2.4329016E+01
 1.7037251E+01  2.4289351E+01
 1.7048750E+01  2.4194696E+01
 1.7060251E+01  2.4136610E+01
 1.7071751E+01  2.4154137E+01
 1.7083250E+01  2.4179594E+01
 1.7094751E+01  2.4232195E+01
 1.7106251E+01  2.4240980E+01
 1.7117750E+01  2.4218010E+01
 1.7129251E+01  2.4208099E+01
 1.7140751E+01  2.4208929E+01
 1.7152250E+01  2.4167294E+01
 1.7163752E+01  2.4129736E+01
 1.7175251E+01  2.4072746E+01
 1.7186750E+01  2.4052912E+01
 1.7198252E+01  2.3982281E+01
 1.7209751E+01  2.3980740E+01
 1.7221251E+01  2.3973688E+01
 1.7232750E+01  2.4041023E+01
 1.7244251E+01  2.4089394E+01
 1.7255751E+01  2.4103670E+01
 1.7267250E+01  2.4068279E+01
 1.7278751E+01  2.4044821E+01
 1.7290251E+01  2.4032030E+01
 1.7301750E+01  2.4040319E+01
 1.7313251E+01  2.4044178E+01
 1.7324751E+01  2.4084200E+01
 1.7336250E+01  2.4082247E+01
 1.7347752E+01  2.4034599E+01
 1.7359251E+01  2.4009140E+01
 1.7370750E+01  2.4018311E+01
 1.7382252E+01  2.4033388E+01
 1.7393751E+01  2.4000874E+01
 1.7405251E+01  2.3953953E+01
 1.7416750E+01  2.3946360E+01
 1.7428251E+01  2.3951801E+01
 1.7439751E+01  2.3954466E+01
 1.7451250E+01  2.3952942E+01
 1.7462751E+01  2.3931618E+01
 1.7474251E+01  2.3962875E+01
 1.7485750E+01  2.3997389E+01
 1.7497252E+01  2.3967112E+01
 1.7508751E+01  2.3905628E+01
 1.7520250E+01  2.3846046E+01
 1.7531752E+01  2.3847536E+01
 1.7543251E+01  2.3796749E+01
 1.7554750E+01  2.3751436E+01
 1.7566252E+01  2.3687252E+01
 1.7577751E+01  2.3690790E+01
 1.7589251E+01  2.3637434E+01
 1.7600750E+01  2.3652874E+01
 1.7612251E+01  2.3640720E+01
 1.7623751E+01  2.3684647E+01
 1.7635250E+01  2.3619755E+01
 1.7646751E+01  2.3626923E+01
 1.7658251E+01  2.3605497E+01
 1.7669750E+01  2.3640003E+01
 1.7681252E+01  2.3642580E+01
 1.7692751E+01  2.3697317E+01
 1.7704250E+01  2.3710129E+01
 1.7715752E+01  2.3701595E+01
 1.7727251E+01  2.3684443E+01
 1.7738750E+01  2.3656195E+01
 1.7750252E+01  2.3615980E+01
 1.7761751E+01  2.3599047E+01
 1.7773251E+01  2.3644733E+01
 1.7784750E+01  2.3686132E+01
 1.7796251E+01  2.3766823E+01
 1.7807751E+01  2.3761562E+01
 1.7819250E+01  2.3794065E+01
 1.7830751E+01  2.3774994E+01
 1.7842251E+01  2.3787422E+01
 1.7853750E+01  2.3724562E+01
 1.7865252E+01  2.3672743E+01
 1.7876751E+01  2.3662043E+01
 1.7888250E+01  2.3679033E+01
 1.7899752E+01  2.3699160E+01
 1.7911251E+01  2.3718540E+01
 1.7922750E+01  2.3757700E+01
 1.7934252E+01  2.3778151E+01
 1.7945751E+01  2.3802542E+01
 1.7957251E+01  2.3783253E+01
 1.7968750E+01  2.3858692E+01
 1.7980251E+01  2.3921776E+01
 1.7991751E+01  2.4053537E+01
 1.8003250E+01  2.4204710E+01
 1.8014751E+01  2.4299234E+01
 1.8026251E+01  2.4363081E+01
 1.8037750E+01  2.4391741E+01
 1.8049252E+01  2.4508829E+01
 1.8060751E+01  2.4568771E+01
 1.8072250E+01  2.4689238E+01
 1.8083752E+01  2.4904093E+01
 1.8095251E+01  2.5012514E+01
 1.8106750E+01  2.5140335E+01
 1.8118252E+01  2.5110250E+01
 1.8129751E+01  2.5076794E+01
 1.8141251E+01  2.4873049E+01
 1.8152750E+01  2.4655737E+01
 1.8164251E+01  2.4364574E+01
 1.8175751E+01  2.4117638E+01
 1.8187250E+01  2.3892050E+01
 1.8198751E+01  2.3786535E+01
 1.8210251E+01  2.3694777E+01
 1.8221750E+01  2.3642067E+01
 1.8233252E+01  2.3575462E+01
 1.8244751E+01  2.3518284E+01
 1.8256250E+01  2.3507711E+01
 1.8267752E+01  2.3470646E+01
 1.8279251E+01  2.3442707E+01
 1.8290751E+01  2.3431583E+01
 1.8302252E+01  2.3483845E+01
 1.8313751E+01  2.3486031E+01
 1.8325251E+01  2.3512135E+01
 1.8336750E+01  2.3508953E+01
 1.8348251E+01  2.3550245E+01
 1.8359751E+01  2.3542683E+01
 1.8371250E+01  2.3570839E+01
 1.8382751E+01  2.3573782E+01
 1.8394251E+01  2.3604095E+01
 1.8405750E+01  2.3635262E+01
 1.8417252E+01  2.3610857E+01
 1.8428751E+01  2.3554138E+01
 1.8440250E+01  2.3509130E+01
 1.8451752E+01  2.3479557E+01
 1.8463251E+01  2.3448080E+01
 1.8474751E+01  2.3441322E+01
 1.8486252E+01  2.3450354E+01
 1.8497751E+01  2.3473358E+01
 1.8509251E+01  2.3462481E+01
 1.8520750E+01  2.3485529E+01
 1.8532251E+01  2.3469751E+01
 1.8543751E+01  2.3458946E+01
 1.8555250E+01  2.3514753E+01
 1.8566751E+01  2.3521723E+01
 1.8578251E+01  2.3560007E+01
 1.8589750E+01  2.3533510E+01
 1.8601252E+01  2.3515863E+01
 1.8612751E+01  2.3494652E+01
 1.8624250E+01  2.3499582E+01
 1.8635752E+01  2.3536451E+01
 1.8647251E+01  2.3444872E+01
 1.8658751E+01  2.3389645E+01
 1.8670252E+01  2.3321608E+01
 1.8681751E+01  2.3359529E+01
 1.8693251E+01  2.3378250E+01
 1.8704750E+01  2.3369034E+01
 1.8716251E+01  2.3386133E+01
 1.8727751E+01  2.3384541E+01
 1.8739250E+01  2.3388641E+01
 1.8750751E+01  2.3344013E+01
 1.8762251E+01  2.3360838E+01
 1.8773750E+01  2.3341064E+01
 1.8785252E+01  2.3347847E+01
 1.8796751E+01  2.3370499E+01
 1.8808250E+01  2.3359646E+01
 1.8819752E+01  2.3381479E+01
 1.8831251E+01  2.3369255E+01
 1.8842751E+01  2.3401278E+01
 1.8854252E+01  2.3392132E+01
 1.8865751E+01  2.3406666E+01
 1.8877251E+01  2.3406939E+01
 1.8888750E+01  2.3423035E+01
 1.8900251E+01  2.3474012E+01
 1.8911751E+01  2.3513971E+01
 1.8923250E+01  2.3556566E+01
 1.8934752E+01  2.3562653E+01
 1.8946251E+01  2.3571856E+01
 1.8957750E+01  2.3516752E+01
 1.8969252E+01  2.3454527E+01
 1.8980751E+01  2.3427877E+01
 1.8992250E+01  2.3428089E+01
 1.9003752E+01  2.3433159E+01
 1.9015251E+01  2.3463491E+01
 1.9026751E+01  2.3483768E+01
 1.9038252E+01  2.3508369E+01
 1.9049751E+01  2.3442543E+01
 1.9061251E+01  2.3439222E+01
 1.9072750E+01  2.3436783E+01
 1.9084251E+01  2.3461830E+01
 1.9095751E+01  2.3457455E+01
 1.9107250E+01  2.3487164E+01
 1.9118752E+01  2.3518019E+01
 1.9130251E+01  2.3545345E+01
 1.9141750E+01  2.3523664E+01
 1.9153252E+01  2.3526848E+01
 1.9164751E+01  2.3477264E+01
 1.9176250E+01  2.3438005E+01
 1.9187752E+01  2.3448557E+01
 1.9199251E+01  2.3493673E+01
 1.9210751E+01  2.3513163E+01
 1.9222252E+01  2.3480503E+01
 1.9233751E+01  2.3395237E+01
 1.9245251E+01  2.3379234E+01
 1.9256750E+01  2.3389919E+01
 1.9268251E+01  2.3471523E+01
 1.9279751E+01  2.3493717E+01
 1.9291250E+01  2.3543976E+01
 1.9302752E+01  2.3560303E+01
 1.9314251E+01  2.3566441E+01
 1.9325750E+01  2.3535694E+01
 1.9337252E+01  2.3529013E+01
 1.9348751E+01  2.3528118E+01
 1.9360250E+01  2.3533869E+01
 1.9371752E+01  2.3553879E+01
 1.9383251E+01  2.3520037E+01
 1.9394751E+01  2.3538399E+01
 1.9406250E+01  2.3538424E+01
 1.9417751E+01  2.3553469E+01
 1.9429251E+01  2.3535181E+01
 1.9440750E+01  2.3505142E+01
 1.9452251E+01  2.3524414E+01
 1.9463751E+01  2.3527327E+01
 1.9475250E+01  2.3563560E+01
 1.9486752E+01  2.3604378E+01
 1.9498251E+01  2.3621443E+01
 1.9509750E+01  2.3658472E+01
 1.9521252E+01  2.3646942E+01
 1.9532751E+01  2.3625505E+01
 1.9544250E+01  2.3603998E+01
 1.9555752E+01  2.3582554E+01
 1.9567251E+01  2.3641060E+01
 1.9578751E+01  2.3664196E+01
 1.9590250E+01  2.3730635E+01
 1.9601751E+01  2.3777994E+01
 1.9613251E+01  2.3835907E+01
 1.9624750E+01  2.3901255E+01
 1.9636251E+01  2.3949247E+01
 1.9647751E+01  2.4004896E+01
 1.9659250E+01  2.4155151E+01
 1.9670752E+01  2.4358522E+01
 1.9682251E+01  2.4723745E+01
 1.9693750E+01  2.5172789E+01
 1.9705252E+01  2.5666674E+01
 1.9716751E+01  2.6102097E+01
 1.9728251E+01  2.6161322E+01
 1.9739752E+01  2.6337925E+01
 1.9751251E+01  2.5923569E+01
 1.9762751E+01  2.5702106E+01
 1.9774250E+01  2.5291555E+01
 1.9785751E+01  2.5124599E+01
 1.9797251E+01  2.5082066E+01
 1.9808750E+01  2.5133511E+01
 1.9820251E+01  2.5422251E+01
 1.9831751E+01  2.5806791E+01
 1.9843250E+01  2.6099617E+01
 1.9854752E+01  2.6347572E+01
 1.9866251E+01  2.6434792E+01
 1.9877750E+01  2.6364019E+01
 1.9889252E+01  2.6070663E+01
 1.9900751E+01  2.5690016E+01
 1.9912251E+01  2.5170839E+01
 1.9923752E+01  2.4658714E+01
 1.9935251E+01  2.4291868E+01
 1.9946751E+01  2.4021149E+01
 1.9958250E+01  2.3871202E+01
 1.9969751E+01  2.3827593E+01
 1.9981251E+01  2.3806866E+01
 1.9992750E+01  2.3772177E+01
 2.0004251E+01  2.3741201E+01
 2.0015751E+01  2.3667248E+01
 2.0027250E+01  2.3599117E+01
 2.0038752E+01  2.3595657E+01
 2.0050251E+01  2.3597345E+01
 2.0061750E+01  2.3581694E+01
 2.0073252E+01  2.3524921E+01
 2.0084751E+01  2.3518957E+01
 2.0096251E+01  2.3594553E+01
 2.0107752E+01  2.3626987E+01
 2.0119251E+01  2.3648203E+01
 2.0130751E+01  2.3621897E+01
 2.0142250E+01  2.3658325E+01
 2.0153751E+01  2.3635181E+01
 2.0165251E+01  2.3672148E+01
 2.0176750E+01  2.3703918E+01
 2.0188251E+01  2.3708921E+01
 2.0199751E+01  2.3696127E+01
 2.0211250E+01  2.3655277E+01
 2.0222752E+01  2.3635260E+01
 2.0234251E+01  2.3607706E+01
 2.0245750E+01  2.3644041E+01
 2.0257252E+01  2.3671993E+01
 2.0268751E+01  2.3665209E+01
 2.0280251E+01  2.3668427E+01
 2.0291752E+01  2.3656504E+01
 2.0303251E+01  2.3598989E+01
 2.0314751E+01  2.3551706E+01
 2.0326250E+01  2.3559767E+01
 2.0337751E+01  2.3556889E+01
 2.0349251E+01  2.3519842E+01
 2.0360750E+01  2.3452497E+01
 2.0372252E+01  2.3460615E+01
 2.0383751E+01  2.3478416E+01
 2.0395250E+01  2.3569977E+01
 2.0406752E+01  2.3589025E+01
 2.0418251E+01  2.3670567E+01
 2.0429750E+01  2.3690027E+01
 2.0441252E+01  2.3693415E+01
 2.0452751E+01  2.3676254E+01
 2.0464251E+01  2.3678362E+01
 2.0475752E+01  2.3732471E+01
 2.0487251E+01  2.3741959E+01
 2.0498751E+01  2.3725639E+01
 2.0510250E+01  2.3672935E+01
 2.0521751E+01  2.3642685E+01
 2.0533251E+01  2.3632603E+01
 2.0544750E+01  2.3690435E+01
 2.0556252E+01  2.3814669E+01
 2.0567751E+01  2.3841248E+01
 2.0579250E+01  2.3825008E+01
 2.0590752E+01  2.3827375E+01
 2.0602251E+01  2.3874352E+01
 2.0613750E+01  2.3930016E+01
 2.0625252E+01  2.3982933E+01
 2.0636751E+01  2.4058922E+01
 2.0648251E+01  2.4098824E+01
 2.0659752E+01  2.4151228E+01
 2.0671251E+01  2.4305458E+01
 2.0682751E+01  2.4584953E+01
 2.0694250E+01  2.4961845E+01
 2.0705751E+01  2.5517612E+01
 2.0717251E+01  2.6185877E+01
 2.0728750E+01  2.7159435E+01
 2.0740252E+01  2.8463348E+01
 2.0751751E+01  2.9552622E+01
 2.0763250E+01  3.0742960E+01
 2.0774752E+01  3.1141426E+01
 2.0786251E+01  3.0979773E+01
 2.0797750E+01  2.9972702E+01
 2.0809252E+01  2.8718460E+01
 2.0820751E+01  2.7405458E+01
 2.0832251E+01  2.6075670E+01
 2.0843752E+01  2.5237478E+01
 2.0855251E+01  2.4639215E+01
 2.0866751E+01  2.4372322E+01
 2.0878250E+01  2.4239189E+01
 2.0889751E+01  2.4159437E+01
 2.0901251E+01  2.4137201E+01
 2.0912750E+01  2.4124590E+01
 2.0924252E+01  2.4087566E+01
 2.0935751E+01  2.4071369E+01
 2.0947250E+01  2.4028337E+01
 2.0958752E+01  2.3993330E+01
 2.0970251E+01  2.3944771E+01
 2.0981750E+01  2.3900211E+01
 2.0993252E+01  2.3877914E+01
 2.1004751E+01  2.3847950E+01
 2.1016251E+01  2.3855621E+01
 2.1027752E+01  2.3818304E+01
 2.1039251E+01  2.3821754E+01
 2.1050751E+01  2.3830498E+01
 2.1062250E+01  2.3886986E+01
 2.1073751E+01  2.3930706E+01
 2.1085251E+01  2.3920568E+01
 2.1096750E+01  2.3840792E+01
 2.1108252E+01  2.3836479E+01
 2.1119751E+01  2.3813820E+01
 2.1131250E+01  2.3846241E+01
 2.1142752E+01  2.3821272E+01
 2.1154251E+01  2.3776489E+01
 2.1165751E+01  2.3785921E+01
 2.1177252E+01  2.3806866E+01
 2.1188751E+01  2.3840528E+01
 2.1200251E+01  2.3824781E+01
 2.1211752E+01  2.3848696E+01
 2.1223251E+01  2.3802021E+01
 2.1234751E+01  2.3770798E+01
 2.1246250E+01  2.3795422E+01
 2.1257751E+01  2.3819077E+01
 2.1269251E+01  2.3833479E+01
 2.1280750E+01  2.3858234E+01
 2.1292252E+01  2.3895166E+01
 2.1303751E+01  2.3882483E+01
 2.1315250E+01  2.3794798E+01
 2.1326752E+01  2.3769539E+01
 2.1338251E+01  2.3766008E+01
 2.1349751E+01  2.3788052E+01
 2.1361252E+01  2.3802256E+01
 2.1372751E+01  2.3835262E+01
 2.1384251E+01  2.3829367E+01
 2.1395752E+01  2.3804094E+01
 2.1407251E+01  2.3739021E+01
 2.1418751E+01  2.3752905E+01
 2.1430250E+01  2.3751160E+01
 2.1441751E+01  2.3748466E+01
 2.1453251E+01  2.3715122E+01
 2.1464750E+01  2.3740965E+01
 2.1476252E+01  2.3805746E+01
 2.1487751E+01  2.3891514E+01
 2.1499250E+01  2.3921843E+01
 2.1510752E+01  2.3959574E+01
 2.1522251E+01  2.3920214E+01
 2.1533751E+01  2.3864725E+01
 2.1545252E+01  2.3842520E+01
 2.1556751E+01  2.3818296E+01
 2.1568251E+01  2.3774544E+01
 2.1579752E+01  2.3785004E+01
 2.1591251E+01  2.3873108E+01
 2.1602751E+01  2.3917721E+01
 2.1614250E+01  2.3946051E+01
 2.1625751E+01  2.3962263E+01
 2.1637251E+01  2.3932775E+01
 2.1648750E+01  2.3871880E+01
 2.1660252E+01  2.3836853E+01
 2.1671751E+01  2.3846748E+01
 2.1683250E+01  2.3907442E+01
 2.1694752E+01  2.3952181E+01
 2.1706251E+01  2.3990528E+01
 2.1717751E+01  2.3965809E+01
 2.1729252E+01  2.3990578E+01
 2.1740751E+01  2.4026857E+01
 2.1752251E+01  2.3997730E+01
 2.1763752E+01  2.4009209E+01
 2.1775251E+01  2.4058767E+01
 2.1786751E+01  2.4114687E+01
 2.1798250E+01  2.4119772E+01
 2.1809752E+01  2.4098818E+01
 2.1821251E+01  2.4073423E+01
 2.1832750E+01  2.4008894E+01
 2.1844252E+01  2.3978788E+01
 2.1855751E+01  2.4010189E+01
 2.1867250E+01  2.4086407E+01
 2.1878752E+01  2.4132885E+01
 2.1890251E+01  2.4139616E+01
 2.1901751E+01  2.4120337E+01
 2.1913252E+01  2.4142155E+01
 2.1924751E+01  2.4078421E+01
 2.1936251E+01  2.4075548E+01
 2.1947752E+01  2.4049376E+01
 2.1959251E+01  2.4089144E+01
 2.1970751E+01  2.4140898E+01
 2.1982250E+01  2.4172056E+01
 2.1993752E+01  2.4172760E+01
 2.2005251E+01  2.4175125E+01
 2.2016750E+01  2.4224691E+01
 2.2028252E+01  2.4243578E+01
 2.2039751E+01  2.4227484E+01
 2.2051250E+01  2.4212643E+01
 2.2062752E+01  2.4222214E+01
 2.2074251E+01  2.4226017E+01
 2.2085751E+01  2.4223619E+01
 2.2097252E+01  2.4219734E+01
 2.2108751E+01  2.4192865E+01
 2.2120251E+01  2.4214806E+01
 2.2131752E+01  2.4175514E+01
 2.2143251E+01  2.4164524E+01
 2.2154751E+01  2.4145241E+01
 2.2166250E+01  2.4166035E+01
 2.2177752E+01  2.4195120E+01
 2.2189251E+01  2.4197340E+01
 2.2200750E+01  2.4244249E+01
 2.2212252E+01  2.4286350E+01
 2.2223751E+01  2.4356533E+01
 2.2235250E+01  2.4423784E+01
 2.2246752E+01  2.4428089E+01
 2.2258251E+01  2.4406670E+01
 2.2269751E+01  2.4384634E+01
 2.2281252E+01  2.4369249E+01
 2.2292751E+01  2.4404676E+01
 2.2304251E+01  2.4444210E+01
 2.2315752E+01  2.4469742E+01
 2.2327251E+01  2.4444328E+01
 2.2338751E+01  2.4419432E+01
 2.2350250E+01  2.4415329E+01
 2.2361752E+01  2.4450632E+01
 2.2373251E+01  2.4480228E+01
 2.2384750E+01  2.4461056E+01
 2.2396252E+01  2.4451206E+01
 2.2407751E+01  2.4392921E+01
 2.2419250E+01  2.4344736E+01
 2.2430752E+01  2.4332350E+01
 2.2442251E+01  2.4422699E+01
 2.2453751E+01  2.4532553E+01
 2.2465252E+01  2.4584745E+01
 2.2476751E+01  2.4554853E+01
 2.2488251E+01  2.4488779E+01
 2.2499752E+01  2.4494946E+01
 2.2511251E+01  2.4507381E+01
 2.2522751E+01  2.4563301E+01
 2.2534250E+01  2.4618244E+01
 2.2545752E+01  2.4677479E+01
 2.2557251E+01  2.4701773E+01
 2.2568750E+01  2.4684759E+01
 2.2580252E+01  2.4704741E+01
 2.2591751E+01  2.4743460E+01
 2.2603251E+01  2.4838446E+01
 2.2614752E+01  2.4906794E+01
 2.2626251E+01  2.4977062E+01
 2.2637751E+01  2.4993647E+01
 2.2649252E+01  2.4995508E+01
 2.2660751E+01  2.4979052E+01
 2.2672251E+01  2.5062811E+01
 2.2683752E+01  2.5102322E+01
 2.2695251E+01  2.5170673E+01
 2.2706751E+01  2.5123976E+01
 2.2718250E+01  2.5115986E+01
 2.2729752E+01  2.5104122E+01
 2.2741251E+01  2.5129480E+01
 2.2752750E+01  2.5178366E+01
 2.2764252E+01  2.5200541E+01
 2.2775751E+01  2.5245729E+01
 2.2787251E+01  2.5195139E+01
 2.2798752E+01  2.5320377E+01
 2.2810251E+01  2.5399731E+01
 2.2821751E+01  2.5414063E+01
 2.2833252E+01  2.5408375E+01
 2.2844751E+01  2.5416328E+01
 2.2856251E+01  2.5426531E+01
 2.2867750E+01  2.5467989E+01
 2.2879251E+01  2.5489429E+01
 2.2890751E+01  2.5563679E+01
 2.2902250E+01  2.5608362E+01
 2.2913752E+01  2.5776377E+01
 2.2925251E+01  2.5882467E+01
 2.2936750E+01  2.5931696E+01
 2.2948252E+01  2.5964399E+01
 2.2959751E+01  2.5997633E+01
 2.2971251E+01  2.6092590E+01
 2.2982752E+01  2.6191025E+01
 2.2994251E+01  2.6334986E+01
