F:\20151113_APS_34IDE\\Brian\Particle1\OCV\Data_0037.tif
2-Theta Angle (Degrees)
Intensity
       2000
 5.7500005E-03  0.0000000E+00
 1.7250001E-02  0.0000000E+00
 2.8750001E-02  0.0000000E+00
 4.0250003E-02  0.0000000E+00
 5.1750004E-02  0.0000000E+00
 6.3250005E-02  0.0000000E+00
 7.4750006E-02  0.0000000E+00
 8.6250007E-02  0.0000000E+00
 9.7750008E-02  0.0000000E+00
 1.0925001E-01  0.0000000E+00
 1.2075000E-01  0.0000000E+00
 1.3225001E-01  0.0000000E+00
 1.4375001E-01  0.0000000E+00
 1.5525001E-01  0.0000000E+00
 1.6675001E-01  0.0000000E+00
 1.7825001E-01  0.0000000E+00
 1.8975002E-01  0.0000000E+00
 2.0125002E-01  0.0000000E+00
 2.1275002E-01  0.0000000E+00
 2.2425000E-01  0.0000000E+00
 2.3575000E-01  0.0000000E+00
 2.4725001E-01  0.0000000E+00
 2.5875002E-01  0.0000000E+00
 2.7025002E-01  0.0000000E+00
 2.8175002E-01  0.0000000E+00
 2.9325002E-01  0.0000000E+00
 3.0475003E-01  0.0000000E+00
 3.1625003E-01  0.0000000E+00
 3.2775003E-01  0.0000000E+00
 3.3925003E-01  0.0000000E+00
 3.5075003E-01  0.0000000E+00
 3.6225003E-01  0.0000000E+00
 3.7375003E-01  0.0000000E+00
 3.8525003E-01  0.0000000E+00
 3.9675003E-01  0.0000000E+00
 4.0825003E-01  0.0000000E+00
 4.1975003E-01  0.0000000E+00
 4.3125004E-01  0.0000000E+00
 4.4275001E-01  0.0000000E+00
 4.5425001E-01  0.0000000E+00
 4.6575001E-01  0.0000000E+00
 4.7725001E-01  0.0000000E+00
 4.8875001E-01  0.0000000E+00
 5.0025004E-01  0.0000000E+00
 5.1175004E-01  0.0000000E+00
 5.2325004E-01  0.0000000E+00
 5.3475004E-01  0.0000000E+00
 5.4625005E-01  0.0000000E+00
 5.5775005E-01  0.0000000E+00
 5.6925005E-01  0.0000000E+00
 5.8075005E-01  0.0000000E+00
 5.9225005E-01  0.0000000E+00
 6.0375005E-01  0.0000000E+00
 6.1525005E-01  0.0000000E+00
 6.2675005E-01  0.0000000E+00
 6.3825005E-01  0.0000000E+00
 6.4975005E-01  0.0000000E+00
 6.6125005E-01  0.0000000E+00
 6.7275006E-01  0.0000000E+00
 6.8425006E-01  0.0000000E+00
 6.9575006E-01  0.0000000E+00
 7.0725006E-01  0.0000000E+00
 7.1875006E-01  0.0000000E+00
 7.3025006E-01  0.0000000E+00
 7.4175006E-01  0.0000000E+00
 7.5325006E-01  0.0000000E+00
 7.6475006E-01  0.0000000E+00
 7.7625006E-01  0.0000000E+00
 7.8775007E-01  0.0000000E+00
 7.9925007E-01  0.0000000E+00
 8.1075007E-01  0.0000000E+00
 8.2225007E-01  0.0000000E+00
 8.3375007E-01  0.0000000E+00
 8.4525007E-01  0.0000000E+00
 8.5675007E-01  0.0000000E+00
 8.6825007E-01  0.0000000E+00
 8.7975001E-01  0.0000000E+00
 8.9125001E-01  0.0000000E+00
 9.0275002E-01  0.0000000E+00
 9.1425002E-01  0.0000000E+00
 9.2575002E-01  0.0000000E+00
 9.3725002E-01  0.0000000E+00
 9.4875002E-01  0.0000000E+00
 9.6025002E-01  0.0000000E+00
 9.7175002E-01  0.0000000E+00
 9.8325002E-01  0.0000000E+00
 9.9475002E-01  0.0000000E+00
 1.0062500E+00  0.0000000E+00
 1.0177500E+00  0.0000000E+00
 1.0292500E+00  0.0000000E+00
 1.0407500E+00  0.0000000E+00
 1.0522500E+00  0.0000000E+00
 1.0637500E+00  0.0000000E+00
 1.0752500E+00  0.0000000E+00
 1.0867500E+00  0.0000000E+00
 1.0982500E+00  0.0000000E+00
 1.1097500E+00  0.0000000E+00
 1.1212500E+00  0.0000000E+00
 1.1327500E+00  0.0000000E+00
 1.1442500E+00  0.0000000E+00
 1.1557500E+00  0.0000000E+00
 1.1672500E+00  0.0000000E+00
 1.1787500E+00  0.0000000E+00
 1.1902500E+00  0.0000000E+00
 1.2017500E+00  0.0000000E+00
 1.2132500E+00  0.0000000E+00
 1.2247500E+00  0.0000000E+00
 1.2362500E+00  0.0000000E+00
 1.2477500E+00  0.0000000E+00
 1.2592500E+00  0.0000000E+00
 1.2707500E+00  0.0000000E+00
 1.2822500E+00  0.0000000E+00
 1.2937500E+00  0.0000000E+00
 1.3052500E+00  0.0000000E+00
 1.3167500E+00  0.0000000E+00
 1.3282501E+00  0.0000000E+00
 1.3397501E+00  0.0000000E+00
 1.3512501E+00  0.0000000E+00
 1.3627501E+00  0.0000000E+00
 1.3742501E+00  0.0000000E+00
 1.3857501E+00  0.0000000E+00
 1.3972501E+00  0.0000000E+00
 1.4087501E+00  0.0000000E+00
 1.4202501E+00  0.0000000E+00
 1.4317501E+00  0.0000000E+00
 1.4432501E+00  0.0000000E+00
 1.4547501E+00  0.0000000E+00
 1.4662501E+00  0.0000000E+00
 1.4777501E+00  0.0000000E+00
 1.4892501E+00  0.0000000E+00
 1.5007501E+00  0.0000000E+00
 1.5122501E+00  0.0000000E+00
 1.5237501E+00  0.0000000E+00
 1.5352501E+00  0.0000000E+00
 1.5467501E+00  0.0000000E+00
 1.5582501E+00  0.0000000E+00
 1.5697501E+00  0.0000000E+00
 1.5812501E+00  0.0000000E+00
 1.5927501E+00  0.0000000E+00
 1.6042501E+00  0.0000000E+00
 1.6157501E+00  0.0000000E+00
 1.6272501E+00  0.0000000E+00
 1.6387501E+00  0.0000000E+00
 1.6502501E+00  0.0000000E+00
 1.6617501E+00  0.0000000E+00
 1.6732501E+00  0.0000000E+00
 1.6847501E+00  0.0000000E+00
 1.6962501E+00  0.0000000E+00
 1.7077501E+00  0.0000000E+00
 1.7192501E+00  0.0000000E+00
 1.7307501E+00  0.0000000E+00
 1.7422501E+00  0.0000000E+00
 1.7537501E+00  0.0000000E+00
 1.7652501E+00  0.0000000E+00
 1.7767501E+00  0.0000000E+00
 1.7882501E+00  0.0000000E+00
 1.7997501E+00  0.0000000E+00
 1.8112501E+00  0.0000000E+00
 1.8227501E+00  0.0000000E+00
 1.8342501E+00  0.0000000E+00
 1.8457501E+00  0.0000000E+00
 1.8572501E+00  0.0000000E+00
 1.8687501E+00  0.0000000E+00
 1.8802501E+00  0.0000000E+00
 1.8917501E+00  0.0000000E+00
 1.9032501E+00  0.0000000E+00
 1.9147501E+00  0.0000000E+00
 1.9262501E+00  0.0000000E+00
 1.9377501E+00  0.0000000E+00
 1.9492501E+00  0.0000000E+00
 1.9607501E+00  0.0000000E+00
 1.9722501E+00  0.0000000E+00
 1.9837501E+00  0.0000000E+00
 1.9952501E+00  0.0000000E+00
 2.0067501E+00  0.0000000E+00
 2.0182500E+00  0.0000000E+00
 2.0297501E+00  0.0000000E+00
 2.0412500E+00  0.0000000E+00
 2.0527501E+00  0.0000000E+00
 2.0642500E+00  0.0000000E+00
 2.0757501E+00  0.0000000E+00
 2.0872500E+00  0.0000000E+00
 2.0987501E+00  0.0000000E+00
 2.1102500E+00  0.0000000E+00
 2.1217501E+00  0.0000000E+00
 2.1332500E+00  0.0000000E+00
 2.1447501E+00  0.0000000E+00
 2.1562500E+00  0.0000000E+00
 2.1677501E+00  0.0000000E+00
 2.1792500E+00  0.0000000E+00
 2.1907501E+00  0.0000000E+00
 2.2022500E+00  0.0000000E+00
 2.2137501E+00  0.0000000E+00
 2.2252500E+00  0.0000000E+00
 2.2367501E+00  0.0000000E+00
 2.2482500E+00  0.0000000E+00
 2.2597501E+00  0.0000000E+00
 2.2712500E+00  0.0000000E+00
 2.2827501E+00  0.0000000E+00
 2.2942500E+00  0.0000000E+00
 2.3057501E+00  0.0000000E+00
 2.3172500E+00  0.0000000E+00
 2.3287501E+00  0.0000000E+00
 2.3402500E+00  0.0000000E+00
 2.3517501E+00  0.0000000E+00
 2.3632500E+00  0.0000000E+00
 2.3747501E+00  0.0000000E+00
 2.3862500E+00  0.0000000E+00
 2.3977501E+00  0.0000000E+00
 2.4092500E+00  0.0000000E+00
 2.4207501E+00  0.0000000E+00
 2.4322500E+00  0.0000000E+00
 2.4437501E+00  0.0000000E+00
 2.4552500E+00  0.0000000E+00
 2.4667501E+00  0.0000000E+00
 2.4782500E+00  0.0000000E+00
 2.4897501E+00  0.0000000E+00
 2.5012500E+00  0.0000000E+00
 2.5127501E+00  0.0000000E+00
 2.5242500E+00  0.0000000E+00
 2.5357502E+00  0.0000000E+00
 2.5472500E+00  0.0000000E+00
 2.5587502E+00  0.0000000E+00
 2.5702500E+00  0.0000000E+00
 2.5817502E+00  0.0000000E+00
 2.5932500E+00  0.0000000E+00
 2.6047502E+00  0.0000000E+00
 2.6162500E+00  0.0000000E+00
 2.6277502E+00  0.0000000E+00
 2.6392500E+00  0.0000000E+00
 2.6507502E+00  0.0000000E+00
 2.6622500E+00  0.0000000E+00
 2.6737502E+00  0.0000000E+00
 2.6852500E+00  0.0000000E+00
 2.6967502E+00  0.0000000E+00
 2.7082500E+00  0.0000000E+00
 2.7197502E+00  0.0000000E+00
 2.7312500E+00  0.0000000E+00
 2.7427502E+00  0.0000000E+00
 2.7542500E+00  0.0000000E+00
 2.7657502E+00  0.0000000E+00
 2.7772501E+00  0.0000000E+00
 2.7887502E+00  0.0000000E+00
 2.8002501E+00  0.0000000E+00
 2.8117502E+00  0.0000000E+00
 2.8232501E+00  2.9395878E+01
 2.8347502E+00  3.1579025E+01
 2.8462501E+00  3.2138924E+01
 2.8577502E+00  3.2902241E+01
 2.8692501E+00  3.3495434E+01
 2.8807502E+00  3.3842426E+01
 2.8922501E+00  3.4041344E+01
 2.9037502E+00  3.4456432E+01
 2.9152501E+00  3.5173645E+01
 2.9267502E+00  3.5866112E+01
 2.9382501E+00  3.5992321E+01
 2.9497502E+00  3.6198463E+01
 2.9612501E+00  3.5772850E+01
 2.9727502E+00  3.5764442E+01
 2.9842501E+00  3.5411335E+01
 2.9957502E+00  3.5547127E+01
 3.0072501E+00  3.5658325E+01
 3.0187502E+00  3.5697506E+01
 3.0302501E+00  3.5631687E+01
 3.0417502E+00  3.5511822E+01
 3.0532501E+00  3.5262814E+01
 3.0647502E+00  3.5543438E+01
 3.0762501E+00  3.5502110E+01
 3.0877502E+00  3.5840572E+01
 3.0992501E+00  3.6003910E+01
 3.1107502E+00  3.5961288E+01
 3.1222501E+00  3.5705719E+01
 3.1337502E+00  3.5190083E+01
 3.1452501E+00  3.4855831E+01
 3.1567502E+00  3.4892284E+01
 3.1682501E+00  3.4712891E+01
 3.1797502E+00  3.5030823E+01
 3.1912501E+00  3.4995632E+01
 3.2027502E+00  3.5173817E+01
 3.2142501E+00  3.5286644E+01
 3.2257502E+00  3.5331825E+01
 3.2372501E+00  3.5328091E+01
 3.2487502E+00  3.5254845E+01
 3.2602501E+00  3.5205185E+01
 3.2717502E+00  3.5017975E+01
 3.2832501E+00  3.5033222E+01
 3.2947502E+00  3.4921871E+01
 3.3062501E+00  3.5005905E+01
 3.3177502E+00  3.4725365E+01
 3.3292501E+00  3.4718319E+01
 3.3407502E+00  3.4653164E+01
 3.3522501E+00  3.4579323E+01
 3.3637502E+00  3.4385975E+01
 3.3752501E+00  3.4033306E+01
 3.3867502E+00  3.3737946E+01
 3.3982501E+00  3.3397991E+01
 3.4097502E+00  3.3006119E+01
 3.4212501E+00  3.3077770E+01
 3.4327502E+00  3.3194443E+01
 3.4442501E+00  3.3600716E+01
 3.4557502E+00  3.3841354E+01
 3.4672501E+00  3.3947617E+01
 3.4787502E+00  3.3868443E+01
 3.4902501E+00  3.3986141E+01
 3.5017502E+00  3.3786572E+01
 3.5132501E+00  3.3722404E+01
 3.5247502E+00  3.3376709E+01
 3.5362501E+00  3.3312473E+01
 3.5477502E+00  3.3340439E+01
 3.5592501E+00  3.3254051E+01
 3.5707502E+00  3.3119125E+01
 3.5822501E+00  3.2847889E+01
 3.5937502E+00  3.2784561E+01
 3.6052501E+00  3.2788837E+01
 3.6167502E+00  3.2801109E+01
 3.6282501E+00  3.2924393E+01
 3.6397502E+00  3.3012768E+01
 3.6512501E+00  3.3190258E+01
 3.6627502E+00  3.2999363E+01
 3.6742501E+00  3.2763863E+01
 3.6857502E+00  3.2589642E+01
 3.6972501E+00  3.2494007E+01
 3.7087502E+00  3.2274956E+01
 3.7202501E+00  3.2099972E+01
 3.7317502E+00  3.2095062E+01
 3.7432501E+00  3.2305626E+01
 3.7547503E+00  3.2529255E+01
 3.7662501E+00  3.2584152E+01
 3.7777503E+00  3.2606647E+01
 3.7892501E+00  3.2415997E+01
 3.8007503E+00  3.2379135E+01
 3.8122501E+00  3.2177811E+01
 3.8237503E+00  3.2101883E+01
 3.8352501E+00  3.2004589E+01
 3.8467503E+00  3.2209587E+01
 3.8582501E+00  3.2552692E+01
 3.8697503E+00  3.2564556E+01
 3.8812501E+00  3.2549313E+01
 3.8927503E+00  3.2278061E+01
 3.9042501E+00  3.2114658E+01
 3.9157503E+00  3.1884283E+01
 3.9272501E+00  3.1689484E+01
 3.9387503E+00  3.1655363E+01
 3.9502501E+00  3.1642782E+01
 3.9617503E+00  3.1898428E+01
 3.9732502E+00  3.2102673E+01
 3.9847503E+00  3.2242321E+01
 3.9962502E+00  3.2213974E+01
 4.0077500E+00  3.2281345E+01
 4.0192504E+00  3.2096142E+01
 4.0307503E+00  3.2055401E+01
 4.0422502E+00  3.1835337E+01
 4.0537500E+00  3.1831249E+01
 4.0652504E+00  3.1774424E+01
 4.0767503E+00  3.1649183E+01
 4.0882502E+00  3.1685421E+01
 4.0997500E+00  3.1585398E+01
 4.1112504E+00  3.1645952E+01
 4.1227503E+00  3.1562843E+01
 4.1342502E+00  3.1563797E+01
 4.1457500E+00  3.1687551E+01
 4.1572504E+00  3.1748848E+01
 4.1687503E+00  3.1925692E+01
 4.1802502E+00  3.2004372E+01
 4.1917500E+00  3.2203197E+01
 4.2032504E+00  3.2334831E+01
 4.2147503E+00  3.2339054E+01
 4.2262502E+00  3.2287949E+01
 4.2377501E+00  3.2250725E+01
 4.2492504E+00  3.2161449E+01
 4.2607503E+00  3.2229313E+01
 4.2722502E+00  3.2086952E+01
 4.2837501E+00  3.2148361E+01
 4.2952504E+00  3.2100662E+01
 4.3067503E+00  3.2133121E+01
 4.3182502E+00  3.2077648E+01
 4.3297501E+00  3.2027676E+01
 4.3412504E+00  3.1953663E+01
 4.3527503E+00  3.1844975E+01
 4.3642502E+00  3.1776106E+01
 4.3757501E+00  3.1725948E+01
 4.3872504E+00  3.1895660E+01
 4.3987503E+00  3.2036961E+01
 4.4102502E+00  3.2272240E+01
 4.4217501E+00  3.2466244E+01
 4.4332504E+00  3.2493530E+01
 4.4447503E+00  3.2621044E+01
 4.4562502E+00  3.2663982E+01
 4.4677501E+00  3.2711937E+01
 4.4792504E+00  3.2639687E+01
 4.4907503E+00  3.2658592E+01
 4.5022502E+00  3.2619137E+01
 4.5137501E+00  3.2811344E+01
 4.5252504E+00  3.2811424E+01
 4.5367503E+00  3.2863247E+01
 4.5482502E+00  3.2802769E+01
 4.5597501E+00  3.2696030E+01
 4.5712504E+00  3.2634758E+01
 4.5827503E+00  3.2534222E+01
 4.5942502E+00  3.2532188E+01
 4.6057501E+00  3.2468906E+01
 4.6172504E+00  3.2503750E+01
 4.6287503E+00  3.2534187E+01
 4.6402502E+00  3.2703880E+01
 4.6517501E+00  3.2823494E+01
 4.6632504E+00  3.2867821E+01
 4.6747503E+00  3.2911797E+01
 4.6862502E+00  3.2860550E+01
 4.6977501E+00  3.2946651E+01
 4.7092505E+00  3.2966358E+01
 4.7207503E+00  3.2928165E+01
 4.7322502E+00  3.2598454E+01
 4.7437501E+00  3.2305344E+01
 4.7552505E+00  3.2109135E+01
 4.7667503E+00  3.2128788E+01
 4.7782502E+00  3.2004242E+01
 4.7897501E+00  3.1963417E+01
 4.8012505E+00  3.1931772E+01
 4.8127503E+00  3.2072250E+01
 4.8242502E+00  3.2157280E+01
 4.8357501E+00  3.2263042E+01
 4.8472505E+00  3.2388237E+01
 4.8587503E+00  3.2508007E+01
 4.8702502E+00  3.2418819E+01
 4.8817501E+00  3.2454166E+01
 4.8932505E+00  3.2424809E+01
 4.9047503E+00  3.2621239E+01
 4.9162502E+00  3.2804047E+01
 4.9277501E+00  3.2834553E+01
 4.9392505E+00  3.2915314E+01
 4.9507504E+00  3.2832203E+01
 4.9622502E+00  3.2873501E+01
 4.9737501E+00  3.2761280E+01
 4.9852505E+00  3.2868256E+01
 4.9967504E+00  3.2931416E+01
 5.0082502E+00  3.3090809E+01
 5.0197501E+00  3.3096741E+01
 5.0312505E+00  3.3119076E+01
 5.0427504E+00  3.3087296E+01
 5.0542502E+00  3.2991520E+01
 5.0657501E+00  3.2978825E+01
 5.0772505E+00  3.2969643E+01
 5.0887504E+00  3.3021812E+01
 5.1002502E+00  3.3063099E+01
 5.1117501E+00  3.3132706E+01
 5.1232505E+00  3.3218891E+01
 5.1347504E+00  3.3301334E+01
 5.1462502E+00  3.3358562E+01
 5.1577501E+00  3.3326279E+01
 5.1692505E+00  3.3236111E+01
 5.1807504E+00  3.3214340E+01
 5.1922503E+00  3.3245346E+01
 5.2037501E+00  3.3251675E+01
 5.2152505E+00  3.3270969E+01
 5.2267504E+00  3.3348709E+01
 5.2382503E+00  3.3521252E+01
 5.2497501E+00  3.3675243E+01
 5.2612505E+00  3.3837963E+01
 5.2727504E+00  3.4014412E+01
 5.2842503E+00  3.4140579E+01
 5.2957501E+00  3.4175705E+01
 5.3072500E+00  3.4198734E+01
 5.3187504E+00  3.4293568E+01
 5.3302503E+00  3.4356674E+01
 5.3417501E+00  3.4273293E+01
 5.3532500E+00  3.4315617E+01
 5.3647504E+00  3.4248005E+01
 5.3762503E+00  3.4355015E+01
 5.3877501E+00  3.4296242E+01
 5.3992500E+00  3.4336945E+01
 5.4107504E+00  3.4375458E+01
 5.4222503E+00  3.4433826E+01
 5.4337502E+00  3.4401062E+01
 5.4452500E+00  3.4473438E+01
 5.4567504E+00  3.4582352E+01
 5.4682503E+00  3.4688190E+01
 5.4797502E+00  3.4769203E+01
 5.4912500E+00  3.4697834E+01
 5.5027504E+00  3.4698742E+01
 5.5142503E+00  3.4801285E+01
 5.5257502E+00  3.4791401E+01
 5.5372500E+00  3.4789268E+01
 5.5487504E+00  3.4746239E+01
 5.5602503E+00  3.4723297E+01
 5.5717502E+00  3.4820980E+01
 5.5832500E+00  3.4963509E+01
 5.5947504E+00  3.5152645E+01
 5.6062503E+00  3.5362545E+01
 5.6177502E+00  3.5466206E+01
 5.6292500E+00  3.5571724E+01
 5.6407504E+00  3.5614082E+01
 5.6522503E+00  3.5551125E+01
 5.6637502E+00  3.5632080E+01
 5.6752501E+00  3.5732613E+01
 5.6867504E+00  3.5825493E+01
 5.6982503E+00  3.5836849E+01
 5.7097502E+00  3.5947067E+01
 5.7212501E+00  3.6047726E+01
 5.7327504E+00  3.6202316E+01
 5.7442503E+00  3.6264153E+01
 5.7557502E+00  3.6336674E+01
 5.7672501E+00  3.6283756E+01
 5.7787504E+00  3.6304314E+01
 5.7902503E+00  3.6357056E+01
 5.8017502E+00  3.6324699E+01
 5.8132501E+00  3.6358589E+01
 5.8247504E+00  3.6359539E+01
 5.8362503E+00  3.6537045E+01
 5.8477502E+00  3.6772518E+01
 5.8592501E+00  3.7028481E+01
 5.8707504E+00  3.7554535E+01
 5.8822503E+00  3.8251476E+01
 5.8937502E+00  3.9381603E+01
 5.9052501E+00  4.0948982E+01
 5.9167504E+00  4.3888432E+01
 5.9282503E+00  4.8658195E+01
 5.9397502E+00  5.5074402E+01
 5.9512501E+00  6.8136681E+01
 5.9627504E+00  8.2864594E+01
 5.9742503E+00  9.3610649E+01
 5.9857502E+00  1.0207938E+02
 5.9972501E+00  9.7924309E+01
 6.0087504E+00  9.0732178E+01
 6.0202503E+00  7.3490601E+01
 6.0317502E+00  5.9077557E+01
 6.0432501E+00  5.0493004E+01
 6.0547504E+00  4.5139919E+01
 6.0662503E+00  4.1922180E+01
 6.0777502E+00  4.0372349E+01
 6.0892501E+00  3.9353291E+01
 6.1007504E+00  3.8748936E+01
 6.1122503E+00  3.8335686E+01
 6.1237502E+00  3.8002651E+01
 6.1352501E+00  3.7672874E+01
 6.1467505E+00  3.7481010E+01
 6.1582503E+00  3.7385075E+01
 6.1697502E+00  3.7366116E+01
 6.1812501E+00  3.7371365E+01
 6.1927505E+00  3.7380100E+01
 6.2042503E+00  3.7394600E+01
 6.2157502E+00  3.7358776E+01
 6.2272501E+00  3.7394680E+01
 6.2387505E+00  3.7278412E+01
 6.2502503E+00  3.7444569E+01
 6.2617502E+00  3.7395626E+01
 6.2732501E+00  3.7642609E+01
 6.2847505E+00  3.7690109E+01
 6.2962503E+00  3.7745628E+01
 6.3077502E+00  3.7822891E+01
 6.3192501E+00  3.7811069E+01
 6.3307505E+00  3.7985752E+01
 6.3422503E+00  3.7965004E+01
 6.3537502E+00  3.8113129E+01
 6.3652501E+00  3.8110027E+01
 6.3767505E+00  3.8230011E+01
 6.3882504E+00  3.8253040E+01
 6.3997502E+00  3.8311672E+01
 6.4112501E+00  3.8313267E+01
 6.4227505E+00  3.8278767E+01
 6.4342504E+00  3.8259449E+01
 6.4457502E+00  3.8319511E+01
 6.4572501E+00  3.8409100E+01
 6.4687505E+00  3.8551754E+01
 6.4802504E+00  3.8613178E+01
 6.4917502E+00  3.8677486E+01
 6.5032501E+00  3.8831081E+01
 6.5147505E+00  3.8940605E+01
 6.5262504E+00  3.9110779E+01
 6.5377502E+00  3.9123589E+01
 6.5492501E+00  3.9207645E+01
 6.5607505E+00  3.9296776E+01
 6.5722504E+00  3.9394276E+01
 6.5837502E+00  3.9544407E+01
 6.5952501E+00  3.9631744E+01
 6.6067505E+00  3.9708088E+01
 6.6182504E+00  3.9796452E+01
 6.6297503E+00  3.9835224E+01
 6.6412501E+00  3.9846725E+01
 6.6527505E+00  3.9854172E+01
 6.6642504E+00  3.9929001E+01
 6.6757503E+00  3.9968018E+01
 6.6872501E+00  3.9947086E+01
 6.6987505E+00  3.9955181E+01
 6.7102504E+00  4.0109524E+01
 6.7217503E+00  4.0198215E+01
 6.7332501E+00  4.0200962E+01
 6.7447505E+00  4.0157871E+01
 6.7562504E+00  4.0260693E+01
 6.7677503E+00  4.0294956E+01
 6.7792501E+00  4.0430683E+01
 6.7907505E+00  4.0471313E+01
 6.8022504E+00  4.0633606E+01
 6.8137503E+00  4.0771496E+01
 6.8252501E+00  4.0901722E+01
 6.8367505E+00  4.1063564E+01
 6.8482504E+00  4.1168316E+01
 6.8597503E+00  4.1283730E+01
 6.8712502E+00  4.1354477E+01
 6.8827505E+00  4.1426441E+01
 6.8942504E+00  4.1508282E+01
 6.9057503E+00  4.1612152E+01
 6.9172502E+00  4.1710686E+01
 6.9287505E+00  4.1720032E+01
 6.9402504E+00  4.1773544E+01
 6.9517503E+00  4.1805969E+01
 6.9632502E+00  4.1877140E+01
 6.9747505E+00  4.1929070E+01
 6.9862504E+00  4.1953381E+01
 6.9977503E+00  4.1928143E+01
 7.0092502E+00  4.1965420E+01
 7.0207505E+00  4.2065594E+01
 7.0322504E+00  4.2184139E+01
 7.0437503E+00  4.2321239E+01
 7.0552502E+00  4.2449760E+01
 7.0667505E+00  4.2492867E+01
 7.0782504E+00  4.2509758E+01
 7.0897503E+00  4.2446739E+01
 7.1012502E+00  4.2597603E+01
 7.1127505E+00  4.2706444E+01
 7.1242504E+00  4.2869263E+01
 7.1357503E+00  4.2958809E+01
 7.1472502E+00  4.3048866E+01
 7.1587505E+00  4.3181145E+01
 7.1702504E+00  4.3269814E+01
 7.1817503E+00  4.3396278E+01
 7.1932502E+00  4.3480480E+01
 7.2047505E+00  4.3487923E+01
 7.2162504E+00  4.3464546E+01
 7.2277503E+00  4.3430683E+01
 7.2392502E+00  4.3496582E+01
 7.2507505E+00  4.3422962E+01
 7.2622504E+00  4.3442356E+01
 7.2737503E+00  4.3443935E+01
 7.2852502E+00  4.3462070E+01
 7.2967505E+00  4.3419067E+01
 7.3082504E+00  4.3321945E+01
 7.3197503E+00  4.3399441E+01
 7.3312502E+00  4.3486145E+01
 7.3427505E+00  4.3579994E+01
 7.3542504E+00  4.3655884E+01
 7.3657503E+00  4.3744026E+01
 7.3772502E+00  4.3703964E+01
 7.3887506E+00  4.3705189E+01
 7.4002504E+00  4.3718124E+01
 7.4117503E+00  4.3856800E+01
 7.4232502E+00  4.3955711E+01
 7.4347506E+00  4.3961155E+01
 7.4462504E+00  4.3991276E+01
 7.4577503E+00  4.4037174E+01
 7.4692502E+00  4.4071804E+01
 7.4807506E+00  4.4135143E+01
 7.4922504E+00  4.4266754E+01
 7.5037503E+00  4.4346424E+01
 7.5152502E+00  4.4368668E+01
 7.5267506E+00  4.4265793E+01
 7.5382504E+00  4.4119873E+01
 7.5497503E+00  4.4106190E+01
 7.5612502E+00  4.4176285E+01
 7.5727506E+00  4.4266716E+01
 7.5842505E+00  4.4352444E+01
 7.5957503E+00  4.4349285E+01
 7.6072502E+00  4.4356571E+01
 7.6187506E+00  4.4244190E+01
 7.6302505E+00  4.4110329E+01
 7.6417503E+00  4.4091843E+01
 7.6532502E+00  4.4124695E+01
 7.6647506E+00  4.4168690E+01
 7.6762505E+00  4.4208256E+01
 7.6877503E+00  4.4227203E+01
 7.6992502E+00  4.4241016E+01
 7.7107506E+00  4.4236954E+01
 7.7222505E+00  4.4246105E+01
 7.7337503E+00  4.4333096E+01
 7.7452502E+00  4.4385792E+01
 7.7567506E+00  4.4367306E+01
 7.7682505E+00  4.4364307E+01
 7.7797503E+00  4.4221107E+01
 7.7912502E+00  4.4156784E+01
 7.8027506E+00  4.4031029E+01
 7.8142505E+00  4.4038403E+01
 7.8257504E+00  4.4044556E+01
 7.8372502E+00  4.4094139E+01
 7.8487506E+00  4.4080349E+01
 7.8602505E+00  4.4091145E+01
 7.8717504E+00  4.3985882E+01
 7.8832502E+00  4.3887318E+01
 7.8947506E+00  4.3727779E+01
 7.9062505E+00  4.3710625E+01
 7.9177504E+00  4.3614574E+01
 7.9292502E+00  4.3520294E+01
 7.9407506E+00  4.3428810E+01
 7.9522505E+00  4.3379303E+01
 7.9637504E+00  4.3460526E+01
 7.9752502E+00  4.3520111E+01
 7.9867506E+00  4.3628540E+01
 7.9982505E+00  4.3617550E+01
 8.0097504E+00  4.3483124E+01
 8.0212507E+00  4.3325542E+01
 8.0327501E+00  4.3196976E+01
 8.0442505E+00  4.3095295E+01
 8.0557508E+00  4.2993435E+01
 8.0672503E+00  4.2889473E+01
 8.0787506E+00  4.2835266E+01
 8.0902500E+00  4.2808624E+01
 8.1017504E+00  4.2836121E+01
 8.1132507E+00  4.2786057E+01
 8.1247501E+00  4.2690903E+01
 8.1362505E+00  4.2622864E+01
 8.1477509E+00  4.2588806E+01
 8.1592503E+00  4.2606995E+01
 8.1707506E+00  4.2480152E+01
 8.1822500E+00  4.2310944E+01
 8.1937504E+00  4.2135284E+01
 8.2052507E+00  4.1930107E+01
 8.2167501E+00  4.1767590E+01
 8.2282505E+00  4.1583435E+01
 8.2397509E+00  4.1446224E+01
 8.2512503E+00  4.1310379E+01
 8.2627506E+00  4.1124065E+01
 8.2742500E+00  4.0977203E+01
 8.2857504E+00  4.0771507E+01
 8.2972507E+00  4.0661003E+01
 8.3087502E+00  4.0508801E+01
 8.3202505E+00  4.0457615E+01
 8.3317509E+00  4.0283844E+01
 8.3432503E+00  4.0128307E+01
 8.3547506E+00  3.9967209E+01
 8.3662500E+00  3.9850540E+01
 8.3777504E+00  3.9656704E+01
 8.3892508E+00  3.9582832E+01
 8.4007502E+00  3.9390244E+01
 8.4122505E+00  3.9341660E+01
 8.4237509E+00  3.9127972E+01
 8.4352503E+00  3.8993614E+01
 8.4467506E+00  3.8896599E+01
 8.4582500E+00  3.8765190E+01
 8.4697504E+00  3.8562988E+01
 8.4812508E+00  3.8425606E+01
 8.4927502E+00  3.8225124E+01
 8.5042505E+00  3.8089363E+01
 8.5157509E+00  3.7919041E+01
 8.5272503E+00  3.7704395E+01
 8.5387506E+00  3.7594318E+01
 8.5502501E+00  3.7310589E+01
 8.5617504E+00  3.7140530E+01
 8.5732508E+00  3.6908630E+01
 8.5847502E+00  3.6710178E+01
 8.5962505E+00  3.6579288E+01
 8.6077509E+00  3.6425655E+01
 8.6192503E+00  3.6297699E+01
 8.6307507E+00  3.6151119E+01
 8.6422501E+00  3.5973545E+01
 8.6537504E+00  3.5779282E+01
 8.6652508E+00  3.5548752E+01
 8.6767502E+00  3.5352139E+01
 8.6882505E+00  3.5250637E+01
 8.6997509E+00  3.5219597E+01
 8.7112503E+00  3.5173874E+01
 8.7227507E+00  3.5103088E+01
 8.7342501E+00  3.4879192E+01
 8.7457504E+00  3.4638977E+01
 8.7572508E+00  3.4387295E+01
 8.7687502E+00  3.4198456E+01
 8.7802505E+00  3.3989838E+01
 8.7917500E+00  3.3790176E+01
 8.8032503E+00  3.3578178E+01
 8.8147507E+00  3.3428768E+01
 8.8262501E+00  3.3230991E+01
 8.8377504E+00  3.3034409E+01
 8.8492508E+00  3.2816364E+01
 8.8607502E+00  3.2703411E+01
 8.8722506E+00  3.2514835E+01
 8.8837500E+00  3.2377598E+01
 8.8952503E+00  3.2168369E+01
 8.9067507E+00  3.2096951E+01
 8.9182501E+00  3.2016277E+01
 8.9297504E+00  3.1922848E+01
 8.9412508E+00  3.1838703E+01
 8.9527502E+00  3.1630516E+01
 8.9642506E+00  3.1474627E+01
 8.9757500E+00  3.1286030E+01
 8.9872503E+00  3.1164700E+01
 8.9987507E+00  3.1048611E+01
 9.0102501E+00  3.0867090E+01
 9.0217505E+00  3.0726210E+01
 9.0332508E+00  3.0589451E+01
 9.0447502E+00  3.0443268E+01
 9.0562506E+00  3.0296116E+01
 9.0677500E+00  3.0151314E+01
 9.0792503E+00  3.0013958E+01
 9.0907507E+00  2.9940821E+01
 9.1022501E+00  2.9840860E+01
 9.1137505E+00  2.9764866E+01
 9.1252508E+00  2.9686708E+01
 9.1367502E+00  2.9575962E+01
 9.1482506E+00  2.9536219E+01
 9.1597500E+00  2.9368689E+01
 9.1712503E+00  2.9217880E+01
 9.1827507E+00  2.9017096E+01
 9.1942501E+00  2.8810860E+01
 9.2057505E+00  2.8720795E+01
 9.2172508E+00  2.8560984E+01
 9.2287502E+00  2.8452719E+01
 9.2402506E+00  2.8299177E+01
 9.2517500E+00  2.8285877E+01
 9.2632504E+00  2.8233932E+01
 9.2747507E+00  2.8191196E+01
 9.2862501E+00  2.8147434E+01
 9.2977505E+00  2.8190935E+01
 9.3092508E+00  2.8176804E+01
 9.3207502E+00  2.8123083E+01
 9.3322506E+00  2.8011019E+01
 9.3437500E+00  2.7889654E+01
 9.3552504E+00  2.7742062E+01
 9.3667507E+00  2.7623549E+01
 9.3782501E+00  2.7605639E+01
 9.3897505E+00  2.7553522E+01
 9.4012508E+00  2.7514904E+01
 9.4127502E+00  2.7424477E+01
 9.4242506E+00  2.7344711E+01
 9.4357500E+00  2.7224691E+01
 9.4472504E+00  2.7043106E+01
 9.4587507E+00  2.7023869E+01
 9.4702501E+00  2.6952253E+01
 9.4817505E+00  2.6963753E+01
 9.4932508E+00  2.6886707E+01
 9.5047503E+00  2.6841640E+01
 9.5162506E+00  2.6787228E+01
 9.5277500E+00  2.6661324E+01
 9.5392504E+00  2.6545572E+01
 9.5507507E+00  2.6410547E+01
 9.5622501E+00  2.6297279E+01
 9.5737505E+00  2.6231804E+01
 9.5852509E+00  2.6167646E+01
 9.5967503E+00  2.6125162E+01
 9.6082506E+00  2.6093849E+01
 9.6197500E+00  2.6024326E+01
 9.6312504E+00  2.5922316E+01
 9.6427507E+00  2.5803820E+01
 9.6542501E+00  2.5646915E+01
 9.6657505E+00  2.5531261E+01
 9.6772509E+00  2.5424730E+01
 9.6887503E+00  2.5431028E+01
 9.7002506E+00  2.5489845E+01
 9.7117500E+00  2.5484774E+01
 9.7232504E+00  2.5542389E+01
 9.7347507E+00  2.5449841E+01
 9.7462502E+00  2.5419836E+01
 9.7577505E+00  2.5289555E+01
 9.7692509E+00  2.5244720E+01
 9.7807503E+00  2.5219860E+01
 9.7922506E+00  2.5227890E+01
 9.8037500E+00  2.5210159E+01
 9.8152504E+00  2.5159437E+01
 9.8267508E+00  2.5089643E+01
 9.8382502E+00  2.5045593E+01
 9.8497505E+00  2.5006649E+01
 9.8612509E+00  2.4990332E+01
 9.8727503E+00  2.4978010E+01
 9.8842506E+00  2.4982779E+01
 9.8957500E+00  2.4990095E+01
 9.9072504E+00  2.4978807E+01
 9.9187508E+00  2.4931080E+01
 9.9302502E+00  2.4802505E+01
 9.9417505E+00  2.4688976E+01
 9.9532509E+00  2.4585733E+01
 9.9647503E+00  2.4544123E+01
 9.9762506E+00  2.4556789E+01
 9.9877501E+00  2.4544090E+01
 9.9992504E+00  2.4524202E+01
 1.0010751E+01  2.4449518E+01
 1.0022250E+01  2.4475050E+01
 1.0033751E+01  2.4510107E+01
 1.0045251E+01  2.4564962E+01
 1.0056750E+01  2.4526539E+01
 1.0068251E+01  2.4516609E+01
 1.0079750E+01  2.4489344E+01
 1.0091250E+01  2.4372623E+01
 1.0102751E+01  2.4309965E+01
 1.0114250E+01  2.4271582E+01
 1.0125751E+01  2.4346418E+01
 1.0137251E+01  2.4282482E+01
 1.0148750E+01  2.4214098E+01
 1.0160251E+01  2.4162357E+01
 1.0171750E+01  2.4129871E+01
 1.0183250E+01  2.4082722E+01
 1.0194751E+01  2.4027275E+01
 1.0206250E+01  2.4036896E+01
 1.0217751E+01  2.4088230E+01
 1.0229251E+01  2.4096886E+01
 1.0240750E+01  2.4072813E+01
 1.0252251E+01  2.4010265E+01
 1.0263750E+01  2.4010458E+01
 1.0275250E+01  2.3960728E+01
 1.0286751E+01  2.3951899E+01
 1.0298250E+01  2.3962364E+01
 1.0309751E+01  2.3959141E+01
 1.0321251E+01  2.3863428E+01
 1.0332750E+01  2.3740103E+01
 1.0344251E+01  2.3685837E+01
 1.0355750E+01  2.3639072E+01
 1.0367250E+01  2.3612627E+01
 1.0378751E+01  2.3620106E+01
 1.0390250E+01  2.3671288E+01
 1.0401751E+01  2.3703213E+01
 1.0413251E+01  2.3694550E+01
 1.0424750E+01  2.3689837E+01
 1.0436251E+01  2.3628582E+01
 1.0447750E+01  2.3570253E+01
 1.0459250E+01  2.3550150E+01
 1.0470751E+01  2.3531538E+01
 1.0482250E+01  2.3566319E+01
 1.0493751E+01  2.3580196E+01
 1.0505251E+01  2.3633051E+01
 1.0516750E+01  2.3636801E+01
 1.0528251E+01  2.3602962E+01
 1.0539750E+01  2.3600975E+01
 1.0551250E+01  2.3574591E+01
 1.0562751E+01  2.3617329E+01
 1.0574250E+01  2.3550076E+01
 1.0585751E+01  2.3538488E+01
 1.0597251E+01  2.3482546E+01
 1.0608750E+01  2.3385498E+01
 1.0620251E+01  2.3410711E+01
 1.0631750E+01  2.3326723E+01
 1.0643250E+01  2.3343222E+01
 1.0654751E+01  2.3275473E+01
 1.0666250E+01  2.3264582E+01
 1.0677751E+01  2.3228540E+01
 1.0689251E+01  2.3194189E+01
 1.0700750E+01  2.3184206E+01
 1.0712251E+01  2.3226908E+01
 1.0723750E+01  2.3227484E+01
 1.0735250E+01  2.3186544E+01
 1.0746751E+01  2.3144310E+01
 1.0758250E+01  2.3122355E+01
 1.0769751E+01  2.3084688E+01
 1.0781251E+01  2.3089363E+01
 1.0792750E+01  2.3116684E+01
 1.0804251E+01  2.3143669E+01
 1.0815750E+01  2.3168997E+01
 1.0827250E+01  2.3157127E+01
 1.0838751E+01  2.3206244E+01
 1.0850250E+01  2.3193333E+01
 1.0861751E+01  2.3166250E+01
 1.0873251E+01  2.3089439E+01
 1.0884750E+01  2.3007395E+01
 1.0896251E+01  2.2908161E+01
 1.0907750E+01  2.2902857E+01
 1.0919250E+01  2.2951782E+01
 1.0930751E+01  2.3011755E+01
 1.0942250E+01  2.3019743E+01
 1.0953751E+01  2.3014917E+01
 1.0965251E+01  2.2985996E+01
 1.0976750E+01  2.2991266E+01
 1.0988251E+01  2.2968090E+01
 1.0999750E+01  2.2941360E+01
 1.1011250E+01  2.2922308E+01
 1.1022751E+01  2.2926552E+01
 1.1034250E+01  2.2922640E+01
 1.1045751E+01  2.2922710E+01
 1.1057251E+01  2.2871525E+01
 1.1068750E+01  2.2883545E+01
 1.1080251E+01  2.2827213E+01
 1.1091750E+01  2.2822868E+01
 1.1103251E+01  2.2845089E+01
 1.1114751E+01  2.2856352E+01
 1.1126250E+01  2.2904472E+01
 1.1137751E+01  2.2853558E+01
 1.1149251E+01  2.2892378E+01
 1.1160750E+01  2.2852983E+01
 1.1172251E+01  2.2808838E+01
 1.1183750E+01  2.2723080E+01
 1.1195251E+01  2.2653168E+01
 1.1206751E+01  2.2660555E+01
 1.1218250E+01  2.2669603E+01
 1.1229751E+01  2.2614998E+01
 1.1241251E+01  2.2646461E+01
 1.1252750E+01  2.2630672E+01
 1.1264251E+01  2.2714098E+01
 1.1275750E+01  2.2716459E+01
 1.1287251E+01  2.2713619E+01
 1.1298751E+01  2.2744638E+01
 1.1310250E+01  2.2792738E+01
 1.1321751E+01  2.2857454E+01
 1.1333251E+01  2.2874918E+01
 1.1344750E+01  2.2911825E+01
 1.1356251E+01  2.2959465E+01
 1.1367750E+01  2.3015306E+01
 1.1379251E+01  2.3046366E+01
 1.1390751E+01  2.3021420E+01
 1.1402250E+01  2.3186043E+01
 1.1413751E+01  2.3221045E+01
 1.1425251E+01  2.3335047E+01
 1.1436750E+01  2.3366028E+01
 1.1448251E+01  2.3411427E+01
 1.1459750E+01  2.3478270E+01
 1.1471251E+01  2.3467360E+01
 1.1482751E+01  2.3535959E+01
 1.1494250E+01  2.3729221E+01
 1.1505751E+01  2.4179560E+01
 1.1517251E+01  2.4810158E+01
 1.1528750E+01  2.5867186E+01
 1.1540251E+01  2.7038965E+01
 1.1551750E+01  2.8543783E+01
 1.1563251E+01  2.9767008E+01
 1.1574751E+01  3.1550604E+01
 1.1586250E+01  3.2706799E+01
 1.1597751E+01  3.3239761E+01
 1.1609251E+01  3.7281837E+01
 1.1620750E+01  3.7391190E+01
 1.1632251E+01  3.6585064E+01
 1.1643750E+01  3.2094486E+01
 1.1655251E+01  2.9362020E+01
 1.1666751E+01  2.7695332E+01
 1.1678250E+01  2.4973482E+01
 1.1689751E+01  2.4323343E+01
 1.1701251E+01  2.3739649E+01
 1.1712750E+01  2.3404867E+01
 1.1724251E+01  2.3296061E+01
 1.1735750E+01  2.3219410E+01
 1.1747251E+01  2.3141674E+01
 1.1758751E+01  2.3106062E+01
 1.1770250E+01  2.3020237E+01
 1.1781751E+01  2.2973804E+01
 1.1793251E+01  2.2964752E+01
 1.1804750E+01  2.2971331E+01
 1.1816251E+01  2.2995506E+01
 1.1827750E+01  2.2925978E+01
 1.1839251E+01  2.2875858E+01
 1.1850751E+01  2.2805464E+01
 1.1862250E+01  2.2793905E+01
 1.1873751E+01  2.2790516E+01
 1.1885251E+01  2.2792805E+01
 1.1896750E+01  2.2850395E+01
 1.1908251E+01  2.2903198E+01
 1.1919750E+01  2.3017288E+01
 1.1931251E+01  2.3129208E+01
 1.1942751E+01  2.3322275E+01
 1.1954250E+01  2.3607388E+01
 1.1965751E+01  2.3912441E+01
 1.1977251E+01  2.4328938E+01
 1.1988750E+01  2.4660305E+01
 1.2000251E+01  2.4936911E+01
 1.2011750E+01  2.4948248E+01
 1.2023251E+01  2.4660210E+01
 1.2034751E+01  2.4362364E+01
 1.2046250E+01  2.4075703E+01
 1.2057751E+01  2.4093067E+01
 1.2069251E+01  2.4300222E+01
 1.2080750E+01  2.4760727E+01
 1.2092251E+01  2.5317661E+01
 1.2103750E+01  2.5574110E+01
 1.2115251E+01  2.5679789E+01
 1.2126751E+01  2.5340744E+01
 1.2138250E+01  2.4951580E+01
 1.2149751E+01  2.4279211E+01
 1.2161251E+01  2.3795425E+01
 1.2172750E+01  2.3389231E+01
 1.2184251E+01  2.3186184E+01
 1.2195750E+01  2.3067141E+01
 1.2207251E+01  2.3022406E+01
 1.2218751E+01  2.2991295E+01
 1.2230250E+01  2.2972624E+01
 1.2241751E+01  2.2938324E+01
 1.2253251E+01  2.2897121E+01
 1.2264750E+01  2.2827877E+01
 1.2276251E+01  2.2774464E+01
 1.2287750E+01  2.2800722E+01
 1.2299251E+01  2.2826664E+01
 1.2310751E+01  2.2937693E+01
 1.2322250E+01  2.2917690E+01
 1.2333751E+01  2.2969666E+01
 1.2345250E+01  2.2926123E+01
 1.2356750E+01  2.2979813E+01
 1.2368251E+01  2.3014439E+01
 1.2379750E+01  2.3032887E+01
 1.2391251E+01  2.3003969E+01
 1.2402751E+01  2.2933134E+01
 1.2414250E+01  2.2876284E+01
 1.2425751E+01  2.2854095E+01
 1.2437250E+01  2.2907438E+01
 1.2448750E+01  2.2939819E+01
 1.2460251E+01  2.2987637E+01
 1.2471750E+01  2.2970697E+01
 1.2483251E+01  2.3003855E+01
 1.2494751E+01  2.2946737E+01
 1.2506250E+01  2.2928059E+01
 1.2517751E+01  2.2890345E+01
 1.2529250E+01  2.2921753E+01
 1.2540751E+01  2.2967957E+01
 1.2552251E+01  2.2983524E+01
 1.2563750E+01  2.2952824E+01
 1.2575251E+01  2.2942591E+01
 1.2586751E+01  2.2942852E+01
 1.2598250E+01  2.3018768E+01
 1.2609751E+01  2.3033707E+01
 1.2621250E+01  2.3131824E+01
 1.2632751E+01  2.3158075E+01
 1.2644251E+01  2.3181997E+01
 1.2655750E+01  2.3191507E+01
 1.2667251E+01  2.3260988E+01
 1.2678751E+01  2.3250238E+01
 1.2690250E+01  2.3266554E+01
 1.2701751E+01  2.3244934E+01
 1.2713250E+01  2.3316496E+01
 1.2724751E+01  2.3315813E+01
 1.2736251E+01  2.3302023E+01
 1.2747750E+01  2.3298346E+01
 1.2759251E+01  2.3295334E+01
 1.2770751E+01  2.3287371E+01
 1.2782250E+01  2.3326221E+01
 1.2793751E+01  2.3288900E+01
 1.2805250E+01  2.3322283E+01
 1.2816751E+01  2.3326395E+01
 1.2828251E+01  2.3382912E+01
 1.2839750E+01  2.3380634E+01
 1.2851251E+01  2.3416779E+01
 1.2862751E+01  2.3443459E+01
 1.2874250E+01  2.3483116E+01
 1.2885751E+01  2.3472910E+01
 1.2897250E+01  2.3471724E+01
 1.2908751E+01  2.3514078E+01
 1.2920251E+01  2.3592541E+01
 1.2931750E+01  2.3725163E+01
 1.2943251E+01  2.3826357E+01
 1.2954751E+01  2.3899691E+01
 1.2966250E+01  2.3965160E+01
 1.2977751E+01  2.4076717E+01
 1.2989250E+01  2.4104462E+01
 1.3000751E+01  2.4182945E+01
 1.3012251E+01  2.4212370E+01
 1.3023750E+01  2.4334728E+01
 1.3035251E+01  2.4452021E+01
 1.3046751E+01  2.4522282E+01
 1.3058250E+01  2.4652328E+01
 1.3069751E+01  2.4698778E+01
 1.3081250E+01  2.4823347E+01
 1.3092751E+01  2.4878555E+01
 1.3104251E+01  2.5029665E+01
 1.3115750E+01  2.5141533E+01
 1.3127251E+01  2.5270798E+01
 1.3138751E+01  2.5365248E+01
 1.3150250E+01  2.5449787E+01
 1.3161751E+01  2.5513142E+01
 1.3173250E+01  2.5590437E+01
 1.3184751E+01  2.5734812E+01
 1.3196251E+01  2.5868118E+01
 1.3207750E+01  2.6035740E+01
 1.3219251E+01  2.6174965E+01
 1.3230751E+01  2.6396530E+01
 1.3242250E+01  2.6530233E+01
 1.3253751E+01  2.6683893E+01
 1.3265250E+01  2.6770849E+01
 1.3276751E+01  2.6903868E+01
 1.3288251E+01  2.7058811E+01
 1.3299750E+01  2.7244213E+01
 1.3311251E+01  2.7301302E+01
 1.3322751E+01  2.7391071E+01
 1.3334250E+01  2.7474825E+01
 1.3345751E+01  2.7715126E+01
 1.3357250E+01  2.7900265E+01
 1.3368751E+01  2.8051718E+01
 1.3380251E+01  2.8230001E+01
 1.3391750E+01  2.8398960E+01
 1.3403251E+01  2.8581392E+01
 1.3414751E+01  2.8681612E+01
 1.3426250E+01  2.8706715E+01
 1.3437751E+01  2.8757700E+01
 1.3449250E+01  2.8773680E+01
 1.3460751E+01  2.8841465E+01
 1.3472251E+01  2.8940758E+01
 1.3483750E+01  2.9095675E+01
 1.3495251E+01  2.9242548E+01
 1.3506751E+01  2.9392738E+01
 1.3518250E+01  2.9441114E+01
 1.3529751E+01  2.9543039E+01
 1.3541250E+01  2.9579456E+01
 1.3552751E+01  2.9654137E+01
 1.3564251E+01  2.9661236E+01
 1.3575750E+01  2.9656149E+01
 1.3587251E+01  2.9711634E+01
 1.3598751E+01  2.9786631E+01
 1.3610250E+01  2.9885334E+01
 1.3621751E+01  2.9936012E+01
 1.3633250E+01  2.9946417E+01
 1.3644751E+01  2.9966379E+01
 1.3656251E+01  2.9985281E+01
 1.3667750E+01  3.0054268E+01
 1.3679251E+01  3.0039125E+01
 1.3690751E+01  3.0014555E+01
 1.3702250E+01  2.9960663E+01
 1.3713751E+01  2.9921795E+01
 1.3725250E+01  2.9901508E+01
 1.3736751E+01  2.9862503E+01
 1.3748251E+01  2.9942167E+01
 1.3759750E+01  2.9935890E+01
 1.3771251E+01  3.0000792E+01
 1.3782751E+01  2.9955530E+01
 1.3794250E+01  2.9991735E+01
 1.3805751E+01  2.9964146E+01
 1.3817250E+01  3.0037317E+01
 1.3828751E+01  3.0170643E+01
 1.3840251E+01  3.0449816E+01
 1.3851750E+01  3.0814873E+01
 1.3863251E+01  3.1347652E+01
 1.3874751E+01  3.2205177E+01
 1.3886250E+01  3.3743713E+01
 1.3897751E+01  3.6807590E+01
 1.3909250E+01  4.1741505E+01
 1.3920751E+01  4.8688431E+01
 1.3932251E+01  5.8039097E+01
 1.3943750E+01  6.2766712E+01
 1.3955251E+01  6.8706734E+01
 1.3966751E+01  6.5505753E+01
 1.3978251E+01  6.2235870E+01
 1.3989751E+01  5.2439941E+01
 1.4001250E+01  4.7012947E+01
 1.4012751E+01  4.0335274E+01
 1.4024251E+01  3.6089214E+01
 1.4035750E+01  3.2776112E+01
 1.4047251E+01  3.1305981E+01
 1.4058751E+01  3.0102213E+01
 1.4070251E+01  2.9583160E+01
 1.4081751E+01  2.9186480E+01
 1.4093250E+01  2.8891869E+01
 1.4104751E+01  2.8605410E+01
 1.4116251E+01  2.8405947E+01
 1.4127750E+01  2.8198914E+01
 1.4139251E+01  2.8063551E+01
 1.4150751E+01  2.7892647E+01
 1.4162251E+01  2.7809269E+01
 1.4173751E+01  2.7687326E+01
 1.4185250E+01  2.7584625E+01
 1.4196751E+01  2.7499043E+01
 1.4208251E+01  2.7395399E+01
 1.4219750E+01  2.7305048E+01
 1.4231251E+01  2.7133072E+01
 1.4242751E+01  2.7063366E+01
 1.4254251E+01  2.6921925E+01
 1.4265751E+01  2.6855715E+01
 1.4277250E+01  2.6732008E+01
 1.4288751E+01  2.6713413E+01
 1.4300251E+01  2.6662056E+01
 1.4311750E+01  2.6634962E+01
 1.4323251E+01  2.6559010E+01
 1.4334751E+01  2.6512949E+01
 1.4346251E+01  2.6453436E+01
 1.4357751E+01  2.6389688E+01
 1.4369250E+01  2.6324558E+01
 1.4380751E+01  2.6247217E+01
 1.4392251E+01  2.6195963E+01
 1.4403750E+01  2.6185619E+01
 1.4415251E+01  2.6144161E+01
 1.4426751E+01  2.6090523E+01
 1.4438251E+01  2.6004259E+01
 1.4449751E+01  2.5968800E+01
 1.4461250E+01  2.5904282E+01
 1.4472751E+01  2.5831148E+01
 1.4484251E+01  2.5756075E+01
 1.4495750E+01  2.5703238E+01
 1.4507251E+01  2.5672087E+01
 1.4518751E+01  2.5628088E+01
 1.4530251E+01  2.5592482E+01
 1.4541751E+01  2.5560146E+01
 1.4553250E+01  2.5652445E+01
 1.4564751E+01  2.5770815E+01
 1.4576251E+01  2.5809629E+01
 1.4587750E+01  2.5816692E+01
 1.4599251E+01  2.5769621E+01
 1.4610751E+01  2.5797415E+01
 1.4622251E+01  2.5737823E+01
 1.4633751E+01  2.5737719E+01
 1.4645250E+01  2.5742615E+01
 1.4656751E+01  2.5720522E+01
 1.4668251E+01  2.5658102E+01
 1.4679750E+01  2.5595047E+01
 1.4691251E+01  2.5551247E+01
 1.4702751E+01  2.5537910E+01
 1.4714251E+01  2.5503876E+01
 1.4725751E+01  2.5467981E+01
 1.4737250E+01  2.5379290E+01
 1.4748751E+01  2.5318382E+01
 1.4760251E+01  2.5270685E+01
 1.4771750E+01  2.5228771E+01
 1.4783251E+01  2.5187584E+01
 1.4794751E+01  2.5176657E+01
 1.4806251E+01  2.5177574E+01
 1.4817751E+01  2.5168009E+01
 1.4829250E+01  2.5185886E+01
 1.4840751E+01  2.5219154E+01
 1.4852251E+01  2.5262270E+01
 1.4863750E+01  2.5206707E+01
 1.4875251E+01  2.5191566E+01
 1.4886751E+01  2.5140833E+01
 1.4898251E+01  2.5152388E+01
 1.4909751E+01  2.5139153E+01
 1.4921250E+01  2.5094112E+01
 1.4932751E+01  2.5071234E+01
 1.4944251E+01  2.5003496E+01
 1.4955750E+01  2.5038040E+01
 1.4967251E+01  2.5012205E+01
 1.4978751E+01  2.5021877E+01
 1.4990251E+01  2.5015888E+01
 1.5001751E+01  2.5049223E+01
 1.5013250E+01  2.5132399E+01
 1.5024751E+01  2.5225395E+01
 1.5036251E+01  2.5277189E+01
 1.5047750E+01  2.5269001E+01
 1.5059251E+01  2.5252911E+01
 1.5070751E+01  2.5244951E+01
 1.5082251E+01  2.5211996E+01
 1.5093751E+01  2.5206648E+01
 1.5105250E+01  2.5317493E+01
 1.5116751E+01  2.5496450E+01
 1.5128251E+01  2.5878937E+01
 1.5139750E+01  2.6430059E+01
 1.5151251E+01  2.7347212E+01
 1.5162751E+01  2.8321884E+01
 1.5174251E+01  2.9383011E+01
 1.5185751E+01  3.0329107E+01
 1.5197250E+01  3.0869850E+01
 1.5208751E+01  3.0782085E+01
 1.5220251E+01  3.0146145E+01
 1.5231750E+01  2.9070763E+01
 1.5243251E+01  2.8047653E+01
 1.5254751E+01  2.7034357E+01
 1.5266251E+01  2.6203405E+01
 1.5277751E+01  2.5682667E+01
 1.5289250E+01  2.5377695E+01
 1.5300751E+01  2.5189041E+01
 1.5312251E+01  2.5073448E+01
 1.5323750E+01  2.4983049E+01
 1.5335251E+01  2.4916590E+01
 1.5346751E+01  2.4851398E+01
 1.5358251E+01  2.4854616E+01
 1.5369751E+01  2.4843588E+01
 1.5381250E+01  2.4820883E+01
 1.5392751E+01  2.4837564E+01
 1.5404251E+01  2.4863167E+01
 1.5415751E+01  2.4896524E+01
 1.5427251E+01  2.4911345E+01
 1.5438751E+01  2.4894407E+01
 1.5450251E+01  2.4895315E+01
 1.5461751E+01  2.4870752E+01
 1.5473250E+01  2.4864706E+01
 1.5484751E+01  2.4822924E+01
 1.5496251E+01  2.4792889E+01
 1.5507751E+01  2.4769417E+01
 1.5519251E+01  2.4723726E+01
 1.5530751E+01  2.4690245E+01
 1.5542251E+01  2.4651272E+01
 1.5553751E+01  2.4629002E+01
 1.5565250E+01  2.4631180E+01
 1.5576751E+01  2.4611109E+01
 1.5588251E+01  2.4606544E+01
 1.5599751E+01  2.4567318E+01
 1.5611251E+01  2.4611807E+01
 1.5622751E+01  2.4623835E+01
 1.5634251E+01  2.4669664E+01
 1.5645751E+01  2.4707106E+01
 1.5657250E+01  2.4721409E+01
 1.5668751E+01  2.4730207E+01
 1.5680251E+01  2.4724775E+01
 1.5691751E+01  2.4772194E+01
 1.5703251E+01  2.4777626E+01
 1.5714751E+01  2.4785561E+01
 1.5726251E+01  2.4825888E+01
 1.5737751E+01  2.4810778E+01
 1.5749250E+01  2.4794880E+01
 1.5760751E+01  2.4803314E+01
 1.5772251E+01  2.4785500E+01
 1.5783751E+01  2.4767040E+01
 1.5795251E+01  2.4739401E+01
 1.5806751E+01  2.4766237E+01
 1.5818251E+01  2.4783463E+01
 1.5829751E+01  2.4766945E+01
 1.5841250E+01  2.4773670E+01
 1.5852751E+01  2.4794975E+01
 1.5864251E+01  2.4836117E+01
 1.5875751E+01  2.4856668E+01
 1.5887251E+01  2.4912271E+01
 1.5898750E+01  2.4933540E+01
 1.5910251E+01  2.4966106E+01
 1.5921751E+01  2.4903786E+01
 1.5933250E+01  2.4896057E+01
 1.5944751E+01  2.4831024E+01
 1.5956251E+01  2.4850405E+01
 1.5967751E+01  2.4813047E+01
 1.5979251E+01  2.4854069E+01
 1.5990750E+01  2.4860758E+01
 1.6002251E+01  2.4874588E+01
 1.6013750E+01  2.4849354E+01
 1.6025251E+01  2.4876446E+01
 1.6036751E+01  2.4908108E+01
 1.6048250E+01  2.4962259E+01
 1.6059752E+01  2.5016352E+01
 1.6071251E+01  2.5010590E+01
 1.6082750E+01  2.5053804E+01
 1.6094252E+01  2.5024731E+01
 1.6105751E+01  2.5101135E+01
 1.6117250E+01  2.5070360E+01
 1.6128750E+01  2.5038313E+01
 1.6140251E+01  2.5033594E+01
 1.6151751E+01  2.5004868E+01
 1.6163250E+01  2.5076292E+01
 1.6174751E+01  2.5000042E+01
 1.6186251E+01  2.5220852E+01
 1.6197750E+01  2.5165668E+01
 1.6209251E+01  2.5637989E+01
 1.6220751E+01  2.5652271E+01
 1.6232250E+01  2.6162384E+01
 1.6243752E+01  2.6305346E+01
 1.6255251E+01  2.6621231E+01
 1.6266750E+01  2.6832657E+01
 1.6278252E+01  2.6507401E+01
 1.6289751E+01  2.6469509E+01
 1.6301250E+01  2.5706882E+01
 1.6312750E+01  2.5681326E+01
 1.6324251E+01  2.5144846E+01
 1.6335751E+01  2.5208254E+01
 1.6347250E+01  2.5007351E+01
 1.6358751E+01  2.5007284E+01
 1.6370251E+01  2.4876719E+01
 1.6381750E+01  2.4844124E+01
 1.6393251E+01  2.4865900E+01
 1.6404751E+01  2.4868832E+01
 1.6416250E+01  2.4972635E+01
 1.6427752E+01  2.4976690E+01
 1.6439251E+01  2.5017323E+01
 1.6450750E+01  2.4980881E+01
 1.6462252E+01  2.4975750E+01
 1.6473751E+01  2.4963831E+01
 1.6485250E+01  2.4972830E+01
 1.6496750E+01  2.4950903E+01
 1.6508251E+01  2.4931946E+01
 1.6519751E+01  2.4920700E+01
 1.6531250E+01  2.4959320E+01
 1.6542751E+01  2.5047482E+01
 1.6554251E+01  2.5028368E+01
 1.6565750E+01  2.5002556E+01
 1.6577251E+01  2.4935526E+01
 1.6588751E+01  2.4909470E+01
 1.6600250E+01  2.4894339E+01
 1.6611752E+01  2.4861404E+01
 1.6623251E+01  2.4775944E+01
 1.6634750E+01  2.4712111E+01
 1.6646252E+01  2.4710381E+01
 1.6657751E+01  2.4739092E+01
 1.6669250E+01  2.4759964E+01
 1.6680750E+01  2.4740488E+01
 1.6692251E+01  2.4781536E+01
 1.6703751E+01  2.4799736E+01
 1.6715250E+01  2.4804060E+01
 1.6726751E+01  2.4776594E+01
 1.6738251E+01  2.4706867E+01
 1.6749750E+01  2.4724092E+01
 1.6761251E+01  2.4667593E+01
 1.6772751E+01  2.4668047E+01
 1.6784250E+01  2.4632502E+01
 1.6795752E+01  2.4676910E+01
 1.6807251E+01  2.4646423E+01
 1.6818750E+01  2.4599405E+01
 1.6830252E+01  2.4566114E+01
 1.6841751E+01  2.4582447E+01
 1.6853251E+01  2.4594234E+01
 1.6864750E+01  2.4584171E+01
 1.6876251E+01  2.4569389E+01
 1.6887751E+01  2.4544664E+01
 1.6899250E+01  2.4571096E+01
 1.6910751E+01  2.4559013E+01
 1.6922251E+01  2.4568180E+01
 1.6933750E+01  2.4515173E+01
 1.6945251E+01  2.4516006E+01
 1.6956751E+01  2.4501509E+01
 1.6968250E+01  2.4528013E+01
 1.6979752E+01  2.4532846E+01
 1.6991251E+01  2.4510813E+01
 1.7002750E+01  2.4466572E+01
 1.7014252E+01  2.4469976E+01
 1.7025751E+01  2.4443928E+01
 1.7037251E+01  2.4482878E+01
 1.7048750E+01  2.4439703E+01
 1.7060251E+01  2.4458580E+01
 1.7071751E+01  2.4423668E+01
 1.7083250E+01  2.4454798E+01
 1.7094751E+01  2.4424458E+01
 1.7106251E+01  2.4418259E+01
 1.7117750E+01  2.4369423E+01
 1.7129251E+01  2.4401205E+01
 1.7140751E+01  2.4396519E+01
 1.7152250E+01  2.4414429E+01
 1.7163752E+01  2.4404697E+01
 1.7175251E+01  2.4387369E+01
 1.7186750E+01  2.4382692E+01
 1.7198252E+01  2.4377411E+01
 1.7209751E+01  2.4402437E+01
 1.7221251E+01  2.4393490E+01
 1.7232750E+01  2.4384338E+01
 1.7244251E+01  2.4360765E+01
 1.7255751E+01  2.4341990E+01
 1.7267250E+01  2.4305561E+01
 1.7278751E+01  2.4284601E+01
 1.7290251E+01  2.4257416E+01
 1.7301750E+01  2.4288177E+01
 1.7313251E+01  2.4338060E+01
 1.7324751E+01  2.4349957E+01
 1.7336250E+01  2.4341766E+01
 1.7347752E+01  2.4324072E+01
 1.7359251E+01  2.4366875E+01
 1.7370750E+01  2.4325718E+01
 1.7382252E+01  2.4318649E+01
 1.7393751E+01  2.4275547E+01
 1.7405251E+01  2.4253225E+01
 1.7416750E+01  2.4189207E+01
 1.7428251E+01  2.4181536E+01
 1.7439751E+01  2.4167128E+01
 1.7451250E+01  2.4181017E+01
 1.7462751E+01  2.4199959E+01
 1.7474251E+01  2.4211149E+01
 1.7485750E+01  2.4231899E+01
 1.7497252E+01  2.4197712E+01
 1.7508751E+01  2.4178087E+01
 1.7520250E+01  2.4161835E+01
 1.7531752E+01  2.4185675E+01
 1.7543251E+01  2.4185089E+01
 1.7554750E+01  2.4155443E+01
 1.7566252E+01  2.4173820E+01
 1.7577751E+01  2.4141218E+01
 1.7589251E+01  2.4118258E+01
 1.7600750E+01  2.4126223E+01
 1.7612251E+01  2.4154398E+01
 1.7623751E+01  2.4164747E+01
 1.7635250E+01  2.4132607E+01
 1.7646751E+01  2.4140337E+01
 1.7658251E+01  2.4128004E+01
 1.7669750E+01  2.4119278E+01
 1.7681252E+01  2.4098557E+01
 1.7692751E+01  2.4104534E+01
 1.7704250E+01  2.4084982E+01
 1.7715752E+01  2.4079636E+01
 1.7727251E+01  2.4054880E+01
 1.7738750E+01  2.4073385E+01
 1.7750252E+01  2.4065849E+01
 1.7761751E+01  2.4069172E+01
 1.7773251E+01  2.4058954E+01
 1.7784750E+01  2.4063030E+01
 1.7796251E+01  2.4094158E+01
 1.7807751E+01  2.4104376E+01
 1.7819250E+01  2.4099285E+01
 1.7830751E+01  2.4107979E+01
 1.7842251E+01  2.4152752E+01
 1.7853750E+01  2.4166283E+01
 1.7865252E+01  2.4172459E+01
 1.7876751E+01  2.4175751E+01
 1.7888250E+01  2.4201550E+01
 1.7899752E+01  2.4218477E+01
 1.7911251E+01  2.4282385E+01
 1.7922750E+01  2.4339197E+01
 1.7934252E+01  2.4392778E+01
 1.7945751E+01  2.4401993E+01
 1.7957251E+01  2.4439514E+01
 1.7968750E+01  2.4479984E+01
 1.7980251E+01  2.4574341E+01
 1.7991751E+01  2.4773121E+01
 1.8003250E+01  2.5055725E+01
 1.8014751E+01  2.5427372E+01
 1.8026251E+01  2.5837759E+01
 1.8037750E+01  2.6467073E+01
 1.8049252E+01  2.7487225E+01
 1.8060751E+01  2.8699902E+01
 1.8072250E+01  3.0308189E+01
 1.8083752E+01  3.1921463E+01
 1.8095251E+01  3.3484009E+01
 1.8106750E+01  3.4074692E+01
 1.8118252E+01  3.3522179E+01
 1.8129751E+01  3.2192307E+01
 1.8141251E+01  3.0118813E+01
 1.8152750E+01  2.8443848E+01
 1.8164251E+01  2.6719917E+01
 1.8175751E+01  2.5860264E+01
 1.8187250E+01  2.5107466E+01
 1.8198751E+01  2.4754635E+01
 1.8210251E+01  2.4524433E+01
 1.8221750E+01  2.4369247E+01
 1.8233252E+01  2.4298096E+01
 1.8244751E+01  2.4221224E+01
 1.8256250E+01  2.4193033E+01
 1.8267752E+01  2.4140333E+01
 1.8279251E+01  2.4108175E+01
 1.8290751E+01  2.4109865E+01
 1.8302252E+01  2.4069078E+01
 1.8313751E+01  2.3993046E+01
 1.8325251E+01  2.3902966E+01
 1.8336750E+01  2.3895638E+01
 1.8348251E+01  2.3890079E+01
 1.8359751E+01  2.3902582E+01
 1.8371250E+01  2.3890306E+01
 1.8382751E+01  2.3914093E+01
 1.8394251E+01  2.3937521E+01
 1.8405750E+01  2.3981110E+01
 1.8417252E+01  2.3929600E+01
 1.8428751E+01  2.3857285E+01
 1.8440250E+01  2.3808037E+01
 1.8451752E+01  2.3783747E+01
 1.8463251E+01  2.3756584E+01
 1.8474751E+01  2.3789738E+01
 1.8486252E+01  2.3761343E+01
 1.8497751E+01  2.3784908E+01
 1.8509251E+01  2.3736025E+01
 1.8520750E+01  2.3720280E+01
 1.8532251E+01  2.3688076E+01
 1.8543751E+01  2.3684685E+01
 1.8555250E+01  2.3728832E+01
 1.8566751E+01  2.3699842E+01
 1.8578251E+01  2.3746054E+01
 1.8589750E+01  2.3764030E+01
 1.8601252E+01  2.3787645E+01
 1.8612751E+01  2.3787771E+01
 1.8624250E+01  2.3788652E+01
 1.8635752E+01  2.3781898E+01
 1.8647251E+01  2.3771473E+01
 1.8658751E+01  2.3707575E+01
 1.8670252E+01  2.3668119E+01
 1.8681751E+01  2.3648478E+01
 1.8693251E+01  2.3696327E+01
 1.8704750E+01  2.3720081E+01
 1.8716251E+01  2.3723272E+01
 1.8727751E+01  2.3746479E+01
 1.8739250E+01  2.3720963E+01
 1.8750751E+01  2.3712507E+01
 1.8762251E+01  2.3689964E+01
 1.8773750E+01  2.3721071E+01
 1.8785252E+01  2.3770063E+01
 1.8796751E+01  2.3788834E+01
 1.8808250E+01  2.3749649E+01
 1.8819752E+01  2.3727987E+01
 1.8831251E+01  2.3750525E+01
 1.8842751E+01  2.3803900E+01
 1.8854252E+01  2.3786144E+01
 1.8865751E+01  2.3796518E+01
 1.8877251E+01  2.3814409E+01
 1.8888750E+01  2.3802612E+01
 1.8900251E+01  2.3749693E+01
 1.8911751E+01  2.3712307E+01
 1.8923250E+01  2.3773397E+01
 1.8934752E+01  2.3845560E+01
 1.8946251E+01  2.3894180E+01
 1.8957750E+01  2.3896807E+01
 1.8969252E+01  2.3812056E+01
 1.8980751E+01  2.3753649E+01
 1.8992250E+01  2.3703630E+01
 1.9003752E+01  2.3714840E+01
 1.9015251E+01  2.3762457E+01
 1.9026751E+01  2.3795204E+01
 1.9038252E+01  2.3802311E+01
 1.9049751E+01  2.3718664E+01
 1.9061251E+01  2.3688164E+01
 1.9072750E+01  2.3688423E+01
 1.9084251E+01  2.3742516E+01
 1.9095751E+01  2.3744101E+01
 1.9107250E+01  2.3727684E+01
 1.9118752E+01  2.3735146E+01
 1.9130251E+01  2.3774025E+01
 1.9141750E+01  2.3810251E+01
 1.9153252E+01  2.3840406E+01
 1.9164751E+01  2.3828175E+01
 1.9176250E+01  2.3774246E+01
 1.9187752E+01  2.3751936E+01
 1.9199251E+01  2.3710283E+01
 1.9210751E+01  2.3712128E+01
 1.9222252E+01  2.3687698E+01
 1.9233751E+01  2.3699511E+01
 1.9245251E+01  2.3715471E+01
 1.9256750E+01  2.3757750E+01
 1.9268251E+01  2.3785177E+01
 1.9279751E+01  2.3785166E+01
 1.9291250E+01  2.3819071E+01
 1.9302752E+01  2.3879219E+01
 1.9314251E+01  2.3918045E+01
 1.9325750E+01  2.3874493E+01
 1.9337252E+01  2.3915691E+01
 1.9348751E+01  2.3906971E+01
 1.9360250E+01  2.3959538E+01
 1.9371752E+01  2.3936029E+01
 1.9383251E+01  2.3997944E+01
 1.9394751E+01  2.4023205E+01
 1.9406250E+01  2.4070835E+01
 1.9417751E+01  2.4062323E+01
 1.9429251E+01  2.4046934E+01
 1.9440750E+01  2.4005680E+01
 1.9452251E+01  2.3969696E+01
 1.9463751E+01  2.3967619E+01
 1.9475250E+01  2.4000229E+01
 1.9486752E+01  2.3996000E+01
 1.9498251E+01  2.4003395E+01
 1.9509750E+01  2.3982080E+01
 1.9521252E+01  2.4024963E+01
 1.9532751E+01  2.4023592E+01
 1.9544250E+01  2.4041677E+01
 1.9555752E+01  2.4084028E+01
 1.9567251E+01  2.4137766E+01
 1.9578751E+01  2.4291334E+01
 1.9590250E+01  2.4339495E+01
 1.9601751E+01  2.4443968E+01
 1.9613251E+01  2.4600241E+01
 1.9624750E+01  2.4760796E+01
 1.9636251E+01  2.5175222E+01
 1.9647751E+01  2.5433784E+01
 1.9659250E+01  2.6113928E+01
 1.9670752E+01  2.7253218E+01
 1.9682251E+01  2.7920364E+01
 1.9693750E+01  3.0583818E+01
 1.9705252E+01  3.1052885E+01
 1.9716751E+01  3.3083736E+01
 1.9728251E+01  3.2639835E+01
 1.9739752E+01  3.2476093E+01
 1.9751251E+01  3.0847191E+01
 1.9762751E+01  2.9047947E+01
 1.9774250E+01  2.8333439E+01
 1.9785751E+01  2.7032934E+01
 1.9797251E+01  2.7063021E+01
 1.9808750E+01  2.7350418E+01
 1.9820251E+01  2.7838030E+01
 1.9831751E+01  2.8670061E+01
 1.9843250E+01  2.9363247E+01
 1.9854752E+01  3.0034826E+01
 1.9866251E+01  3.0398817E+01
 1.9877750E+01  3.0341261E+01
 1.9889252E+01  2.9629276E+01
 1.9900751E+01  2.8573381E+01
 1.9912251E+01  2.7323435E+01
 1.9923752E+01  2.6277287E+01
 1.9935251E+01  2.5466812E+01
 1.9946751E+01  2.5017780E+01
 1.9958250E+01  2.4705473E+01
 1.9969751E+01  2.4579222E+01
 1.9981251E+01  2.4473494E+01
 1.9992750E+01  2.4352676E+01
 2.0004251E+01  2.4295050E+01
 2.0015751E+01  2.4236084E+01
 2.0027250E+01  2.4202806E+01
 2.0038752E+01  2.4163866E+01
 2.0050251E+01  2.4159338E+01
 2.0061750E+01  2.4127230E+01
 2.0073252E+01  2.4073023E+01
 2.0084751E+01  2.4052197E+01
 2.0096251E+01  2.4050432E+01
 2.0107752E+01  2.4048462E+01
 2.0119251E+01  2.4081207E+01
 2.0130751E+01  2.4039265E+01
 2.0142250E+01  2.3998659E+01
 2.0153751E+01  2.3953440E+01
 2.0165251E+01  2.3994465E+01
 2.0176750E+01  2.3969221E+01
 2.0188251E+01  2.3998150E+01
 2.0199751E+01  2.3967402E+01
 2.0211250E+01  2.3981697E+01
 2.0222752E+01  2.3929369E+01
 2.0234251E+01  2.3946613E+01
 2.0245750E+01  2.3963644E+01
 2.0257252E+01  2.4048038E+01
 2.0268751E+01  2.4052807E+01
 2.0280251E+01  2.4056097E+01
 2.0291752E+01  2.4045996E+01
 2.0303251E+01  2.4040600E+01
 2.0314751E+01  2.4041187E+01
 2.0326250E+01  2.4045090E+01
 2.0337751E+01  2.4044897E+01
 2.0349251E+01  2.4047178E+01
 2.0360750E+01  2.4045597E+01
 2.0372252E+01  2.4068882E+01
 2.0383751E+01  2.4083694E+01
 2.0395250E+01  2.4084814E+01
 2.0406752E+01  2.4069700E+01
 2.0418251E+01  2.4070313E+01
 2.0429750E+01  2.4121225E+01
 2.0441252E+01  2.4106331E+01
 2.0452751E+01  2.4092970E+01
 2.0464251E+01  2.4063637E+01
 2.0475752E+01  2.4047522E+01
 2.0487251E+01  2.4041626E+01
 2.0498751E+01  2.4038990E+01
 2.0510250E+01  2.3995834E+01
 2.0521751E+01  2.3986660E+01
 2.0533251E+01  2.4010965E+01
 2.0544750E+01  2.4113827E+01
 2.0556252E+01  2.4113258E+01
 2.0567751E+01  2.4114126E+01
 2.0579250E+01  2.4023083E+01
 2.0590752E+01  2.4061295E+01
 2.0602251E+01  2.4108664E+01
 2.0613750E+01  2.4134905E+01
 2.0625252E+01  2.4139353E+01
 2.0636751E+01  2.4164619E+01
 2.0648251E+01  2.4239424E+01
 2.0659752E+01  2.4345131E+01
 2.0671251E+01  2.4453367E+01
 2.0682751E+01  2.4610155E+01
 2.0694250E+01  2.4789625E+01
 2.0705751E+01  2.5112104E+01
 2.0717251E+01  2.5482756E+01
 2.0728750E+01  2.6095860E+01
 2.0740252E+01  2.6591316E+01
 2.0751751E+01  2.7407337E+01
 2.0763250E+01  2.7830835E+01
 2.0774752E+01  2.8247801E+01
 2.0786251E+01  2.8131809E+01
 2.0797750E+01  2.8053246E+01
 2.0809252E+01  2.7396667E+01
 2.0820751E+01  2.6712349E+01
 2.0832251E+01  2.5936043E+01
 2.0843752E+01  2.5272568E+01
 2.0855251E+01  2.4847616E+01
 2.0866751E+01  2.4595032E+01
 2.0878250E+01  2.4551920E+01
 2.0889751E+01  2.4480286E+01
 2.0901251E+01  2.4402922E+01
 2.0912750E+01  2.4320745E+01
 2.0924252E+01  2.4264782E+01
 2.0935751E+01  2.4265707E+01
 2.0947250E+01  2.4265636E+01
 2.0958752E+01  2.4244431E+01
 2.0970251E+01  2.4238832E+01
 2.0981750E+01  2.4227968E+01
 2.0993252E+01  2.4214283E+01
 2.1004751E+01  2.4178944E+01
 2.1016251E+01  2.4184719E+01
 2.1027752E+01  2.4172552E+01
 2.1039251E+01  2.4157825E+01
 2.1050751E+01  2.4121008E+01
 2.1062250E+01  2.4115307E+01
 2.1073751E+01  2.4103640E+01
 2.1085251E+01  2.4098093E+01
 2.1096750E+01  2.4120401E+01
 2.1108252E+01  2.4143257E+01
 2.1119751E+01  2.4194494E+01
 2.1131250E+01  2.4193918E+01
 2.1142752E+01  2.4179934E+01
 2.1154251E+01  2.4157967E+01
 2.1165751E+01  2.4154797E+01
 2.1177252E+01  2.4220627E+01
 2.1188751E+01  2.4217510E+01
 2.1200251E+01  2.4247013E+01
 2.1211752E+01  2.4240366E+01
 2.1223251E+01  2.4174568E+01
 2.1234751E+01  2.4118814E+01
 2.1246250E+01  2.4109831E+01
 2.1257751E+01  2.4132212E+01
 2.1269251E+01  2.4108721E+01
 2.1280750E+01  2.4129145E+01
 2.1292252E+01  2.4158537E+01
 2.1303751E+01  2.4153807E+01
 2.1315250E+01  2.4137558E+01
 2.1326752E+01  2.4111240E+01
 2.1338251E+01  2.4142807E+01
 2.1349751E+01  2.4158880E+01
 2.1361252E+01  2.4224447E+01
 2.1372751E+01  2.4280354E+01
 2.1384251E+01  2.4265778E+01
 2.1395752E+01  2.4208031E+01
 2.1407251E+01  2.4176277E+01
 2.1418751E+01  2.4213966E+01
 2.1430250E+01  2.4214434E+01
 2.1441751E+01  2.4187571E+01
 2.1453251E+01  2.4182436E+01
 2.1464750E+01  2.4191437E+01
 2.1476252E+01  2.4208750E+01
 2.1487751E+01  2.4250826E+01
 2.1499250E+01  2.4233994E+01
 2.1510752E+01  2.4232738E+01
 2.1522251E+01  2.4221363E+01
 2.1533751E+01  2.4258682E+01
 2.1545252E+01  2.4220352E+01
 2.1556751E+01  2.4219725E+01
 2.1568251E+01  2.4206427E+01
 2.1579752E+01  2.4216646E+01
 2.1591251E+01  2.4221174E+01
 2.1602751E+01  2.4231133E+01
 2.1614250E+01  2.4241077E+01
 2.1625751E+01  2.4225311E+01
 2.1637251E+01  2.4243063E+01
 2.1648750E+01  2.4253889E+01
 2.1660252E+01  2.4306534E+01
 2.1671751E+01  2.4356960E+01
 2.1683250E+01  2.4346861E+01
 2.1694752E+01  2.4319065E+01
 2.1706251E+01  2.4302509E+01
 2.1717751E+01  2.4302961E+01
 2.1729252E+01  2.4308634E+01
 2.1740751E+01  2.4358292E+01
 2.1752251E+01  2.4382290E+01
 2.1763752E+01  2.4354248E+01
 2.1775251E+01  2.4328024E+01
 2.1786751E+01  2.4362635E+01
 2.1798250E+01  2.4386305E+01
 2.1809752E+01  2.4387619E+01
 2.1821251E+01  2.4389133E+01
 2.1832750E+01  2.4404379E+01
 2.1844252E+01  2.4408943E+01
 2.1855751E+01  2.4409113E+01
 2.1867250E+01  2.4392408E+01
 2.1878752E+01  2.4408234E+01
 2.1890251E+01  2.4431629E+01
 2.1901751E+01  2.4459097E+01
 2.1913252E+01  2.4482267E+01
 2.1924751E+01  2.4462814E+01
 2.1936251E+01  2.4408165E+01
 2.1947752E+01  2.4330296E+01
 2.1959251E+01  2.4298597E+01
 2.1970751E+01  2.4348490E+01
 2.1982250E+01  2.4358795E+01
 2.1993752E+01  2.4380371E+01
 2.2005251E+01  2.4364765E+01
 2.2016750E+01  2.4407732E+01
 2.2028252E+01  2.4427179E+01
 2.2039751E+01  2.4458027E+01
 2.2051250E+01  2.4479088E+01
 2.2062752E+01  2.4482183E+01
 2.2074251E+01  2.4492313E+01
 2.2085751E+01  2.4487579E+01
 2.2097252E+01  2.4494457E+01
 2.2108751E+01  2.4554098E+01
 2.2120251E+01  2.4623144E+01
 2.2131752E+01  2.4608025E+01
 2.2143251E+01  2.4568382E+01
 2.2154751E+01  2.4538425E+01
 2.2166250E+01  2.4571106E+01
 2.2177752E+01  2.4610035E+01
 2.2189251E+01  2.4657845E+01
 2.2200750E+01  2.4697409E+01
 2.2212252E+01  2.4712753E+01
 2.2223751E+01  2.4687752E+01
 2.2235250E+01  2.4681259E+01
 2.2246752E+01  2.4705551E+01
 2.2258251E+01  2.4755098E+01
 2.2269751E+01  2.4765366E+01
 2.2281252E+01  2.4801010E+01
 2.2292751E+01  2.4769629E+01
 2.2304251E+01  2.4759005E+01
 2.2315752E+01  2.4747742E+01
 2.2327251E+01  2.4753815E+01
 2.2338751E+01  2.4747061E+01
 2.2350250E+01  2.4756924E+01
 2.2361752E+01  2.4767857E+01
 2.2373251E+01  2.4754742E+01
 2.2384750E+01  2.4659201E+01
 2.2396252E+01  2.4667353E+01
 2.2407751E+01  2.4706696E+01
 2.2419250E+01  2.4783228E+01
 2.2430752E+01  2.4841545E+01
 2.2442251E+01  2.4914928E+01
 2.2453751E+01  2.4973890E+01
 2.2465252E+01  2.4943007E+01
 2.2476751E+01  2.4845024E+01
 2.2488251E+01  2.4831703E+01
 2.2499752E+01  2.4847052E+01
 2.2511251E+01  2.4917240E+01
 2.2522751E+01  2.4947512E+01
 2.2534250E+01  2.4966915E+01
 2.2545752E+01  2.4992832E+01
 2.2557251E+01  2.4998764E+01
 2.2568750E+01  2.5014700E+01
 2.2580252E+01  2.5027246E+01
 2.2591751E+01  2.5089813E+01
 2.2603251E+01  2.5144224E+01
 2.2614752E+01  2.5195204E+01
 2.2626251E+01  2.5208731E+01
 2.2637751E+01  2.5240639E+01
 2.2649252E+01  2.5258440E+01
 2.2660751E+01  2.5281986E+01
 2.2672251E+01  2.5294542E+01
 2.2683752E+01  2.5348448E+01
 2.2695251E+01  2.5439676E+01
 2.2706751E+01  2.5488304E+01
 2.2718250E+01  2.5487150E+01
 2.2729752E+01  2.5501167E+01
 2.2741251E+01  2.5504808E+01
 2.2752750E+01  2.5597878E+01
 2.2764252E+01  2.5638630E+01
 2.2775751E+01  2.5664454E+01
 2.2787251E+01  2.5633020E+01
 2.2798752E+01  2.5666073E+01
 2.2810251E+01  2.5714396E+01
 2.2821751E+01  2.5722952E+01
 2.2833252E+01  2.5771767E+01
 2.2844751E+01  2.5799049E+01
 2.2856251E+01  2.5832506E+01
 2.2867750E+01  2.5873732E+01
 2.2879251E+01  2.5915014E+01
 2.2890751E+01  2.5986477E+01
 2.2902250E+01  2.6065273E+01
 2.2913752E+01  2.6211569E+01
 2.2925251E+01  2.6287376E+01
 2.2936750E+01  2.6313496E+01
 2.2948252E+01  2.6324877E+01
 2.2959751E+01  2.6336349E+01
 2.2971251E+01  2.6420372E+01
 2.2982752E+01  2.6508301E+01
 2.2994251E+01  2.6603840E+01
