F:\20151113_APS_34IDE\\Brian\Particle1\OCV\Data_0007.tif
2-Theta Angle (Degrees)
Intensity
       2000
 5.7500005E-03  0.0000000E+00
 1.7250001E-02  0.0000000E+00
 2.8750001E-02  0.0000000E+00
 4.0250003E-02  0.0000000E+00
 5.1750004E-02  0.0000000E+00
 6.3250005E-02  0.0000000E+00
 7.4750006E-02  0.0000000E+00
 8.6250007E-02  0.0000000E+00
 9.7750008E-02  0.0000000E+00
 1.0925001E-01  0.0000000E+00
 1.2075000E-01  0.0000000E+00
 1.3225001E-01  0.0000000E+00
 1.4375001E-01  0.0000000E+00
 1.5525001E-01  0.0000000E+00
 1.6675001E-01  0.0000000E+00
 1.7825001E-01  0.0000000E+00
 1.8975002E-01  0.0000000E+00
 2.0125002E-01  0.0000000E+00
 2.1275002E-01  0.0000000E+00
 2.2425000E-01  0.0000000E+00
 2.3575000E-01  0.0000000E+00
 2.4725001E-01  0.0000000E+00
 2.5875002E-01  0.0000000E+00
 2.7025002E-01  0.0000000E+00
 2.8175002E-01  0.0000000E+00
 2.9325002E-01  0.0000000E+00
 3.0475003E-01  0.0000000E+00
 3.1625003E-01  0.0000000E+00
 3.2775003E-01  0.0000000E+00
 3.3925003E-01  0.0000000E+00
 3.5075003E-01  0.0000000E+00
 3.6225003E-01  0.0000000E+00
 3.7375003E-01  0.0000000E+00
 3.8525003E-01  0.0000000E+00
 3.9675003E-01  0.0000000E+00
 4.0825003E-01  0.0000000E+00
 4.1975003E-01  0.0000000E+00
 4.3125004E-01  0.0000000E+00
 4.4275001E-01  0.0000000E+00
 4.5425001E-01  0.0000000E+00
 4.6575001E-01  0.0000000E+00
 4.7725001E-01  0.0000000E+00
 4.8875001E-01  0.0000000E+00
 5.0025004E-01  0.0000000E+00
 5.1175004E-01  0.0000000E+00
 5.2325004E-01  0.0000000E+00
 5.3475004E-01  0.0000000E+00
 5.4625005E-01  0.0000000E+00
 5.5775005E-01  0.0000000E+00
 5.6925005E-01  0.0000000E+00
 5.8075005E-01  0.0000000E+00
 5.9225005E-01  0.0000000E+00
 6.0375005E-01  0.0000000E+00
 6.1525005E-01  0.0000000E+00
 6.2675005E-01  0.0000000E+00
 6.3825005E-01  0.0000000E+00
 6.4975005E-01  0.0000000E+00
 6.6125005E-01  0.0000000E+00
 6.7275006E-01  0.0000000E+00
 6.8425006E-01  0.0000000E+00
 6.9575006E-01  0.0000000E+00
 7.0725006E-01  0.0000000E+00
 7.1875006E-01  0.0000000E+00
 7.3025006E-01  0.0000000E+00
 7.4175006E-01  0.0000000E+00
 7.5325006E-01  0.0000000E+00
 7.6475006E-01  0.0000000E+00
 7.7625006E-01  0.0000000E+00
 7.8775007E-01  0.0000000E+00
 7.9925007E-01  0.0000000E+00
 8.1075007E-01  0.0000000E+00
 8.2225007E-01  0.0000000E+00
 8.3375007E-01  0.0000000E+00
 8.4525007E-01  0.0000000E+00
 8.5675007E-01  0.0000000E+00
 8.6825007E-01  0.0000000E+00
 8.7975001E-01  0.0000000E+00
 8.9125001E-01  0.0000000E+00
 9.0275002E-01  0.0000000E+00
 9.1425002E-01  0.0000000E+00
 9.2575002E-01  0.0000000E+00
 9.3725002E-01  0.0000000E+00
 9.4875002E-01  0.0000000E+00
 9.6025002E-01  0.0000000E+00
 9.7175002E-01  0.0000000E+00
 9.8325002E-01  0.0000000E+00
 9.9475002E-01  0.0000000E+00
 1.0062500E+00  0.0000000E+00
 1.0177500E+00  0.0000000E+00
 1.0292500E+00  0.0000000E+00
 1.0407500E+00  0.0000000E+00
 1.0522500E+00  0.0000000E+00
 1.0637500E+00  0.0000000E+00
 1.0752500E+00  0.0000000E+00
 1.0867500E+00  0.0000000E+00
 1.0982500E+00  0.0000000E+00
 1.1097500E+00  0.0000000E+00
 1.1212500E+00  0.0000000E+00
 1.1327500E+00  0.0000000E+00
 1.1442500E+00  0.0000000E+00
 1.1557500E+00  0.0000000E+00
 1.1672500E+00  0.0000000E+00
 1.1787500E+00  0.0000000E+00
 1.1902500E+00  0.0000000E+00
 1.2017500E+00  0.0000000E+00
 1.2132500E+00  0.0000000E+00
 1.2247500E+00  0.0000000E+00
 1.2362500E+00  0.0000000E+00
 1.2477500E+00  0.0000000E+00
 1.2592500E+00  0.0000000E+00
 1.2707500E+00  0.0000000E+00
 1.2822500E+00  0.0000000E+00
 1.2937500E+00  0.0000000E+00
 1.3052500E+00  0.0000000E+00
 1.3167500E+00  0.0000000E+00
 1.3282501E+00  0.0000000E+00
 1.3397501E+00  0.0000000E+00
 1.3512501E+00  0.0000000E+00
 1.3627501E+00  0.0000000E+00
 1.3742501E+00  0.0000000E+00
 1.3857501E+00  0.0000000E+00
 1.3972501E+00  0.0000000E+00
 1.4087501E+00  0.0000000E+00
 1.4202501E+00  0.0000000E+00
 1.4317501E+00  0.0000000E+00
 1.4432501E+00  0.0000000E+00
 1.4547501E+00  0.0000000E+00
 1.4662501E+00  0.0000000E+00
 1.4777501E+00  0.0000000E+00
 1.4892501E+00  0.0000000E+00
 1.5007501E+00  0.0000000E+00
 1.5122501E+00  0.0000000E+00
 1.5237501E+00  0.0000000E+00
 1.5352501E+00  0.0000000E+00
 1.5467501E+00  0.0000000E+00
 1.5582501E+00  0.0000000E+00
 1.5697501E+00  0.0000000E+00
 1.5812501E+00  0.0000000E+00
 1.5927501E+00  0.0000000E+00
 1.6042501E+00  0.0000000E+00
 1.6157501E+00  0.0000000E+00
 1.6272501E+00  0.0000000E+00
 1.6387501E+00  0.0000000E+00
 1.6502501E+00  0.0000000E+00
 1.6617501E+00  0.0000000E+00
 1.6732501E+00  0.0000000E+00
 1.6847501E+00  0.0000000E+00
 1.6962501E+00  0.0000000E+00
 1.7077501E+00  0.0000000E+00
 1.7192501E+00  0.0000000E+00
 1.7307501E+00  0.0000000E+00
 1.7422501E+00  0.0000000E+00
 1.7537501E+00  0.0000000E+00
 1.7652501E+00  0.0000000E+00
 1.7767501E+00  0.0000000E+00
 1.7882501E+00  0.0000000E+00
 1.7997501E+00  0.0000000E+00
 1.8112501E+00  0.0000000E+00
 1.8227501E+00  0.0000000E+00
 1.8342501E+00  0.0000000E+00
 1.8457501E+00  0.0000000E+00
 1.8572501E+00  0.0000000E+00
 1.8687501E+00  0.0000000E+00
 1.8802501E+00  0.0000000E+00
 1.8917501E+00  0.0000000E+00
 1.9032501E+00  0.0000000E+00
 1.9147501E+00  0.0000000E+00
 1.9262501E+00  0.0000000E+00
 1.9377501E+00  0.0000000E+00
 1.9492501E+00  0.0000000E+00
 1.9607501E+00  0.0000000E+00
 1.9722501E+00  0.0000000E+00
 1.9837501E+00  0.0000000E+00
 1.9952501E+00  0.0000000E+00
 2.0067501E+00  0.0000000E+00
 2.0182500E+00  0.0000000E+00
 2.0297501E+00  0.0000000E+00
 2.0412500E+00  0.0000000E+00
 2.0527501E+00  0.0000000E+00
 2.0642500E+00  0.0000000E+00
 2.0757501E+00  0.0000000E+00
 2.0872500E+00  0.0000000E+00
 2.0987501E+00  0.0000000E+00
 2.1102500E+00  0.0000000E+00
 2.1217501E+00  0.0000000E+00
 2.1332500E+00  0.0000000E+00
 2.1447501E+00  0.0000000E+00
 2.1562500E+00  0.0000000E+00
 2.1677501E+00  0.0000000E+00
 2.1792500E+00  0.0000000E+00
 2.1907501E+00  0.0000000E+00
 2.2022500E+00  0.0000000E+00
 2.2137501E+00  0.0000000E+00
 2.2252500E+00  0.0000000E+00
 2.2367501E+00  0.0000000E+00
 2.2482500E+00  0.0000000E+00
 2.2597501E+00  0.0000000E+00
 2.2712500E+00  0.0000000E+00
 2.2827501E+00  0.0000000E+00
 2.2942500E+00  0.0000000E+00
 2.3057501E+00  0.0000000E+00
 2.3172500E+00  0.0000000E+00
 2.3287501E+00  0.0000000E+00
 2.3402500E+00  0.0000000E+00
 2.3517501E+00  0.0000000E+00
 2.3632500E+00  0.0000000E+00
 2.3747501E+00  0.0000000E+00
 2.3862500E+00  0.0000000E+00
 2.3977501E+00  0.0000000E+00
 2.4092500E+00  0.0000000E+00
 2.4207501E+00  0.0000000E+00
 2.4322500E+00  0.0000000E+00
 2.4437501E+00  0.0000000E+00
 2.4552500E+00  0.0000000E+00
 2.4667501E+00  0.0000000E+00
 2.4782500E+00  0.0000000E+00
 2.4897501E+00  0.0000000E+00
 2.5012500E+00  0.0000000E+00
 2.5127501E+00  0.0000000E+00
 2.5242500E+00  0.0000000E+00
 2.5357502E+00  0.0000000E+00
 2.5472500E+00  0.0000000E+00
 2.5587502E+00  0.0000000E+00
 2.5702500E+00  0.0000000E+00
 2.5817502E+00  0.0000000E+00
 2.5932500E+00  0.0000000E+00
 2.6047502E+00  0.0000000E+00
 2.6162500E+00  0.0000000E+00
 2.6277502E+00  0.0000000E+00
 2.6392500E+00  0.0000000E+00
 2.6507502E+00  0.0000000E+00
 2.6622500E+00  0.0000000E+00
 2.6737502E+00  0.0000000E+00
 2.6852500E+00  0.0000000E+00
 2.6967502E+00  0.0000000E+00
 2.7082500E+00  0.0000000E+00
 2.7197502E+00  0.0000000E+00
 2.7312500E+00  0.0000000E+00
 2.7427502E+00  0.0000000E+00
 2.7542500E+00  0.0000000E+00
 2.7657502E+00  0.0000000E+00
 2.7772501E+00  0.0000000E+00
 2.7887502E+00  0.0000000E+00
 2.8002501E+00  0.0000000E+00
 2.8117502E+00  0.0000000E+00
 2.8232501E+00  3.2290676E+01
 2.8347502E+00  3.3113518E+01
 2.8462501E+00  3.3996841E+01
 2.8577502E+00  3.4729519E+01
 2.8692501E+00  3.5002457E+01
 2.8807502E+00  3.5595524E+01
 2.8922501E+00  3.5517059E+01
 2.9037502E+00  3.5761356E+01
 2.9152501E+00  3.5605675E+01
 2.9267502E+00  3.5627014E+01
 2.9382501E+00  3.5696861E+01
 2.9497502E+00  3.5702183E+01
 2.9612501E+00  3.5804909E+01
 2.9727502E+00  3.5949295E+01
 2.9842501E+00  3.6136917E+01
 2.9957502E+00  3.5789581E+01
 3.0072501E+00  3.5389442E+01
 3.0187502E+00  3.4937275E+01
 3.0302501E+00  3.4905746E+01
 3.0417502E+00  3.5205635E+01
 3.0532501E+00  3.5326317E+01
 3.0647502E+00  3.5694336E+01
 3.0762501E+00  3.5588158E+01
 3.0877502E+00  3.5472820E+01
 3.0992501E+00  3.5225868E+01
 3.1107502E+00  3.4982986E+01
 3.1222501E+00  3.5179096E+01
 3.1337502E+00  3.5209572E+01
 3.1452501E+00  3.5627918E+01
 3.1567502E+00  3.5407398E+01
 3.1682501E+00  3.5392410E+01
 3.1797502E+00  3.4956692E+01
 3.1912501E+00  3.4985657E+01
 3.2027502E+00  3.4900146E+01
 3.2142501E+00  3.5217796E+01
 3.2257502E+00  3.5224178E+01
 3.2372501E+00  3.4910328E+01
 3.2487502E+00  3.4857506E+01
 3.2602501E+00  3.4930222E+01
 3.2717502E+00  3.4956959E+01
 3.2832501E+00  3.4633598E+01
 3.2947502E+00  3.4339703E+01
 3.3062501E+00  3.4109280E+01
 3.3177502E+00  3.4073479E+01
 3.3292501E+00  3.4064610E+01
 3.3407502E+00  3.4423782E+01
 3.3522501E+00  3.4590340E+01
 3.3637502E+00  3.4892471E+01
 3.3752501E+00  3.4823593E+01
 3.3867502E+00  3.4853588E+01
 3.3982501E+00  3.4784561E+01
 3.4097502E+00  3.4868740E+01
 3.4212501E+00  3.4939774E+01
 3.4327502E+00  3.4897247E+01
 3.4442501E+00  3.4730049E+01
 3.4557502E+00  3.4590122E+01
 3.4672501E+00  3.4229301E+01
 3.4787502E+00  3.4226898E+01
 3.4902501E+00  3.4137970E+01
 3.5017502E+00  3.4313812E+01
 3.5132501E+00  3.4212917E+01
 3.5247502E+00  3.4240879E+01
 3.5362501E+00  3.3959770E+01
 3.5477502E+00  3.3803844E+01
 3.5592501E+00  3.3656384E+01
 3.5707502E+00  3.3566715E+01
 3.5822501E+00  3.3380886E+01
 3.5937502E+00  3.3040905E+01
 3.6052501E+00  3.2879913E+01
 3.6167502E+00  3.2962601E+01
 3.6282501E+00  3.3141998E+01
 3.6397502E+00  3.3098396E+01
 3.6512501E+00  3.3384045E+01
 3.6627502E+00  3.3349724E+01
 3.6742501E+00  3.3303226E+01
 3.6857502E+00  3.3212032E+01
 3.6972501E+00  3.2871384E+01
 3.7087502E+00  3.2659908E+01
 3.7202501E+00  3.2321968E+01
 3.7317502E+00  3.2276020E+01
 3.7432501E+00  3.2301468E+01
 3.7547503E+00  3.2469582E+01
 3.7662501E+00  3.2658867E+01
 3.7777503E+00  3.2845890E+01
 3.7892501E+00  3.2677010E+01
 3.8007503E+00  3.2504887E+01
 3.8122501E+00  3.2512794E+01
 3.8237503E+00  3.2391636E+01
 3.8352501E+00  3.2489841E+01
 3.8467503E+00  3.2450405E+01
 3.8582501E+00  3.2378651E+01
 3.8697503E+00  3.2306026E+01
 3.8812501E+00  3.2297108E+01
 3.8927503E+00  3.2432346E+01
 3.9042501E+00  3.2383068E+01
 3.9157503E+00  3.2245152E+01
 3.9272501E+00  3.2197708E+01
 3.9387503E+00  3.2197464E+01
 3.9502501E+00  3.2179512E+01
 3.9617503E+00  3.2363503E+01
 3.9732502E+00  3.2597816E+01
 3.9847503E+00  3.2967659E+01
 3.9962502E+00  3.3110783E+01
 4.0077500E+00  3.3153255E+01
 4.0192504E+00  3.3176472E+01
 4.0307503E+00  3.3067619E+01
 4.0422502E+00  3.2932388E+01
 4.0537500E+00  3.2716709E+01
 4.0652504E+00  3.2574726E+01
 4.0767503E+00  3.2305027E+01
 4.0882502E+00  3.2223690E+01
 4.0997500E+00  3.2191891E+01
 4.1112504E+00  3.2369453E+01
 4.1227503E+00  3.2415649E+01
 4.1342502E+00  3.2211361E+01
 4.1457500E+00  3.2157818E+01
 4.1572504E+00  3.1941936E+01
 4.1687503E+00  3.1862232E+01
 4.1802502E+00  3.1727186E+01
 4.1917500E+00  3.1755030E+01
 4.2032504E+00  3.1851927E+01
 4.2147503E+00  3.2034458E+01
 4.2262502E+00  3.2153954E+01
 4.2377501E+00  3.2200550E+01
 4.2492504E+00  3.2129417E+01
 4.2607503E+00  3.2167545E+01
 4.2722502E+00  3.2144611E+01
 4.2837501E+00  3.2159050E+01
 4.2952504E+00  3.1968971E+01
 4.3067503E+00  3.2074661E+01
 4.3182502E+00  3.1955122E+01
 4.3297501E+00  3.1926750E+01
 4.3412504E+00  3.1752386E+01
 4.3527503E+00  3.1768534E+01
 4.3642502E+00  3.1633703E+01
 4.3757501E+00  3.1793924E+01
 4.3872504E+00  3.1887545E+01
 4.3987503E+00  3.2362568E+01
 4.4102502E+00  3.2588963E+01
 4.4217501E+00  3.2795803E+01
 4.4332504E+00  3.2907139E+01
 4.4447503E+00  3.2838512E+01
 4.4562502E+00  3.2841896E+01
 4.4677501E+00  3.2680355E+01
 4.4792504E+00  3.2578266E+01
 4.4907503E+00  3.2559246E+01
 4.5022502E+00  3.2456467E+01
 4.5137501E+00  3.2570419E+01
 4.5252504E+00  3.2567234E+01
 4.5367503E+00  3.2766422E+01
 4.5482502E+00  3.2703983E+01
 4.5597501E+00  3.2768810E+01
 4.5712504E+00  3.2655380E+01
 4.5827503E+00  3.2710510E+01
 4.5942502E+00  3.2512821E+01
 4.6057501E+00  3.2484859E+01
 4.6172504E+00  3.2304176E+01
 4.6287503E+00  3.2220890E+01
 4.6402502E+00  3.2201771E+01
 4.6517501E+00  3.2284016E+01
 4.6632504E+00  3.2373775E+01
 4.6747503E+00  3.2380371E+01
 4.6862502E+00  3.2306023E+01
 4.6977501E+00  3.2340977E+01
 4.7092505E+00  3.2357891E+01
 4.7207503E+00  3.2389011E+01
 4.7322502E+00  3.2368225E+01
 4.7437501E+00  3.2232586E+01
 4.7552505E+00  3.2291222E+01
 4.7667503E+00  3.2336475E+01
 4.7782502E+00  3.2476665E+01
 4.7897501E+00  3.2471283E+01
 4.8012505E+00  3.2423508E+01
 4.8127503E+00  3.2488091E+01
 4.8242502E+00  3.2557056E+01
 4.8357501E+00  3.2748867E+01
 4.8472505E+00  3.2847267E+01
 4.8587503E+00  3.2902081E+01
 4.8702502E+00  3.2817940E+01
 4.8817501E+00  3.2764973E+01
 4.8932505E+00  3.2626236E+01
 4.9047503E+00  3.2737713E+01
 4.9162502E+00  3.2760689E+01
 4.9277501E+00  3.2923401E+01
 4.9392505E+00  3.2962910E+01
 4.9507504E+00  3.3043221E+01
 4.9622502E+00  3.2968967E+01
 4.9737501E+00  3.2968353E+01
 4.9852505E+00  3.2978817E+01
 4.9967504E+00  3.3048386E+01
 5.0082502E+00  3.3133247E+01
 5.0197501E+00  3.3184849E+01
 5.0312505E+00  3.3260075E+01
 5.0427504E+00  3.3256744E+01
 5.0542502E+00  3.3345207E+01
 5.0657501E+00  3.3269188E+01
 5.0772505E+00  3.3270504E+01
 5.0887504E+00  3.3171204E+01
 5.1002502E+00  3.3189579E+01
 5.1117501E+00  3.3320263E+01
 5.1232505E+00  3.3357784E+01
 5.1347504E+00  3.3707687E+01
 5.1462502E+00  3.3807453E+01
 5.1577501E+00  3.3835857E+01
 5.1692505E+00  3.3752415E+01
 5.1807504E+00  3.3658871E+01
 5.1922503E+00  3.3661613E+01
 5.2037501E+00  3.3665817E+01
 5.2152505E+00  3.3641418E+01
 5.2267504E+00  3.3734291E+01
 5.2382503E+00  3.3683384E+01
 5.2497501E+00  3.3863605E+01
 5.2612505E+00  3.3958408E+01
 5.2727504E+00  3.4025539E+01
 5.2842503E+00  3.4116489E+01
 5.2957501E+00  3.4153774E+01
 5.3072500E+00  3.4220928E+01
 5.3187504E+00  3.4274456E+01
 5.3302503E+00  3.4261532E+01
 5.3417501E+00  3.4200146E+01
 5.3532500E+00  3.4102242E+01
 5.3647504E+00  3.4058796E+01
 5.3762503E+00  3.4163326E+01
 5.3877501E+00  3.4236023E+01
 5.3992500E+00  3.4328430E+01
 5.4107504E+00  3.4465488E+01
 5.4222503E+00  3.4553780E+01
 5.4337502E+00  3.4556877E+01
 5.4452500E+00  3.4573212E+01
 5.4567504E+00  3.4615452E+01
 5.4682503E+00  3.4639801E+01
 5.4797502E+00  3.4585461E+01
 5.4912500E+00  3.4541637E+01
 5.5027504E+00  3.4581055E+01
 5.5142503E+00  3.4796665E+01
 5.5257502E+00  3.4818336E+01
 5.5372500E+00  3.4920876E+01
 5.5487504E+00  3.4917683E+01
 5.5602503E+00  3.5058399E+01
 5.5717502E+00  3.5101307E+01
 5.5832500E+00  3.5102077E+01
 5.5947504E+00  3.5109493E+01
 5.6062503E+00  3.5124752E+01
 5.6177502E+00  3.5129700E+01
 5.6292500E+00  3.5064720E+01
 5.6407504E+00  3.4944580E+01
 5.6522503E+00  3.5036602E+01
 5.6637502E+00  3.5145863E+01
 5.6752501E+00  3.5350475E+01
 5.6867504E+00  3.5336720E+01
 5.6982503E+00  3.5301296E+01
 5.7097502E+00  3.5336140E+01
 5.7212501E+00  3.5381084E+01
 5.7327504E+00  3.5478333E+01
 5.7442503E+00  3.5546993E+01
 5.7557502E+00  3.5648716E+01
 5.7672501E+00  3.5633514E+01
 5.7787504E+00  3.5627754E+01
 5.7902503E+00  3.5740688E+01
 5.8017502E+00  3.5769810E+01
 5.8132501E+00  3.5852825E+01
 5.8247504E+00  3.5807346E+01
 5.8362503E+00  3.5870216E+01
 5.8477502E+00  3.5843830E+01
 5.8592501E+00  3.5756626E+01
 5.8707504E+00  3.5779472E+01
 5.8822503E+00  3.5818249E+01
 5.8937502E+00  3.6022728E+01
 5.9052501E+00  3.6185188E+01
 5.9167504E+00  3.6380711E+01
 5.9282503E+00  3.6768871E+01
 5.9397502E+00  3.7189011E+01
 5.9512501E+00  3.7718037E+01
 5.9627504E+00  3.8350842E+01
 5.9742503E+00  3.8668549E+01
 5.9857502E+00  3.8936737E+01
 5.9972501E+00  3.8656425E+01
 6.0087504E+00  3.8223320E+01
 6.0202503E+00  3.7715176E+01
 6.0317502E+00  3.7181744E+01
 6.0432501E+00  3.6909393E+01
 6.0547504E+00  3.6627354E+01
 6.0662503E+00  3.6551437E+01
 6.0777502E+00  3.6549622E+01
 6.0892501E+00  3.6569187E+01
 6.1007504E+00  3.6596432E+01
 6.1122503E+00  3.6496239E+01
 6.1237502E+00  3.6587391E+01
 6.1352501E+00  3.6498600E+01
 6.1467505E+00  3.6595280E+01
 6.1582503E+00  3.6702320E+01
 6.1697502E+00  3.6790977E+01
 6.1812501E+00  3.6813419E+01
 6.1927505E+00  3.6765442E+01
 6.2042503E+00  3.6736069E+01
 6.2157502E+00  3.6898552E+01
 6.2272501E+00  3.7042423E+01
 6.2387505E+00  3.7173370E+01
 6.2502503E+00  3.7318832E+01
 6.2617502E+00  3.7408848E+01
 6.2732501E+00  3.7664028E+01
 6.2847505E+00  3.7840675E+01
 6.2962503E+00  3.7927975E+01
 6.3077502E+00  3.7889679E+01
 6.3192501E+00  3.7868343E+01
 6.3307505E+00  3.7859848E+01
 6.3422503E+00  3.7984928E+01
 6.3537502E+00  3.8106510E+01
 6.3652501E+00  3.8201385E+01
 6.3767505E+00  3.8338379E+01
 6.3882504E+00  3.8350376E+01
 6.3997502E+00  3.8455616E+01
 6.4112501E+00  3.8520729E+01
 6.4227505E+00  3.8625122E+01
 6.4342504E+00  3.8709511E+01
 6.4457502E+00  3.8705036E+01
 6.4572501E+00  3.8711361E+01
 6.4687505E+00  3.8668327E+01
 6.4802504E+00  3.8678066E+01
 6.4917502E+00  3.8683632E+01
 6.5032501E+00  3.8829632E+01
 6.5147505E+00  3.9014709E+01
 6.5262504E+00  3.9178329E+01
 6.5377502E+00  3.9333256E+01
 6.5492501E+00  3.9344345E+01
 6.5607505E+00  3.9462070E+01
 6.5722504E+00  3.9530865E+01
 6.5837502E+00  3.9614468E+01
 6.5952501E+00  3.9582829E+01
 6.6067505E+00  3.9630024E+01
 6.6182504E+00  3.9652039E+01
 6.6297503E+00  3.9768650E+01
 6.6412501E+00  3.9752636E+01
 6.6527505E+00  3.9776241E+01
 6.6642504E+00  3.9876183E+01
 6.6757503E+00  3.9904114E+01
 6.6872501E+00  4.0059017E+01
 6.6987505E+00  4.0092636E+01
 6.7102504E+00  4.0226479E+01
 6.7217503E+00  4.0308365E+01
 6.7332501E+00  4.0376232E+01
 6.7447505E+00  4.0487549E+01
 6.7562504E+00  4.0549900E+01
 6.7677503E+00  4.0606884E+01
 6.7792501E+00  4.0699188E+01
 6.7907505E+00  4.0771595E+01
 6.8022504E+00  4.0952629E+01
 6.8137503E+00  4.1114475E+01
 6.8252501E+00  4.1310776E+01
 6.8367505E+00  4.1472275E+01
 6.8482504E+00  4.1583675E+01
 6.8597503E+00  4.1631321E+01
 6.8712502E+00  4.1624794E+01
 6.8827505E+00  4.1625301E+01
 6.8942504E+00  4.1682583E+01
 6.9057503E+00  4.1774429E+01
 6.9172502E+00  4.1908844E+01
 6.9287505E+00  4.2080769E+01
 6.9402504E+00  4.2282978E+01
 6.9517503E+00  4.2440582E+01
 6.9632502E+00  4.2568596E+01
 6.9747505E+00  4.2723591E+01
 6.9862504E+00  4.2790989E+01
 6.9977503E+00  4.2737942E+01
 7.0092502E+00  4.2695389E+01
 7.0207505E+00  4.2658787E+01
 7.0322504E+00  4.2773083E+01
 7.0437503E+00  4.2794102E+01
 7.0552502E+00  4.2823185E+01
 7.0667505E+00  4.2777191E+01
 7.0782504E+00  4.2740715E+01
 7.0897503E+00  4.2772800E+01
 7.1012502E+00  4.2887886E+01
 7.1127505E+00  4.3069786E+01
 7.1242504E+00  4.3208931E+01
 7.1357503E+00  4.3373184E+01
 7.1472502E+00  4.3459023E+01
 7.1587505E+00  4.3474567E+01
 7.1702504E+00  4.3409527E+01
 7.1817503E+00  4.3402649E+01
 7.1932502E+00  4.3524086E+01
 7.2047505E+00  4.3606731E+01
 7.2162504E+00  4.3752197E+01
 7.2277503E+00  4.3767277E+01
 7.2392502E+00  4.3854977E+01
 7.2507505E+00  4.3934273E+01
 7.2622504E+00  4.3964928E+01
 7.2737503E+00  4.4066433E+01
 7.2852502E+00  4.3997478E+01
 7.2967505E+00  4.4074554E+01
 7.3082504E+00  4.3896587E+01
 7.3197503E+00  4.3863018E+01
 7.3312502E+00  4.3844326E+01
 7.3427505E+00  4.3975636E+01
 7.3542504E+00  4.4127415E+01
 7.3657503E+00  4.4114853E+01
 7.3772502E+00  4.4209717E+01
 7.3887506E+00  4.4194855E+01
 7.4002504E+00  4.4139164E+01
 7.4117503E+00  4.4094727E+01
 7.4232502E+00  4.4068577E+01
 7.4347506E+00  4.4127857E+01
 7.4462504E+00  4.4241821E+01
 7.4577503E+00  4.4403507E+01
 7.4692502E+00  4.4517742E+01
 7.4807506E+00  4.4622711E+01
 7.4922504E+00  4.4622589E+01
 7.5037503E+00  4.4684254E+01
 7.5152502E+00  4.4655849E+01
 7.5267506E+00  4.4656841E+01
 7.5382504E+00  4.4695568E+01
 7.5497503E+00  4.4661755E+01
 7.5612502E+00  4.4627472E+01
 7.5727506E+00  4.4629330E+01
 7.5842505E+00  4.4587593E+01
 7.5957503E+00  4.4627724E+01
 7.6072502E+00  4.4615406E+01
 7.6187506E+00  4.4653282E+01
 7.6302505E+00  4.4642361E+01
 7.6417503E+00  4.4580326E+01
 7.6532502E+00  4.4530476E+01
 7.6647506E+00  4.4469517E+01
 7.6762505E+00  4.4421524E+01
 7.6877503E+00  4.4476990E+01
 7.6992502E+00  4.4468113E+01
 7.7107506E+00  4.4494476E+01
 7.7222505E+00  4.4410091E+01
 7.7337503E+00  4.4411018E+01
 7.7452502E+00  4.4371445E+01
 7.7567506E+00  4.4322517E+01
 7.7682505E+00  4.4461723E+01
 7.7797503E+00  4.4521885E+01
 7.7912502E+00  4.4623638E+01
 7.8027506E+00  4.4652599E+01
 7.8142505E+00  4.4676197E+01
 7.8257504E+00  4.4800045E+01
 7.8372502E+00  4.4697262E+01
 7.8487506E+00  4.4537739E+01
 7.8602505E+00  4.4325886E+01
 7.8717504E+00  4.4064857E+01
 7.8832502E+00  4.4080502E+01
 7.8947506E+00  4.4135937E+01
 7.9062505E+00  4.4292774E+01
 7.9177504E+00  4.4357925E+01
 7.9292502E+00  4.4323467E+01
 7.9407506E+00  4.4302265E+01
 7.9522505E+00  4.4145317E+01
 7.9637504E+00  4.4031120E+01
 7.9752502E+00  4.3867435E+01
 7.9867506E+00  4.3863895E+01
 7.9982505E+00  4.3894665E+01
 8.0097504E+00  4.3918854E+01
 8.0212507E+00  4.3901924E+01
 8.0327501E+00  4.3895538E+01
 8.0442505E+00  4.3862885E+01
 8.0557508E+00  4.3721615E+01
 8.0672503E+00  4.3588821E+01
 8.0787506E+00  4.3411087E+01
 8.0902500E+00  4.3385742E+01
 8.1017504E+00  4.3284355E+01
 8.1132507E+00  4.3139030E+01
 8.1247501E+00  4.2890320E+01
 8.1362505E+00  4.2635738E+01
 8.1477509E+00  4.2381489E+01
 8.1592503E+00  4.2289391E+01
 8.1707506E+00  4.2167995E+01
 8.1822500E+00  4.2248253E+01
 8.1937504E+00  4.2283012E+01
 8.2052507E+00  4.2290283E+01
 8.2167501E+00  4.2135201E+01
 8.2282505E+00  4.1939789E+01
 8.2397509E+00  4.1782475E+01
 8.2512503E+00  4.1654049E+01
 8.2627506E+00  4.1554943E+01
 8.2742500E+00  4.1372623E+01
 8.2857504E+00  4.1226704E+01
 8.2972507E+00  4.1024677E+01
 8.3087502E+00  4.0882603E+01
 8.3202505E+00  4.0803745E+01
 8.3317509E+00  4.0669262E+01
 8.3432503E+00  4.0596600E+01
 8.3547506E+00  4.0459316E+01
 8.3662500E+00  4.0333321E+01
 8.3777504E+00  4.0216537E+01
 8.3892508E+00  4.0055923E+01
 8.4007502E+00  3.9904137E+01
 8.4122505E+00  3.9680763E+01
 8.4237509E+00  3.9478745E+01
 8.4352503E+00  3.9256020E+01
 8.4467506E+00  3.9101265E+01
 8.4582500E+00  3.8868233E+01
 8.4697504E+00  3.8781250E+01
 8.4812508E+00  3.8565147E+01
 8.4927502E+00  3.8418209E+01
 8.5042505E+00  3.8173092E+01
 8.5157509E+00  3.8068253E+01
 8.5272503E+00  3.7920563E+01
 8.5387506E+00  3.7847080E+01
 8.5502501E+00  3.7556957E+01
 8.5617504E+00  3.7330669E+01
 8.5732508E+00  3.7135059E+01
 8.5847502E+00  3.6972973E+01
 8.5962505E+00  3.6809528E+01
 8.6077509E+00  3.6640862E+01
 8.6192503E+00  3.6504372E+01
 8.6307507E+00  3.6386654E+01
 8.6422501E+00  3.6225483E+01
 8.6537504E+00  3.6047195E+01
 8.6652508E+00  3.5860203E+01
 8.6767502E+00  3.5665611E+01
 8.6882505E+00  3.5453342E+01
 8.6997509E+00  3.5337738E+01
 8.7112503E+00  3.5107979E+01
 8.7227507E+00  3.4895401E+01
 8.7342501E+00  3.4758835E+01
 8.7457504E+00  3.4549232E+01
 8.7572508E+00  3.4383316E+01
 8.7687502E+00  3.4149353E+01
 8.7802505E+00  3.3996552E+01
 8.7917500E+00  3.3846588E+01
 8.8032503E+00  3.3584873E+01
 8.8147507E+00  3.3403564E+01
 8.8262501E+00  3.3174149E+01
 8.8377504E+00  3.3006664E+01
 8.8492508E+00  3.2799980E+01
 8.8607502E+00  3.2737690E+01
 8.8722506E+00  3.2719101E+01
 8.8837500E+00  3.2630154E+01
 8.8952503E+00  3.2535084E+01
 8.9067507E+00  3.2444717E+01
 8.9182501E+00  3.2294064E+01
 8.9297504E+00  3.2101654E+01
 8.9412508E+00  3.1862463E+01
 8.9527502E+00  3.1710596E+01
 8.9642506E+00  3.1667231E+01
 8.9757500E+00  3.1520956E+01
 8.9872503E+00  3.1462360E+01
 8.9987507E+00  3.1286207E+01
 9.0102501E+00  3.1171762E+01
 9.0217505E+00  3.0988794E+01
 9.0332508E+00  3.0861242E+01
 9.0447502E+00  3.0751022E+01
 9.0562506E+00  3.0629702E+01
 9.0677500E+00  3.0509048E+01
 9.0792503E+00  3.0376507E+01
 9.0907507E+00  3.0257290E+01
 9.1022501E+00  3.0076864E+01
 9.1137505E+00  2.9898920E+01
 9.1252508E+00  2.9718773E+01
 9.1367502E+00  2.9531944E+01
 9.1482506E+00  2.9384544E+01
 9.1597500E+00  2.9275135E+01
 9.1712503E+00  2.9159992E+01
 9.1827507E+00  2.9160969E+01
 9.1942501E+00  2.9027792E+01
 9.2057505E+00  2.8909342E+01
 9.2172508E+00  2.8726965E+01
 9.2287502E+00  2.8566895E+01
 9.2402506E+00  2.8432770E+01
 9.2517500E+00  2.8313745E+01
 9.2632504E+00  2.8223705E+01
 9.2747507E+00  2.8096596E+01
 9.2862501E+00  2.7927414E+01
 9.2977505E+00  2.7800474E+01
 9.3092508E+00  2.7716696E+01
 9.3207502E+00  2.7638683E+01
 9.3322506E+00  2.7610699E+01
 9.3437500E+00  2.7566633E+01
 9.3552504E+00  2.7588680E+01
 9.3667507E+00  2.7540894E+01
 9.3782501E+00  2.7564445E+01
 9.3897505E+00  2.7487659E+01
 9.4012508E+00  2.7418758E+01
 9.4127502E+00  2.7302637E+01
 9.4242506E+00  2.7178877E+01
 9.4357500E+00  2.7066319E+01
 9.4472504E+00  2.6946997E+01
 9.4587507E+00  2.6914728E+01
 9.4702501E+00  2.6858553E+01
 9.4817505E+00  2.6839443E+01
 9.4932508E+00  2.6746500E+01
 9.5047503E+00  2.6680984E+01
 9.5162506E+00  2.6581465E+01
 9.5277500E+00  2.6493172E+01
 9.5392504E+00  2.6414413E+01
 9.5507507E+00  2.6397327E+01
 9.5622501E+00  2.6406349E+01
 9.5737505E+00  2.6390217E+01
 9.5852509E+00  2.6378773E+01
 9.5967503E+00  2.6372139E+01
 9.6082506E+00  2.6315601E+01
 9.6197500E+00  2.6264170E+01
 9.6312504E+00  2.6151217E+01
 9.6427507E+00  2.6039125E+01
 9.6542501E+00  2.5884512E+01
 9.6657505E+00  2.5787542E+01
 9.6772509E+00  2.5688009E+01
 9.6887503E+00  2.5662180E+01
 9.7002506E+00  2.5611595E+01
 9.7117500E+00  2.5663284E+01
 9.7232504E+00  2.5603979E+01
 9.7347507E+00  2.5587511E+01
 9.7462502E+00  2.5506836E+01
 9.7577505E+00  2.5428024E+01
 9.7692509E+00  2.5372227E+01
 9.7807503E+00  2.5326374E+01
 9.7922506E+00  2.5272932E+01
 9.8037500E+00  2.5174253E+01
 9.8152504E+00  2.5073559E+01
 9.8267508E+00  2.5008507E+01
 9.8382502E+00  2.5034479E+01
 9.8497505E+00  2.5033529E+01
 9.8612509E+00  2.5046762E+01
 9.8727503E+00  2.5044504E+01
 9.8842506E+00  2.5002520E+01
 9.8957500E+00  2.5008352E+01
 9.9072504E+00  2.4956732E+01
 9.9187508E+00  2.4917868E+01
 9.9302502E+00  2.4862251E+01
 9.9417505E+00  2.4769598E+01
 9.9532509E+00  2.4639570E+01
 9.9647503E+00  2.4513395E+01
 9.9762506E+00  2.4441063E+01
 9.9877501E+00  2.4399261E+01
 9.9992504E+00  2.4387821E+01
 1.0010751E+01  2.4357018E+01
 1.0022250E+01  2.4349503E+01
 1.0033751E+01  2.4356169E+01
 1.0045251E+01  2.4303059E+01
 1.0056750E+01  2.4272789E+01
 1.0068251E+01  2.4250597E+01
 1.0079750E+01  2.4244936E+01
 1.0091250E+01  2.4193932E+01
 1.0102751E+01  2.4157122E+01
 1.0114250E+01  2.4091433E+01
 1.0125751E+01  2.4093191E+01
 1.0137251E+01  2.4029915E+01
 1.0148750E+01  2.4016125E+01
 1.0160251E+01  2.4073589E+01
 1.0171750E+01  2.4025249E+01
 1.0183250E+01  2.4012152E+01
 1.0194751E+01  2.3943302E+01
 1.0206250E+01  2.3976627E+01
 1.0217751E+01  2.3946795E+01
 1.0229251E+01  2.3917725E+01
 1.0240750E+01  2.3891476E+01
 1.0252251E+01  2.3858360E+01
 1.0263750E+01  2.3821859E+01
 1.0275250E+01  2.3747599E+01
 1.0286751E+01  2.3690006E+01
 1.0298250E+01  2.3708117E+01
 1.0309751E+01  2.3668192E+01
 1.0321251E+01  2.3699699E+01
 1.0332750E+01  2.3668795E+01
 1.0344251E+01  2.3700134E+01
 1.0355750E+01  2.3693087E+01
 1.0367250E+01  2.3608591E+01
 1.0378751E+01  2.3569799E+01
 1.0390250E+01  2.3539406E+01
 1.0401751E+01  2.3511089E+01
 1.0413251E+01  2.3505857E+01
 1.0424750E+01  2.3439342E+01
 1.0436251E+01  2.3396986E+01
 1.0447750E+01  2.3376177E+01
 1.0459250E+01  2.3366734E+01
 1.0470751E+01  2.3393993E+01
 1.0482250E+01  2.3404680E+01
 1.0493751E+01  2.3470068E+01
 1.0505251E+01  2.3476551E+01
 1.0516750E+01  2.3428286E+01
 1.0528251E+01  2.3363195E+01
 1.0539750E+01  2.3274397E+01
 1.0551250E+01  2.3284277E+01
 1.0562751E+01  2.3271597E+01
 1.0574250E+01  2.3279537E+01
 1.0585751E+01  2.3261654E+01
 1.0597251E+01  2.3272493E+01
 1.0608750E+01  2.3302616E+01
 1.0620251E+01  2.3312401E+01
 1.0631750E+01  2.3295389E+01
 1.0643250E+01  2.3287588E+01
 1.0654751E+01  2.3270823E+01
 1.0666250E+01  2.3204102E+01
 1.0677751E+01  2.3173309E+01
 1.0689251E+01  2.3075087E+01
 1.0700750E+01  2.3090811E+01
 1.0712251E+01  2.3059772E+01
 1.0723750E+01  2.3057583E+01
 1.0735250E+01  2.2972969E+01
 1.0746751E+01  2.2955919E+01
 1.0758250E+01  2.2931395E+01
 1.0769751E+01  2.2982708E+01
 1.0781251E+01  2.2991598E+01
 1.0792750E+01  2.2995766E+01
 1.0804251E+01  2.2917213E+01
 1.0815750E+01  2.2852253E+01
 1.0827250E+01  2.2831497E+01
 1.0838751E+01  2.2832443E+01
 1.0850250E+01  2.2832468E+01
 1.0861751E+01  2.2840380E+01
 1.0873251E+01  2.2842106E+01
 1.0884750E+01  2.2845118E+01
 1.0896251E+01  2.2781816E+01
 1.0907750E+01  2.2744019E+01
 1.0919250E+01  2.2639429E+01
 1.0930751E+01  2.2569496E+01
 1.0942250E+01  2.2503363E+01
 1.0953751E+01  2.2510159E+01
 1.0965251E+01  2.2529619E+01
 1.0976750E+01  2.2604698E+01
 1.0988251E+01  2.2643766E+01
 1.0999750E+01  2.2671505E+01
 1.1011250E+01  2.2660543E+01
 1.1022751E+01  2.2614609E+01
 1.1034250E+01  2.2581121E+01
 1.1045751E+01  2.2472696E+01
 1.1057251E+01  2.2469769E+01
 1.1068750E+01  2.2503263E+01
 1.1080251E+01  2.2561058E+01
 1.1091750E+01  2.2632353E+01
 1.1103251E+01  2.2680346E+01
 1.1114751E+01  2.2816011E+01
 1.1126250E+01  2.2904257E+01
 1.1137751E+01  2.2922745E+01
 1.1149251E+01  2.2914030E+01
 1.1160750E+01  2.2842955E+01
 1.1172251E+01  2.2726503E+01
 1.1183750E+01  2.2591505E+01
 1.1195251E+01  2.2460262E+01
 1.1206751E+01  2.2392216E+01
 1.1218250E+01  2.2315916E+01
 1.1229751E+01  2.2292347E+01
 1.1241251E+01  2.2309830E+01
 1.1252750E+01  2.2360352E+01
 1.1264251E+01  2.2396431E+01
 1.1275750E+01  2.2475473E+01
 1.1287251E+01  2.2462191E+01
 1.1298751E+01  2.2521006E+01
 1.1310250E+01  2.2538889E+01
 1.1321751E+01  2.2642040E+01
 1.1333251E+01  2.2665415E+01
 1.1344750E+01  2.2689644E+01
 1.1356251E+01  2.2668102E+01
 1.1367750E+01  2.2729870E+01
 1.1379251E+01  2.2827564E+01
 1.1390751E+01  2.2914663E+01
 1.1402250E+01  2.3169413E+01
 1.1413751E+01  2.3139154E+01
 1.1425251E+01  2.3120293E+01
 1.1436750E+01  2.2961275E+01
 1.1448251E+01  2.2906601E+01
 1.1459750E+01  2.2946220E+01
 1.1471251E+01  2.2824486E+01
 1.1482751E+01  2.2847900E+01
 1.1494250E+01  2.2797441E+01
 1.1505751E+01  2.2835546E+01
 1.1517251E+01  2.2883095E+01
 1.1528750E+01  2.3074633E+01
 1.1540251E+01  2.3258535E+01
 1.1551750E+01  2.3701031E+01
 1.1563251E+01  2.4006891E+01
 1.1574751E+01  2.4507021E+01
 1.1586250E+01  2.4630306E+01
 1.1597751E+01  2.4767918E+01
 1.1609251E+01  2.4401119E+01
 1.1620750E+01  2.4099895E+01
 1.1632251E+01  2.3602207E+01
 1.1643750E+01  2.3291935E+01
 1.1655251E+01  2.3018665E+01
 1.1666751E+01  2.2856365E+01
 1.1678250E+01  2.2806042E+01
 1.1689751E+01  2.2715916E+01
 1.1701251E+01  2.2660936E+01
 1.1712750E+01  2.2574526E+01
 1.1724251E+01  2.2526030E+01
 1.1735750E+01  2.2523706E+01
 1.1747251E+01  2.2520784E+01
 1.1758751E+01  2.2498358E+01
 1.1770250E+01  2.2448608E+01
 1.1781751E+01  2.2473310E+01
 1.1793251E+01  2.2509157E+01
 1.1804750E+01  2.2606699E+01
 1.1816251E+01  2.2624670E+01
 1.1827750E+01  2.2628170E+01
 1.1839251E+01  2.2585489E+01
 1.1850751E+01  2.2508327E+01
 1.1862250E+01  2.2474005E+01
 1.1873751E+01  2.2407042E+01
 1.1885251E+01  2.2363007E+01
 1.1896750E+01  2.2367821E+01
 1.1908251E+01  2.2385164E+01
 1.1919750E+01  2.2492683E+01
 1.1931251E+01  2.2561413E+01
 1.1942751E+01  2.2656319E+01
 1.1954250E+01  2.2738930E+01
 1.1965751E+01  2.2768051E+01
 1.1977251E+01  2.2829294E+01
 1.1988750E+01  2.2886591E+01
 1.2000251E+01  2.2916100E+01
 1.2011750E+01  2.2954519E+01
 1.2023251E+01  2.3006790E+01
 1.2034751E+01  2.3160175E+01
 1.2046250E+01  2.3313114E+01
 1.2057751E+01  2.3523790E+01
 1.2069251E+01  2.4001331E+01
 1.2080750E+01  2.4466387E+01
 1.2092251E+01  2.5165817E+01
 1.2103750E+01  2.5335070E+01
 1.2115251E+01  2.5067633E+01
 1.2126751E+01  2.4489950E+01
 1.2138250E+01  2.3930742E+01
 1.2149751E+01  2.3549780E+01
 1.2161251E+01  2.3174673E+01
 1.2172750E+01  2.3003975E+01
 1.2184251E+01  2.2988548E+01
 1.2195750E+01  2.2939299E+01
 1.2207251E+01  2.2851929E+01
 1.2218751E+01  2.2781445E+01
 1.2230250E+01  2.2662153E+01
 1.2241751E+01  2.2622797E+01
 1.2253251E+01  2.2575306E+01
 1.2264750E+01  2.2589911E+01
 1.2276251E+01  2.2561861E+01
 1.2287750E+01  2.2580677E+01
 1.2299251E+01  2.2580061E+01
 1.2310751E+01  2.2638678E+01
 1.2322250E+01  2.2631689E+01
 1.2333751E+01  2.2668262E+01
 1.2345250E+01  2.2666918E+01
 1.2356750E+01  2.2705536E+01
 1.2368251E+01  2.2721424E+01
 1.2379750E+01  2.2750086E+01
 1.2391251E+01  2.2743929E+01
 1.2402751E+01  2.2758020E+01
 1.2414250E+01  2.2719612E+01
 1.2425751E+01  2.2684595E+01
 1.2437250E+01  2.2672890E+01
 1.2448750E+01  2.2719797E+01
 1.2460251E+01  2.2770868E+01
 1.2471750E+01  2.2793077E+01
 1.2483251E+01  2.2817873E+01
 1.2494751E+01  2.2817245E+01
 1.2506250E+01  2.2765400E+01
 1.2517751E+01  2.2732954E+01
 1.2529250E+01  2.2784805E+01
 1.2540751E+01  2.2796980E+01
 1.2552251E+01  2.2769457E+01
 1.2563750E+01  2.2767912E+01
 1.2575251E+01  2.2802216E+01
 1.2586751E+01  2.2847378E+01
 1.2598250E+01  2.2885944E+01
 1.2609751E+01  2.2923422E+01
 1.2621250E+01  2.2946468E+01
 1.2632751E+01  2.2944715E+01
 1.2644251E+01  2.2912706E+01
 1.2655750E+01  2.2900045E+01
 1.2667251E+01  2.2871906E+01
 1.2678751E+01  2.2922554E+01
 1.2690250E+01  2.2965498E+01
 1.2701751E+01  2.3013882E+01
 1.2713250E+01  2.3080574E+01
 1.2724751E+01  2.3108505E+01
 1.2736251E+01  2.3108795E+01
 1.2747750E+01  2.3086136E+01
 1.2759251E+01  2.3053064E+01
 1.2770751E+01  2.3089975E+01
 1.2782250E+01  2.3126074E+01
 1.2793751E+01  2.3174608E+01
 1.2805250E+01  2.3192497E+01
 1.2816751E+01  2.3257042E+01
 1.2828251E+01  2.3320944E+01
 1.2839750E+01  2.3382307E+01
 1.2851251E+01  2.3410467E+01
 1.2862751E+01  2.3427237E+01
 1.2874250E+01  2.3542843E+01
 1.2885751E+01  2.3610451E+01
 1.2897250E+01  2.3655313E+01
 1.2908751E+01  2.3669350E+01
 1.2920251E+01  2.3721361E+01
 1.2931750E+01  2.3792744E+01
 1.2943251E+01  2.3805294E+01
 1.2954751E+01  2.3802746E+01
 1.2966250E+01  2.3841938E+01
 1.2977751E+01  2.3902855E+01
 1.2989250E+01  2.3940382E+01
 1.3000751E+01  2.3975584E+01
 1.3012251E+01  2.4067493E+01
 1.3023750E+01  2.4154057E+01
 1.3035251E+01  2.4282795E+01
 1.3046751E+01  2.4351305E+01
 1.3058250E+01  2.4477295E+01
 1.3069751E+01  2.4557741E+01
 1.3081250E+01  2.4636812E+01
 1.3092751E+01  2.4694181E+01
 1.3104251E+01  2.4820555E+01
 1.3115750E+01  2.4948275E+01
 1.3127251E+01  2.5098347E+01
 1.3138751E+01  2.5190256E+01
 1.3150250E+01  2.5316189E+01
 1.3161751E+01  2.5397516E+01
 1.3173250E+01  2.5508654E+01
 1.3184751E+01  2.5626028E+01
 1.3196251E+01  2.5731657E+01
 1.3207750E+01  2.5867775E+01
 1.3219251E+01  2.5984217E+01
 1.3230751E+01  2.6164356E+01
 1.3242250E+01  2.6281136E+01
 1.3253751E+01  2.6364851E+01
 1.3265250E+01  2.6507246E+01
 1.3276751E+01  2.6587442E+01
 1.3288251E+01  2.6751013E+01
 1.3299750E+01  2.6899576E+01
 1.3311251E+01  2.7045748E+01
 1.3322751E+01  2.7181620E+01
 1.3334250E+01  2.7281628E+01
 1.3345751E+01  2.7441936E+01
 1.3357250E+01  2.7624537E+01
 1.3368751E+01  2.7766771E+01
 1.3380251E+01  2.7994926E+01
 1.3391750E+01  2.8136658E+01
 1.3403251E+01  2.8371223E+01
 1.3414751E+01  2.8450871E+01
 1.3426250E+01  2.8544741E+01
 1.3437751E+01  2.8618692E+01
 1.3449250E+01  2.8714432E+01
 1.3460751E+01  2.8810261E+01
 1.3472251E+01  2.8887905E+01
 1.3483750E+01  2.9082491E+01
 1.3495251E+01  2.9207678E+01
 1.3506751E+01  2.9332411E+01
 1.3518250E+01  2.9429104E+01
 1.3529751E+01  2.9518358E+01
 1.3541250E+01  2.9618675E+01
 1.3552751E+01  2.9618814E+01
 1.3564251E+01  2.9655590E+01
 1.3575750E+01  2.9656916E+01
 1.3587251E+01  2.9665777E+01
 1.3598751E+01  2.9670250E+01
 1.3610250E+01  2.9600063E+01
 1.3621751E+01  2.9569733E+01
 1.3633250E+01  2.9539892E+01
 1.3644751E+01  2.9564625E+01
 1.3656251E+01  2.9640684E+01
 1.3667750E+01  2.9780094E+01
 1.3679251E+01  2.9859840E+01
 1.3690751E+01  2.9832764E+01
 1.3702250E+01  2.9795702E+01
 1.3713751E+01  2.9766560E+01
 1.3725250E+01  2.9677078E+01
 1.3736751E+01  2.9598623E+01
 1.3748251E+01  2.9508877E+01
 1.3759750E+01  2.9538357E+01
 1.3771251E+01  2.9497364E+01
 1.3782751E+01  2.9432644E+01
 1.3794250E+01  2.9315031E+01
 1.3805751E+01  2.9169464E+01
 1.3817250E+01  2.9085770E+01
 1.3828751E+01  2.9006798E+01
 1.3840251E+01  2.8931961E+01
 1.3851750E+01  2.8956297E+01
 1.3863251E+01  2.9024626E+01
 1.3874751E+01  2.9215425E+01
 1.3886250E+01  2.9523375E+01
 1.3897751E+01  2.9994844E+01
 1.3909250E+01  3.0598827E+01
 1.3920751E+01  3.1203346E+01
 1.3932251E+01  3.1699656E+01
 1.3943750E+01  3.2020111E+01
 1.3955251E+01  3.1949617E+01
 1.3966751E+01  3.1573668E+01
 1.3978251E+01  3.0939850E+01
 1.3989751E+01  3.0144829E+01
 1.4001250E+01  2.9502285E+01
 1.4012751E+01  2.8851583E+01
 1.4024251E+01  2.8486113E+01
 1.4035750E+01  2.8136604E+01
 1.4047251E+01  2.7950041E+01
 1.4058751E+01  2.7801569E+01
 1.4070251E+01  2.7685863E+01
 1.4081751E+01  2.7593971E+01
 1.4093250E+01  2.7543022E+01
 1.4104751E+01  2.7461899E+01
 1.4116251E+01  2.7363346E+01
 1.4127750E+01  2.7253365E+01
 1.4139251E+01  2.7190161E+01
 1.4150751E+01  2.7099634E+01
 1.4162251E+01  2.6970520E+01
 1.4173751E+01  2.6833975E+01
 1.4185250E+01  2.6718010E+01
 1.4196751E+01  2.6712948E+01
 1.4208251E+01  2.6643171E+01
 1.4219750E+01  2.6580303E+01
 1.4231251E+01  2.6484110E+01
 1.4242751E+01  2.6430063E+01
 1.4254251E+01  2.6419018E+01
 1.4265751E+01  2.6383545E+01
 1.4277250E+01  2.6347271E+01
 1.4288751E+01  2.6326187E+01
 1.4300251E+01  2.6329859E+01
 1.4311750E+01  2.6289322E+01
 1.4323251E+01  2.6192368E+01
 1.4334751E+01  2.6146372E+01
 1.4346251E+01  2.6166698E+01
 1.4357751E+01  2.6173698E+01
 1.4369250E+01  2.6132675E+01
 1.4380751E+01  2.6130407E+01
 1.4392251E+01  2.6077030E+01
 1.4403750E+01  2.6018629E+01
 1.4415251E+01  2.5914268E+01
 1.4426751E+01  2.5830301E+01
 1.4438251E+01  2.5783707E+01
 1.4449751E+01  2.5764193E+01
 1.4461250E+01  2.5727949E+01
 1.4472751E+01  2.5681416E+01
 1.4484251E+01  2.5674963E+01
 1.4495750E+01  2.5698605E+01
 1.4507251E+01  2.5735281E+01
 1.4518751E+01  2.5738340E+01
 1.4530251E+01  2.5704670E+01
 1.4541751E+01  2.5607954E+01
 1.4553250E+01  2.5551107E+01
 1.4564751E+01  2.5554764E+01
 1.4576251E+01  2.5541704E+01
 1.4587750E+01  2.5502939E+01
 1.4599251E+01  2.5444868E+01
 1.4610751E+01  2.5410013E+01
 1.4622251E+01  2.5393250E+01
 1.4633751E+01  2.5375965E+01
 1.4645250E+01  2.5372845E+01
 1.4656751E+01  2.5304800E+01
 1.4668251E+01  2.5233917E+01
 1.4679750E+01  2.5242191E+01
 1.4691251E+01  2.5372868E+01
 1.4702751E+01  2.5653173E+01
 1.4714251E+01  2.5804258E+01
 1.4725751E+01  2.5864265E+01
 1.4737250E+01  2.5820597E+01
 1.4748751E+01  2.5629480E+01
 1.4760251E+01  2.5426296E+01
 1.4771750E+01  2.5174435E+01
 1.4783251E+01  2.5109844E+01
 1.4794751E+01  2.5091385E+01
 1.4806251E+01  2.5107159E+01
 1.4817751E+01  2.5041927E+01
 1.4829250E+01  2.4986153E+01
 1.4840751E+01  2.4946539E+01
 1.4852251E+01  2.4945539E+01
 1.4863750E+01  2.4909111E+01
 1.4875251E+01  2.4890057E+01
 1.4886751E+01  2.4915297E+01
 1.4898251E+01  2.4977013E+01
 1.4909751E+01  2.4985281E+01
 1.4921250E+01  2.4935698E+01
 1.4932751E+01  2.4901155E+01
 1.4944251E+01  2.4782778E+01
 1.4955750E+01  2.4695532E+01
 1.4967251E+01  2.4610336E+01
 1.4978751E+01  2.4654516E+01
 1.4990251E+01  2.4693909E+01
 1.5001751E+01  2.4694786E+01
 1.5013250E+01  2.4716278E+01
 1.5024751E+01  2.4719757E+01
 1.5036251E+01  2.4781542E+01
 1.5047750E+01  2.4857960E+01
 1.5059251E+01  2.4915636E+01
 1.5070751E+01  2.4910881E+01
 1.5082251E+01  2.4849827E+01
 1.5093751E+01  2.4872833E+01
 1.5105250E+01  2.4920206E+01
 1.5116751E+01  2.4980644E+01
 1.5128251E+01  2.4949144E+01
 1.5139750E+01  2.4945019E+01
 1.5151251E+01  2.4949446E+01
 1.5162751E+01  2.5035152E+01
 1.5174251E+01  2.5143637E+01
 1.5185751E+01  2.5251245E+01
 1.5197250E+01  2.5288416E+01
 1.5208751E+01  2.5321127E+01
 1.5220251E+01  2.5236628E+01
 1.5231750E+01  2.5128195E+01
 1.5243251E+01  2.4944885E+01
 1.5254751E+01  2.4887331E+01
 1.5266251E+01  2.4782066E+01
 1.5277751E+01  2.4733776E+01
 1.5289250E+01  2.4651917E+01
 1.5300751E+01  2.4564947E+01
 1.5312251E+01  2.4547733E+01
 1.5323750E+01  2.4528770E+01
 1.5335251E+01  2.4588846E+01
 1.5346751E+01  2.4558460E+01
 1.5358251E+01  2.4566179E+01
 1.5369751E+01  2.4540014E+01
 1.5381250E+01  2.4562386E+01
 1.5392751E+01  2.4568687E+01
 1.5404251E+01  2.4592728E+01
 1.5415751E+01  2.4541571E+01
 1.5427251E+01  2.4478752E+01
 1.5438751E+01  2.4426739E+01
 1.5450251E+01  2.4426586E+01
 1.5461751E+01  2.4470793E+01
 1.5473250E+01  2.4465710E+01
 1.5484751E+01  2.4485481E+01
 1.5496251E+01  2.4482157E+01
 1.5507751E+01  2.4541874E+01
 1.5519251E+01  2.4573057E+01
 1.5530751E+01  2.4638300E+01
 1.5542251E+01  2.4633127E+01
 1.5553751E+01  2.4633228E+01
 1.5565250E+01  2.4619278E+01
 1.5576751E+01  2.4592451E+01
 1.5588251E+01  2.4563292E+01
 1.5599751E+01  2.4514469E+01
 1.5611251E+01  2.4516010E+01
 1.5622751E+01  2.4495619E+01
 1.5634251E+01  2.4513926E+01
 1.5645751E+01  2.4548744E+01
 1.5657250E+01  2.4616442E+01
 1.5668751E+01  2.4622349E+01
 1.5680251E+01  2.4552151E+01
 1.5691751E+01  2.4515829E+01
 1.5703251E+01  2.4482008E+01
 1.5714751E+01  2.4503710E+01
 1.5726251E+01  2.4546139E+01
 1.5737751E+01  2.4548813E+01
 1.5749250E+01  2.4562098E+01
 1.5760751E+01  2.4578867E+01
 1.5772251E+01  2.4638832E+01
 1.5783751E+01  2.4676245E+01
 1.5795251E+01  2.4687979E+01
 1.5806751E+01  2.4686453E+01
 1.5818251E+01  2.4653515E+01
 1.5829751E+01  2.4612459E+01
 1.5841250E+01  2.4592663E+01
 1.5852751E+01  2.4581276E+01
 1.5864251E+01  2.4526939E+01
 1.5875751E+01  2.4579258E+01
 1.5887251E+01  2.4629864E+01
 1.5898750E+01  2.4663435E+01
 1.5910251E+01  2.4670963E+01
 1.5921751E+01  2.4607756E+01
 1.5933250E+01  2.4591782E+01
 1.5944751E+01  2.4517248E+01
 1.5956251E+01  2.4550304E+01
 1.5967751E+01  2.4576241E+01
 1.5979251E+01  2.4623917E+01
 1.5990750E+01  2.4696098E+01
 1.6002251E+01  2.4708712E+01
 1.6013750E+01  2.4713552E+01
 1.6025251E+01  2.4720572E+01
 1.6036751E+01  2.4787819E+01
 1.6048250E+01  2.4797163E+01
 1.6059752E+01  2.4850752E+01
 1.6071251E+01  2.4838366E+01
 1.6082750E+01  2.4870176E+01
 1.6094252E+01  2.4756296E+01
 1.6105751E+01  2.4722326E+01
 1.6117250E+01  2.4691170E+01
 1.6128750E+01  2.4696249E+01
 1.6140251E+01  2.4768085E+01
 1.6151751E+01  2.4779127E+01
 1.6163250E+01  2.4865656E+01
 1.6174751E+01  2.4829395E+01
 1.6186251E+01  2.4949705E+01
 1.6197750E+01  2.4938992E+01
 1.6209251E+01  2.5191437E+01
 1.6220751E+01  2.5169752E+01
 1.6232250E+01  2.5343975E+01
 1.6243752E+01  2.5353111E+01
 1.6255251E+01  2.5503197E+01
 1.6266750E+01  2.5706598E+01
 1.6278252E+01  2.5576107E+01
 1.6289751E+01  2.5692493E+01
 1.6301250E+01  2.5230598E+01
 1.6312750E+01  2.5341484E+01
 1.6324251E+01  2.4998716E+01
 1.6335751E+01  2.5047667E+01
 1.6347250E+01  2.4820356E+01
 1.6358751E+01  2.4725101E+01
 1.6370251E+01  2.4630934E+01
 1.6381750E+01  2.4576015E+01
 1.6393251E+01  2.4632111E+01
 1.6404751E+01  2.4644215E+01
 1.6416250E+01  2.4714752E+01
 1.6427752E+01  2.4706343E+01
 1.6439251E+01  2.4706165E+01
 1.6450750E+01  2.4702805E+01
 1.6462252E+01  2.4724497E+01
 1.6473751E+01  2.4742723E+01
 1.6485250E+01  2.4745419E+01
 1.6496750E+01  2.4740208E+01
 1.6508251E+01  2.4710997E+01
 1.6519751E+01  2.4708363E+01
 1.6531250E+01  2.4666754E+01
 1.6542751E+01  2.4682178E+01
 1.6554251E+01  2.4681164E+01
 1.6565750E+01  2.4680187E+01
 1.6577251E+01  2.4658453E+01
 1.6588751E+01  2.4642801E+01
 1.6600250E+01  2.4664457E+01
 1.6611752E+01  2.4673504E+01
 1.6623251E+01  2.4646296E+01
 1.6634750E+01  2.4649197E+01
 1.6646252E+01  2.4624556E+01
 1.6657751E+01  2.4629915E+01
 1.6669250E+01  2.4602678E+01
 1.6680750E+01  2.4598095E+01
 1.6692251E+01  2.4598221E+01
 1.6703751E+01  2.4585697E+01
 1.6715250E+01  2.4630726E+01
 1.6726751E+01  2.4629076E+01
 1.6738251E+01  2.4659754E+01
 1.6749750E+01  2.4630518E+01
 1.6761251E+01  2.4615927E+01
 1.6772751E+01  2.4609629E+01
 1.6784250E+01  2.4575840E+01
 1.6795752E+01  2.4592722E+01
 1.6807251E+01  2.4559349E+01
 1.6818750E+01  2.4575060E+01
 1.6830252E+01  2.4481779E+01
 1.6841751E+01  2.4443298E+01
 1.6853251E+01  2.4376444E+01
 1.6864750E+01  2.4403246E+01
 1.6876251E+01  2.4377424E+01
 1.6887751E+01  2.4378429E+01
 1.6899250E+01  2.4370562E+01
 1.6910751E+01  2.4393486E+01
 1.6922251E+01  2.4419573E+01
 1.6933750E+01  2.4349648E+01
 1.6945251E+01  2.4309238E+01
 1.6956751E+01  2.4283819E+01
 1.6968250E+01  2.4313894E+01
 1.6979752E+01  2.4337072E+01
 1.6991251E+01  2.4371563E+01
 1.7002750E+01  2.4403667E+01
 1.7014252E+01  2.4476971E+01
 1.7025751E+01  2.4423639E+01
 1.7037251E+01  2.4383181E+01
 1.7048750E+01  2.4227001E+01
 1.7060251E+01  2.4181389E+01
 1.7071751E+01  2.4143421E+01
 1.7083250E+01  2.4137159E+01
 1.7094751E+01  2.4125519E+01
 1.7106251E+01  2.4112696E+01
 1.7117750E+01  2.4123533E+01
 1.7129251E+01  2.4164801E+01
 1.7140751E+01  2.4220873E+01
 1.7152250E+01  2.4237843E+01
 1.7163752E+01  2.4277843E+01
 1.7175251E+01  2.4341192E+01
 1.7186750E+01  2.4401436E+01
 1.7198252E+01  2.4410955E+01
 1.7209751E+01  2.4394653E+01
 1.7221251E+01  2.4314487E+01
 1.7232750E+01  2.4271736E+01
 1.7244251E+01  2.4211292E+01
 1.7255751E+01  2.4171730E+01
 1.7267250E+01  2.4129105E+01
 1.7278751E+01  2.4148239E+01
 1.7290251E+01  2.4167908E+01
 1.7301750E+01  2.4167053E+01
 1.7313251E+01  2.4115780E+01
 1.7324751E+01  2.4121998E+01
 1.7336250E+01  2.4078888E+01
 1.7347752E+01  2.4040136E+01
 1.7359251E+01  2.3981617E+01
 1.7370750E+01  2.4001337E+01
 1.7382252E+01  2.3967604E+01
 1.7393751E+01  2.3972864E+01
 1.7405251E+01  2.3918989E+01
 1.7416750E+01  2.3915375E+01
 1.7428251E+01  2.3898558E+01
 1.7439751E+01  2.3871593E+01
 1.7451250E+01  2.3883614E+01
 1.7462751E+01  2.3915268E+01
 1.7474251E+01  2.3973957E+01
 1.7485750E+01  2.3995419E+01
 1.7497252E+01  2.3954716E+01
 1.7508751E+01  2.3895958E+01
 1.7520250E+01  2.3827925E+01
 1.7531752E+01  2.3807812E+01
 1.7543251E+01  2.3824102E+01
 1.7554750E+01  2.3848009E+01
 1.7566252E+01  2.3866966E+01
 1.7577751E+01  2.3851709E+01
 1.7589251E+01  2.3829948E+01
 1.7600750E+01  2.3804157E+01
 1.7612251E+01  2.3832973E+01
 1.7623751E+01  2.3858198E+01
 1.7635250E+01  2.3819048E+01
 1.7646751E+01  2.3773357E+01
 1.7658251E+01  2.3738220E+01
 1.7669750E+01  2.3759800E+01
 1.7681252E+01  2.3776619E+01
 1.7692751E+01  2.3790468E+01
 1.7704250E+01  2.3772072E+01
 1.7715752E+01  2.3707163E+01
 1.7727251E+01  2.3674238E+01
 1.7738750E+01  2.3672222E+01
 1.7750252E+01  2.3691906E+01
 1.7761751E+01  2.3685503E+01
 1.7773251E+01  2.3696217E+01
 1.7784750E+01  2.3699776E+01
 1.7796251E+01  2.3739357E+01
 1.7807751E+01  2.3759834E+01
 1.7819250E+01  2.3767210E+01
 1.7830751E+01  2.3788847E+01
 1.7842251E+01  2.3787464E+01
 1.7853750E+01  2.3773863E+01
 1.7865252E+01  2.3706320E+01
 1.7876751E+01  2.3736162E+01
 1.7888250E+01  2.3686939E+01
 1.7899752E+01  2.3689291E+01
 1.7911251E+01  2.3652567E+01
 1.7922750E+01  2.3715822E+01
 1.7934252E+01  2.3701622E+01
 1.7945751E+01  2.3722033E+01
 1.7957251E+01  2.3696041E+01
 1.7968750E+01  2.3718969E+01
 1.7980251E+01  2.3729248E+01
 1.7991751E+01  2.3761005E+01
 1.8003250E+01  2.3797291E+01
 1.8014751E+01  2.3764242E+01
 1.8026251E+01  2.3814533E+01
 1.8037750E+01  2.3852659E+01
 1.8049252E+01  2.3950653E+01
 1.8060751E+01  2.4012041E+01
 1.8072250E+01  2.4037405E+01
 1.8083752E+01  2.4059040E+01
 1.8095251E+01  2.4081758E+01
 1.8106750E+01  2.4123329E+01
 1.8118252E+01  2.4126345E+01
 1.8129751E+01  2.4071918E+01
 1.8141251E+01  2.4005260E+01
 1.8152750E+01  2.3884247E+01
 1.8164251E+01  2.3826283E+01
 1.8175751E+01  2.3742476E+01
 1.8187250E+01  2.3652624E+01
 1.8198751E+01  2.3570303E+01
 1.8210251E+01  2.3565821E+01
 1.8221750E+01  2.3581966E+01
 1.8233252E+01  2.3571255E+01
 1.8244751E+01  2.3576361E+01
 1.8256250E+01  2.3605942E+01
 1.8267752E+01  2.3603216E+01
 1.8279251E+01  2.3607830E+01
 1.8290751E+01  2.3622187E+01
 1.8302252E+01  2.3672010E+01
 1.8313751E+01  2.3677721E+01
 1.8325251E+01  2.3654848E+01
 1.8336750E+01  2.3627344E+01
 1.8348251E+01  2.3658804E+01
 1.8359751E+01  2.3691593E+01
 1.8371250E+01  2.3674921E+01
 1.8382751E+01  2.3656305E+01
 1.8394251E+01  2.3646069E+01
 1.8405750E+01  2.3677746E+01
 1.8417252E+01  2.3683241E+01
 1.8428751E+01  2.3658920E+01
 1.8440250E+01  2.3669428E+01
 1.8451752E+01  2.3633696E+01
 1.8463251E+01  2.3668665E+01
 1.8474751E+01  2.3672226E+01
 1.8486252E+01  2.3729145E+01
 1.8497751E+01  2.3721485E+01
 1.8509251E+01  2.3682381E+01
 1.8520750E+01  2.3652193E+01
 1.8532251E+01  2.3641800E+01
 1.8543751E+01  2.3635052E+01
 1.8555250E+01  2.3623150E+01
 1.8566751E+01  2.3608166E+01
 1.8578251E+01  2.3623682E+01
 1.8589750E+01  2.3645605E+01
 1.8601252E+01  2.3636396E+01
 1.8612751E+01  2.3602518E+01
 1.8624250E+01  2.3562664E+01
 1.8635752E+01  2.3609259E+01
 1.8647251E+01  2.3600527E+01
 1.8658751E+01  2.3560753E+01
 1.8670252E+01  2.3510246E+01
 1.8681751E+01  2.3461805E+01
 1.8693251E+01  2.3464603E+01
 1.8704750E+01  2.3435419E+01
 1.8716251E+01  2.3438593E+01
 1.8727751E+01  2.3426022E+01
 1.8739250E+01  2.3451881E+01
 1.8750751E+01  2.3473072E+01
 1.8762251E+01  2.3517651E+01
 1.8773750E+01  2.3522635E+01
 1.8785252E+01  2.3513206E+01
 1.8796751E+01  2.3485018E+01
 1.8808250E+01  2.3490593E+01
 1.8819752E+01  2.3475416E+01
 1.8831251E+01  2.3460407E+01
 1.8842751E+01  2.3476334E+01
 1.8854252E+01  2.3504932E+01
 1.8865751E+01  2.3512241E+01
 1.8877251E+01  2.3474279E+01
 1.8888750E+01  2.3491602E+01
 1.8900251E+01  2.3541052E+01
 1.8911751E+01  2.3590534E+01
 1.8923250E+01  2.3591438E+01
 1.8934752E+01  2.3607027E+01
 1.8946251E+01  2.3627222E+01
 1.8957750E+01  2.3640221E+01
 1.8969252E+01  2.3652826E+01
 1.8980751E+01  2.3630344E+01
 1.8992250E+01  2.3691843E+01
 1.9003752E+01  2.3713562E+01
 1.9015251E+01  2.3817627E+01
 1.9026751E+01  2.3782564E+01
 1.9038252E+01  2.3730618E+01
 1.9049751E+01  2.3630281E+01
 1.9061251E+01  2.3609177E+01
 1.9072750E+01  2.3665825E+01
 1.9084251E+01  2.3674500E+01
 1.9095751E+01  2.3602995E+01
 1.9107250E+01  2.3517584E+01
 1.9118752E+01  2.3453838E+01
 1.9130251E+01  2.3462044E+01
 1.9141750E+01  2.3519186E+01
 1.9153252E+01  2.3610044E+01
 1.9164751E+01  2.3627748E+01
 1.9176250E+01  2.3640436E+01
 1.9187752E+01  2.3597809E+01
 1.9199251E+01  2.3569763E+01
 1.9210751E+01  2.3573421E+01
 1.9222252E+01  2.3546438E+01
 1.9233751E+01  2.3510073E+01
 1.9245251E+01  2.3479433E+01
 1.9256750E+01  2.3511883E+01
 1.9268251E+01  2.3518915E+01
 1.9279751E+01  2.3503054E+01
 1.9291250E+01  2.3537533E+01
 1.9302752E+01  2.3614309E+01
 1.9314251E+01  2.3697371E+01
 1.9325750E+01  2.3686293E+01
 1.9337252E+01  2.3653074E+01
 1.9348751E+01  2.3616827E+01
 1.9360250E+01  2.3612034E+01
 1.9371752E+01  2.3599291E+01
 1.9383251E+01  2.3598282E+01
 1.9394751E+01  2.3654285E+01
 1.9406250E+01  2.3662567E+01
 1.9417751E+01  2.3646622E+01
 1.9429251E+01  2.3627148E+01
 1.9440750E+01  2.3602575E+01
 1.9452251E+01  2.3554935E+01
 1.9463751E+01  2.3568201E+01
 1.9475250E+01  2.3571777E+01
 1.9486752E+01  2.3640497E+01
 1.9498251E+01  2.3635698E+01
 1.9509750E+01  2.3677450E+01
 1.9521252E+01  2.3680220E+01
 1.9532751E+01  2.3718628E+01
 1.9544250E+01  2.3744438E+01
 1.9555752E+01  2.3699465E+01
 1.9567251E+01  2.3649094E+01
 1.9578751E+01  2.3624554E+01
 1.9590250E+01  2.3588121E+01
 1.9601751E+01  2.3574087E+01
 1.9613251E+01  2.3545023E+01
 1.9624750E+01  2.3616344E+01
 1.9636251E+01  2.3707556E+01
 1.9647751E+01  2.3790241E+01
 1.9659250E+01  2.3907646E+01
 1.9670752E+01  2.3990856E+01
 1.9682251E+01  2.4150564E+01
 1.9693750E+01  2.4230078E+01
 1.9705252E+01  2.4398628E+01
 1.9716751E+01  2.4507433E+01
 1.9728251E+01  2.4508875E+01
 1.9739752E+01  2.4428711E+01
 1.9751251E+01  2.4334463E+01
 1.9762751E+01  2.4231096E+01
 1.9774250E+01  2.4103708E+01
 1.9785751E+01  2.4063301E+01
 1.9797251E+01  2.4045607E+01
 1.9808750E+01  2.4082037E+01
 1.9820251E+01  2.4151068E+01
 1.9831751E+01  2.4338289E+01
 1.9843250E+01  2.4423653E+01
 1.9854752E+01  2.4514410E+01
 1.9866251E+01  2.4487526E+01
 1.9877750E+01  2.4480631E+01
 1.9889252E+01  2.4412830E+01
 1.9900751E+01  2.4327324E+01
 1.9912251E+01  2.4216682E+01
 1.9923752E+01  2.4078991E+01
 1.9935251E+01  2.3937357E+01
 1.9946751E+01  2.3823555E+01
 1.9958250E+01  2.3762920E+01
 1.9969751E+01  2.3774414E+01
 1.9981251E+01  2.3760468E+01
 1.9992750E+01  2.3740904E+01
 2.0004251E+01  2.3721472E+01
 2.0015751E+01  2.3699663E+01
 2.0027250E+01  2.3674925E+01
 2.0038752E+01  2.3632545E+01
 2.0050251E+01  2.3641438E+01
 2.0061750E+01  2.3636471E+01
 2.0073252E+01  2.3673721E+01
 2.0084751E+01  2.3670225E+01
 2.0096251E+01  2.3698706E+01
 2.0107752E+01  2.3724907E+01
 2.0119251E+01  2.3831913E+01
 2.0130751E+01  2.3860249E+01
 2.0142250E+01  2.3881977E+01
 2.0153751E+01  2.3856155E+01
 2.0165251E+01  2.3842360E+01
 2.0176750E+01  2.3813713E+01
 2.0188251E+01  2.3806456E+01
 2.0199751E+01  2.3808832E+01
 2.0211250E+01  2.3820839E+01
 2.0222752E+01  2.3840359E+01
 2.0234251E+01  2.3846563E+01
 2.0245750E+01  2.3860422E+01
 2.0257252E+01  2.3885111E+01
 2.0268751E+01  2.3900587E+01
 2.0280251E+01  2.3942043E+01
 2.0291752E+01  2.3931395E+01
 2.0303251E+01  2.3839998E+01
 2.0314751E+01  2.3727596E+01
 2.0326250E+01  2.3717535E+01
 2.0337751E+01  2.3742125E+01
 2.0349251E+01  2.3733326E+01
 2.0360750E+01  2.3646576E+01
 2.0372252E+01  2.3601297E+01
 2.0383751E+01  2.3586496E+01
 2.0395250E+01  2.3637341E+01
 2.0406752E+01  2.3668617E+01
 2.0418251E+01  2.3747498E+01
 2.0429750E+01  2.3803913E+01
 2.0441252E+01  2.3810326E+01
 2.0452751E+01  2.3816824E+01
 2.0464251E+01  2.3778027E+01
 2.0475752E+01  2.3761797E+01
 2.0487251E+01  2.3701609E+01
 2.0498751E+01  2.3741095E+01
 2.0510250E+01  2.3751783E+01
 2.0521751E+01  2.3738974E+01
 2.0533251E+01  2.3691643E+01
 2.0544750E+01  2.3641104E+01
 2.0556252E+01  2.3705055E+01
 2.0567751E+01  2.3699827E+01
 2.0579250E+01  2.3743000E+01
 2.0590752E+01  2.3764189E+01
 2.0602251E+01  2.3803186E+01
 2.0613750E+01  2.3802801E+01
 2.0625252E+01  2.3777645E+01
 2.0636751E+01  2.3740915E+01
 2.0648251E+01  2.3705004E+01
 2.0659752E+01  2.3708557E+01
 2.0671251E+01  2.3776480E+01
 2.0682751E+01  2.3861681E+01
 2.0694250E+01  2.3937181E+01
 2.0705751E+01  2.4087868E+01
 2.0717251E+01  2.4212307E+01
 2.0728750E+01  2.4342657E+01
 2.0740252E+01  2.4368441E+01
 2.0751751E+01  2.4480366E+01
 2.0763250E+01  2.4485003E+01
 2.0774752E+01  2.4419498E+01
 2.0786251E+01  2.4301390E+01
 2.0797750E+01  2.4152250E+01
 2.0809252E+01  2.4033150E+01
 2.0820751E+01  2.3935678E+01
 2.0832251E+01  2.3904221E+01
 2.0843752E+01  2.3896942E+01
 2.0855251E+01  2.3886250E+01
 2.0866751E+01  2.3896158E+01
 2.0878250E+01  2.3870962E+01
 2.0889751E+01  2.3887699E+01
 2.0901251E+01  2.3896532E+01
 2.0912750E+01  2.3908915E+01
 2.0924252E+01  2.3947645E+01
 2.0935751E+01  2.3984566E+01
 2.0947250E+01  2.4104315E+01
 2.0958752E+01  2.4125275E+01
 2.0970251E+01  2.4200521E+01
 2.0981750E+01  2.4107368E+01
 2.0993252E+01  2.4152822E+01
 2.1004751E+01  2.3975782E+01
 2.1016251E+01  2.3879505E+01
 2.1027752E+01  2.3794895E+01
 2.1039251E+01  2.3777462E+01
 2.1050751E+01  2.3749323E+01
 2.1062250E+01  2.3770245E+01
 2.1073751E+01  2.3832224E+01
 2.1085251E+01  2.3884157E+01
 2.1096750E+01  2.3861416E+01
 2.1108252E+01  2.3829050E+01
 2.1119751E+01  2.3827383E+01
 2.1131250E+01  2.3857830E+01
 2.1142752E+01  2.3830839E+01
 2.1154251E+01  2.3803959E+01
 2.1165751E+01  2.3833952E+01
 2.1177252E+01  2.3935556E+01
 2.1188751E+01  2.3976658E+01
 2.1200251E+01  2.3980537E+01
 2.1211752E+01  2.3981117E+01
 2.1223251E+01  2.3947182E+01
 2.1234751E+01  2.3928724E+01
 2.1246250E+01  2.3902435E+01
 2.1257751E+01  2.3909845E+01
 2.1269251E+01  2.3906443E+01
 2.1280750E+01  2.3940834E+01
 2.1292252E+01  2.3953764E+01
 2.1303751E+01  2.3998770E+01
 2.1315250E+01  2.3976679E+01
 2.1326752E+01  2.4022343E+01
 2.1338251E+01  2.4054119E+01
 2.1349751E+01  2.4101404E+01
 2.1361252E+01  2.4049009E+01
 2.1372751E+01  2.4068100E+01
 2.1384251E+01  2.4018101E+01
 2.1395752E+01  2.3978966E+01
 2.1407251E+01  2.3932905E+01
 2.1418751E+01  2.3939053E+01
 2.1430250E+01  2.3910374E+01
 2.1441751E+01  2.3914454E+01
 2.1453251E+01  2.3960196E+01
 2.1464750E+01  2.3991394E+01
 2.1476252E+01  2.3990950E+01
 2.1487751E+01  2.4007799E+01
 2.1499250E+01  2.4005634E+01
 2.1510752E+01  2.4000866E+01
 2.1522251E+01  2.3985800E+01
 2.1533751E+01  2.4000351E+01
 2.1545252E+01  2.3993298E+01
 2.1556751E+01  2.3981487E+01
 2.1568251E+01  2.4008600E+01
 2.1579752E+01  2.4084623E+01
 2.1591251E+01  2.4118164E+01
 2.1602751E+01  2.4130049E+01
 2.1614250E+01  2.4096186E+01
 2.1625751E+01  2.4082355E+01
 2.1637251E+01  2.4039190E+01
 2.1648750E+01  2.4058771E+01
 2.1660252E+01  2.4073011E+01
 2.1671751E+01  2.4116848E+01
 2.1683250E+01  2.4150738E+01
 2.1694752E+01  2.4150999E+01
 2.1706251E+01  2.4133682E+01
 2.1717751E+01  2.4124605E+01
 2.1729252E+01  2.4136465E+01
 2.1740751E+01  2.4213482E+01
 2.1752251E+01  2.4230389E+01
 2.1763752E+01  2.4206663E+01
 2.1775251E+01  2.4175365E+01
 2.1786751E+01  2.4192188E+01
 2.1798250E+01  2.4205576E+01
 2.1809752E+01  2.4206209E+01
 2.1821251E+01  2.4212063E+01
 2.1832750E+01  2.4129240E+01
 2.1844252E+01  2.4088551E+01
 2.1855751E+01  2.4106756E+01
 2.1867250E+01  2.4177156E+01
 2.1878752E+01  2.4236855E+01
 2.1890251E+01  2.4227982E+01
 2.1901751E+01  2.4252665E+01
 2.1913252E+01  2.4232450E+01
 2.1924751E+01  2.4218817E+01
 2.1936251E+01  2.4159906E+01
 2.1947752E+01  2.4169085E+01
 2.1959251E+01  2.4145784E+01
 2.1970751E+01  2.4175488E+01
 2.1982250E+01  2.4174398E+01
 2.1993752E+01  2.4167294E+01
 2.2005251E+01  2.4153444E+01
 2.2016750E+01  2.4209124E+01
 2.2028252E+01  2.4288099E+01
 2.2039751E+01  2.4320881E+01
 2.2051250E+01  2.4318127E+01
 2.2062752E+01  2.4296478E+01
 2.2074251E+01  2.4278807E+01
 2.2085751E+01  2.4265841E+01
 2.2097252E+01  2.4252781E+01
 2.2108751E+01  2.4254936E+01
 2.2120251E+01  2.4321644E+01
 2.2131752E+01  2.4313807E+01
 2.2143251E+01  2.4307152E+01
 2.2154751E+01  2.4308378E+01
 2.2166250E+01  2.4324547E+01
 2.2177752E+01  2.4339725E+01
 2.2189251E+01  2.4332443E+01
 2.2200750E+01  2.4347244E+01
 2.2212252E+01  2.4321650E+01
 2.2223751E+01  2.4382486E+01
 2.2235250E+01  2.4403431E+01
 2.2246752E+01  2.4444344E+01
 2.2258251E+01  2.4439428E+01
 2.2269751E+01  2.4465336E+01
 2.2281252E+01  2.4445866E+01
 2.2292751E+01  2.4435146E+01
 2.2304251E+01  2.4465628E+01
 2.2315752E+01  2.4462742E+01
 2.2327251E+01  2.4454172E+01
 2.2338751E+01  2.4449743E+01
 2.2350250E+01  2.4470610E+01
 2.2361752E+01  2.4465027E+01
 2.2373251E+01  2.4509197E+01
 2.2384750E+01  2.4491417E+01
 2.2396252E+01  2.4498922E+01
 2.2407751E+01  2.4497807E+01
 2.2419250E+01  2.4557571E+01
 2.2430752E+01  2.4636095E+01
 2.2442251E+01  2.4709146E+01
 2.2453751E+01  2.4720554E+01
 2.2465252E+01  2.4686794E+01
 2.2476751E+01  2.4631731E+01
 2.2488251E+01  2.4655432E+01
 2.2499752E+01  2.4688221E+01
 2.2511251E+01  2.4760656E+01
 2.2522751E+01  2.4819487E+01
 2.2534250E+01  2.4800522E+01
 2.2545752E+01  2.4831690E+01
 2.2557251E+01  2.4828846E+01
 2.2568750E+01  2.4846659E+01
 2.2580252E+01  2.4822161E+01
 2.2591751E+01  2.4829020E+01
 2.2603251E+01  2.4826828E+01
 2.2614752E+01  2.4899862E+01
 2.2626251E+01  2.4955706E+01
 2.2637751E+01  2.4992958E+01
 2.2649252E+01  2.4997704E+01
 2.2660751E+01  2.5023598E+01
 2.2672251E+01  2.5031691E+01
 2.2683752E+01  2.5077539E+01
 2.2695251E+01  2.5115065E+01
 2.2706751E+01  2.5114969E+01
 2.2718250E+01  2.5171522E+01
 2.2729752E+01  2.5221344E+01
 2.2741251E+01  2.5313210E+01
 2.2752750E+01  2.5299812E+01
 2.2764252E+01  2.5303358E+01
 2.2775751E+01  2.5257452E+01
 2.2787251E+01  2.5212090E+01
 2.2798752E+01  2.5178949E+01
 2.2810251E+01  2.5212791E+01
 2.2821751E+01  2.5294874E+01
 2.2833252E+01  2.5400087E+01
 2.2844751E+01  2.5458715E+01
 2.2856251E+01  2.5479567E+01
 2.2867750E+01  2.5520403E+01
 2.2879251E+01  2.5561817E+01
 2.2890751E+01  2.5613472E+01
 2.2902250E+01  2.5649288E+01
 2.2913752E+01  2.5717133E+01
 2.2925251E+01  2.5786697E+01
 2.2936750E+01  2.5815998E+01
 2.2948252E+01  2.5856794E+01
 2.2959751E+01  2.5896030E+01
 2.2971251E+01  2.6063896E+01
 2.2982752E+01  2.6188148E+01
 2.2994251E+01  2.6329576E+01
