F:\20151113_APS_34IDE\\Brian\Particle1\OCV\Data_0076.tif
2-Theta Angle (Degrees)
Intensity
       2000
 5.7500005E-03  0.0000000E+00
 1.7250001E-02  0.0000000E+00
 2.8750001E-02  0.0000000E+00
 4.0250003E-02  0.0000000E+00
 5.1750004E-02  0.0000000E+00
 6.3250005E-02  0.0000000E+00
 7.4750006E-02  0.0000000E+00
 8.6250007E-02  0.0000000E+00
 9.7750008E-02  0.0000000E+00
 1.0925001E-01  0.0000000E+00
 1.2075000E-01  0.0000000E+00
 1.3225001E-01  0.0000000E+00
 1.4375001E-01  0.0000000E+00
 1.5525001E-01  0.0000000E+00
 1.6675001E-01  0.0000000E+00
 1.7825001E-01  0.0000000E+00
 1.8975002E-01  0.0000000E+00
 2.0125002E-01  0.0000000E+00
 2.1275002E-01  0.0000000E+00
 2.2425000E-01  0.0000000E+00
 2.3575000E-01  0.0000000E+00
 2.4725001E-01  0.0000000E+00
 2.5875002E-01  0.0000000E+00
 2.7025002E-01  0.0000000E+00
 2.8175002E-01  0.0000000E+00
 2.9325002E-01  0.0000000E+00
 3.0475003E-01  0.0000000E+00
 3.1625003E-01  0.0000000E+00
 3.2775003E-01  0.0000000E+00
 3.3925003E-01  0.0000000E+00
 3.5075003E-01  0.0000000E+00
 3.6225003E-01  0.0000000E+00
 3.7375003E-01  0.0000000E+00
 3.8525003E-01  0.0000000E+00
 3.9675003E-01  0.0000000E+00
 4.0825003E-01  0.0000000E+00
 4.1975003E-01  0.0000000E+00
 4.3125004E-01  0.0000000E+00
 4.4275001E-01  0.0000000E+00
 4.5425001E-01  0.0000000E+00
 4.6575001E-01  0.0000000E+00
 4.7725001E-01  0.0000000E+00
 4.8875001E-01  0.0000000E+00
 5.0025004E-01  0.0000000E+00
 5.1175004E-01  0.0000000E+00
 5.2325004E-01  0.0000000E+00
 5.3475004E-01  0.0000000E+00
 5.4625005E-01  0.0000000E+00
 5.5775005E-01  0.0000000E+00
 5.6925005E-01  0.0000000E+00
 5.8075005E-01  0.0000000E+00
 5.9225005E-01  0.0000000E+00
 6.0375005E-01  0.0000000E+00
 6.1525005E-01  0.0000000E+00
 6.2675005E-01  0.0000000E+00
 6.3825005E-01  0.0000000E+00
 6.4975005E-01  0.0000000E+00
 6.6125005E-01  0.0000000E+00
 6.7275006E-01  0.0000000E+00
 6.8425006E-01  0.0000000E+00
 6.9575006E-01  0.0000000E+00
 7.0725006E-01  0.0000000E+00
 7.1875006E-01  0.0000000E+00
 7.3025006E-01  0.0000000E+00
 7.4175006E-01  0.0000000E+00
 7.5325006E-01  0.0000000E+00
 7.6475006E-01  0.0000000E+00
 7.7625006E-01  0.0000000E+00
 7.8775007E-01  0.0000000E+00
 7.9925007E-01  0.0000000E+00
 8.1075007E-01  0.0000000E+00
 8.2225007E-01  0.0000000E+00
 8.3375007E-01  0.0000000E+00
 8.4525007E-01  0.0000000E+00
 8.5675007E-01  0.0000000E+00
 8.6825007E-01  0.0000000E+00
 8.7975001E-01  0.0000000E+00
 8.9125001E-01  0.0000000E+00
 9.0275002E-01  0.0000000E+00
 9.1425002E-01  0.0000000E+00
 9.2575002E-01  0.0000000E+00
 9.3725002E-01  0.0000000E+00
 9.4875002E-01  0.0000000E+00
 9.6025002E-01  0.0000000E+00
 9.7175002E-01  0.0000000E+00
 9.8325002E-01  0.0000000E+00
 9.9475002E-01  0.0000000E+00
 1.0062500E+00  0.0000000E+00
 1.0177500E+00  0.0000000E+00
 1.0292500E+00  0.0000000E+00
 1.0407500E+00  0.0000000E+00
 1.0522500E+00  0.0000000E+00
 1.0637500E+00  0.0000000E+00
 1.0752500E+00  0.0000000E+00
 1.0867500E+00  0.0000000E+00
 1.0982500E+00  0.0000000E+00
 1.1097500E+00  0.0000000E+00
 1.1212500E+00  0.0000000E+00
 1.1327500E+00  0.0000000E+00
 1.1442500E+00  0.0000000E+00
 1.1557500E+00  0.0000000E+00
 1.1672500E+00  0.0000000E+00
 1.1787500E+00  0.0000000E+00
 1.1902500E+00  0.0000000E+00
 1.2017500E+00  0.0000000E+00
 1.2132500E+00  0.0000000E+00
 1.2247500E+00  0.0000000E+00
 1.2362500E+00  0.0000000E+00
 1.2477500E+00  0.0000000E+00
 1.2592500E+00  0.0000000E+00
 1.2707500E+00  0.0000000E+00
 1.2822500E+00  0.0000000E+00
 1.2937500E+00  0.0000000E+00
 1.3052500E+00  0.0000000E+00
 1.3167500E+00  0.0000000E+00
 1.3282501E+00  0.0000000E+00
 1.3397501E+00  0.0000000E+00
 1.3512501E+00  0.0000000E+00
 1.3627501E+00  0.0000000E+00
 1.3742501E+00  0.0000000E+00
 1.3857501E+00  0.0000000E+00
 1.3972501E+00  0.0000000E+00
 1.4087501E+00  0.0000000E+00
 1.4202501E+00  0.0000000E+00
 1.4317501E+00  0.0000000E+00
 1.4432501E+00  0.0000000E+00
 1.4547501E+00  0.0000000E+00
 1.4662501E+00  0.0000000E+00
 1.4777501E+00  0.0000000E+00
 1.4892501E+00  0.0000000E+00
 1.5007501E+00  0.0000000E+00
 1.5122501E+00  0.0000000E+00
 1.5237501E+00  0.0000000E+00
 1.5352501E+00  0.0000000E+00
 1.5467501E+00  0.0000000E+00
 1.5582501E+00  0.0000000E+00
 1.5697501E+00  0.0000000E+00
 1.5812501E+00  0.0000000E+00
 1.5927501E+00  0.0000000E+00
 1.6042501E+00  0.0000000E+00
 1.6157501E+00  0.0000000E+00
 1.6272501E+00  0.0000000E+00
 1.6387501E+00  0.0000000E+00
 1.6502501E+00  0.0000000E+00
 1.6617501E+00  0.0000000E+00
 1.6732501E+00  0.0000000E+00
 1.6847501E+00  0.0000000E+00
 1.6962501E+00  0.0000000E+00
 1.7077501E+00  0.0000000E+00
 1.7192501E+00  0.0000000E+00
 1.7307501E+00  0.0000000E+00
 1.7422501E+00  0.0000000E+00
 1.7537501E+00  0.0000000E+00
 1.7652501E+00  0.0000000E+00
 1.7767501E+00  0.0000000E+00
 1.7882501E+00  0.0000000E+00
 1.7997501E+00  0.0000000E+00
 1.8112501E+00  0.0000000E+00
 1.8227501E+00  0.0000000E+00
 1.8342501E+00  0.0000000E+00
 1.8457501E+00  0.0000000E+00
 1.8572501E+00  0.0000000E+00
 1.8687501E+00  0.0000000E+00
 1.8802501E+00  0.0000000E+00
 1.8917501E+00  0.0000000E+00
 1.9032501E+00  0.0000000E+00
 1.9147501E+00  0.0000000E+00
 1.9262501E+00  0.0000000E+00
 1.9377501E+00  0.0000000E+00
 1.9492501E+00  0.0000000E+00
 1.9607501E+00  0.0000000E+00
 1.9722501E+00  0.0000000E+00
 1.9837501E+00  0.0000000E+00
 1.9952501E+00  0.0000000E+00
 2.0067501E+00  0.0000000E+00
 2.0182500E+00  0.0000000E+00
 2.0297501E+00  0.0000000E+00
 2.0412500E+00  0.0000000E+00
 2.0527501E+00  0.0000000E+00
 2.0642500E+00  0.0000000E+00
 2.0757501E+00  0.0000000E+00
 2.0872500E+00  0.0000000E+00
 2.0987501E+00  0.0000000E+00
 2.1102500E+00  0.0000000E+00
 2.1217501E+00  0.0000000E+00
 2.1332500E+00  0.0000000E+00
 2.1447501E+00  0.0000000E+00
 2.1562500E+00  0.0000000E+00
 2.1677501E+00  0.0000000E+00
 2.1792500E+00  0.0000000E+00
 2.1907501E+00  0.0000000E+00
 2.2022500E+00  0.0000000E+00
 2.2137501E+00  0.0000000E+00
 2.2252500E+00  0.0000000E+00
 2.2367501E+00  0.0000000E+00
 2.2482500E+00  0.0000000E+00
 2.2597501E+00  0.0000000E+00
 2.2712500E+00  0.0000000E+00
 2.2827501E+00  0.0000000E+00
 2.2942500E+00  0.0000000E+00
 2.3057501E+00  0.0000000E+00
 2.3172500E+00  0.0000000E+00
 2.3287501E+00  0.0000000E+00
 2.3402500E+00  0.0000000E+00
 2.3517501E+00  0.0000000E+00
 2.3632500E+00  0.0000000E+00
 2.3747501E+00  0.0000000E+00
 2.3862500E+00  0.0000000E+00
 2.3977501E+00  0.0000000E+00
 2.4092500E+00  0.0000000E+00
 2.4207501E+00  0.0000000E+00
 2.4322500E+00  0.0000000E+00
 2.4437501E+00  0.0000000E+00
 2.4552500E+00  0.0000000E+00
 2.4667501E+00  0.0000000E+00
 2.4782500E+00  0.0000000E+00
 2.4897501E+00  0.0000000E+00
 2.5012500E+00  0.0000000E+00
 2.5127501E+00  0.0000000E+00
 2.5242500E+00  0.0000000E+00
 2.5357502E+00  0.0000000E+00
 2.5472500E+00  0.0000000E+00
 2.5587502E+00  0.0000000E+00
 2.5702500E+00  0.0000000E+00
 2.5817502E+00  0.0000000E+00
 2.5932500E+00  0.0000000E+00
 2.6047502E+00  0.0000000E+00
 2.6162500E+00  0.0000000E+00
 2.6277502E+00  0.0000000E+00
 2.6392500E+00  0.0000000E+00
 2.6507502E+00  0.0000000E+00
 2.6622500E+00  0.0000000E+00
 2.6737502E+00  0.0000000E+00
 2.6852500E+00  0.0000000E+00
 2.6967502E+00  0.0000000E+00
 2.7082500E+00  0.0000000E+00
 2.7197502E+00  0.0000000E+00
 2.7312500E+00  0.0000000E+00
 2.7427502E+00  0.0000000E+00
 2.7542500E+00  0.0000000E+00
 2.7657502E+00  0.0000000E+00
 2.7772501E+00  0.0000000E+00
 2.7887502E+00  0.0000000E+00
 2.8002501E+00  0.0000000E+00
 2.8117502E+00  0.0000000E+00
 2.8232501E+00  3.9227921E+01
 2.8347502E+00  3.5319027E+01
 2.8462501E+00  3.3850857E+01
 2.8577502E+00  3.2952900E+01
 2.8692501E+00  3.2902313E+01
 2.8807502E+00  3.3416645E+01
 2.8922501E+00  3.4203888E+01
 2.9037502E+00  3.4720856E+01
 2.9152501E+00  3.5130844E+01
 2.9267502E+00  3.5400005E+01
 2.9382501E+00  3.5620869E+01
 2.9497502E+00  3.5401138E+01
 2.9612501E+00  3.4951923E+01
 2.9727502E+00  3.4791245E+01
 2.9842501E+00  3.4665470E+01
 2.9957502E+00  3.4845299E+01
 3.0072501E+00  3.5047905E+01
 3.0187502E+00  3.5205925E+01
 3.0302501E+00  3.5259079E+01
 3.0417502E+00  3.5232632E+01
 3.0532501E+00  3.5221497E+01
 3.0647502E+00  3.5429962E+01
 3.0762501E+00  3.5267704E+01
 3.0877502E+00  3.5506378E+01
 3.0992501E+00  3.5451447E+01
 3.1107502E+00  3.5253689E+01
 3.1222501E+00  3.5103214E+01
 3.1337502E+00  3.5259773E+01
 3.1452501E+00  3.5550545E+01
 3.1567502E+00  3.5662514E+01
 3.1682501E+00  3.5797989E+01
 3.1797502E+00  3.6101326E+01
 3.1912501E+00  3.6156349E+01
 3.2027502E+00  3.6524498E+01
 3.2142501E+00  3.6595387E+01
 3.2257502E+00  3.6612041E+01
 3.2372501E+00  3.5963730E+01
 3.2487502E+00  3.5547150E+01
 3.2602501E+00  3.5243935E+01
 3.2717502E+00  3.5034439E+01
 3.2832501E+00  3.4740139E+01
 3.2947502E+00  3.4640911E+01
 3.3062501E+00  3.4899155E+01
 3.3177502E+00  3.4868237E+01
 3.3292501E+00  3.5047092E+01
 3.3407502E+00  3.4742474E+01
 3.3522501E+00  3.4863159E+01
 3.3637502E+00  3.4705231E+01
 3.3752501E+00  3.5029053E+01
 3.3867502E+00  3.4831253E+01
 3.3982501E+00  3.4755478E+01
 3.4097502E+00  3.4463066E+01
 3.4212501E+00  3.4444996E+01
 3.4327502E+00  3.4477871E+01
 3.4442501E+00  3.4659985E+01
 3.4557502E+00  3.4813599E+01
 3.4672501E+00  3.4841175E+01
 3.4787502E+00  3.4807777E+01
 3.4902501E+00  3.4593166E+01
 3.5017502E+00  3.4323212E+01
 3.5132501E+00  3.4031143E+01
 3.5247502E+00  3.3790260E+01
 3.5362501E+00  3.3938946E+01
 3.5477502E+00  3.3926891E+01
 3.5592501E+00  3.4256599E+01
 3.5707502E+00  3.4166901E+01
 3.5822501E+00  3.3981552E+01
 3.5937502E+00  3.3648216E+01
 3.6052501E+00  3.3534184E+01
 3.6167502E+00  3.3367962E+01
 3.6282501E+00  3.3322506E+01
 3.6397502E+00  3.3134377E+01
 3.6512501E+00  3.3122879E+01
 3.6627502E+00  3.3165039E+01
 3.6742501E+00  3.3113514E+01
 3.6857502E+00  3.3154667E+01
 3.6972501E+00  3.2948391E+01
 3.7087502E+00  3.2857513E+01
 3.7202501E+00  3.2824207E+01
 3.7317502E+00  3.2711430E+01
 3.7432501E+00  3.2748882E+01
 3.7547503E+00  3.2714699E+01
 3.7662501E+00  3.2800117E+01
 3.7777503E+00  3.2648857E+01
 3.7892501E+00  3.2401440E+01
 3.8007503E+00  3.2163990E+01
 3.8122501E+00  3.2046780E+01
 3.8237503E+00  3.1874228E+01
 3.8352501E+00  3.1960520E+01
 3.8467503E+00  3.2203053E+01
 3.8582501E+00  3.2544640E+01
 3.8697503E+00  3.2939266E+01
 3.8812501E+00  3.3045643E+01
 3.8927503E+00  3.3077789E+01
 3.9042501E+00  3.2994156E+01
 3.9157503E+00  3.2850155E+01
 3.9272501E+00  3.2801414E+01
 3.9387503E+00  3.2965530E+01
 3.9502501E+00  3.3083565E+01
 3.9617503E+00  3.3366711E+01
 3.9732502E+00  3.3503780E+01
 3.9847503E+00  3.3501339E+01
 3.9962502E+00  3.3461452E+01
 4.0077500E+00  3.3204231E+01
 4.0192504E+00  3.3171520E+01
 4.0307503E+00  3.3048607E+01
 4.0422502E+00  3.3161289E+01
 4.0537500E+00  3.3179871E+01
 4.0652504E+00  3.3241272E+01
 4.0767503E+00  3.3054558E+01
 4.0882502E+00  3.2886589E+01
 4.0997500E+00  3.2755516E+01
 4.1112504E+00  3.2693851E+01
 4.1227503E+00  3.2640446E+01
 4.1342502E+00  3.2654179E+01
 4.1457500E+00  3.2908073E+01
 4.1572504E+00  3.2804630E+01
 4.1687503E+00  3.2665958E+01
 4.1802502E+00  3.2330086E+01
 4.1917500E+00  3.2205997E+01
 4.2032504E+00  3.2176407E+01
 4.2147503E+00  3.2114204E+01
 4.2262502E+00  3.2170494E+01
 4.2377501E+00  3.2314270E+01
 4.2492504E+00  3.2319447E+01
 4.2607503E+00  3.2432495E+01
 4.2722502E+00  3.2347542E+01
 4.2837501E+00  3.2501640E+01
 4.2952504E+00  3.2573040E+01
 4.3067503E+00  3.2591000E+01
 4.3182502E+00  3.2620773E+01
 4.3297501E+00  3.2454659E+01
 4.3412504E+00  3.2502304E+01
 4.3527503E+00  3.2335361E+01
 4.3642502E+00  3.2275856E+01
 4.3757501E+00  3.2375282E+01
 4.3872504E+00  3.2270779E+01
 4.3987503E+00  3.2402187E+01
 4.4102502E+00  3.2469734E+01
 4.4217501E+00  3.2538544E+01
 4.4332504E+00  3.2703453E+01
 4.4447503E+00  3.2537209E+01
 4.4562502E+00  3.2545597E+01
 4.4677501E+00  3.2538094E+01
 4.4792504E+00  3.2567295E+01
 4.4907503E+00  3.2581551E+01
 4.5022502E+00  3.2611816E+01
 4.5137501E+00  3.2579411E+01
 4.5252504E+00  3.2662632E+01
 4.5367503E+00  3.2653137E+01
 4.5482502E+00  3.2756443E+01
 4.5597501E+00  3.2750618E+01
 4.5712504E+00  3.2901100E+01
 4.5827503E+00  3.2748810E+01
 4.5942502E+00  3.2759617E+01
 4.6057501E+00  3.2604153E+01
 4.6172504E+00  3.2650715E+01
 4.6287503E+00  3.2614212E+01
 4.6402502E+00  3.2608402E+01
 4.6517501E+00  3.2747478E+01
 4.6632504E+00  3.2789265E+01
 4.6747503E+00  3.3006023E+01
 4.6862502E+00  3.3145420E+01
 4.6977501E+00  3.3258911E+01
 4.7092505E+00  3.3205780E+01
 4.7207503E+00  3.2934818E+01
 4.7322502E+00  3.2791878E+01
 4.7437501E+00  3.2620331E+01
 4.7552505E+00  3.2638023E+01
 4.7667503E+00  3.2676857E+01
 4.7782502E+00  3.2724640E+01
 4.7897501E+00  3.2812550E+01
 4.8012505E+00  3.2787308E+01
 4.8127503E+00  3.2833366E+01
 4.8242502E+00  3.2667557E+01
 4.8357501E+00  3.2751785E+01
 4.8472505E+00  3.2611378E+01
 4.8587503E+00  3.2737869E+01
 4.8702502E+00  3.2741344E+01
 4.8817501E+00  3.2841011E+01
 4.8932505E+00  3.2911446E+01
 4.9047503E+00  3.2964062E+01
 4.9162502E+00  3.3086723E+01
 4.9277501E+00  3.3125713E+01
 4.9392505E+00  3.3188740E+01
 4.9507504E+00  3.3225075E+01
 4.9622502E+00  3.3279518E+01
 4.9737501E+00  3.3346287E+01
 4.9852505E+00  3.3450539E+01
 4.9967504E+00  3.3454155E+01
 5.0082502E+00  3.3475826E+01
 5.0197501E+00  3.3472950E+01
 5.0312505E+00  3.3609329E+01
 5.0427504E+00  3.3593307E+01
 5.0542502E+00  3.3481438E+01
 5.0657501E+00  3.3423527E+01
 5.0772505E+00  3.3275425E+01
 5.0887504E+00  3.3248718E+01
 5.1002502E+00  3.3268726E+01
 5.1117501E+00  3.3480946E+01
 5.1232505E+00  3.3662117E+01
 5.1347504E+00  3.3698338E+01
 5.1462502E+00  3.3707039E+01
 5.1577501E+00  3.3698109E+01
 5.1692505E+00  3.3820274E+01
 5.1807504E+00  3.3898617E+01
 5.1922503E+00  3.3953075E+01
 5.2037501E+00  3.3894051E+01
 5.2152505E+00  3.3925621E+01
 5.2267504E+00  3.3903500E+01
 5.2382503E+00  3.4155113E+01
 5.2497501E+00  3.4224857E+01
 5.2612505E+00  3.4411110E+01
 5.2727504E+00  3.4437092E+01
 5.2842503E+00  3.4422203E+01
 5.2957501E+00  3.4406212E+01
 5.3072500E+00  3.4223846E+01
 5.3187504E+00  3.4285934E+01
 5.3302503E+00  3.4287476E+01
 5.3417501E+00  3.4408043E+01
 5.3532500E+00  3.4419716E+01
 5.3647504E+00  3.4439022E+01
 5.3762503E+00  3.4510132E+01
 5.3877501E+00  3.4556358E+01
 5.3992500E+00  3.4662605E+01
 5.4107504E+00  3.4565357E+01
 5.4222503E+00  3.4560295E+01
 5.4337502E+00  3.4491425E+01
 5.4452500E+00  3.4645573E+01
 5.4567504E+00  3.4605820E+01
 5.4682503E+00  3.4664673E+01
 5.4797502E+00  3.4684376E+01
 5.4912500E+00  3.4684490E+01
 5.5027504E+00  3.4812904E+01
 5.5142503E+00  3.4876228E+01
 5.5257502E+00  3.4982590E+01
 5.5372500E+00  3.4816025E+01
 5.5487504E+00  3.4821163E+01
 5.5602503E+00  3.4787197E+01
 5.5717502E+00  3.4846058E+01
 5.5832500E+00  3.4788979E+01
 5.5947504E+00  3.4898483E+01
 5.6062503E+00  3.5084789E+01
 5.6177502E+00  3.5217648E+01
 5.6292500E+00  3.5361031E+01
 5.6407504E+00  3.5413620E+01
 5.6522503E+00  3.5599922E+01
 5.6637502E+00  3.5739925E+01
 5.6752501E+00  3.5762291E+01
 5.6867504E+00  3.5653652E+01
 5.6982503E+00  3.5581593E+01
 5.7097502E+00  3.5598785E+01
 5.7212501E+00  3.5673698E+01
 5.7327504E+00  3.5770985E+01
 5.7442503E+00  3.5796360E+01
 5.7557502E+00  3.5821762E+01
 5.7672501E+00  3.5689713E+01
 5.7787504E+00  3.5746342E+01
 5.7902503E+00  3.5818863E+01
 5.8017502E+00  3.5886326E+01
 5.8132501E+00  3.5928780E+01
 5.8247504E+00  3.5831089E+01
 5.8362503E+00  3.5865032E+01
 5.8477502E+00  3.5893208E+01
 5.8592501E+00  3.5857155E+01
 5.8707504E+00  3.5931103E+01
 5.8822503E+00  3.6059921E+01
 5.8937502E+00  3.6250069E+01
 5.9052501E+00  3.6422657E+01
 5.9167504E+00  3.6450962E+01
 5.9282503E+00  3.6726757E+01
 5.9397502E+00  3.7099846E+01
 5.9512501E+00  3.7743607E+01
 5.9627504E+00  3.8478344E+01
 5.9742503E+00  3.9075592E+01
 5.9857502E+00  3.9526833E+01
 5.9972501E+00  3.9346718E+01
 6.0087504E+00  3.8918129E+01
 6.0202503E+00  3.8100403E+01
 6.0317502E+00  3.7501953E+01
 6.0432501E+00  3.6965504E+01
 6.0547504E+00  3.6614609E+01
 6.0662503E+00  3.6500763E+01
 6.0777502E+00  3.6446915E+01
 6.0892501E+00  3.6637222E+01
 6.1007504E+00  3.6759895E+01
 6.1122503E+00  3.6934517E+01
 6.1237502E+00  3.6834938E+01
 6.1352501E+00  3.6850857E+01
 6.1467505E+00  3.6808819E+01
 6.1582503E+00  3.6856998E+01
 6.1697502E+00  3.6815575E+01
 6.1812501E+00  3.6905621E+01
 6.1927505E+00  3.7012798E+01
 6.2042503E+00  3.7060593E+01
 6.2157502E+00  3.7044304E+01
 6.2272501E+00  3.7105354E+01
 6.2387505E+00  3.7076855E+01
 6.2502503E+00  3.7136753E+01
 6.2617502E+00  3.7161350E+01
 6.2732501E+00  3.7307037E+01
 6.2847505E+00  3.7450951E+01
 6.2962503E+00  3.7493507E+01
 6.3077502E+00  3.7637779E+01
 6.3192501E+00  3.7662571E+01
 6.3307505E+00  3.7884377E+01
 6.3422503E+00  3.7959583E+01
 6.3537502E+00  3.8056553E+01
 6.3652501E+00  3.8097580E+01
 6.3767505E+00  3.8174240E+01
 6.3882504E+00  3.8259274E+01
 6.3997502E+00  3.8266548E+01
 6.4112501E+00  3.8364834E+01
 6.4227505E+00  3.8453838E+01
 6.4342504E+00  3.8580139E+01
 6.4457502E+00  3.8573017E+01
 6.4572501E+00  3.8591038E+01
 6.4687505E+00  3.8605621E+01
 6.4802504E+00  3.8557255E+01
 6.4917502E+00  3.8668377E+01
 6.5032501E+00  3.8815556E+01
 6.5147505E+00  3.9081139E+01
 6.5262504E+00  3.9180748E+01
 6.5377502E+00  3.9298691E+01
 6.5492501E+00  3.9372833E+01
 6.5607505E+00  3.9417950E+01
 6.5722504E+00  3.9554199E+01
 6.5837502E+00  3.9591297E+01
 6.5952501E+00  3.9686695E+01
 6.6067505E+00  3.9674469E+01
 6.6182504E+00  3.9713299E+01
 6.6297503E+00  3.9765450E+01
 6.6412501E+00  3.9838631E+01
 6.6527505E+00  3.9847652E+01
 6.6642504E+00  4.0035980E+01
 6.6757503E+00  4.0083645E+01
 6.6872501E+00  4.0287621E+01
 6.6987505E+00  4.0408001E+01
 6.7102504E+00  4.0509510E+01
 6.7217503E+00  4.0587826E+01
 6.7332501E+00  4.0639576E+01
 6.7447505E+00  4.0722752E+01
 6.7562504E+00  4.0897156E+01
 6.7677503E+00  4.0984959E+01
 6.7792501E+00  4.1144573E+01
 6.7907505E+00  4.1176228E+01
 6.8022504E+00  4.1259197E+01
 6.8137503E+00  4.1269478E+01
 6.8252501E+00  4.1375816E+01
 6.8367505E+00  4.1481441E+01
 6.8482504E+00  4.1596645E+01
 6.8597503E+00  4.1683796E+01
 6.8712502E+00  4.1667572E+01
 6.8827505E+00  4.1730904E+01
 6.8942504E+00  4.1817253E+01
 6.9057503E+00  4.1996098E+01
 6.9172502E+00  4.2153591E+01
 6.9287505E+00  4.2135967E+01
 6.9402504E+00  4.2130497E+01
 6.9517503E+00  4.2093983E+01
 6.9632502E+00  4.2062687E+01
 6.9747505E+00  4.2174309E+01
 6.9862504E+00  4.2234131E+01
 6.9977503E+00  4.2312515E+01
 7.0092502E+00  4.2275730E+01
 7.0207505E+00  4.2306442E+01
 7.0322504E+00  4.2404423E+01
 7.0437503E+00  4.2557701E+01
 7.0552502E+00  4.2627666E+01
 7.0667505E+00  4.2714890E+01
 7.0782504E+00  4.2720509E+01
 7.0897503E+00  4.2790813E+01
 7.1012502E+00  4.2877033E+01
 7.1127505E+00  4.2945942E+01
 7.1242504E+00  4.2998314E+01
 7.1357503E+00  4.3020260E+01
 7.1472502E+00  4.3055260E+01
 7.1587505E+00  4.3052452E+01
 7.1702504E+00  4.3019123E+01
 7.1817503E+00  4.2990704E+01
 7.1932502E+00  4.3024677E+01
 7.2047505E+00  4.3143147E+01
 7.2162504E+00  4.3277946E+01
 7.2277503E+00  4.3465637E+01
 7.2392502E+00  4.3702282E+01
 7.2507505E+00  4.3832119E+01
 7.2622504E+00  4.3794811E+01
 7.2737503E+00  4.3750153E+01
 7.2852502E+00  4.3729977E+01
 7.2967505E+00  4.3866676E+01
 7.3082504E+00  4.3891037E+01
 7.3197503E+00  4.3970947E+01
 7.3312502E+00  4.4053314E+01
 7.3427505E+00  4.4076981E+01
 7.3542504E+00  4.4115067E+01
 7.3657503E+00  4.4062355E+01
 7.3772502E+00  4.3986298E+01
 7.3887506E+00  4.3991364E+01
 7.4002504E+00  4.4012714E+01
 7.4117503E+00  4.4093250E+01
 7.4232502E+00  4.4185177E+01
 7.4347506E+00  4.4246578E+01
 7.4462504E+00  4.4309151E+01
 7.4577503E+00  4.4413944E+01
 7.4692502E+00  4.4380905E+01
 7.4807506E+00  4.4517456E+01
 7.4922504E+00  4.4581795E+01
 7.5037503E+00  4.4656162E+01
 7.5152502E+00  4.4690506E+01
 7.5267506E+00  4.4598408E+01
 7.5382504E+00  4.4585480E+01
 7.5497503E+00  4.4520527E+01
 7.5612502E+00  4.4389618E+01
 7.5727506E+00  4.4325985E+01
 7.5842505E+00  4.4183640E+01
 7.5957503E+00  4.4193642E+01
 7.6072502E+00  4.4193577E+01
 7.6187506E+00  4.4253986E+01
 7.6302505E+00  4.4272350E+01
 7.6417503E+00  4.4377563E+01
 7.6532502E+00  4.4410576E+01
 7.6647506E+00  4.4448925E+01
 7.6762505E+00  4.4526764E+01
 7.6877503E+00  4.4587254E+01
 7.6992502E+00  4.4700798E+01
 7.7107506E+00  4.4670174E+01
 7.7222505E+00  4.4658154E+01
 7.7337503E+00  4.4590149E+01
 7.7452502E+00  4.4589195E+01
 7.7567506E+00  4.4451813E+01
 7.7682505E+00  4.4454002E+01
 7.7797503E+00  4.4306110E+01
 7.7912502E+00  4.4290577E+01
 7.8027506E+00  4.4237194E+01
 7.8142505E+00  4.4227539E+01
 7.8257504E+00  4.4190506E+01
 7.8372502E+00  4.4204750E+01
 7.8487506E+00  4.4184959E+01
 7.8602505E+00  4.4200932E+01
 7.8717504E+00  4.4088127E+01
 7.8832502E+00  4.4012703E+01
 7.8947506E+00  4.4032509E+01
 7.9062505E+00  4.3991978E+01
 7.9177504E+00  4.4090435E+01
 7.9292502E+00  4.4093639E+01
 7.9407506E+00  4.4098137E+01
 7.9522505E+00  4.3991779E+01
 7.9637504E+00  4.3837326E+01
 7.9752502E+00  4.3711773E+01
 7.9867506E+00  4.3597187E+01
 7.9982505E+00  4.3494148E+01
 8.0097504E+00  4.3506054E+01
 8.0212507E+00  4.3543198E+01
 8.0327501E+00  4.3609863E+01
 8.0442505E+00  4.3622128E+01
 8.0557508E+00  4.3488159E+01
 8.0672503E+00  4.3335861E+01
 8.0787506E+00  4.3140488E+01
 8.0902500E+00  4.3033325E+01
 8.1017504E+00  4.2919521E+01
 8.1132507E+00  4.2794937E+01
 8.1247501E+00  4.2637520E+01
 8.1362505E+00  4.2491165E+01
 8.1477509E+00  4.2326248E+01
 8.1592503E+00  4.2264072E+01
 8.1707506E+00  4.2173309E+01
 8.1822500E+00  4.2194298E+01
 8.1937504E+00  4.2081074E+01
 8.2052507E+00  4.1973793E+01
 8.2167501E+00  4.1867157E+01
 8.2282505E+00  4.1685760E+01
 8.2397509E+00  4.1607533E+01
 8.2512503E+00  4.1389694E+01
 8.2627506E+00  4.1236515E+01
 8.2742500E+00  4.1051266E+01
 8.2857504E+00  4.0986923E+01
 8.2972507E+00  4.0944511E+01
 8.3087502E+00  4.0908718E+01
 8.3202505E+00  4.0796970E+01
 8.3317509E+00  4.0727150E+01
 8.3432503E+00  4.0564789E+01
 8.3547506E+00  4.0454353E+01
 8.3662500E+00  4.0313782E+01
 8.3777504E+00  4.0229435E+01
 8.3892508E+00  4.0146851E+01
 8.4007502E+00  4.0023369E+01
 8.4122505E+00  3.9832737E+01
 8.4237509E+00  3.9648495E+01
 8.4352503E+00  3.9417694E+01
 8.4467506E+00  3.9249283E+01
 8.4582500E+00  3.9039230E+01
 8.4697504E+00  3.8893902E+01
 8.4812508E+00  3.8674953E+01
 8.4927502E+00  3.8496635E+01
 8.5042505E+00  3.8340996E+01
 8.5157509E+00  3.8191460E+01
 8.5272503E+00  3.8049633E+01
 8.5387506E+00  3.7821102E+01
 8.5502501E+00  3.7625675E+01
 8.5617504E+00  3.7370319E+01
 8.5732508E+00  3.7110252E+01
 8.5847502E+00  3.6903473E+01
 8.5962505E+00  3.6738815E+01
 8.6077509E+00  3.6578995E+01
 8.6192503E+00  3.6439777E+01
 8.6307507E+00  3.6296131E+01
 8.6422501E+00  3.6091618E+01
 8.6537504E+00  3.5813560E+01
 8.6652508E+00  3.5563492E+01
 8.6767502E+00  3.5411400E+01
 8.6882505E+00  3.5341167E+01
 8.6997509E+00  3.5212673E+01
 8.7112503E+00  3.5070190E+01
 8.7227507E+00  3.4947392E+01
 8.7342501E+00  3.4826611E+01
 8.7457504E+00  3.4667076E+01
 8.7572508E+00  3.4407692E+01
 8.7687502E+00  3.4195824E+01
 8.7802505E+00  3.3998318E+01
 8.7917500E+00  3.3849083E+01
 8.8032503E+00  3.3665081E+01
 8.8147507E+00  3.3430042E+01
 8.8262501E+00  3.3172779E+01
 8.8377504E+00  3.2964581E+01
 8.8492508E+00  3.2761768E+01
 8.8607502E+00  3.2629738E+01
 8.8722506E+00  3.2444851E+01
 8.8837500E+00  3.2350925E+01
 8.8952503E+00  3.2187351E+01
 8.9067507E+00  3.2054005E+01
 8.9182501E+00  3.1821962E+01
 8.9297504E+00  3.1734953E+01
 8.9412508E+00  3.1545141E+01
 8.9527502E+00  3.1469282E+01
 8.9642506E+00  3.1281858E+01
 8.9757500E+00  3.1160063E+01
 8.9872503E+00  3.1035421E+01
 8.9987507E+00  3.0840961E+01
 9.0102501E+00  3.0694929E+01
 9.0217505E+00  3.0507975E+01
 9.0332508E+00  3.0428326E+01
 9.0447502E+00  3.0312952E+01
 9.0562506E+00  3.0227858E+01
 9.0677500E+00  3.0147327E+01
 9.0792503E+00  3.0036402E+01
 9.0907507E+00  2.9802469E+01
 9.1022501E+00  2.9594450E+01
 9.1137505E+00  2.9462267E+01
 9.1252508E+00  2.9419306E+01
 9.1367502E+00  2.9285032E+01
 9.1482506E+00  2.9170443E+01
 9.1597500E+00  2.9040306E+01
 9.1712503E+00  2.8883930E+01
 9.1827507E+00  2.8776701E+01
 9.1942501E+00  2.8660421E+01
 9.2057505E+00  2.8594456E+01
 9.2172508E+00  2.8461941E+01
 9.2287502E+00  2.8347591E+01
 9.2402506E+00  2.8250679E+01
 9.2517500E+00  2.8154982E+01
 9.2632504E+00  2.8037491E+01
 9.2747507E+00  2.7950167E+01
 9.2862501E+00  2.7788061E+01
 9.2977505E+00  2.7664528E+01
 9.3092508E+00  2.7537601E+01
 9.3207502E+00  2.7485733E+01
 9.3322506E+00  2.7537004E+01
 9.3437500E+00  2.7501986E+01
 9.3552504E+00  2.7522081E+01
 9.3667507E+00  2.7451559E+01
 9.3782501E+00  2.7430416E+01
 9.3897505E+00  2.7293806E+01
 9.4012508E+00  2.7185148E+01
 9.4127502E+00  2.7098333E+01
 9.4242506E+00  2.6993650E+01
 9.4357500E+00  2.6899923E+01
 9.4472504E+00  2.6841167E+01
 9.4587507E+00  2.6795589E+01
 9.4702501E+00  2.6766983E+01
 9.4817505E+00  2.6699484E+01
 9.4932508E+00  2.6648651E+01
 9.5047503E+00  2.6559113E+01
 9.5162506E+00  2.6463257E+01
 9.5277500E+00  2.6368887E+01
 9.5392504E+00  2.6283722E+01
 9.5507507E+00  2.6176943E+01
 9.5622501E+00  2.6151810E+01
 9.5737505E+00  2.6053165E+01
 9.5852509E+00  2.5970133E+01
 9.5967503E+00  2.5923204E+01
 9.6082506E+00  2.5876831E+01
 9.6197500E+00  2.5778923E+01
 9.6312504E+00  2.5667633E+01
 9.6427507E+00  2.5546257E+01
 9.6542501E+00  2.5483744E+01
 9.6657505E+00  2.5397285E+01
 9.6772509E+00  2.5315351E+01
 9.6887503E+00  2.5225523E+01
 9.7002506E+00  2.5154703E+01
 9.7117500E+00  2.5163740E+01
 9.7232504E+00  2.5211468E+01
 9.7347507E+00  2.5242393E+01
 9.7462502E+00  2.5235842E+01
 9.7577505E+00  2.5149055E+01
 9.7692509E+00  2.5095137E+01
 9.7807503E+00  2.5038397E+01
 9.7922506E+00  2.5058575E+01
 9.8037500E+00  2.5069969E+01
 9.8152504E+00  2.5027397E+01
 9.8267508E+00  2.4948519E+01
 9.8382502E+00  2.4844406E+01
 9.8497505E+00  2.4803099E+01
 9.8612509E+00  2.4788662E+01
 9.8727503E+00  2.4768299E+01
 9.8842506E+00  2.4728224E+01
 9.8957500E+00  2.4650648E+01
 9.9072504E+00  2.4553705E+01
 9.9187508E+00  2.4463755E+01
 9.9302502E+00  2.4451910E+01
 9.9417505E+00  2.4463020E+01
 9.9532509E+00  2.4533813E+01
 9.9647503E+00  2.4500404E+01
 9.9762506E+00  2.4447323E+01
 9.9877501E+00  2.4336554E+01
 9.9992504E+00  2.4277969E+01
 1.0010751E+01  2.4230827E+01
 1.0022250E+01  2.4168303E+01
 1.0033751E+01  2.4137262E+01
 1.0045251E+01  2.4098480E+01
 1.0056750E+01  2.4071432E+01
 1.0068251E+01  2.4038998E+01
 1.0079750E+01  2.4043596E+01
 1.0091250E+01  2.3998274E+01
 1.0102751E+01  2.3962896E+01
 1.0114250E+01  2.3947842E+01
 1.0125751E+01  2.3944275E+01
 1.0137251E+01  2.3852871E+01
 1.0148750E+01  2.3783783E+01
 1.0160251E+01  2.3754446E+01
 1.0171750E+01  2.3756359E+01
 1.0183250E+01  2.3737387E+01
 1.0194751E+01  2.3684763E+01
 1.0206250E+01  2.3733984E+01
 1.0217751E+01  2.3763006E+01
 1.0229251E+01  2.3825792E+01
 1.0240750E+01  2.3815922E+01
 1.0252251E+01  2.3770662E+01
 1.0263750E+01  2.3691582E+01
 1.0275250E+01  2.3623804E+01
 1.0286751E+01  2.3608145E+01
 1.0298250E+01  2.3622480E+01
 1.0309751E+01  2.3588131E+01
 1.0321251E+01  2.3495111E+01
 1.0332750E+01  2.3424192E+01
 1.0344251E+01  2.3357758E+01
 1.0355750E+01  2.3312401E+01
 1.0367250E+01  2.3291288E+01
 1.0378751E+01  2.3325115E+01
 1.0390250E+01  2.3380917E+01
 1.0401751E+01  2.3406340E+01
 1.0413251E+01  2.3427288E+01
 1.0424750E+01  2.3376211E+01
 1.0436251E+01  2.3345774E+01
 1.0447750E+01  2.3259657E+01
 1.0459250E+01  2.3222240E+01
 1.0470751E+01  2.3195293E+01
 1.0482250E+01  2.3214191E+01
 1.0493751E+01  2.3222261E+01
 1.0505251E+01  2.3261177E+01
 1.0516750E+01  2.3247276E+01
 1.0528251E+01  2.3250301E+01
 1.0539750E+01  2.3205244E+01
 1.0551250E+01  2.3170803E+01
 1.0562751E+01  2.3135397E+01
 1.0574250E+01  2.3059761E+01
 1.0585751E+01  2.2973602E+01
 1.0597251E+01  2.2898399E+01
 1.0608750E+01  2.2837009E+01
 1.0620251E+01  2.2840208E+01
 1.0631750E+01  2.2898680E+01
 1.0643250E+01  2.2993387E+01
 1.0654751E+01  2.3080866E+01
 1.0666250E+01  2.3097891E+01
 1.0677751E+01  2.3053900E+01
 1.0689251E+01  2.2977428E+01
 1.0700750E+01  2.2960186E+01
 1.0712251E+01  2.2941626E+01
 1.0723750E+01  2.2958485E+01
 1.0735250E+01  2.2915012E+01
 1.0746751E+01  2.2879820E+01
 1.0758250E+01  2.2834959E+01
 1.0769751E+01  2.2801514E+01
 1.0781251E+01  2.2775959E+01
 1.0792750E+01  2.2751833E+01
 1.0804251E+01  2.2694061E+01
 1.0815750E+01  2.2650732E+01
 1.0827250E+01  2.2593817E+01
 1.0838751E+01  2.2565441E+01
 1.0850250E+01  2.2572136E+01
 1.0861751E+01  2.2584257E+01
 1.0873251E+01  2.2619366E+01
 1.0884750E+01  2.2590878E+01
 1.0896251E+01  2.2612282E+01
 1.0907750E+01  2.2578751E+01
 1.0919250E+01  2.2567822E+01
 1.0930751E+01  2.2559994E+01
 1.0942250E+01  2.2572142E+01
 1.0953751E+01  2.2624920E+01
 1.0965251E+01  2.2648827E+01
 1.0976750E+01  2.2687273E+01
 1.0988251E+01  2.2644667E+01
 1.0999750E+01  2.2655411E+01
 1.1011250E+01  2.2592096E+01
 1.1022751E+01  2.2604744E+01
 1.1034250E+01  2.2572603E+01
 1.1045751E+01  2.2517607E+01
 1.1057251E+01  2.2406023E+01
 1.1068750E+01  2.2287159E+01
 1.1080251E+01  2.2259756E+01
 1.1091750E+01  2.2275175E+01
 1.1103251E+01  2.2314953E+01
 1.1114751E+01  2.2404507E+01
 1.1126250E+01  2.2493248E+01
 1.1137751E+01  2.2490944E+01
 1.1149251E+01  2.2512053E+01
 1.1160750E+01  2.2481649E+01
 1.1172251E+01  2.2502020E+01
 1.1183750E+01  2.2431189E+01
 1.1195251E+01  2.2391672E+01
 1.1206751E+01  2.2316708E+01
 1.1218250E+01  2.2288622E+01
 1.1229751E+01  2.2222530E+01
 1.1241251E+01  2.2239937E+01
 1.1252750E+01  2.2213142E+01
 1.1264251E+01  2.2255497E+01
 1.1275750E+01  2.2273411E+01
 1.1287251E+01  2.2285557E+01
 1.1298751E+01  2.2301014E+01
 1.1310250E+01  2.2284391E+01
 1.1321751E+01  2.2305971E+01
 1.1333251E+01  2.2287661E+01
 1.1344750E+01  2.2340105E+01
 1.1356251E+01  2.2392159E+01
 1.1367750E+01  2.2511398E+01
 1.1379251E+01  2.2497032E+01
 1.1390751E+01  2.2570950E+01
 1.1402250E+01  2.2660181E+01
 1.1413751E+01  2.2634426E+01
 1.1425251E+01  2.2525043E+01
 1.1436750E+01  2.2393791E+01
 1.1448251E+01  2.2429522E+01
 1.1459750E+01  2.2485352E+01
 1.1471251E+01  2.2525631E+01
 1.1482751E+01  2.2526348E+01
 1.1494250E+01  2.2548082E+01
 1.1505751E+01  2.2518587E+01
 1.1517251E+01  2.2605900E+01
 1.1528750E+01  2.2809767E+01
 1.1540251E+01  2.3098610E+01
 1.1551750E+01  2.3377687E+01
 1.1563251E+01  2.3694424E+01
 1.1574751E+01  2.3942539E+01
 1.1586250E+01  2.4245541E+01
 1.1597751E+01  2.4298708E+01
 1.1609251E+01  2.4186962E+01
 1.1620750E+01  2.3978111E+01
 1.1632251E+01  2.3665308E+01
 1.1643750E+01  2.3340296E+01
 1.1655251E+01  2.3063604E+01
 1.1666751E+01  2.2831188E+01
 1.1678250E+01  2.2700985E+01
 1.1689751E+01  2.2517374E+01
 1.1701251E+01  2.2425291E+01
 1.1712750E+01  2.2426336E+01
 1.1724251E+01  2.2383808E+01
 1.1735750E+01  2.2393335E+01
 1.1747251E+01  2.2357798E+01
 1.1758751E+01  2.2344259E+01
 1.1770250E+01  2.2332233E+01
 1.1781751E+01  2.2313370E+01
 1.1793251E+01  2.2383429E+01
 1.1804750E+01  2.2400045E+01
 1.1816251E+01  2.2458590E+01
 1.1827750E+01  2.2413919E+01
 1.1839251E+01  2.2416391E+01
 1.1850751E+01  2.2375097E+01
 1.1862250E+01  2.2385069E+01
 1.1873751E+01  2.2320646E+01
 1.1885251E+01  2.2297697E+01
 1.1896750E+01  2.2280394E+01
 1.1908251E+01  2.2290083E+01
 1.1919750E+01  2.2308775E+01
 1.1931251E+01  2.2297775E+01
 1.1942751E+01  2.2337198E+01
 1.1954250E+01  2.2354946E+01
 1.1965751E+01  2.2355633E+01
 1.1977251E+01  2.2393396E+01
 1.1988750E+01  2.2462553E+01
 1.2000251E+01  2.2535131E+01
 1.2011750E+01  2.2549772E+01
 1.2023251E+01  2.2552917E+01
 1.2034751E+01  2.2626211E+01
 1.2046250E+01  2.2657053E+01
 1.2057751E+01  2.2651592E+01
 1.2069251E+01  2.2680885E+01
 1.2080750E+01  2.2729475E+01
 1.2092251E+01  2.2857430E+01
 1.2103750E+01  2.2921793E+01
 1.2115251E+01  2.2938410E+01
 1.2126751E+01  2.2896727E+01
 1.2138250E+01  2.2815819E+01
 1.2149751E+01  2.2763899E+01
 1.2161251E+01  2.2685736E+01
 1.2172750E+01  2.2612961E+01
 1.2184251E+01  2.2589357E+01
 1.2195750E+01  2.2500212E+01
 1.2207251E+01  2.2473694E+01
 1.2218751E+01  2.2429131E+01
 1.2230250E+01  2.2438421E+01
 1.2241751E+01  2.2402678E+01
 1.2253251E+01  2.2317810E+01
 1.2264750E+01  2.2313990E+01
 1.2276251E+01  2.2259840E+01
 1.2287750E+01  2.2311127E+01
 1.2299251E+01  2.2315060E+01
 1.2310751E+01  2.2399969E+01
 1.2322250E+01  2.2397322E+01
 1.2333751E+01  2.2415491E+01
 1.2345250E+01  2.2407356E+01
 1.2356750E+01  2.2466385E+01
 1.2368251E+01  2.2463465E+01
 1.2379750E+01  2.2492048E+01
 1.2391251E+01  2.2449316E+01
 1.2402751E+01  2.2484789E+01
 1.2414250E+01  2.2488247E+01
 1.2425751E+01  2.2529501E+01
 1.2437250E+01  2.2587751E+01
 1.2448750E+01  2.2582970E+01
 1.2460251E+01  2.2536644E+01
 1.2471750E+01  2.2427326E+01
 1.2483251E+01  2.2386389E+01
 1.2494751E+01  2.2348227E+01
 1.2506250E+01  2.2304327E+01
 1.2517751E+01  2.2250612E+01
 1.2529250E+01  2.2310125E+01
 1.2540751E+01  2.2364202E+01
 1.2552251E+01  2.2465162E+01
 1.2563750E+01  2.2482939E+01
 1.2575251E+01  2.2544012E+01
 1.2586751E+01  2.2578609E+01
 1.2598250E+01  2.2664366E+01
 1.2609751E+01  2.2724611E+01
 1.2621250E+01  2.2808222E+01
 1.2632751E+01  2.2800163E+01
 1.2644251E+01  2.2810429E+01
 1.2655750E+01  2.2765226E+01
 1.2667251E+01  2.2785789E+01
 1.2678751E+01  2.2749706E+01
 1.2690250E+01  2.2770971E+01
 1.2701751E+01  2.2780920E+01
 1.2713250E+01  2.2874578E+01
 1.2724751E+01  2.2905462E+01
 1.2736251E+01  2.2914816E+01
 1.2747750E+01  2.2913376E+01
 1.2759251E+01  2.2968063E+01
 1.2770751E+01  2.3038441E+01
 1.2782250E+01  2.3077215E+01
 1.2793751E+01  2.3045748E+01
 1.2805250E+01  2.3081202E+01
 1.2816751E+01  2.3105097E+01
 1.2828251E+01  2.3242920E+01
 1.2839750E+01  2.3258766E+01
 1.2851251E+01  2.3342573E+01
 1.2862751E+01  2.3287935E+01
 1.2874250E+01  2.3335594E+01
 1.2885751E+01  2.3323231E+01
 1.2897250E+01  2.3344303E+01
 1.2908751E+01  2.3431067E+01
 1.2920251E+01  2.3485405E+01
 1.2931750E+01  2.3579657E+01
 1.2943251E+01  2.3551767E+01
 1.2954751E+01  2.3612329E+01
 1.2966250E+01  2.3678980E+01
 1.2977751E+01  2.3722239E+01
 1.2989250E+01  2.3762596E+01
 1.3000751E+01  2.3815481E+01
 1.3012251E+01  2.3897337E+01
 1.3023750E+01  2.3996834E+01
 1.3035251E+01  2.4070148E+01
 1.3046751E+01  2.4143578E+01
 1.3058250E+01  2.4211298E+01
 1.3069751E+01  2.4283869E+01
 1.3081250E+01  2.4364923E+01
 1.3092751E+01  2.4488466E+01
 1.3104251E+01  2.4676159E+01
 1.3115750E+01  2.4854937E+01
 1.3127251E+01  2.4939718E+01
 1.3138751E+01  2.5038382E+01
 1.3150250E+01  2.5139496E+01
 1.3161751E+01  2.5247562E+01
 1.3173250E+01  2.5343588E+01
 1.3184751E+01  2.5494791E+01
 1.3196251E+01  2.5593426E+01
 1.3207750E+01  2.5705122E+01
 1.3219251E+01  2.5825645E+01
 1.3230751E+01  2.6025562E+01
 1.3242250E+01  2.6212297E+01
 1.3253751E+01  2.6325447E+01
 1.3265250E+01  2.6445770E+01
 1.3276751E+01  2.6576765E+01
 1.3288251E+01  2.6768131E+01
 1.3299750E+01  2.6945280E+01
 1.3311251E+01  2.7069942E+01
 1.3322751E+01  2.7209257E+01
 1.3334250E+01  2.7389929E+01
 1.3345751E+01  2.7558344E+01
 1.3357250E+01  2.7702814E+01
 1.3368751E+01  2.7851276E+01
 1.3380251E+01  2.8026588E+01
 1.3391750E+01  2.8171103E+01
 1.3403251E+01  2.8272251E+01
 1.3414751E+01  2.8329548E+01
 1.3426250E+01  2.8384085E+01
 1.3437751E+01  2.8427881E+01
 1.3449250E+01  2.8513378E+01
 1.3460751E+01  2.8670650E+01
 1.3472251E+01  2.8779100E+01
 1.3483750E+01  2.8916883E+01
 1.3495251E+01  2.8979486E+01
 1.3506751E+01  2.9070541E+01
 1.3518250E+01  2.9181469E+01
 1.3529751E+01  2.9333858E+01
 1.3541250E+01  2.9443758E+01
 1.3552751E+01  2.9498369E+01
 1.3564251E+01  2.9539148E+01
 1.3575750E+01  2.9614183E+01
 1.3587251E+01  2.9682482E+01
 1.3598751E+01  2.9762234E+01
 1.3610250E+01  2.9787481E+01
 1.3621751E+01  2.9770473E+01
 1.3633250E+01  2.9728083E+01
 1.3644751E+01  2.9750971E+01
 1.3656251E+01  2.9717989E+01
 1.3667750E+01  2.9733177E+01
 1.3679251E+01  2.9658615E+01
 1.3690751E+01  2.9604204E+01
 1.3702250E+01  2.9486115E+01
 1.3713751E+01  2.9434259E+01
 1.3725250E+01  2.9399378E+01
 1.3736751E+01  2.9395651E+01
 1.3748251E+01  2.9380327E+01
 1.3759750E+01  2.9402557E+01
 1.3771251E+01  2.9384926E+01
 1.3782751E+01  2.9363714E+01
 1.3794250E+01  2.9255371E+01
 1.3805751E+01  2.9209320E+01
 1.3817250E+01  2.9136133E+01
 1.3828751E+01  2.9096558E+01
 1.3840251E+01  2.9032890E+01
 1.3851750E+01  2.8973024E+01
 1.3863251E+01  2.8963476E+01
 1.3874751E+01  2.9000584E+01
 1.3886250E+01  2.9113333E+01
 1.3897751E+01  2.9291603E+01
 1.3909250E+01  2.9472788E+01
 1.3920751E+01  2.9835236E+01
 1.3932251E+01  3.0144672E+01
 1.3943750E+01  3.0440241E+01
 1.3955251E+01  3.0631042E+01
 1.3966751E+01  3.0464630E+01
 1.3978251E+01  3.0156986E+01
 1.3989751E+01  2.9563974E+01
 1.4001250E+01  2.9079800E+01
 1.4012751E+01  2.8618574E+01
 1.4024251E+01  2.8220114E+01
 1.4035750E+01  2.8001038E+01
 1.4047251E+01  2.7717115E+01
 1.4058751E+01  2.7569864E+01
 1.4070251E+01  2.7464573E+01
 1.4081751E+01  2.7406883E+01
 1.4093250E+01  2.7369036E+01
 1.4104751E+01  2.7338627E+01
 1.4116251E+01  2.7246050E+01
 1.4127750E+01  2.7150728E+01
 1.4139251E+01  2.7037706E+01
 1.4150751E+01  2.6965359E+01
 1.4162251E+01  2.6913147E+01
 1.4173751E+01  2.6842163E+01
 1.4185250E+01  2.6770788E+01
 1.4196751E+01  2.6633953E+01
 1.4208251E+01  2.6525757E+01
 1.4219750E+01  2.6496758E+01
 1.4231251E+01  2.6469919E+01
 1.4242751E+01  2.6472759E+01
 1.4254251E+01  2.6511095E+01
 1.4265751E+01  2.6525640E+01
 1.4277250E+01  2.6474966E+01
 1.4288751E+01  2.6374495E+01
 1.4300251E+01  2.6259136E+01
 1.4311750E+01  2.6180723E+01
 1.4323251E+01  2.6086428E+01
 1.4334751E+01  2.6128496E+01
 1.4346251E+01  2.6111805E+01
 1.4357751E+01  2.6097723E+01
 1.4369250E+01  2.6033924E+01
 1.4380751E+01  2.5965776E+01
 1.4392251E+01  2.5943163E+01
 1.4403750E+01  2.5915527E+01
 1.4415251E+01  2.5911011E+01
 1.4426751E+01  2.5922506E+01
 1.4438251E+01  2.5908691E+01
 1.4449751E+01  2.5868929E+01
 1.4461250E+01  2.5772749E+01
 1.4472751E+01  2.5668219E+01
 1.4484251E+01  2.5576555E+01
 1.4495750E+01  2.5470808E+01
 1.4507251E+01  2.5439268E+01
 1.4518751E+01  2.5384762E+01
 1.4530251E+01  2.5347876E+01
 1.4541751E+01  2.5314913E+01
 1.4553250E+01  2.5322607E+01
 1.4564751E+01  2.5354858E+01
 1.4576251E+01  2.5382311E+01
 1.4587750E+01  2.5380625E+01
 1.4599251E+01  2.5350620E+01
 1.4610751E+01  2.5267773E+01
 1.4622251E+01  2.5170721E+01
 1.4633751E+01  2.5120264E+01
 1.4645250E+01  2.5106146E+01
 1.4656751E+01  2.5064533E+01
 1.4668251E+01  2.5039772E+01
 1.4679750E+01  2.4993473E+01
 1.4691251E+01  2.5075024E+01
 1.4702751E+01  2.5114216E+01
 1.4714251E+01  2.5099627E+01
 1.4725751E+01  2.5015707E+01
 1.4737250E+01  2.4935631E+01
 1.4748751E+01  2.4907539E+01
 1.4760251E+01  2.4888729E+01
 1.4771750E+01  2.4867289E+01
 1.4783251E+01  2.4906864E+01
 1.4794751E+01  2.4892340E+01
 1.4806251E+01  2.4909496E+01
 1.4817751E+01  2.4895649E+01
 1.4829250E+01  2.4927782E+01
 1.4840751E+01  2.4937351E+01
 1.4852251E+01  2.4953861E+01
 1.4863750E+01  2.4921738E+01
 1.4875251E+01  2.4901258E+01
 1.4886751E+01  2.4885731E+01
 1.4898251E+01  2.4921705E+01
 1.4909751E+01  2.4948284E+01
 1.4921250E+01  2.4949144E+01
 1.4932751E+01  2.4911430E+01
 1.4944251E+01  2.4863617E+01
 1.4955750E+01  2.4831593E+01
 1.4967251E+01  2.4771006E+01
 1.4978751E+01  2.4732138E+01
 1.4990251E+01  2.4666750E+01
 1.5001751E+01  2.4643290E+01
 1.5013250E+01  2.4614483E+01
 1.5024751E+01  2.4639357E+01
 1.5036251E+01  2.4565409E+01
 1.5047750E+01  2.4584841E+01
 1.5059251E+01  2.4582560E+01
 1.5070751E+01  2.4663807E+01
 1.5082251E+01  2.4627670E+01
 1.5093751E+01  2.4651739E+01
 1.5105250E+01  2.4646173E+01
 1.5116751E+01  2.4647350E+01
 1.5128251E+01  2.4642076E+01
 1.5139750E+01  2.4742975E+01
 1.5151251E+01  2.4950329E+01
 1.5162751E+01  2.5159695E+01
 1.5174251E+01  2.5383184E+01
 1.5185751E+01  2.5478294E+01
 1.5197250E+01  2.5602110E+01
 1.5208751E+01  2.5559605E+01
 1.5220251E+01  2.5512011E+01
 1.5231750E+01  2.5306622E+01
 1.5243251E+01  2.5074553E+01
 1.5254751E+01  2.4844536E+01
 1.5266251E+01  2.4644018E+01
 1.5277751E+01  2.4575029E+01
 1.5289250E+01  2.4580641E+01
 1.5300751E+01  2.4627085E+01
 1.5312251E+01  2.4668049E+01
 1.5323750E+01  2.4642738E+01
 1.5335251E+01  2.4667696E+01
 1.5346751E+01  2.4600382E+01
 1.5358251E+01  2.4532774E+01
 1.5369751E+01  2.4429073E+01
 1.5381250E+01  2.4370419E+01
 1.5392751E+01  2.4292610E+01
 1.5404251E+01  2.4269630E+01
 1.5415751E+01  2.4271000E+01
 1.5427251E+01  2.4341299E+01
 1.5438751E+01  2.4424232E+01
 1.5450251E+01  2.4495483E+01
 1.5461751E+01  2.4480967E+01
 1.5473250E+01  2.4409990E+01
 1.5484751E+01  2.4345118E+01
 1.5496251E+01  2.4295641E+01
 1.5507751E+01  2.4298832E+01
 1.5519251E+01  2.4311041E+01
 1.5530751E+01  2.4366894E+01
 1.5542251E+01  2.4363129E+01
 1.5553751E+01  2.4346167E+01
 1.5565250E+01  2.4319176E+01
 1.5576751E+01  2.4331289E+01
 1.5588251E+01  2.4346289E+01
 1.5599751E+01  2.4347397E+01
 1.5611251E+01  2.4346199E+01
 1.5622751E+01  2.4366053E+01
 1.5634251E+01  2.4402512E+01
 1.5645751E+01  2.4479252E+01
 1.5657250E+01  2.4536810E+01
 1.5668751E+01  2.4531071E+01
 1.5680251E+01  2.4481937E+01
 1.5691751E+01  2.4490948E+01
 1.5703251E+01  2.4554661E+01
 1.5714751E+01  2.4569952E+01
 1.5726251E+01  2.4580448E+01
 1.5737751E+01  2.4517561E+01
 1.5749250E+01  2.4521051E+01
 1.5760751E+01  2.4501421E+01
 1.5772251E+01  2.4502460E+01
 1.5783751E+01  2.4491405E+01
 1.5795251E+01  2.4492378E+01
 1.5806751E+01  2.4510910E+01
 1.5818251E+01  2.4514791E+01
 1.5829751E+01  2.4533220E+01
 1.5841250E+01  2.4526859E+01
 1.5852751E+01  2.4504841E+01
 1.5864251E+01  2.4477428E+01
 1.5875751E+01  2.4495165E+01
 1.5887251E+01  2.4501802E+01
 1.5898750E+01  2.4576769E+01
 1.5910251E+01  2.4658638E+01
 1.5921751E+01  2.4731461E+01
 1.5933250E+01  2.4722380E+01
 1.5944751E+01  2.4624872E+01
 1.5956251E+01  2.4532774E+01
 1.5967751E+01  2.4435228E+01
 1.5979251E+01  2.4433069E+01
 1.5990750E+01  2.4443975E+01
 1.6002251E+01  2.4486029E+01
 1.6013750E+01  2.4516417E+01
 1.6025251E+01  2.4531157E+01
 1.6036751E+01  2.4582253E+01
 1.6048250E+01  2.4605162E+01
 1.6059752E+01  2.4660629E+01
 1.6071251E+01  2.4646641E+01
 1.6082750E+01  2.4641518E+01
 1.6094252E+01  2.4628267E+01
 1.6105751E+01  2.4631880E+01
 1.6117250E+01  2.4654678E+01
 1.6128750E+01  2.4650085E+01
 1.6140251E+01  2.4693413E+01
 1.6151751E+01  2.4695148E+01
 1.6163250E+01  2.4712891E+01
 1.6174751E+01  2.4680616E+01
 1.6186251E+01  2.4749685E+01
 1.6197750E+01  2.4674837E+01
 1.6209251E+01  2.4805695E+01
 1.6220751E+01  2.4810350E+01
 1.6232250E+01  2.4995216E+01
 1.6243752E+01  2.5042356E+01
 1.6255251E+01  2.5135178E+01
 1.6266750E+01  2.5266180E+01
 1.6278252E+01  2.5179905E+01
 1.6289751E+01  2.5249821E+01
 1.6301250E+01  2.4963390E+01
 1.6312750E+01  2.5004368E+01
 1.6324251E+01  2.4723776E+01
 1.6335751E+01  2.4689116E+01
 1.6347250E+01  2.4527485E+01
 1.6358751E+01  2.4493036E+01
 1.6370251E+01  2.4457508E+01
 1.6381750E+01  2.4455770E+01
 1.6393251E+01  2.4472589E+01
 1.6404751E+01  2.4506355E+01
 1.6416250E+01  2.4593193E+01
 1.6427752E+01  2.4599356E+01
 1.6439251E+01  2.4635338E+01
 1.6450750E+01  2.4662420E+01
 1.6462252E+01  2.4703314E+01
 1.6473751E+01  2.4646563E+01
 1.6485250E+01  2.4574055E+01
 1.6496750E+01  2.4593063E+01
 1.6508251E+01  2.4521696E+01
 1.6519751E+01  2.4485392E+01
 1.6531250E+01  2.4459633E+01
 1.6542751E+01  2.4549582E+01
 1.6554251E+01  2.4545572E+01
 1.6565750E+01  2.4522242E+01
 1.6577251E+01  2.4452391E+01
 1.6588751E+01  2.4389736E+01
 1.6600250E+01  2.4358809E+01
 1.6611752E+01  2.4356199E+01
 1.6623251E+01  2.4374874E+01
 1.6634750E+01  2.4365194E+01
 1.6646252E+01  2.4390070E+01
 1.6657751E+01  2.4368196E+01
 1.6669250E+01  2.4358124E+01
 1.6680750E+01  2.4300993E+01
 1.6692251E+01  2.4326235E+01
 1.6703751E+01  2.4344847E+01
 1.6715250E+01  2.4353464E+01
 1.6726751E+01  2.4323406E+01
 1.6738251E+01  2.4318819E+01
 1.6749750E+01  2.4284470E+01
 1.6761251E+01  2.4263132E+01
 1.6772751E+01  2.4291220E+01
 1.6784250E+01  2.4355293E+01
 1.6795752E+01  2.4413918E+01
 1.6807251E+01  2.4385229E+01
 1.6818750E+01  2.4380323E+01
 1.6830252E+01  2.4327385E+01
 1.6841751E+01  2.4257538E+01
 1.6853251E+01  2.4218548E+01
 1.6864750E+01  2.4219732E+01
 1.6876251E+01  2.4300354E+01
 1.6887751E+01  2.4321383E+01
 1.6899250E+01  2.4326859E+01
 1.6910751E+01  2.4284584E+01
 1.6922251E+01  2.4261419E+01
 1.6933750E+01  2.4195162E+01
 1.6945251E+01  2.4158453E+01
 1.6956751E+01  2.4121531E+01
 1.6968250E+01  2.4115292E+01
 1.6979752E+01  2.4110601E+01
 1.6991251E+01  2.4099905E+01
 1.7002750E+01  2.4066778E+01
 1.7014252E+01  2.4087181E+01
 1.7025751E+01  2.4113373E+01
 1.7037251E+01  2.4178320E+01
 1.7048750E+01  2.4153835E+01
 1.7060251E+01  2.4185551E+01
 1.7071751E+01  2.4160297E+01
 1.7083250E+01  2.4186434E+01
 1.7094751E+01  2.4112370E+01
 1.7106251E+01  2.4042871E+01
 1.7117750E+01  2.3912878E+01
 1.7129251E+01  2.3914904E+01
 1.7140751E+01  2.3943649E+01
 1.7152250E+01  2.3965677E+01
 1.7163752E+01  2.3926039E+01
 1.7175251E+01  2.3928457E+01
 1.7186750E+01  2.3953661E+01
 1.7198252E+01  2.3993736E+01
 1.7209751E+01  2.3995415E+01
 1.7221251E+01  2.4004667E+01
 1.7232750E+01  2.3987629E+01
 1.7244251E+01  2.4001560E+01
 1.7255751E+01  2.4020021E+01
 1.7267250E+01  2.4056068E+01
 1.7278751E+01  2.4037346E+01
 1.7290251E+01  2.4079453E+01
 1.7301750E+01  2.4075233E+01
 1.7313251E+01  2.4090618E+01
 1.7324751E+01  2.4042038E+01
 1.7336250E+01  2.4041288E+01
 1.7347752E+01  2.4019247E+01
 1.7359251E+01  2.4015598E+01
 1.7370750E+01  2.3977354E+01
 1.7382252E+01  2.3940750E+01
 1.7393751E+01  2.3931553E+01
 1.7405251E+01  2.3897635E+01
 1.7416750E+01  2.3890207E+01
 1.7428251E+01  2.3918776E+01
 1.7439751E+01  2.3962763E+01
 1.7451250E+01  2.4004774E+01
 1.7462751E+01  2.3976259E+01
 1.7474251E+01  2.3952061E+01
 1.7485750E+01  2.3919706E+01
 1.7497252E+01  2.3886648E+01
 1.7508751E+01  2.3824944E+01
 1.7520250E+01  2.3784754E+01
 1.7531752E+01  2.3734829E+01
 1.7543251E+01  2.3728714E+01
 1.7554750E+01  2.3662592E+01
 1.7566252E+01  2.3657145E+01
 1.7577751E+01  2.3637800E+01
 1.7589251E+01  2.3643810E+01
 1.7600750E+01  2.3690147E+01
 1.7612251E+01  2.3756992E+01
 1.7623751E+01  2.3839554E+01
 1.7635250E+01  2.3778709E+01
 1.7646751E+01  2.3704559E+01
 1.7658251E+01  2.3596735E+01
 1.7669750E+01  2.3570238E+01
 1.7681252E+01  2.3578726E+01
 1.7692751E+01  2.3611330E+01
 1.7704250E+01  2.3661091E+01
 1.7715752E+01  2.3649378E+01
 1.7727251E+01  2.3629999E+01
 1.7738750E+01  2.3561478E+01
 1.7750252E+01  2.3520540E+01
 1.7761751E+01  2.3502508E+01
 1.7773251E+01  2.3505493E+01
 1.7784750E+01  2.3508394E+01
 1.7796251E+01  2.3517191E+01
 1.7807751E+01  2.3509300E+01
 1.7819250E+01  2.3522837E+01
 1.7830751E+01  2.3486961E+01
 1.7842251E+01  2.3464958E+01
 1.7853750E+01  2.3480253E+01
 1.7865252E+01  2.3530792E+01
 1.7876751E+01  2.3562086E+01
 1.7888250E+01  2.3563953E+01
 1.7899752E+01  2.3580463E+01
 1.7911251E+01  2.3582670E+01
 1.7922750E+01  2.3563835E+01
 1.7934252E+01  2.3516848E+01
 1.7945751E+01  2.3526375E+01
 1.7957251E+01  2.3496515E+01
 1.7968750E+01  2.3569983E+01
 1.7980251E+01  2.3564270E+01
 1.7991751E+01  2.3645048E+01
 1.8003250E+01  2.3629099E+01
 1.8014751E+01  2.3658768E+01
 1.8026251E+01  2.3663500E+01
 1.8037750E+01  2.3731710E+01
 1.8049252E+01  2.3812876E+01
 1.8060751E+01  2.3872206E+01
 1.8072250E+01  2.3825512E+01
 1.8083752E+01  2.3804453E+01
 1.8095251E+01  2.3801659E+01
 1.8106750E+01  2.3815657E+01
 1.8118252E+01  2.3804438E+01
 1.8129751E+01  2.3792469E+01
 1.8141251E+01  2.3764999E+01
 1.8152750E+01  2.3736101E+01
 1.8164251E+01  2.3670502E+01
 1.8175751E+01  2.3592371E+01
 1.8187250E+01  2.3516184E+01
 1.8198751E+01  2.3484190E+01
 1.8210251E+01  2.3467186E+01
 1.8221750E+01  2.3460501E+01
 1.8233252E+01  2.3426834E+01
 1.8244751E+01  2.3428026E+01
 1.8256250E+01  2.3406305E+01
 1.8267752E+01  2.3409370E+01
 1.8279251E+01  2.3415623E+01
 1.8290751E+01  2.3446087E+01
 1.8302252E+01  2.3466156E+01
 1.8313751E+01  2.3445871E+01
 1.8325251E+01  2.3445740E+01
 1.8336750E+01  2.3436007E+01
 1.8348251E+01  2.3466360E+01
 1.8359751E+01  2.3481972E+01
 1.8371250E+01  2.3483549E+01
 1.8382751E+01  2.3493057E+01
 1.8394251E+01  2.3482834E+01
 1.8405750E+01  2.3466406E+01
 1.8417252E+01  2.3433046E+01
 1.8428751E+01  2.3368723E+01
 1.8440250E+01  2.3322561E+01
 1.8451752E+01  2.3295399E+01
 1.8463251E+01  2.3288054E+01
 1.8474751E+01  2.3310421E+01
 1.8486252E+01  2.3319145E+01
 1.8497751E+01  2.3337788E+01
 1.8509251E+01  2.3400509E+01
 1.8520750E+01  2.3417353E+01
 1.8532251E+01  2.3414967E+01
 1.8543751E+01  2.3375961E+01
 1.8555250E+01  2.3386652E+01
 1.8566751E+01  2.3381031E+01
 1.8578251E+01  2.3375967E+01
 1.8589750E+01  2.3396503E+01
 1.8601252E+01  2.3379040E+01
 1.8612751E+01  2.3352123E+01
 1.8624250E+01  2.3315632E+01
 1.8635752E+01  2.3325933E+01
 1.8647251E+01  2.3249910E+01
 1.8658751E+01  2.3257378E+01
 1.8670252E+01  2.3244240E+01
 1.8681751E+01  2.3329418E+01
 1.8693251E+01  2.3347273E+01
 1.8704750E+01  2.3402916E+01
 1.8716251E+01  2.3404356E+01
 1.8727751E+01  2.3381353E+01
 1.8739250E+01  2.3326380E+01
 1.8750751E+01  2.3306017E+01
 1.8762251E+01  2.3281132E+01
 1.8773750E+01  2.3265652E+01
 1.8785252E+01  2.3236238E+01
 1.8796751E+01  2.3293531E+01
 1.8808250E+01  2.3287554E+01
 1.8819752E+01  2.3262247E+01
 1.8831251E+01  2.3249348E+01
 1.8842751E+01  2.3275673E+01
 1.8854252E+01  2.3285788E+01
 1.8865751E+01  2.3261299E+01
 1.8877251E+01  2.3259378E+01
 1.8888750E+01  2.3228409E+01
 1.8900251E+01  2.3244158E+01
 1.8911751E+01  2.3249619E+01
 1.8923250E+01  2.3308680E+01
 1.8934752E+01  2.3314297E+01
 1.8946251E+01  2.3384678E+01
 1.8957750E+01  2.3406693E+01
 1.8969252E+01  2.3429693E+01
 1.8980751E+01  2.3377157E+01
 1.8992250E+01  2.3383106E+01
 1.9003752E+01  2.3402353E+01
 1.9015251E+01  2.3429111E+01
 1.9026751E+01  2.3450521E+01
 1.9038252E+01  2.3435081E+01
 1.9049751E+01  2.3399046E+01
 1.9061251E+01  2.3403490E+01
 1.9072750E+01  2.3421640E+01
 1.9084251E+01  2.3448183E+01
 1.9095751E+01  2.3433838E+01
 1.9107250E+01  2.3376030E+01
 1.9118752E+01  2.3331703E+01
 1.9130251E+01  2.3274998E+01
 1.9141750E+01  2.3302994E+01
 1.9153252E+01  2.3304737E+01
 1.9164751E+01  2.3319387E+01
 1.9176250E+01  2.3265799E+01
 1.9187752E+01  2.3286982E+01
 1.9199251E+01  2.3271545E+01
 1.9210751E+01  2.3315460E+01
 1.9222252E+01  2.3293806E+01
 1.9233751E+01  2.3278452E+01
 1.9245251E+01  2.3232685E+01
 1.9256750E+01  2.3289026E+01
 1.9268251E+01  2.3319700E+01
 1.9279751E+01  2.3313103E+01
 1.9291250E+01  2.3320259E+01
 1.9302752E+01  2.3356699E+01
 1.9314251E+01  2.3370174E+01
 1.9325750E+01  2.3327253E+01
 1.9337252E+01  2.3282772E+01
 1.9348751E+01  2.3247190E+01
 1.9360250E+01  2.3220621E+01
 1.9371752E+01  2.3256979E+01
 1.9383251E+01  2.3327730E+01
 1.9394751E+01  2.3420801E+01
 1.9406250E+01  2.3462170E+01
 1.9417751E+01  2.3483835E+01
 1.9429251E+01  2.3489084E+01
 1.9440750E+01  2.3535440E+01
 1.9452251E+01  2.3503565E+01
 1.9463751E+01  2.3464733E+01
 1.9475250E+01  2.3424345E+01
 1.9486752E+01  2.3402447E+01
 1.9498251E+01  2.3380552E+01
 1.9509750E+01  2.3337893E+01
 1.9521252E+01  2.3360209E+01
 1.9532751E+01  2.3399176E+01
 1.9544250E+01  2.3432306E+01
 1.9555752E+01  2.3391275E+01
 1.9567251E+01  2.3374704E+01
 1.9578751E+01  2.3433956E+01
 1.9590250E+01  2.3468796E+01
 1.9601751E+01  2.3489347E+01
 1.9613251E+01  2.3553646E+01
 1.9624750E+01  2.3608404E+01
 1.9636251E+01  2.3673933E+01
 1.9647751E+01  2.3741703E+01
 1.9659250E+01  2.3837328E+01
 1.9670752E+01  2.3883841E+01
 1.9682251E+01  2.3923679E+01
 1.9693750E+01  2.4005917E+01
 1.9705252E+01  2.4140970E+01
 1.9716751E+01  2.4211361E+01
 1.9728251E+01  2.4214289E+01
 1.9739752E+01  2.4153440E+01
 1.9751251E+01  2.4111492E+01
 1.9762751E+01  2.4045736E+01
 1.9774250E+01  2.3980291E+01
 1.9785751E+01  2.3930616E+01
 1.9797251E+01  2.3924019E+01
 1.9808750E+01  2.3937349E+01
 1.9820251E+01  2.4025242E+01
 1.9831751E+01  2.4198139E+01
 1.9843250E+01  2.4234650E+01
 1.9854752E+01  2.4278191E+01
 1.9866251E+01  2.4257158E+01
 1.9877750E+01  2.4204769E+01
 1.9889252E+01  2.4057423E+01
 1.9900751E+01  2.3936243E+01
 1.9912251E+01  2.3810083E+01
 1.9923752E+01  2.3680977E+01
 1.9935251E+01  2.3600574E+01
 1.9946751E+01  2.3561636E+01
 1.9958250E+01  2.3531479E+01
 1.9969751E+01  2.3514771E+01
 1.9981251E+01  2.3460154E+01
 1.9992750E+01  2.3447254E+01
 2.0004251E+01  2.3453545E+01
 2.0015751E+01  2.3466925E+01
 2.0027250E+01  2.3486719E+01
 2.0038752E+01  2.3487379E+01
 2.0050251E+01  2.3546444E+01
 2.0061750E+01  2.3499104E+01
 2.0073252E+01  2.3516527E+01
 2.0084751E+01  2.3470222E+01
 2.0096251E+01  2.3548759E+01
 2.0107752E+01  2.3530441E+01
 2.0119251E+01  2.3569469E+01
 2.0130751E+01  2.3552856E+01
 2.0142250E+01  2.3566603E+01
 2.0153751E+01  2.3564608E+01
 2.0165251E+01  2.3599081E+01
 2.0176750E+01  2.3588758E+01
 2.0188251E+01  2.3574001E+01
 2.0199751E+01  2.3541086E+01
 2.0211250E+01  2.3499454E+01
 2.0222752E+01  2.3504955E+01
 2.0234251E+01  2.3550703E+01
 2.0245750E+01  2.3618212E+01
 2.0257252E+01  2.3574913E+01
 2.0268751E+01  2.3520504E+01
 2.0280251E+01  2.3527210E+01
 2.0291752E+01  2.3568291E+01
 2.0303251E+01  2.3565983E+01
 2.0314751E+01  2.3548819E+01
 2.0326250E+01  2.3545624E+01
 2.0337751E+01  2.3548239E+01
 2.0349251E+01  2.3514135E+01
 2.0360750E+01  2.3488255E+01
 2.0372252E+01  2.3474209E+01
 2.0383751E+01  2.3506716E+01
 2.0395250E+01  2.3542673E+01
 2.0406752E+01  2.3583717E+01
 2.0418251E+01  2.3593687E+01
 2.0429750E+01  2.3604622E+01
 2.0441252E+01  2.3577276E+01
 2.0452751E+01  2.3586620E+01
 2.0464251E+01  2.3558332E+01
 2.0475752E+01  2.3549395E+01
 2.0487251E+01  2.3526831E+01
 2.0498751E+01  2.3573500E+01
 2.0510250E+01  2.3483147E+01
 2.0521751E+01  2.3436426E+01
 2.0533251E+01  2.3386721E+01
 2.0544750E+01  2.3432045E+01
 2.0556252E+01  2.3460758E+01
 2.0567751E+01  2.3519339E+01
 2.0579250E+01  2.3562387E+01
 2.0590752E+01  2.3620617E+01
 2.0602251E+01  2.3651577E+01
 2.0613750E+01  2.3708101E+01
 2.0625252E+01  2.3679085E+01
 2.0636751E+01  2.3670536E+01
 2.0648251E+01  2.3647955E+01
 2.0659752E+01  2.3651457E+01
 2.0671251E+01  2.3673687E+01
 2.0682751E+01  2.3654840E+01
 2.0694250E+01  2.3677317E+01
 2.0705751E+01  2.3699667E+01
 2.0717251E+01  2.3846506E+01
 2.0728750E+01  2.3929474E+01
 2.0740252E+01  2.4069292E+01
 2.0751751E+01  2.4117170E+01
 2.0763250E+01  2.4242336E+01
 2.0774752E+01  2.4274456E+01
 2.0786251E+01  2.4267145E+01
 2.0797750E+01  2.4138912E+01
 2.0809252E+01  2.3965897E+01
 2.0820751E+01  2.3831125E+01
 2.0832251E+01  2.3771845E+01
 2.0843752E+01  2.3749855E+01
 2.0855251E+01  2.3741558E+01
 2.0866751E+01  2.3722025E+01
 2.0878250E+01  2.3696379E+01
 2.0889751E+01  2.3657616E+01
 2.0901251E+01  2.3682150E+01
 2.0912750E+01  2.3674082E+01
 2.0924252E+01  2.3645981E+01
 2.0935751E+01  2.3628733E+01
 2.0947250E+01  2.3633896E+01
 2.0958752E+01  2.3624334E+01
 2.0970251E+01  2.3621321E+01
 2.0981750E+01  2.3669390E+01
 2.0993252E+01  2.3701855E+01
 2.1004751E+01  2.3683159E+01
 2.1016251E+01  2.3635405E+01
 2.1027752E+01  2.3633900E+01
 2.1039251E+01  2.3607773E+01
 2.1050751E+01  2.3559603E+01
 2.1062250E+01  2.3559267E+01
 2.1073751E+01  2.3602829E+01
 2.1085251E+01  2.3619514E+01
 2.1096750E+01  2.3621866E+01
 2.1108252E+01  2.3666025E+01
 2.1119751E+01  2.3744022E+01
 2.1131250E+01  2.3740749E+01
 2.1142752E+01  2.3731579E+01
 2.1154251E+01  2.3642385E+01
 2.1165751E+01  2.3656885E+01
 2.1177252E+01  2.3663158E+01
 2.1188751E+01  2.3702394E+01
 2.1200251E+01  2.3661398E+01
 2.1211752E+01  2.3606468E+01
 2.1223251E+01  2.3562193E+01
 2.1234751E+01  2.3543070E+01
 2.1246250E+01  2.3552656E+01
 2.1257751E+01  2.3601490E+01
 2.1269251E+01  2.3654331E+01
 2.1280750E+01  2.3670555E+01
 2.1292252E+01  2.3669266E+01
 2.1303751E+01  2.3660112E+01
 2.1315250E+01  2.3656525E+01
 2.1326752E+01  2.3667223E+01
 2.1338251E+01  2.3681114E+01
 2.1349751E+01  2.3667135E+01
 2.1361252E+01  2.3651440E+01
 2.1372751E+01  2.3625790E+01
 2.1384251E+01  2.3624704E+01
 2.1395752E+01  2.3650301E+01
 2.1407251E+01  2.3675516E+01
 2.1418751E+01  2.3668495E+01
 2.1430250E+01  2.3724243E+01
 2.1441751E+01  2.3750963E+01
 2.1453251E+01  2.3764811E+01
 2.1464750E+01  2.3749266E+01
 2.1476252E+01  2.3720629E+01
 2.1487751E+01  2.3793694E+01
 2.1499250E+01  2.3789028E+01
 2.1510752E+01  2.3813046E+01
 2.1522251E+01  2.3786816E+01
 2.1533751E+01  2.3834845E+01
 2.1545252E+01  2.3820507E+01
 2.1556751E+01  2.3783482E+01
 2.1568251E+01  2.3758722E+01
 2.1579752E+01  2.3765451E+01
 2.1591251E+01  2.3781115E+01
 2.1602751E+01  2.3781292E+01
 2.1614250E+01  2.3797760E+01
 2.1625751E+01  2.3786444E+01
 2.1637251E+01  2.3842182E+01
 2.1648750E+01  2.3867762E+01
 2.1660252E+01  2.3898640E+01
 2.1671751E+01  2.3867083E+01
 2.1683250E+01  2.3845690E+01
 2.1694752E+01  2.3789503E+01
 2.1706251E+01  2.3829483E+01
 2.1717751E+01  2.3863749E+01
 2.1729252E+01  2.3912796E+01
 2.1740751E+01  2.3940294E+01
 2.1752251E+01  2.3924171E+01
 2.1763752E+01  2.3895870E+01
 2.1775251E+01  2.3844072E+01
 2.1786751E+01  2.3872654E+01
 2.1798250E+01  2.3864330E+01
 2.1809752E+01  2.3903788E+01
 2.1821251E+01  2.3904747E+01
 2.1832750E+01  2.3947918E+01
 2.1844252E+01  2.3987587E+01
 2.1855751E+01  2.4064503E+01
 2.1867250E+01  2.4077171E+01
 2.1878752E+01  2.4095501E+01
 2.1890251E+01  2.4065428E+01
 2.1901751E+01  2.4064745E+01
 2.1913252E+01  2.4056334E+01
 2.1924751E+01  2.4028572E+01
 2.1936251E+01  2.4001339E+01
 2.1947752E+01  2.3976284E+01
 2.1959251E+01  2.4008848E+01
 2.1970751E+01  2.4075043E+01
 2.1982250E+01  2.4119959E+01
 2.1993752E+01  2.4120985E+01
 2.2005251E+01  2.4113104E+01
 2.2016750E+01  2.4125889E+01
 2.2028252E+01  2.4184471E+01
 2.2039751E+01  2.4219261E+01
 2.2051250E+01  2.4224695E+01
 2.2062752E+01  2.4155315E+01
 2.2074251E+01  2.4121424E+01
 2.2085751E+01  2.4091213E+01
 2.2097252E+01  2.4082338E+01
 2.2108751E+01  2.4045908E+01
 2.2120251E+01  2.4101067E+01
 2.2131752E+01  2.4118168E+01
 2.2143251E+01  2.4118834E+01
 2.2154751E+01  2.4114815E+01
 2.2166250E+01  2.4164301E+01
 2.2177752E+01  2.4169731E+01
 2.2189251E+01  2.4149069E+01
 2.2200750E+01  2.4181225E+01
 2.2212252E+01  2.4197220E+01
 2.2223751E+01  2.4242971E+01
 2.2235250E+01  2.4209375E+01
 2.2246752E+01  2.4234274E+01
 2.2258251E+01  2.4254660E+01
 2.2269751E+01  2.4295721E+01
 2.2281252E+01  2.4342907E+01
 2.2292751E+01  2.4336426E+01
 2.2304251E+01  2.4300335E+01
 2.2315752E+01  2.4238741E+01
 2.2327251E+01  2.4213226E+01
 2.2338751E+01  2.4251080E+01
 2.2350250E+01  2.4264347E+01
 2.2361752E+01  2.4271591E+01
 2.2373251E+01  2.4287519E+01
 2.2384750E+01  2.4252932E+01
 2.2396252E+01  2.4259174E+01
 2.2407751E+01  2.4240173E+01
 2.2419250E+01  2.4287300E+01
 2.2430752E+01  2.4313213E+01
 2.2442251E+01  2.4391724E+01
 2.2453751E+01  2.4400576E+01
 2.2465252E+01  2.4378174E+01
 2.2476751E+01  2.4344280E+01
 2.2488251E+01  2.4371281E+01
 2.2499752E+01  2.4429674E+01
 2.2511251E+01  2.4542511E+01
 2.2522751E+01  2.4665630E+01
 2.2534250E+01  2.4716755E+01
 2.2545752E+01  2.4707134E+01
 2.2557251E+01  2.4665281E+01
 2.2568750E+01  2.4607698E+01
 2.2580252E+01  2.4588087E+01
 2.2591751E+01  2.4578115E+01
 2.2603251E+01  2.4599796E+01
 2.2614752E+01  2.4657396E+01
 2.2626251E+01  2.4702616E+01
 2.2637751E+01  2.4765839E+01
 2.2649252E+01  2.4775833E+01
 2.2660751E+01  2.4818224E+01
 2.2672251E+01  2.4875359E+01
 2.2683752E+01  2.4931633E+01
 2.2695251E+01  2.4986584E+01
 2.2706751E+01  2.4990564E+01
 2.2718250E+01  2.4960154E+01
 2.2729752E+01  2.4868938E+01
 2.2741251E+01  2.4848232E+01
 2.2752750E+01  2.4910727E+01
 2.2764252E+01  2.4989874E+01
 2.2775751E+01  2.5047485E+01
 2.2787251E+01  2.5040342E+01
 2.2798752E+01  2.5107115E+01
 2.2810251E+01  2.5174122E+01
 2.2821751E+01  2.5271702E+01
 2.2833252E+01  2.5393209E+01
 2.2844751E+01  2.5432592E+01
 2.2856251E+01  2.5408602E+01
 2.2867750E+01  2.5350689E+01
 2.2879251E+01  2.5346296E+01
 2.2890751E+01  2.5425283E+01
 2.2902250E+01  2.5456745E+01
 2.2913752E+01  2.5524630E+01
 2.2925251E+01  2.5579142E+01
 2.2936750E+01  2.5618591E+01
 2.2948252E+01  2.5673895E+01
 2.2959751E+01  2.5649424E+01
 2.2971251E+01  2.5749901E+01
 2.2982752E+01  2.5848747E+01
 2.2994251E+01  2.5982506E+01
