F:\20151113_APS_34IDE\\Brian\Particle1\OCV\Data_0143.tif
2-Theta Angle (Degrees)
Intensity
       2000
 5.7500005E-03  0.0000000E+00
 1.7250001E-02  0.0000000E+00
 2.8750001E-02  0.0000000E+00
 4.0250003E-02  0.0000000E+00
 5.1750004E-02  0.0000000E+00
 6.3250005E-02  0.0000000E+00
 7.4750006E-02  0.0000000E+00
 8.6250007E-02  0.0000000E+00
 9.7750008E-02  0.0000000E+00
 1.0925001E-01  0.0000000E+00
 1.2075000E-01  0.0000000E+00
 1.3225001E-01  0.0000000E+00
 1.4375001E-01  0.0000000E+00
 1.5525001E-01  0.0000000E+00
 1.6675001E-01  0.0000000E+00
 1.7825001E-01  0.0000000E+00
 1.8975002E-01  0.0000000E+00
 2.0125002E-01  0.0000000E+00
 2.1275002E-01  0.0000000E+00
 2.2425000E-01  0.0000000E+00
 2.3575000E-01  0.0000000E+00
 2.4725001E-01  0.0000000E+00
 2.5875002E-01  0.0000000E+00
 2.7025002E-01  0.0000000E+00
 2.8175002E-01  0.0000000E+00
 2.9325002E-01  0.0000000E+00
 3.0475003E-01  0.0000000E+00
 3.1625003E-01  0.0000000E+00
 3.2775003E-01  0.0000000E+00
 3.3925003E-01  0.0000000E+00
 3.5075003E-01  0.0000000E+00
 3.6225003E-01  0.0000000E+00
 3.7375003E-01  0.0000000E+00
 3.8525003E-01  0.0000000E+00
 3.9675003E-01  0.0000000E+00
 4.0825003E-01  0.0000000E+00
 4.1975003E-01  0.0000000E+00
 4.3125004E-01  0.0000000E+00
 4.4275001E-01  0.0000000E+00
 4.5425001E-01  0.0000000E+00
 4.6575001E-01  0.0000000E+00
 4.7725001E-01  0.0000000E+00
 4.8875001E-01  0.0000000E+00
 5.0025004E-01  0.0000000E+00
 5.1175004E-01  0.0000000E+00
 5.2325004E-01  0.0000000E+00
 5.3475004E-01  0.0000000E+00
 5.4625005E-01  0.0000000E+00
 5.5775005E-01  0.0000000E+00
 5.6925005E-01  0.0000000E+00
 5.8075005E-01  0.0000000E+00
 5.9225005E-01  0.0000000E+00
 6.0375005E-01  0.0000000E+00
 6.1525005E-01  0.0000000E+00
 6.2675005E-01  0.0000000E+00
 6.3825005E-01  0.0000000E+00
 6.4975005E-01  0.0000000E+00
 6.6125005E-01  0.0000000E+00
 6.7275006E-01  0.0000000E+00
 6.8425006E-01  0.0000000E+00
 6.9575006E-01  0.0000000E+00
 7.0725006E-01  0.0000000E+00
 7.1875006E-01  0.0000000E+00
 7.3025006E-01  0.0000000E+00
 7.4175006E-01  0.0000000E+00
 7.5325006E-01  0.0000000E+00
 7.6475006E-01  0.0000000E+00
 7.7625006E-01  0.0000000E+00
 7.8775007E-01  0.0000000E+00
 7.9925007E-01  0.0000000E+00
 8.1075007E-01  0.0000000E+00
 8.2225007E-01  0.0000000E+00
 8.3375007E-01  0.0000000E+00
 8.4525007E-01  0.0000000E+00
 8.5675007E-01  0.0000000E+00
 8.6825007E-01  0.0000000E+00
 8.7975001E-01  0.0000000E+00
 8.9125001E-01  0.0000000E+00
 9.0275002E-01  0.0000000E+00
 9.1425002E-01  0.0000000E+00
 9.2575002E-01  0.0000000E+00
 9.3725002E-01  0.0000000E+00
 9.4875002E-01  0.0000000E+00
 9.6025002E-01  0.0000000E+00
 9.7175002E-01  0.0000000E+00
 9.8325002E-01  0.0000000E+00
 9.9475002E-01  0.0000000E+00
 1.0062500E+00  0.0000000E+00
 1.0177500E+00  0.0000000E+00
 1.0292500E+00  0.0000000E+00
 1.0407500E+00  0.0000000E+00
 1.0522500E+00  0.0000000E+00
 1.0637500E+00  0.0000000E+00
 1.0752500E+00  0.0000000E+00
 1.0867500E+00  0.0000000E+00
 1.0982500E+00  0.0000000E+00
 1.1097500E+00  0.0000000E+00
 1.1212500E+00  0.0000000E+00
 1.1327500E+00  0.0000000E+00
 1.1442500E+00  0.0000000E+00
 1.1557500E+00  0.0000000E+00
 1.1672500E+00  0.0000000E+00
 1.1787500E+00  0.0000000E+00
 1.1902500E+00  0.0000000E+00
 1.2017500E+00  0.0000000E+00
 1.2132500E+00  0.0000000E+00
 1.2247500E+00  0.0000000E+00
 1.2362500E+00  0.0000000E+00
 1.2477500E+00  0.0000000E+00
 1.2592500E+00  0.0000000E+00
 1.2707500E+00  0.0000000E+00
 1.2822500E+00  0.0000000E+00
 1.2937500E+00  0.0000000E+00
 1.3052500E+00  0.0000000E+00
 1.3167500E+00  0.0000000E+00
 1.3282501E+00  0.0000000E+00
 1.3397501E+00  0.0000000E+00
 1.3512501E+00  0.0000000E+00
 1.3627501E+00  0.0000000E+00
 1.3742501E+00  0.0000000E+00
 1.3857501E+00  0.0000000E+00
 1.3972501E+00  0.0000000E+00
 1.4087501E+00  0.0000000E+00
 1.4202501E+00  0.0000000E+00
 1.4317501E+00  0.0000000E+00
 1.4432501E+00  0.0000000E+00
 1.4547501E+00  0.0000000E+00
 1.4662501E+00  0.0000000E+00
 1.4777501E+00  0.0000000E+00
 1.4892501E+00  0.0000000E+00
 1.5007501E+00  0.0000000E+00
 1.5122501E+00  0.0000000E+00
 1.5237501E+00  0.0000000E+00
 1.5352501E+00  0.0000000E+00
 1.5467501E+00  0.0000000E+00
 1.5582501E+00  0.0000000E+00
 1.5697501E+00  0.0000000E+00
 1.5812501E+00  0.0000000E+00
 1.5927501E+00  0.0000000E+00
 1.6042501E+00  0.0000000E+00
 1.6157501E+00  0.0000000E+00
 1.6272501E+00  0.0000000E+00
 1.6387501E+00  0.0000000E+00
 1.6502501E+00  0.0000000E+00
 1.6617501E+00  0.0000000E+00
 1.6732501E+00  0.0000000E+00
 1.6847501E+00  0.0000000E+00
 1.6962501E+00  0.0000000E+00
 1.7077501E+00  0.0000000E+00
 1.7192501E+00  0.0000000E+00
 1.7307501E+00  0.0000000E+00
 1.7422501E+00  0.0000000E+00
 1.7537501E+00  0.0000000E+00
 1.7652501E+00  0.0000000E+00
 1.7767501E+00  0.0000000E+00
 1.7882501E+00  0.0000000E+00
 1.7997501E+00  0.0000000E+00
 1.8112501E+00  0.0000000E+00
 1.8227501E+00  0.0000000E+00
 1.8342501E+00  0.0000000E+00
 1.8457501E+00  0.0000000E+00
 1.8572501E+00  0.0000000E+00
 1.8687501E+00  0.0000000E+00
 1.8802501E+00  0.0000000E+00
 1.8917501E+00  0.0000000E+00
 1.9032501E+00  0.0000000E+00
 1.9147501E+00  0.0000000E+00
 1.9262501E+00  0.0000000E+00
 1.9377501E+00  0.0000000E+00
 1.9492501E+00  0.0000000E+00
 1.9607501E+00  0.0000000E+00
 1.9722501E+00  0.0000000E+00
 1.9837501E+00  0.0000000E+00
 1.9952501E+00  0.0000000E+00
 2.0067501E+00  0.0000000E+00
 2.0182500E+00  0.0000000E+00
 2.0297501E+00  0.0000000E+00
 2.0412500E+00  0.0000000E+00
 2.0527501E+00  0.0000000E+00
 2.0642500E+00  0.0000000E+00
 2.0757501E+00  0.0000000E+00
 2.0872500E+00  0.0000000E+00
 2.0987501E+00  0.0000000E+00
 2.1102500E+00  0.0000000E+00
 2.1217501E+00  0.0000000E+00
 2.1332500E+00  0.0000000E+00
 2.1447501E+00  0.0000000E+00
 2.1562500E+00  0.0000000E+00
 2.1677501E+00  0.0000000E+00
 2.1792500E+00  0.0000000E+00
 2.1907501E+00  0.0000000E+00
 2.2022500E+00  0.0000000E+00
 2.2137501E+00  0.0000000E+00
 2.2252500E+00  0.0000000E+00
 2.2367501E+00  0.0000000E+00
 2.2482500E+00  0.0000000E+00
 2.2597501E+00  0.0000000E+00
 2.2712500E+00  0.0000000E+00
 2.2827501E+00  0.0000000E+00
 2.2942500E+00  0.0000000E+00
 2.3057501E+00  0.0000000E+00
 2.3172500E+00  0.0000000E+00
 2.3287501E+00  0.0000000E+00
 2.3402500E+00  0.0000000E+00
 2.3517501E+00  0.0000000E+00
 2.3632500E+00  0.0000000E+00
 2.3747501E+00  0.0000000E+00
 2.3862500E+00  0.0000000E+00
 2.3977501E+00  0.0000000E+00
 2.4092500E+00  0.0000000E+00
 2.4207501E+00  0.0000000E+00
 2.4322500E+00  0.0000000E+00
 2.4437501E+00  0.0000000E+00
 2.4552500E+00  0.0000000E+00
 2.4667501E+00  0.0000000E+00
 2.4782500E+00  0.0000000E+00
 2.4897501E+00  0.0000000E+00
 2.5012500E+00  0.0000000E+00
 2.5127501E+00  0.0000000E+00
 2.5242500E+00  0.0000000E+00
 2.5357502E+00  0.0000000E+00
 2.5472500E+00  0.0000000E+00
 2.5587502E+00  0.0000000E+00
 2.5702500E+00  0.0000000E+00
 2.5817502E+00  0.0000000E+00
 2.5932500E+00  0.0000000E+00
 2.6047502E+00  0.0000000E+00
 2.6162500E+00  0.0000000E+00
 2.6277502E+00  0.0000000E+00
 2.6392500E+00  0.0000000E+00
 2.6507502E+00  0.0000000E+00
 2.6622500E+00  0.0000000E+00
 2.6737502E+00  0.0000000E+00
 2.6852500E+00  0.0000000E+00
 2.6967502E+00  0.0000000E+00
 2.7082500E+00  0.0000000E+00
 2.7197502E+00  0.0000000E+00
 2.7312500E+00  0.0000000E+00
 2.7427502E+00  0.0000000E+00
 2.7542500E+00  0.0000000E+00
 2.7657502E+00  0.0000000E+00
 2.7772501E+00  0.0000000E+00
 2.7887502E+00  0.0000000E+00
 2.8002501E+00  0.0000000E+00
 2.8117502E+00  0.0000000E+00
 2.8232501E+00  3.0191402E+01
 2.8347502E+00  3.1615488E+01
 2.8462501E+00  3.2061909E+01
 2.8577502E+00  3.3274422E+01
 2.8692501E+00  3.3806858E+01
 2.8807502E+00  3.4753780E+01
 2.8922501E+00  3.4954769E+01
 2.9037502E+00  3.5237980E+01
 2.9152501E+00  3.5683994E+01
 2.9267502E+00  3.6259243E+01
 2.9382501E+00  3.7205669E+01
 2.9497502E+00  3.7878784E+01
 2.9612501E+00  3.8296459E+01
 2.9727502E+00  3.8330742E+01
 2.9842501E+00  3.7849751E+01
 2.9957502E+00  3.7520123E+01
 3.0072501E+00  3.6926655E+01
 3.0187502E+00  3.6767441E+01
 3.0302501E+00  3.6598164E+01
 3.0417502E+00  3.6996014E+01
 3.0532501E+00  3.7326126E+01
 3.0647502E+00  3.7133125E+01
 3.0762501E+00  3.6762321E+01
 3.0877502E+00  3.6134022E+01
 3.0992501E+00  3.6037254E+01
 3.1107502E+00  3.5660500E+01
 3.1222501E+00  3.5447941E+01
 3.1337502E+00  3.5092037E+01
 3.1452501E+00  3.5443653E+01
 3.1567502E+00  3.5267361E+01
 3.1682501E+00  3.5453945E+01
 3.1797502E+00  3.5227348E+01
 3.1912501E+00  3.5234531E+01
 3.2027502E+00  3.5296280E+01
 3.2142501E+00  3.5249172E+01
 3.2257502E+00  3.5412811E+01
 3.2372501E+00  3.5214993E+01
 3.2487502E+00  3.5122009E+01
 3.2602501E+00  3.5219509E+01
 3.2717502E+00  3.5197090E+01
 3.2832501E+00  3.5223640E+01
 3.2947502E+00  3.5112362E+01
 3.3062501E+00  3.5097660E+01
 3.3177502E+00  3.4973232E+01
 3.3292501E+00  3.4767895E+01
 3.3407502E+00  3.4724258E+01
 3.3522501E+00  3.4804451E+01
 3.3637502E+00  3.4850639E+01
 3.3752501E+00  3.5126034E+01
 3.3867502E+00  3.5168606E+01
 3.3982501E+00  3.5056885E+01
 3.4097502E+00  3.4974152E+01
 3.4212501E+00  3.4824661E+01
 3.4327502E+00  3.5013733E+01
 3.4442501E+00  3.4633804E+01
 3.4557502E+00  3.4685863E+01
 3.4672501E+00  3.4693214E+01
 3.4787502E+00  3.4858135E+01
 3.4902501E+00  3.4701672E+01
 3.5017502E+00  3.3987411E+01
 3.5132501E+00  3.3637863E+01
 3.5247502E+00  3.3407097E+01
 3.5362501E+00  3.3471626E+01
 3.5477502E+00  3.3455997E+01
 3.5592501E+00  3.3542366E+01
 3.5707502E+00  3.3414680E+01
 3.5822501E+00  3.3045616E+01
 3.5937502E+00  3.3023186E+01
 3.6052501E+00  3.3061089E+01
 3.6167502E+00  3.3247528E+01
 3.6282501E+00  3.3315487E+01
 3.6397502E+00  3.3268532E+01
 3.6512501E+00  3.3446468E+01
 3.6627502E+00  3.3333431E+01
 3.6742501E+00  3.3222198E+01
 3.6857502E+00  3.3051640E+01
 3.6972501E+00  3.3038830E+01
 3.7087502E+00  3.2938347E+01
 3.7202501E+00  3.2850655E+01
 3.7317502E+00  3.2911926E+01
 3.7432501E+00  3.3159378E+01
 3.7547503E+00  3.3320412E+01
 3.7662501E+00  3.3412228E+01
 3.7777503E+00  3.3441383E+01
 3.7892501E+00  3.3402466E+01
 3.8007503E+00  3.3238304E+01
 3.8122501E+00  3.3180080E+01
 3.8237503E+00  3.3119556E+01
 3.8352501E+00  3.3311157E+01
 3.8467503E+00  3.3358578E+01
 3.8582501E+00  3.3522091E+01
 3.8697503E+00  3.3424950E+01
 3.8812501E+00  3.3347122E+01
 3.8927503E+00  3.3073349E+01
 3.9042501E+00  3.3109951E+01
 3.9157503E+00  3.3033600E+01
 3.9272501E+00  3.3052242E+01
 3.9387503E+00  3.3270317E+01
 3.9502501E+00  3.3392242E+01
 3.9617503E+00  3.3486431E+01
 3.9732502E+00  3.3376678E+01
 3.9847503E+00  3.3231606E+01
 3.9962502E+00  3.3348907E+01
 4.0077500E+00  3.3371567E+01
 4.0192504E+00  3.3221348E+01
 4.0307503E+00  3.3128479E+01
 4.0422502E+00  3.2890511E+01
 4.0537500E+00  3.2814480E+01
 4.0652504E+00  3.2785446E+01
 4.0767503E+00  3.2745796E+01
 4.0882502E+00  3.2773308E+01
 4.0997500E+00  3.2612782E+01
 4.1112504E+00  3.2603523E+01
 4.1227503E+00  3.2637531E+01
 4.1342502E+00  3.2754341E+01
 4.1457500E+00  3.2751694E+01
 4.1572504E+00  3.2595570E+01
 4.1687503E+00  3.2494549E+01
 4.1802502E+00  3.2394997E+01
 4.1917500E+00  3.2503651E+01
 4.2032504E+00  3.2579109E+01
 4.2147503E+00  3.2675598E+01
 4.2262502E+00  3.2807510E+01
 4.2377501E+00  3.2868320E+01
 4.2492504E+00  3.2868309E+01
 4.2607503E+00  3.2840168E+01
 4.2722502E+00  3.2518852E+01
 4.2837501E+00  3.2342110E+01
 4.2952504E+00  3.2090797E+01
 4.3067503E+00  3.2148205E+01
 4.3182502E+00  3.2264446E+01
 4.3297501E+00  3.2186810E+01
 4.3412504E+00  3.2117752E+01
 4.3527503E+00  3.2028214E+01
 4.3642502E+00  3.2111732E+01
 4.3757501E+00  3.2197174E+01
 4.3872504E+00  3.2209549E+01
 4.3987503E+00  3.2416012E+01
 4.4102502E+00  3.2501701E+01
 4.4217501E+00  3.2675678E+01
 4.4332504E+00  3.2815357E+01
 4.4447503E+00  3.3017975E+01
 4.4562502E+00  3.3031605E+01
 4.4677501E+00  3.3038219E+01
 4.4792504E+00  3.3024189E+01
 4.4907503E+00  3.3012367E+01
 4.5022502E+00  3.2925785E+01
 4.5137501E+00  3.2815285E+01
 4.5252504E+00  3.2889374E+01
 4.5367503E+00  3.2794601E+01
 4.5482502E+00  3.2770481E+01
 4.5597501E+00  3.2673683E+01
 4.5712504E+00  3.2707458E+01
 4.5827503E+00  3.2714802E+01
 4.5942502E+00  3.2736237E+01
 4.6057501E+00  3.2763870E+01
 4.6172504E+00  3.2761124E+01
 4.6287503E+00  3.2734581E+01
 4.6402502E+00  3.2799717E+01
 4.6517501E+00  3.2888374E+01
 4.6632504E+00  3.3049622E+01
 4.6747503E+00  3.3026039E+01
 4.6862502E+00  3.3027668E+01
 4.6977501E+00  3.3063438E+01
 4.7092505E+00  3.3041077E+01
 4.7207503E+00  3.2816879E+01
 4.7322502E+00  3.2651485E+01
 4.7437501E+00  3.2563065E+01
 4.7552505E+00  3.2611801E+01
 4.7667503E+00  3.2671284E+01
 4.7782502E+00  3.2724514E+01
 4.7897501E+00  3.2893417E+01
 4.8012505E+00  3.2950050E+01
 4.8127503E+00  3.2976574E+01
 4.8242502E+00  3.3030922E+01
 4.8357501E+00  3.3062538E+01
 4.8472505E+00  3.3028568E+01
 4.8587503E+00  3.2963802E+01
 4.8702502E+00  3.2825203E+01
 4.8817501E+00  3.2781513E+01
 4.8932505E+00  3.2911892E+01
 4.9047503E+00  3.2790047E+01
 4.9162502E+00  3.2923058E+01
 4.9277501E+00  3.2859104E+01
 4.9392505E+00  3.3082245E+01
 4.9507504E+00  3.3093765E+01
 4.9622502E+00  3.3004047E+01
 4.9737501E+00  3.2901917E+01
 4.9852505E+00  3.2830173E+01
 4.9967504E+00  3.2915611E+01
 5.0082502E+00  3.3009956E+01
 5.0197501E+00  3.3119728E+01
 5.0312505E+00  3.3242714E+01
 5.0427504E+00  3.3313461E+01
 5.0542502E+00  3.3391918E+01
 5.0657501E+00  3.3361004E+01
 5.0772505E+00  3.3317593E+01
 5.0887504E+00  3.3335476E+01
 5.1002502E+00  3.3338402E+01
 5.1117501E+00  3.3395245E+01
 5.1232505E+00  3.3471676E+01
 5.1347504E+00  3.3537312E+01
 5.1462502E+00  3.3566288E+01
 5.1577501E+00  3.3606319E+01
 5.1692505E+00  3.3667839E+01
 5.1807504E+00  3.3842579E+01
 5.1922503E+00  3.3887051E+01
 5.2037501E+00  3.4000374E+01
 5.2152505E+00  3.4056454E+01
 5.2267504E+00  3.4114468E+01
 5.2382503E+00  3.4212315E+01
 5.2497501E+00  3.4236919E+01
 5.2612505E+00  3.4274689E+01
 5.2727504E+00  3.4128410E+01
 5.2842503E+00  3.4188595E+01
 5.2957501E+00  3.4233425E+01
 5.3072500E+00  3.4276047E+01
 5.3187504E+00  3.4168968E+01
 5.3302503E+00  3.4027493E+01
 5.3417501E+00  3.4069916E+01
 5.3532500E+00  3.4017239E+01
 5.3647504E+00  3.4094635E+01
 5.3762503E+00  3.4069225E+01
 5.3877501E+00  3.4287041E+01
 5.3992500E+00  3.4540913E+01
 5.4107504E+00  3.4646057E+01
 5.4222503E+00  3.4816833E+01
 5.4337502E+00  3.4845356E+01
 5.4452500E+00  3.5060863E+01
 5.4567504E+00  3.5084743E+01
 5.4682503E+00  3.5072098E+01
 5.4797502E+00  3.5034073E+01
 5.4912500E+00  3.4956497E+01
 5.5027504E+00  3.4975708E+01
 5.5142503E+00  3.4880772E+01
 5.5257502E+00  3.4828209E+01
 5.5372500E+00  3.4812603E+01
 5.5487504E+00  3.4823944E+01
 5.5602503E+00  3.5032448E+01
 5.5717502E+00  3.5087311E+01
 5.5832500E+00  3.5195198E+01
 5.5947504E+00  3.5184143E+01
 5.6062503E+00  3.5141300E+01
 5.6177502E+00  3.5175159E+01
 5.6292500E+00  3.5234615E+01
 5.6407504E+00  3.5335899E+01
 5.6522503E+00  3.5432495E+01
 5.6637502E+00  3.5555519E+01
 5.6752501E+00  3.5593746E+01
 5.6867504E+00  3.5589123E+01
 5.6982503E+00  3.5502052E+01
 5.7097502E+00  3.5514935E+01
 5.7212501E+00  3.5453739E+01
 5.7327504E+00  3.5334057E+01
 5.7442503E+00  3.5280754E+01
 5.7557502E+00  3.5277756E+01
 5.7672501E+00  3.5412907E+01
 5.7787504E+00  3.5572811E+01
 5.7902503E+00  3.5699398E+01
 5.8017502E+00  3.5757671E+01
 5.8132501E+00  3.5791382E+01
 5.8247504E+00  3.5829456E+01
 5.8362503E+00  3.5964687E+01
 5.8477502E+00  3.5897404E+01
 5.8592501E+00  3.5876560E+01
 5.8707504E+00  3.5827244E+01
 5.8822503E+00  3.5977962E+01
 5.8937502E+00  3.6128407E+01
 5.9052501E+00  3.6202106E+01
 5.9167504E+00  3.6181396E+01
 5.9282503E+00  3.6220753E+01
 5.9397502E+00  3.6368004E+01
 5.9512501E+00  3.6651222E+01
 5.9627504E+00  3.6990925E+01
 5.9742503E+00  3.7154766E+01
 5.9857502E+00  3.7271542E+01
 5.9972501E+00  3.7188698E+01
 6.0087504E+00  3.7068764E+01
 6.0202503E+00  3.6780235E+01
 6.0317502E+00  3.6574539E+01
 6.0432501E+00  3.6416634E+01
 6.0547504E+00  3.6496944E+01
 6.0662503E+00  3.6585487E+01
 6.0777502E+00  3.6676456E+01
 6.0892501E+00  3.6746193E+01
 6.1007504E+00  3.6810867E+01
 6.1122503E+00  3.6756767E+01
 6.1237502E+00  3.6676105E+01
 6.1352501E+00  3.6438843E+01
 6.1467505E+00  3.6260521E+01
 6.1582503E+00  3.6242687E+01
 6.1697502E+00  3.6268562E+01
 6.1812501E+00  3.6525593E+01
 6.1927505E+00  3.6664104E+01
 6.2042503E+00  3.6728794E+01
 6.2157502E+00  3.6804752E+01
 6.2272501E+00  3.6924309E+01
 6.2387505E+00  3.7023777E+01
 6.2502503E+00  3.7159626E+01
 6.2617502E+00  3.7184460E+01
 6.2732501E+00  3.7374626E+01
 6.2847505E+00  3.7520912E+01
 6.2962503E+00  3.7656826E+01
 6.3077502E+00  3.7736145E+01
 6.3192501E+00  3.7841057E+01
 6.3307505E+00  3.8037556E+01
 6.3422503E+00  3.8197193E+01
 6.3537502E+00  3.8316639E+01
 6.3652501E+00  3.8432178E+01
 6.3767505E+00  3.8527733E+01
 6.3882504E+00  3.8583450E+01
 6.3997502E+00  3.8542343E+01
 6.4112501E+00  3.8513660E+01
 6.4227505E+00  3.8561813E+01
 6.4342504E+00  3.8648403E+01
 6.4457502E+00  3.8774906E+01
 6.4572501E+00  3.8759327E+01
 6.4687505E+00  3.8832420E+01
 6.4802504E+00  3.8820824E+01
 6.4917502E+00  3.8932213E+01
 6.5032501E+00  3.8994953E+01
 6.5147505E+00  3.9144672E+01
 6.5262504E+00  3.9216980E+01
 6.5377502E+00  3.9355740E+01
 6.5492501E+00  3.9438351E+01
 6.5607505E+00  3.9676003E+01
 6.5722504E+00  3.9716484E+01
 6.5837502E+00  3.9889164E+01
 6.5952501E+00  3.9910660E+01
 6.6067505E+00  3.9940685E+01
 6.6182504E+00  3.9999485E+01
 6.6297503E+00  4.0040691E+01
 6.6412501E+00  4.0090282E+01
 6.6527505E+00  4.0154526E+01
 6.6642504E+00  4.0267647E+01
 6.6757503E+00  4.0368710E+01
 6.6872501E+00  4.0415981E+01
 6.6987505E+00  4.0384483E+01
 6.7102504E+00  4.0546051E+01
 6.7217503E+00  4.0583584E+01
 6.7332501E+00  4.0726933E+01
 6.7447505E+00  4.0791008E+01
 6.7562504E+00  4.0877716E+01
 6.7677503E+00  4.0964756E+01
 6.7792501E+00  4.1099827E+01
 6.7907505E+00  4.1235661E+01
 6.8022504E+00  4.1392994E+01
 6.8137503E+00  4.1438408E+01
 6.8252501E+00  4.1535889E+01
 6.8367505E+00  4.1581573E+01
 6.8482504E+00  4.1671547E+01
 6.8597503E+00  4.1683792E+01
 6.8712502E+00  4.1764404E+01
 6.8827505E+00  4.1788536E+01
 6.8942504E+00  4.1929871E+01
 6.9057503E+00  4.2012070E+01
 6.9172502E+00  4.2133625E+01
 6.9287505E+00  4.2195900E+01
 6.9402504E+00  4.2350739E+01
 6.9517503E+00  4.2441525E+01
 6.9632502E+00  4.2500866E+01
 6.9747505E+00  4.2490700E+01
 6.9862504E+00  4.2489891E+01
 6.9977503E+00  4.2518139E+01
 7.0092502E+00  4.2460186E+01
 7.0207505E+00  4.2512695E+01
 7.0322504E+00  4.2520432E+01
 7.0437503E+00  4.2594093E+01
 7.0552502E+00  4.2619247E+01
 7.0667505E+00  4.2668083E+01
 7.0782504E+00  4.2675720E+01
 7.0897503E+00  4.2773636E+01
 7.1012502E+00  4.2865658E+01
 7.1127505E+00  4.2945457E+01
 7.1242504E+00  4.2951603E+01
 7.1357503E+00  4.2970894E+01
 7.1472502E+00  4.3023491E+01
 7.1587505E+00  4.3170666E+01
 7.1702504E+00  4.3253311E+01
 7.1817503E+00  4.3412823E+01
 7.1932502E+00  4.3500671E+01
 7.2047505E+00  4.3617775E+01
 7.2162504E+00  4.3561062E+01
 7.2277503E+00  4.3516949E+01
 7.2392502E+00  4.3576584E+01
 7.2507505E+00  4.3737576E+01
 7.2622504E+00  4.3802208E+01
 7.2737503E+00  4.3868816E+01
 7.2852502E+00  4.3971905E+01
 7.2967505E+00  4.3999527E+01
 7.3082504E+00  4.3945637E+01
 7.3197503E+00  4.3849598E+01
 7.3312502E+00  4.3895611E+01
 7.3427505E+00  4.3909191E+01
 7.3542504E+00  4.3965302E+01
 7.3657503E+00  4.3961708E+01
 7.3772502E+00  4.3998161E+01
 7.3887506E+00  4.4087883E+01
 7.4002504E+00  4.4109409E+01
 7.4117503E+00  4.4146481E+01
 7.4232502E+00  4.4157436E+01
 7.4347506E+00  4.4226662E+01
 7.4462504E+00  4.4323902E+01
 7.4577503E+00  4.4332123E+01
 7.4692502E+00  4.4379677E+01
 7.4807506E+00  4.4344162E+01
 7.4922504E+00  4.4429363E+01
 7.5037503E+00  4.4429062E+01
 7.5152502E+00  4.4456257E+01
 7.5267506E+00  4.4359566E+01
 7.5382504E+00  4.4309216E+01
 7.5497503E+00  4.4281586E+01
 7.5612502E+00  4.4403896E+01
 7.5727506E+00  4.4557472E+01
 7.5842505E+00  4.4749084E+01
 7.5957503E+00  4.4840992E+01
 7.6072502E+00  4.4891365E+01
 7.6187506E+00  4.4807369E+01
 7.6302505E+00  4.4650635E+01
 7.6417503E+00  4.4526825E+01
 7.6532502E+00  4.4548534E+01
 7.6647506E+00  4.4567322E+01
 7.6762505E+00  4.4598053E+01
 7.6877503E+00  4.4521980E+01
 7.6992502E+00  4.4428581E+01
 7.7107506E+00  4.4375076E+01
 7.7222505E+00  4.4414021E+01
 7.7337503E+00  4.4475815E+01
 7.7452502E+00  4.4552086E+01
 7.7567506E+00  4.4518364E+01
 7.7682505E+00  4.4495296E+01
 7.7797503E+00  4.4462269E+01
 7.7912502E+00  4.4399658E+01
 7.8027506E+00  4.4398956E+01
 7.8142505E+00  4.4297268E+01
 7.8257504E+00  4.4354908E+01
 7.8372502E+00  4.4413322E+01
 7.8487506E+00  4.4431877E+01
 7.8602505E+00  4.4330608E+01
 7.8717504E+00  4.4141132E+01
 7.8832502E+00  4.4004471E+01
 7.8947506E+00  4.4014427E+01
 7.9062505E+00  4.4106579E+01
 7.9177504E+00  4.4236523E+01
 7.9292502E+00  4.4380531E+01
 7.9407506E+00  4.4438610E+01
 7.9522505E+00  4.4495708E+01
 7.9637504E+00  4.4271488E+01
 7.9752502E+00  4.4020218E+01
 7.9867506E+00  4.3755856E+01
 7.9982505E+00  4.3583122E+01
 8.0097504E+00  4.3473557E+01
 8.0212507E+00  4.3448368E+01
 8.0327501E+00  4.3381641E+01
 8.0442505E+00  4.3395714E+01
 8.0557508E+00  4.3318554E+01
 8.0672503E+00  4.3318737E+01
 8.0787506E+00  4.3215179E+01
 8.0902500E+00  4.3120480E+01
 8.1017504E+00  4.3079773E+01
 8.1132507E+00  4.2999588E+01
 8.1247501E+00  4.2929085E+01
 8.1362505E+00  4.2786377E+01
 8.1477509E+00  4.2685146E+01
 8.1592503E+00  4.2590172E+01
 8.1707506E+00  4.2484615E+01
 8.1822500E+00  4.2429409E+01
 8.1937504E+00  4.2294624E+01
 8.2052507E+00  4.2205654E+01
 8.2167501E+00  4.1995678E+01
 8.2282505E+00  4.1800320E+01
 8.2397509E+00  4.1629383E+01
 8.2512503E+00  4.1490055E+01
 8.2627506E+00  4.1408760E+01
 8.2742500E+00  4.1242397E+01
 8.2857504E+00  4.1111794E+01
 8.2972507E+00  4.0919674E+01
 8.3087502E+00  4.0743378E+01
 8.3202505E+00  4.0564728E+01
 8.3317509E+00  4.0441376E+01
 8.3432503E+00  4.0324265E+01
 8.3547506E+00  4.0247288E+01
 8.3662500E+00  4.0146759E+01
 8.3777504E+00  4.0038712E+01
 8.3892508E+00  3.9862267E+01
 8.4007502E+00  3.9717358E+01
 8.4122505E+00  3.9599522E+01
 8.4237509E+00  3.9458088E+01
 8.4352503E+00  3.9246799E+01
 8.4467506E+00  3.9050571E+01
 8.4582500E+00  3.8805759E+01
 8.4697504E+00  3.8645786E+01
 8.4812508E+00  3.8470989E+01
 8.4927502E+00  3.8269547E+01
 8.5042505E+00  3.8045403E+01
 8.5157509E+00  3.7849953E+01
 8.5272503E+00  3.7592972E+01
 8.5387506E+00  3.7428375E+01
 8.5502501E+00  3.7118958E+01
 8.5617504E+00  3.6921524E+01
 8.5732508E+00  3.6708244E+01
 8.5847502E+00  3.6573193E+01
 8.5962505E+00  3.6424431E+01
 8.6077509E+00  3.6216690E+01
 8.6192503E+00  3.6096596E+01
 8.6307507E+00  3.6011581E+01
 8.6422501E+00  3.5915924E+01
 8.6537504E+00  3.5783279E+01
 8.6652508E+00  3.5610054E+01
 8.6767502E+00  3.5375603E+01
 8.6882505E+00  3.5156311E+01
 8.6997509E+00  3.5024220E+01
 8.7112503E+00  3.4892223E+01
 8.7227507E+00  3.4753922E+01
 8.7342501E+00  3.4504906E+01
 8.7457504E+00  3.4338032E+01
 8.7572508E+00  3.4167637E+01
 8.7687502E+00  3.3990753E+01
 8.7802505E+00  3.3890045E+01
 8.7917500E+00  3.3683716E+01
 8.8032503E+00  3.3638279E+01
 8.8147507E+00  3.3539841E+01
 8.8262501E+00  3.3468632E+01
 8.8377504E+00  3.3263660E+01
 8.8492508E+00  3.3119099E+01
 8.8607502E+00  3.2946552E+01
 8.8722506E+00  3.2860031E+01
 8.8837500E+00  3.2631126E+01
 8.8952503E+00  3.2453720E+01
 8.9067507E+00  3.2282402E+01
 8.9182501E+00  3.2065498E+01
 8.9297504E+00  3.1897837E+01
 8.9412508E+00  3.1645679E+01
 8.9527502E+00  3.1480089E+01
 8.9642506E+00  3.1280207E+01
 8.9757500E+00  3.1071537E+01
 8.9872503E+00  3.0900284E+01
 8.9987507E+00  3.0733252E+01
 9.0102501E+00  3.0564095E+01
 9.0217505E+00  3.0374847E+01
 9.0332508E+00  3.0251957E+01
 9.0447502E+00  3.0160706E+01
 9.0562506E+00  3.0094061E+01
 9.0677500E+00  3.0005331E+01
 9.0792503E+00  2.9947681E+01
 9.0907507E+00  2.9899986E+01
 9.1022501E+00  2.9765997E+01
 9.1137505E+00  2.9649424E+01
 9.1252508E+00  2.9482794E+01
 9.1367502E+00  2.9380234E+01
 9.1482506E+00  2.9181049E+01
 9.1597500E+00  2.9078878E+01
 9.1712503E+00  2.8909590E+01
 9.1827507E+00  2.8785246E+01
 9.1942501E+00  2.8635029E+01
 9.2057505E+00  2.8514475E+01
 9.2172508E+00  2.8453644E+01
 9.2287502E+00  2.8350286E+01
 9.2402506E+00  2.8373144E+01
 9.2517500E+00  2.8293215E+01
 9.2632504E+00  2.8249071E+01
 9.2747507E+00  2.8086142E+01
 9.2862501E+00  2.7921824E+01
 9.2977505E+00  2.7789955E+01
 9.3092508E+00  2.7634140E+01
 9.3207502E+00  2.7599886E+01
 9.3322506E+00  2.7520252E+01
 9.3437500E+00  2.7372520E+01
 9.3552504E+00  2.7185640E+01
 9.3667507E+00  2.7086176E+01
 9.3782501E+00  2.7029497E+01
 9.3897505E+00  2.6962576E+01
 9.4012508E+00  2.6821671E+01
 9.4127502E+00  2.6761724E+01
 9.4242506E+00  2.6692554E+01
 9.4357500E+00  2.6690990E+01
 9.4472504E+00  2.6661070E+01
 9.4587507E+00  2.6623449E+01
 9.4702501E+00  2.6549267E+01
 9.4817505E+00  2.6502710E+01
 9.4932508E+00  2.6477215E+01
 9.5047503E+00  2.6463665E+01
 9.5162506E+00  2.6403130E+01
 9.5277500E+00  2.6332626E+01
 9.5392504E+00  2.6276857E+01
 9.5507507E+00  2.6212963E+01
 9.5622501E+00  2.6157669E+01
 9.5737505E+00  2.6090431E+01
 9.5852509E+00  2.5953508E+01
 9.5967503E+00  2.5918961E+01
 9.6082506E+00  2.5823603E+01
 9.6197500E+00  2.5862953E+01
 9.6312504E+00  2.5772120E+01
 9.6427507E+00  2.5652794E+01
 9.6542501E+00  2.5553949E+01
 9.6657505E+00  2.5480856E+01
 9.6772509E+00  2.5397602E+01
 9.6887503E+00  2.5332876E+01
 9.7002506E+00  2.5306076E+01
 9.7117500E+00  2.5357630E+01
 9.7232504E+00  2.5326370E+01
 9.7347507E+00  2.5253410E+01
 9.7462502E+00  2.5198420E+01
 9.7577505E+00  2.5105316E+01
 9.7692509E+00  2.5102596E+01
 9.7807503E+00  2.5067776E+01
 9.7922506E+00  2.5132021E+01
 9.8037500E+00  2.5067434E+01
 9.8152504E+00  2.5058397E+01
 9.8267508E+00  2.4985538E+01
 9.8382502E+00  2.4977018E+01
 9.8497505E+00  2.4858559E+01
 9.8612509E+00  2.4802231E+01
 9.8727503E+00  2.4736843E+01
 9.8842506E+00  2.4691658E+01
 9.8957500E+00  2.4623085E+01
 9.9072504E+00  2.4566303E+01
 9.9187508E+00  2.4560078E+01
 9.9302502E+00  2.4536598E+01
 9.9417505E+00  2.4497335E+01
 9.9532509E+00  2.4469421E+01
 9.9647503E+00  2.4458738E+01
 9.9762506E+00  2.4492886E+01
 9.9877501E+00  2.4487326E+01
 9.9992504E+00  2.4429564E+01
 1.0010751E+01  2.4327309E+01
 1.0022250E+01  2.4231819E+01
 1.0033751E+01  2.4189348E+01
 1.0045251E+01  2.4132322E+01
 1.0056750E+01  2.4061150E+01
 1.0068251E+01  2.4044786E+01
 1.0079750E+01  2.3995150E+01
 1.0091250E+01  2.3956656E+01
 1.0102751E+01  2.3899361E+01
 1.0114250E+01  2.3880011E+01
 1.0125751E+01  2.3865067E+01
 1.0137251E+01  2.3766108E+01
 1.0148750E+01  2.3724468E+01
 1.0160251E+01  2.3709488E+01
 1.0171750E+01  2.3738792E+01
 1.0183250E+01  2.3713634E+01
 1.0194751E+01  2.3693016E+01
 1.0206250E+01  2.3618635E+01
 1.0217751E+01  2.3646854E+01
 1.0229251E+01  2.3665976E+01
 1.0240750E+01  2.3695688E+01
 1.0252251E+01  2.3714636E+01
 1.0263750E+01  2.3740847E+01
 1.0275250E+01  2.3775190E+01
 1.0286751E+01  2.3795460E+01
 1.0298250E+01  2.3800262E+01
 1.0309751E+01  2.3880571E+01
 1.0321251E+01  2.3858644E+01
 1.0332750E+01  2.3821251E+01
 1.0344251E+01  2.3705133E+01
 1.0355750E+01  2.3612854E+01
 1.0367250E+01  2.3454536E+01
 1.0378751E+01  2.3376709E+01
 1.0390250E+01  2.3356352E+01
 1.0401751E+01  2.3394640E+01
 1.0413251E+01  2.3384659E+01
 1.0424750E+01  2.3341284E+01
 1.0436251E+01  2.3298519E+01
 1.0447750E+01  2.3339252E+01
 1.0459250E+01  2.3453915E+01
 1.0470751E+01  2.3475960E+01
 1.0482250E+01  2.3456087E+01
 1.0493751E+01  2.3325495E+01
 1.0505251E+01  2.3278959E+01
 1.0516750E+01  2.3198883E+01
 1.0528251E+01  2.3099642E+01
 1.0539750E+01  2.3074823E+01
 1.0551250E+01  2.3031649E+01
 1.0562751E+01  2.3119387E+01
 1.0574250E+01  2.3081337E+01
 1.0585751E+01  2.3081083E+01
 1.0597251E+01  2.2992771E+01
 1.0608750E+01  2.3014284E+01
 1.0620251E+01  2.2983027E+01
 1.0631750E+01  2.3011391E+01
 1.0643250E+01  2.2963226E+01
 1.0654751E+01  2.2992756E+01
 1.0666250E+01  2.2957533E+01
 1.0677751E+01  2.2928988E+01
 1.0689251E+01  2.2895018E+01
 1.0700750E+01  2.2865553E+01
 1.0712251E+01  2.2885406E+01
 1.0723750E+01  2.2904526E+01
 1.0735250E+01  2.2879412E+01
 1.0746751E+01  2.2879261E+01
 1.0758250E+01  2.2835039E+01
 1.0769751E+01  2.2851856E+01
 1.0781251E+01  2.2831196E+01
 1.0792750E+01  2.2832048E+01
 1.0804251E+01  2.2796883E+01
 1.0815750E+01  2.2808916E+01
 1.0827250E+01  2.2854465E+01
 1.0838751E+01  2.2858980E+01
 1.0850250E+01  2.2811968E+01
 1.0861751E+01  2.2685637E+01
 1.0873251E+01  2.2671936E+01
 1.0884750E+01  2.2627092E+01
 1.0896251E+01  2.2623947E+01
 1.0907750E+01  2.2626421E+01
 1.0919250E+01  2.2637947E+01
 1.0930751E+01  2.2669014E+01
 1.0942250E+01  2.2665127E+01
 1.0953751E+01  2.2646307E+01
 1.0965251E+01  2.2572882E+01
 1.0976750E+01  2.2505016E+01
 1.0988251E+01  2.2462032E+01
 1.0999750E+01  2.2475494E+01
 1.1011250E+01  2.2476910E+01
 1.1022751E+01  2.2462406E+01
 1.1034250E+01  2.2459414E+01
 1.1045751E+01  2.2413261E+01
 1.1057251E+01  2.2435566E+01
 1.1068750E+01  2.2431391E+01
 1.1080251E+01  2.2551081E+01
 1.1091750E+01  2.2559406E+01
 1.1103251E+01  2.2551283E+01
 1.1114751E+01  2.2471876E+01
 1.1126250E+01  2.2441721E+01
 1.1137751E+01  2.2405943E+01
 1.1149251E+01  2.2347977E+01
 1.1160750E+01  2.2261957E+01
 1.1172251E+01  2.2224066E+01
 1.1183750E+01  2.2185276E+01
 1.1195251E+01  2.2172058E+01
 1.1206751E+01  2.2175894E+01
 1.1218250E+01  2.2181355E+01
 1.1229751E+01  2.2227329E+01
 1.1241251E+01  2.2195253E+01
 1.1252750E+01  2.2208839E+01
 1.1264251E+01  2.2192051E+01
 1.1275750E+01  2.2225025E+01
 1.1287251E+01  2.2253761E+01
 1.1298751E+01  2.2266552E+01
 1.1310250E+01  2.2291626E+01
 1.1321751E+01  2.2307232E+01
 1.1333251E+01  2.2330200E+01
 1.1344750E+01  2.2301367E+01
 1.1356251E+01  2.2305780E+01
 1.1367750E+01  2.2352274E+01
 1.1379251E+01  2.2408468E+01
 1.1390751E+01  2.2404030E+01
 1.1402250E+01  2.2439156E+01
 1.1413751E+01  2.2450296E+01
 1.1425251E+01  2.2482811E+01
 1.1436750E+01  2.2494808E+01
 1.1448251E+01  2.2533495E+01
 1.1459750E+01  2.2541662E+01
 1.1471251E+01  2.2526251E+01
 1.1482751E+01  2.2434299E+01
 1.1494250E+01  2.2363750E+01
 1.1505751E+01  2.2294947E+01
 1.1517251E+01  2.2330057E+01
 1.1528750E+01  2.2478001E+01
 1.1540251E+01  2.2662252E+01
 1.1551750E+01  2.2840151E+01
 1.1563251E+01  2.2990501E+01
 1.1574751E+01  2.3078487E+01
 1.1586250E+01  2.3107405E+01
 1.1597751E+01  2.2964005E+01
 1.1609251E+01  2.2822456E+01
 1.1620750E+01  2.2627447E+01
 1.1632251E+01  2.2502808E+01
 1.1643750E+01  2.2338717E+01
 1.1655251E+01  2.2293329E+01
 1.1666751E+01  2.2241144E+01
 1.1678250E+01  2.2258482E+01
 1.1689751E+01  2.2229591E+01
 1.1701251E+01  2.2198189E+01
 1.1712750E+01  2.2156002E+01
 1.1724251E+01  2.2173443E+01
 1.1735750E+01  2.2187216E+01
 1.1747251E+01  2.2184126E+01
 1.1758751E+01  2.2195282E+01
 1.1770250E+01  2.2182159E+01
 1.1781751E+01  2.2236616E+01
 1.1793251E+01  2.2249947E+01
 1.1804750E+01  2.2331581E+01
 1.1816251E+01  2.2360451E+01
 1.1827750E+01  2.2342003E+01
 1.1839251E+01  2.2330509E+01
 1.1850751E+01  2.2303089E+01
 1.1862250E+01  2.2372129E+01
 1.1873751E+01  2.2355507E+01
 1.1885251E+01  2.2407497E+01
 1.1896750E+01  2.2434820E+01
 1.1908251E+01  2.2476200E+01
 1.1919750E+01  2.2473885E+01
 1.1931251E+01  2.2434971E+01
 1.1942751E+01  2.2424093E+01
 1.1954250E+01  2.2403782E+01
 1.1965751E+01  2.2355507E+01
 1.1977251E+01  2.2344927E+01
 1.1988750E+01  2.2326323E+01
 1.2000251E+01  2.2358385E+01
 1.2011750E+01  2.2353611E+01
 1.2023251E+01  2.2333927E+01
 1.2034751E+01  2.2334135E+01
 1.2046250E+01  2.2327919E+01
 1.2057751E+01  2.2338768E+01
 1.2069251E+01  2.2337139E+01
 1.2080750E+01  2.2361012E+01
 1.2092251E+01  2.2322754E+01
 1.2103750E+01  2.2394976E+01
 1.2115251E+01  2.2397503E+01
 1.2126751E+01  2.2467628E+01
 1.2138250E+01  2.2434160E+01
 1.2149751E+01  2.2373850E+01
 1.2161251E+01  2.2365183E+01
 1.2172750E+01  2.2276577E+01
 1.2184251E+01  2.2288382E+01
 1.2195750E+01  2.2264086E+01
 1.2207251E+01  2.2241177E+01
 1.2218751E+01  2.2229822E+01
 1.2230250E+01  2.2195570E+01
 1.2241751E+01  2.2189404E+01
 1.2253251E+01  2.2155682E+01
 1.2264750E+01  2.2184496E+01
 1.2276251E+01  2.2208324E+01
 1.2287750E+01  2.2290104E+01
 1.2299251E+01  2.2293139E+01
 1.2310751E+01  2.2357677E+01
 1.2322250E+01  2.2322905E+01
 1.2333751E+01  2.2337908E+01
 1.2345250E+01  2.2278206E+01
 1.2356750E+01  2.2282078E+01
 1.2368251E+01  2.2277739E+01
 1.2379750E+01  2.2326599E+01
 1.2391251E+01  2.2355047E+01
 1.2402751E+01  2.2370632E+01
 1.2414250E+01  2.2395878E+01
 1.2425751E+01  2.2379124E+01
 1.2437250E+01  2.2403646E+01
 1.2448750E+01  2.2386404E+01
 1.2460251E+01  2.2386633E+01
 1.2471750E+01  2.2362217E+01
 1.2483251E+01  2.2385614E+01
 1.2494751E+01  2.2395185E+01
 1.2506250E+01  2.2357874E+01
 1.2517751E+01  2.2359306E+01
 1.2529250E+01  2.2376919E+01
 1.2540751E+01  2.2434092E+01
 1.2552251E+01  2.2459526E+01
 1.2563750E+01  2.2492788E+01
 1.2575251E+01  2.2546295E+01
 1.2586751E+01  2.2567827E+01
 1.2598250E+01  2.2618149E+01
 1.2609751E+01  2.2615719E+01
 1.2621250E+01  2.2707752E+01
 1.2632751E+01  2.2745911E+01
 1.2644251E+01  2.2750570E+01
 1.2655750E+01  2.2704973E+01
 1.2667251E+01  2.2674698E+01
 1.2678751E+01  2.2698101E+01
 1.2690250E+01  2.2687700E+01
 1.2701751E+01  2.2730679E+01
 1.2713250E+01  2.2820122E+01
 1.2724751E+01  2.2840681E+01
 1.2736251E+01  2.2843122E+01
 1.2747750E+01  2.2834517E+01
 1.2759251E+01  2.2873030E+01
 1.2770751E+01  2.2864944E+01
 1.2782250E+01  2.2924074E+01
 1.2793751E+01  2.2969597E+01
 1.2805250E+01  2.3063831E+01
 1.2816751E+01  2.3079626E+01
 1.2828251E+01  2.3097708E+01
 1.2839750E+01  2.3129093E+01
 1.2851251E+01  2.3134165E+01
 1.2862751E+01  2.3171383E+01
 1.2874250E+01  2.3215027E+01
 1.2885751E+01  2.3254955E+01
 1.2897250E+01  2.3330647E+01
 1.2908751E+01  2.3447521E+01
 1.2920251E+01  2.3652073E+01
 1.2931750E+01  2.3784851E+01
 1.2943251E+01  2.3805683E+01
 1.2954751E+01  2.3751432E+01
 1.2966250E+01  2.3740278E+01
 1.2977751E+01  2.3776920E+01
 1.2989250E+01  2.3811098E+01
 1.3000751E+01  2.3824394E+01
 1.3012251E+01  2.3854771E+01
 1.3023750E+01  2.3936228E+01
 1.3035251E+01  2.4001040E+01
 1.3046751E+01  2.4021118E+01
 1.3058250E+01  2.4082355E+01
 1.3069751E+01  2.4193352E+01
 1.3081250E+01  2.4322508E+01
 1.3092751E+01  2.4475224E+01
 1.3104251E+01  2.4632786E+01
 1.3115750E+01  2.4798901E+01
 1.3127251E+01  2.4883978E+01
 1.3138751E+01  2.4975967E+01
 1.3150250E+01  2.5066376E+01
 1.3161751E+01  2.5224585E+01
 1.3173250E+01  2.5361374E+01
 1.3184751E+01  2.5513470E+01
 1.3196251E+01  2.5575518E+01
 1.3207750E+01  2.5680779E+01
 1.3219251E+01  2.5761354E+01
 1.3230751E+01  2.5929146E+01
 1.3242250E+01  2.6094727E+01
 1.3253751E+01  2.6252848E+01
 1.3265250E+01  2.6416075E+01
 1.3276751E+01  2.6542330E+01
 1.3288251E+01  2.6674274E+01
 1.3299750E+01  2.6781824E+01
 1.3311251E+01  2.6895725E+01
 1.3322751E+01  2.7069057E+01
 1.3334250E+01  2.7286020E+01
 1.3345751E+01  2.7448414E+01
 1.3357250E+01  2.7663229E+01
 1.3368751E+01  2.7796354E+01
 1.3380251E+01  2.8018906E+01
 1.3391750E+01  2.8140566E+01
 1.3403251E+01  2.8272543E+01
 1.3414751E+01  2.8371662E+01
 1.3426250E+01  2.8437679E+01
 1.3437751E+01  2.8548052E+01
 1.3449250E+01  2.8621689E+01
 1.3460751E+01  2.8771929E+01
 1.3472251E+01  2.8833921E+01
 1.3483750E+01  2.8889925E+01
 1.3495251E+01  2.8909056E+01
 1.3506751E+01  2.8980646E+01
 1.3518250E+01  2.9145882E+01
 1.3529751E+01  2.9244558E+01
 1.3541250E+01  2.9382778E+01
 1.3552751E+01  2.9458603E+01
 1.3564251E+01  2.9574532E+01
 1.3575750E+01  2.9656767E+01
 1.3587251E+01  2.9710636E+01
 1.3598751E+01  2.9711329E+01
 1.3610250E+01  2.9692692E+01
 1.3621751E+01  2.9684067E+01
 1.3633250E+01  2.9676380E+01
 1.3644751E+01  2.9621820E+01
 1.3656251E+01  2.9659702E+01
 1.3667750E+01  2.9702509E+01
 1.3679251E+01  2.9703068E+01
 1.3690751E+01  2.9605331E+01
 1.3702250E+01  2.9468630E+01
 1.3713751E+01  2.9391521E+01
 1.3725250E+01  2.9293112E+01
 1.3736751E+01  2.9305288E+01
 1.3748251E+01  2.9242304E+01
 1.3759750E+01  2.9187235E+01
 1.3771251E+01  2.9111221E+01
 1.3782751E+01  2.9084517E+01
 1.3794250E+01  2.9013155E+01
 1.3805751E+01  2.8910639E+01
 1.3817250E+01  2.8818172E+01
 1.3828751E+01  2.8804514E+01
 1.3840251E+01  2.8785885E+01
 1.3851750E+01  2.8794100E+01
 1.3863251E+01  2.8703459E+01
 1.3874751E+01  2.8663242E+01
 1.3886250E+01  2.8602224E+01
 1.3897751E+01  2.8660559E+01
 1.3909250E+01  2.8657974E+01
 1.3920751E+01  2.8642059E+01
 1.3932251E+01  2.8631031E+01
 1.3943750E+01  2.8588257E+01
 1.3955251E+01  2.8560381E+01
 1.3966751E+01  2.8463219E+01
 1.3978251E+01  2.8331738E+01
 1.3989751E+01  2.8172235E+01
 1.4001250E+01  2.7949394E+01
 1.4012751E+01  2.7759073E+01
 1.4024251E+01  2.7571154E+01
 1.4035750E+01  2.7429667E+01
 1.4047251E+01  2.7314259E+01
 1.4058751E+01  2.7228125E+01
 1.4070251E+01  2.7176142E+01
 1.4081751E+01  2.7133007E+01
 1.4093250E+01  2.7089308E+01
 1.4104751E+01  2.7015230E+01
 1.4116251E+01  2.6953951E+01
 1.4127750E+01  2.6885702E+01
 1.4139251E+01  2.6824541E+01
 1.4150751E+01  2.6780663E+01
 1.4162251E+01  2.6765142E+01
 1.4173751E+01  2.6703707E+01
 1.4185250E+01  2.6640053E+01
 1.4196751E+01  2.6538092E+01
 1.4208251E+01  2.6452148E+01
 1.4219750E+01  2.6408115E+01
 1.4231251E+01  2.6343697E+01
 1.4242751E+01  2.6312916E+01
 1.4254251E+01  2.6209185E+01
 1.4265751E+01  2.6171545E+01
 1.4277250E+01  2.6132204E+01
 1.4288751E+01  2.6128962E+01
 1.4300251E+01  2.6063471E+01
 1.4311750E+01  2.6020203E+01
 1.4323251E+01  2.5972860E+01
 1.4334751E+01  2.5946573E+01
 1.4346251E+01  2.5942600E+01
 1.4357751E+01  2.5934851E+01
 1.4369250E+01  2.5940451E+01
 1.4380751E+01  2.5911940E+01
 1.4392251E+01  2.5864002E+01
 1.4403750E+01  2.5833570E+01
 1.4415251E+01  2.5822426E+01
 1.4426751E+01  2.5800943E+01
 1.4438251E+01  2.5775045E+01
 1.4449751E+01  2.5701946E+01
 1.4461250E+01  2.5627430E+01
 1.4472751E+01  2.5548609E+01
 1.4484251E+01  2.5522169E+01
 1.4495750E+01  2.5519136E+01
 1.4507251E+01  2.5496820E+01
 1.4518751E+01  2.5456078E+01
 1.4530251E+01  2.5435644E+01
 1.4541751E+01  2.5395004E+01
 1.4553250E+01  2.5383732E+01
 1.4564751E+01  2.5351782E+01
 1.4576251E+01  2.5313364E+01
 1.4587750E+01  2.5263752E+01
 1.4599251E+01  2.5188597E+01
 1.4610751E+01  2.5212425E+01
 1.4622251E+01  2.5175938E+01
 1.4633751E+01  2.5187052E+01
 1.4645250E+01  2.5174412E+01
 1.4656751E+01  2.5189053E+01
 1.4668251E+01  2.5151049E+01
 1.4679750E+01  2.5119814E+01
 1.4691251E+01  2.5100792E+01
 1.4702751E+01  2.5156984E+01
 1.4714251E+01  2.5156231E+01
 1.4725751E+01  2.5192251E+01
 1.4737250E+01  2.5118912E+01
 1.4748751E+01  2.5055891E+01
 1.4760251E+01  2.4958717E+01
 1.4771750E+01  2.4916134E+01
 1.4783251E+01  2.4882307E+01
 1.4794751E+01  2.4847673E+01
 1.4806251E+01  2.4809387E+01
 1.4817751E+01  2.4791580E+01
 1.4829250E+01  2.4797623E+01
 1.4840751E+01  2.4833981E+01
 1.4852251E+01  2.4880785E+01
 1.4863750E+01  2.4869978E+01
 1.4875251E+01  2.4893114E+01
 1.4886751E+01  2.4866234E+01
 1.4898251E+01  2.4909533E+01
 1.4909751E+01  2.4903173E+01
 1.4921250E+01  2.4934118E+01
 1.4932751E+01  2.4922237E+01
 1.4944251E+01  2.4843410E+01
 1.4955750E+01  2.4768715E+01
 1.4967251E+01  2.4668177E+01
 1.4978751E+01  2.4634975E+01
 1.4990251E+01  2.4571348E+01
 1.5001751E+01  2.4571924E+01
 1.5013250E+01  2.4635920E+01
 1.5024751E+01  2.4731527E+01
 1.5036251E+01  2.4738478E+01
 1.5047750E+01  2.4696764E+01
 1.5059251E+01  2.4654203E+01
 1.5070751E+01  2.4604494E+01
 1.5082251E+01  2.4537575E+01
 1.5093751E+01  2.4519939E+01
 1.5105250E+01  2.4545885E+01
 1.5116751E+01  2.4543829E+01
 1.5128251E+01  2.4537189E+01
 1.5139750E+01  2.4555513E+01
 1.5151251E+01  2.4659845E+01
 1.5162751E+01  2.4698730E+01
 1.5174251E+01  2.4755394E+01
 1.5185751E+01  2.4741877E+01
 1.5197250E+01  2.4702616E+01
 1.5208751E+01  2.4691364E+01
 1.5220251E+01  2.4654829E+01
 1.5231750E+01  2.4638615E+01
 1.5243251E+01  2.4532534E+01
 1.5254751E+01  2.4502344E+01
 1.5266251E+01  2.4377789E+01
 1.5277751E+01  2.4354921E+01
 1.5289250E+01  2.4301968E+01
 1.5300751E+01  2.4322407E+01
 1.5312251E+01  2.4324913E+01
 1.5323750E+01  2.4335331E+01
 1.5335251E+01  2.4320450E+01
 1.5346751E+01  2.4269911E+01
 1.5358251E+01  2.4241240E+01
 1.5369751E+01  2.4259848E+01
 1.5381250E+01  2.4242332E+01
 1.5392751E+01  2.4219687E+01
 1.5404251E+01  2.4264997E+01
 1.5415751E+01  2.4281244E+01
 1.5427251E+01  2.4255217E+01
 1.5438751E+01  2.4233187E+01
 1.5450251E+01  2.4266773E+01
 1.5461751E+01  2.4366886E+01
 1.5473250E+01  2.4395119E+01
 1.5484751E+01  2.4441545E+01
 1.5496251E+01  2.4422279E+01
 1.5507751E+01  2.4437338E+01
 1.5519251E+01  2.4408804E+01
 1.5530751E+01  2.4375830E+01
 1.5542251E+01  2.4359291E+01
 1.5553751E+01  2.4367638E+01
 1.5565250E+01  2.4415615E+01
 1.5576751E+01  2.4422722E+01
 1.5588251E+01  2.4472311E+01
 1.5599751E+01  2.4406219E+01
 1.5611251E+01  2.4382479E+01
 1.5622751E+01  2.4313669E+01
 1.5634251E+01  2.4305723E+01
 1.5645751E+01  2.4298273E+01
 1.5657250E+01  2.4306540E+01
 1.5668751E+01  2.4350208E+01
 1.5680251E+01  2.4355516E+01
 1.5691751E+01  2.4411253E+01
 1.5703251E+01  2.4465155E+01
 1.5714751E+01  2.4500319E+01
 1.5726251E+01  2.4485384E+01
 1.5737751E+01  2.4427958E+01
 1.5749250E+01  2.4424391E+01
 1.5760751E+01  2.4401869E+01
 1.5772251E+01  2.4438784E+01
 1.5783751E+01  2.4448473E+01
 1.5795251E+01  2.4489794E+01
 1.5806751E+01  2.4486128E+01
 1.5818251E+01  2.4451637E+01
 1.5829751E+01  2.4406971E+01
 1.5841250E+01  2.4394991E+01
 1.5852751E+01  2.4412605E+01
 1.5864251E+01  2.4416636E+01
 1.5875751E+01  2.4444036E+01
 1.5887251E+01  2.4496845E+01
 1.5898750E+01  2.4497782E+01
 1.5910251E+01  2.4527950E+01
 1.5921751E+01  2.4492756E+01
 1.5933250E+01  2.4482002E+01
 1.5944751E+01  2.4384192E+01
 1.5956251E+01  2.4391357E+01
 1.5967751E+01  2.4413380E+01
 1.5979251E+01  2.4456884E+01
 1.5990750E+01  2.4509182E+01
 1.6002251E+01  2.4555048E+01
 1.6013750E+01  2.4608765E+01
 1.6025251E+01  2.4612387E+01
 1.6036751E+01  2.4611803E+01
 1.6048250E+01  2.4605476E+01
 1.6059752E+01  2.4632549E+01
 1.6071251E+01  2.4598421E+01
 1.6082750E+01  2.4596058E+01
 1.6094252E+01  2.4532829E+01
 1.6105751E+01  2.4607691E+01
 1.6117250E+01  2.4641123E+01
 1.6128750E+01  2.4686214E+01
 1.6140251E+01  2.4677820E+01
 1.6151751E+01  2.4696831E+01
 1.6163250E+01  2.4790125E+01
 1.6174751E+01  2.4795135E+01
 1.6186251E+01  2.4846100E+01
 1.6197750E+01  2.4764387E+01
 1.6209251E+01  2.4862480E+01
 1.6220751E+01  2.4793995E+01
 1.6232250E+01  2.4920218E+01
 1.6243752E+01  2.4962679E+01
 1.6255251E+01  2.5087362E+01
 1.6266750E+01  2.5261292E+01
 1.6278252E+01  2.5167137E+01
 1.6289751E+01  2.5262192E+01
 1.6301250E+01  2.4964581E+01
 1.6312750E+01  2.5068691E+01
 1.6324251E+01  2.4829546E+01
 1.6335751E+01  2.4837769E+01
 1.6347250E+01  2.4655022E+01
 1.6358751E+01  2.4581263E+01
 1.6370251E+01  2.4484726E+01
 1.6381750E+01  2.4463558E+01
 1.6393251E+01  2.4545443E+01
 1.6404751E+01  2.4590956E+01
 1.6416250E+01  2.4631350E+01
 1.6427752E+01  2.4741081E+01
 1.6439251E+01  2.4888329E+01
 1.6450750E+01  2.5102665E+01
 1.6462252E+01  2.5306005E+01
 1.6473751E+01  2.5386442E+01
 1.6485250E+01  2.5390322E+01
 1.6496750E+01  2.5118973E+01
 1.6508251E+01  2.4896288E+01
 1.6519751E+01  2.4606575E+01
 1.6531250E+01  2.4483364E+01
 1.6542751E+01  2.4435595E+01
 1.6554251E+01  2.4414371E+01
 1.6565750E+01  2.4397717E+01
 1.6577251E+01  2.4313326E+01
 1.6588751E+01  2.4340162E+01
 1.6600250E+01  2.4375978E+01
 1.6611752E+01  2.4457796E+01
 1.6623251E+01  2.4427322E+01
 1.6634750E+01  2.4402967E+01
 1.6646252E+01  2.4358593E+01
 1.6657751E+01  2.4312599E+01
 1.6669250E+01  2.4308071E+01
 1.6680750E+01  2.4330202E+01
 1.6692251E+01  2.4337420E+01
 1.6703751E+01  2.4353737E+01
 1.6715250E+01  2.4363045E+01
 1.6726751E+01  2.4310150E+01
 1.6738251E+01  2.4229895E+01
 1.6749750E+01  2.4206274E+01
 1.6761251E+01  2.4178316E+01
 1.6772751E+01  2.4202374E+01
 1.6784250E+01  2.4224895E+01
 1.6795752E+01  2.4265579E+01
 1.6807251E+01  2.4296955E+01
 1.6818750E+01  2.4318050E+01
 1.6830252E+01  2.4375393E+01
 1.6841751E+01  2.4385817E+01
 1.6853251E+01  2.4341551E+01
 1.6864750E+01  2.4251402E+01
 1.6876251E+01  2.4160288E+01
 1.6887751E+01  2.4166378E+01
 1.6899250E+01  2.4165600E+01
 1.6910751E+01  2.4148756E+01
 1.6922251E+01  2.4131744E+01
 1.6933750E+01  2.4101288E+01
 1.6945251E+01  2.4095428E+01
 1.6956751E+01  2.4090254E+01
 1.6968250E+01  2.4141685E+01
 1.6979752E+01  2.4197548E+01
 1.6991251E+01  2.4231239E+01
 1.7002750E+01  2.4200674E+01
 1.7014252E+01  2.4156603E+01
 1.7025751E+01  2.4089869E+01
 1.7037251E+01  2.4036844E+01
 1.7048750E+01  2.3995485E+01
 1.7060251E+01  2.3949314E+01
 1.7071751E+01  2.3977774E+01
 1.7083250E+01  2.3974894E+01
 1.7094751E+01  2.4016182E+01
 1.7106251E+01  2.3976875E+01
 1.7117750E+01  2.3987345E+01
 1.7129251E+01  2.3991301E+01
 1.7140751E+01  2.4005901E+01
 1.7152250E+01  2.3979307E+01
 1.7163752E+01  2.3952389E+01
 1.7175251E+01  2.3970505E+01
 1.7186750E+01  2.4034214E+01
 1.7198252E+01  2.4069031E+01
 1.7209751E+01  2.4116625E+01
 1.7221251E+01  2.4087584E+01
 1.7232750E+01  2.4126499E+01
 1.7244251E+01  2.4058315E+01
 1.7255751E+01  2.3992197E+01
 1.7267250E+01  2.3872736E+01
 1.7278751E+01  2.3808800E+01
 1.7290251E+01  2.3752092E+01
 1.7301750E+01  2.3729126E+01
 1.7313251E+01  2.3717907E+01
 1.7324751E+01  2.3780933E+01
 1.7336250E+01  2.3800348E+01
 1.7347752E+01  2.3807337E+01
 1.7359251E+01  2.3813503E+01
 1.7370750E+01  2.3826180E+01
 1.7382252E+01  2.3873150E+01
 1.7393751E+01  2.3858406E+01
 1.7405251E+01  2.3896229E+01
 1.7416750E+01  2.3851643E+01
 1.7428251E+01  2.3863710E+01
 1.7439751E+01  2.3816393E+01
 1.7451250E+01  2.3767262E+01
 1.7462751E+01  2.3693714E+01
 1.7474251E+01  2.3665665E+01
 1.7485750E+01  2.3694065E+01
 1.7497252E+01  2.3682644E+01
 1.7508751E+01  2.3697519E+01
 1.7520250E+01  2.3670298E+01
 1.7531752E+01  2.3680914E+01
 1.7543251E+01  2.3674454E+01
 1.7554750E+01  2.3663334E+01
 1.7566252E+01  2.3616951E+01
 1.7577751E+01  2.3617100E+01
 1.7589251E+01  2.3566137E+01
 1.7600750E+01  2.3623314E+01
 1.7612251E+01  2.3658419E+01
 1.7623751E+01  2.3741438E+01
 1.7635250E+01  2.3717312E+01
 1.7646751E+01  2.3667793E+01
 1.7658251E+01  2.3604254E+01
 1.7669750E+01  2.3620041E+01
 1.7681252E+01  2.3642616E+01
 1.7692751E+01  2.3673843E+01
 1.7704250E+01  2.3675974E+01
 1.7715752E+01  2.3671370E+01
 1.7727251E+01  2.3621326E+01
 1.7738750E+01  2.3605087E+01
 1.7750252E+01  2.3565849E+01
 1.7761751E+01  2.3539333E+01
 1.7773251E+01  2.3522280E+01
 1.7784750E+01  2.3506502E+01
 1.7796251E+01  2.3565372E+01
 1.7807751E+01  2.3586016E+01
 1.7819250E+01  2.3574783E+01
 1.7830751E+01  2.3500519E+01
 1.7842251E+01  2.3466658E+01
 1.7853750E+01  2.3462734E+01
 1.7865252E+01  2.3444006E+01
 1.7876751E+01  2.3430937E+01
 1.7888250E+01  2.3431541E+01
 1.7899752E+01  2.3459383E+01
 1.7911251E+01  2.3486551E+01
 1.7922750E+01  2.3502277E+01
 1.7934252E+01  2.3470705E+01
 1.7945751E+01  2.3458755E+01
 1.7957251E+01  2.3478096E+01
 1.7968750E+01  2.3454414E+01
 1.7980251E+01  2.3441391E+01
 1.7991751E+01  2.3439650E+01
 1.8003250E+01  2.3465969E+01
 1.8014751E+01  2.3451683E+01
 1.8026251E+01  2.3476143E+01
 1.8037750E+01  2.3532408E+01
 1.8049252E+01  2.3578823E+01
 1.8060751E+01  2.3634689E+01
 1.8072250E+01  2.3629005E+01
 1.8083752E+01  2.3687990E+01
 1.8095251E+01  2.3689093E+01
 1.8106750E+01  2.3695072E+01
 1.8118252E+01  2.3651548E+01
 1.8129751E+01  2.3578495E+01
 1.8141251E+01  2.3456875E+01
 1.8152750E+01  2.3378931E+01
 1.8164251E+01  2.3349403E+01
 1.8175751E+01  2.3340330E+01
 1.8187250E+01  2.3297922E+01
 1.8198751E+01  2.3297386E+01
 1.8210251E+01  2.3325453E+01
 1.8221750E+01  2.3324707E+01
 1.8233252E+01  2.3332493E+01
 1.8244751E+01  2.3346239E+01
 1.8256250E+01  2.3404251E+01
 1.8267752E+01  2.3435387E+01
 1.8279251E+01  2.3469358E+01
 1.8290751E+01  2.3426847E+01
 1.8302252E+01  2.3364273E+01
 1.8313751E+01  2.3341368E+01
 1.8325251E+01  2.3339628E+01
 1.8336750E+01  2.3383202E+01
 1.8348251E+01  2.3373068E+01
 1.8359751E+01  2.3427303E+01
 1.8371250E+01  2.3400038E+01
 1.8382751E+01  2.3435665E+01
 1.8394251E+01  2.3455900E+01
 1.8405750E+01  2.3480705E+01
 1.8417252E+01  2.3442654E+01
 1.8428751E+01  2.3375774E+01
 1.8440250E+01  2.3339701E+01
 1.8451752E+01  2.3323536E+01
 1.8463251E+01  2.3304958E+01
 1.8474751E+01  2.3281668E+01
 1.8486252E+01  2.3222715E+01
 1.8497751E+01  2.3232357E+01
 1.8509251E+01  2.3229074E+01
 1.8520750E+01  2.3227842E+01
 1.8532251E+01  2.3196072E+01
 1.8543751E+01  2.3162508E+01
 1.8555250E+01  2.3191351E+01
 1.8566751E+01  2.3211397E+01
 1.8578251E+01  2.3267895E+01
 1.8589750E+01  2.3318502E+01
 1.8601252E+01  2.3299171E+01
 1.8612751E+01  2.3310055E+01
 1.8624250E+01  2.3255054E+01
 1.8635752E+01  2.3262981E+01
 1.8647251E+01  2.3219837E+01
 1.8658751E+01  2.3245111E+01
 1.8670252E+01  2.3236944E+01
 1.8681751E+01  2.3291906E+01
 1.8693251E+01  2.3298178E+01
 1.8704750E+01  2.3332407E+01
 1.8716251E+01  2.3265057E+01
 1.8727751E+01  2.3247622E+01
 1.8739250E+01  2.3194330E+01
 1.8750751E+01  2.3205103E+01
 1.8762251E+01  2.3199936E+01
 1.8773750E+01  2.3184000E+01
 1.8785252E+01  2.3186993E+01
 1.8796751E+01  2.3254276E+01
 1.8808250E+01  2.3283648E+01
 1.8819752E+01  2.3323534E+01
 1.8831251E+01  2.3324955E+01
 1.8842751E+01  2.3380342E+01
 1.8854252E+01  2.3302885E+01
 1.8865751E+01  2.3240622E+01
 1.8877251E+01  2.3221527E+01
 1.8888750E+01  2.3296267E+01
 1.8900251E+01  2.3329523E+01
 1.8911751E+01  2.3322231E+01
 1.8923250E+01  2.3306164E+01
 1.8934752E+01  2.3324850E+01
 1.8946251E+01  2.3372337E+01
 1.8957750E+01  2.3369314E+01
 1.8969252E+01  2.3316509E+01
 1.8980751E+01  2.3262472E+01
 1.8992250E+01  2.3221731E+01
 1.9003752E+01  2.3249973E+01
 1.9015251E+01  2.3266020E+01
 1.9026751E+01  2.3315008E+01
 1.9038252E+01  2.3322828E+01
 1.9049751E+01  2.3336439E+01
 1.9061251E+01  2.3366354E+01
 1.9072750E+01  2.3364513E+01
 1.9084251E+01  2.3347120E+01
 1.9095751E+01  2.3271948E+01
 1.9107250E+01  2.3227133E+01
 1.9118752E+01  2.3197720E+01
 1.9130251E+01  2.3233644E+01
 1.9141750E+01  2.3245432E+01
 1.9153252E+01  2.3274323E+01
 1.9164751E+01  2.3254398E+01
 1.9176250E+01  2.3263874E+01
 1.9187752E+01  2.3262924E+01
 1.9199251E+01  2.3309757E+01
 1.9210751E+01  2.3322081E+01
 1.9222252E+01  2.3315920E+01
 1.9233751E+01  2.3241018E+01
 1.9245251E+01  2.3221474E+01
 1.9256750E+01  2.3202765E+01
 1.9268251E+01  2.3200146E+01
 1.9279751E+01  2.3173241E+01
 1.9291250E+01  2.3196066E+01
 1.9302752E+01  2.3249924E+01
 1.9314251E+01  2.3311533E+01
 1.9325750E+01  2.3335371E+01
 1.9337252E+01  2.3303225E+01
 1.9348751E+01  2.3309769E+01
 1.9360250E+01  2.3297226E+01
 1.9371752E+01  2.3312433E+01
 1.9383251E+01  2.3296391E+01
 1.9394751E+01  2.3356647E+01
 1.9406250E+01  2.3359013E+01
 1.9417751E+01  2.3419535E+01
 1.9429251E+01  2.3398071E+01
 1.9440750E+01  2.3397257E+01
 1.9452251E+01  2.3347353E+01
 1.9463751E+01  2.3332932E+01
 1.9475250E+01  2.3312431E+01
 1.9486752E+01  2.3280106E+01
 1.9498251E+01  2.3256117E+01
 1.9509750E+01  2.3246317E+01
 1.9521252E+01  2.3262663E+01
 1.9532751E+01  2.3338453E+01
 1.9544250E+01  2.3354206E+01
 1.9555752E+01  2.3356630E+01
 1.9567251E+01  2.3307032E+01
 1.9578751E+01  2.3280258E+01
 1.9590250E+01  2.3280415E+01
 1.9601751E+01  2.3269506E+01
 1.9613251E+01  2.3249353E+01
 1.9624750E+01  2.3264406E+01
 1.9636251E+01  2.3314104E+01
 1.9647751E+01  2.3357019E+01
 1.9659250E+01  2.3407022E+01
 1.9670752E+01  2.3461380E+01
 1.9682251E+01  2.3499062E+01
 1.9693750E+01  2.3547131E+01
 1.9705252E+01  2.3585159E+01
 1.9716751E+01  2.3622335E+01
 1.9728251E+01  2.3663019E+01
 1.9739752E+01  2.3691446E+01
 1.9751251E+01  2.3850368E+01
 1.9762751E+01  2.3838455E+01
 1.9774250E+01  2.3811090E+01
 1.9785751E+01  2.3717564E+01
 1.9797251E+01  2.3724390E+01
 1.9808750E+01  2.3672329E+01
 1.9820251E+01  2.3594206E+01
 1.9831751E+01  2.3598812E+01
 1.9843250E+01  2.3614000E+01
 1.9854752E+01  2.3620365E+01
 1.9866251E+01  2.3635412E+01
 1.9877750E+01  2.3649900E+01
 1.9889252E+01  2.3675991E+01
 1.9900751E+01  2.3670431E+01
 1.9912251E+01  2.3633083E+01
 1.9923752E+01  2.3532066E+01
 1.9935251E+01  2.3444902E+01
 1.9946751E+01  2.3401522E+01
 1.9958250E+01  2.3369984E+01
 1.9969751E+01  2.3432892E+01
 1.9981251E+01  2.3452375E+01
 1.9992750E+01  2.3499195E+01
 2.0004251E+01  2.3430161E+01
 2.0015751E+01  2.3437574E+01
 2.0027250E+01  2.3416708E+01
 2.0038752E+01  2.3434158E+01
 2.0050251E+01  2.3394331E+01
 2.0061750E+01  2.3346008E+01
 2.0073252E+01  2.3346479E+01
 2.0084751E+01  2.3339231E+01
 2.0096251E+01  2.3368729E+01
 2.0107752E+01  2.3378702E+01
 2.0119251E+01  2.3413960E+01
 2.0130751E+01  2.3452839E+01
 2.0142250E+01  2.3491451E+01
 2.0153751E+01  2.3523096E+01
 2.0165251E+01  2.3506926E+01
 2.0176750E+01  2.3487686E+01
 2.0188251E+01  2.3445158E+01
 2.0199751E+01  2.3383892E+01
 2.0211250E+01  2.3328566E+01
 2.0222752E+01  2.3349859E+01
 2.0234251E+01  2.3393974E+01
 2.0245750E+01  2.3431700E+01
 2.0257252E+01  2.3465128E+01
 2.0268751E+01  2.3495262E+01
 2.0280251E+01  2.3491146E+01
 2.0291752E+01  2.3464588E+01
 2.0303251E+01  2.3393736E+01
 2.0314751E+01  2.3364481E+01
 2.0326250E+01  2.3371485E+01
 2.0337751E+01  2.3374397E+01
 2.0349251E+01  2.3389639E+01
 2.0360750E+01  2.3407608E+01
 2.0372252E+01  2.3429041E+01
 2.0383751E+01  2.3454666E+01
 2.0395250E+01  2.3481663E+01
 2.0406752E+01  2.3513388E+01
 2.0418251E+01  2.3500057E+01
 2.0429750E+01  2.3480207E+01
 2.0441252E+01  2.3407585E+01
 2.0452751E+01  2.3372601E+01
 2.0464251E+01  2.3380421E+01
 2.0475752E+01  2.3419041E+01
 2.0487251E+01  2.3420008E+01
 2.0498751E+01  2.3426384E+01
 2.0510250E+01  2.3398159E+01
 2.0521751E+01  2.3390572E+01
 2.0533251E+01  2.3380865E+01
 2.0544750E+01  2.3359070E+01
 2.0556252E+01  2.3360647E+01
 2.0567751E+01  2.3362797E+01
 2.0579250E+01  2.3387138E+01
 2.0590752E+01  2.3416363E+01
 2.0602251E+01  2.3580029E+01
 2.0613750E+01  2.3632418E+01
 2.0625252E+01  2.3646549E+01
 2.0636751E+01  2.3585604E+01
 2.0648251E+01  2.3540993E+01
 2.0659752E+01  2.3465424E+01
 2.0671251E+01  2.3428854E+01
 2.0682751E+01  2.3510906E+01
 2.0694250E+01  2.3577482E+01
 2.0705751E+01  2.3691479E+01
 2.0717251E+01  2.3761518E+01
 2.0728750E+01  2.3799479E+01
 2.0740252E+01  2.3796188E+01
 2.0751751E+01  2.3749714E+01
 2.0763250E+01  2.3761446E+01
 2.0774752E+01  2.3749489E+01
 2.0786251E+01  2.3736595E+01
 2.0797750E+01  2.3698706E+01
 2.0809252E+01  2.3615700E+01
 2.0820751E+01  2.3562548E+01
 2.0832251E+01  2.3515478E+01
 2.0843752E+01  2.3537531E+01
 2.0855251E+01  2.3531693E+01
 2.0866751E+01  2.3576086E+01
 2.0878250E+01  2.3577503E+01
 2.0889751E+01  2.3545673E+01
 2.0901251E+01  2.3495825E+01
 2.0912750E+01  2.3492279E+01
 2.0924252E+01  2.3519110E+01
 2.0935751E+01  2.3546007E+01
 2.0947250E+01  2.3582901E+01
 2.0958752E+01  2.3566366E+01
 2.0970251E+01  2.3556860E+01
 2.0981750E+01  2.3567190E+01
 2.0993252E+01  2.3568972E+01
 2.1004751E+01  2.3569868E+01
 2.1016251E+01  2.3492544E+01
 2.1027752E+01  2.3509880E+01
 2.1039251E+01  2.3495590E+01
 2.1050751E+01  2.3465063E+01
 2.1062250E+01  2.3413446E+01
 2.1073751E+01  2.3420149E+01
 2.1085251E+01  2.3443102E+01
 2.1096750E+01  2.3434093E+01
 2.1108252E+01  2.3470358E+01
 2.1119751E+01  2.3479765E+01
 2.1131250E+01  2.3516806E+01
 2.1142752E+01  2.3508318E+01
 2.1154251E+01  2.3484152E+01
 2.1165751E+01  2.3502411E+01
 2.1177252E+01  2.3569942E+01
 2.1188751E+01  2.3621399E+01
 2.1200251E+01  2.3589106E+01
 2.1211752E+01  2.3641932E+01
 2.1223251E+01  2.3625679E+01
 2.1234751E+01  2.3664906E+01
 2.1246250E+01  2.3705507E+01
 2.1257751E+01  2.3745113E+01
 2.1269251E+01  2.3760057E+01
 2.1280750E+01  2.3700716E+01
 2.1292252E+01  2.3718571E+01
 2.1303751E+01  2.3694994E+01
 2.1315250E+01  2.3628010E+01
 2.1326752E+01  2.3576977E+01
 2.1338251E+01  2.3573517E+01
 2.1349751E+01  2.3624035E+01
 2.1361252E+01  2.3640091E+01
 2.1372751E+01  2.3682310E+01
 2.1384251E+01  2.3683254E+01
 2.1395752E+01  2.3714651E+01
 2.1407251E+01  2.3700052E+01
 2.1418751E+01  2.3706057E+01
 2.1430250E+01  2.3692873E+01
 2.1441751E+01  2.3687881E+01
 2.1453251E+01  2.3694462E+01
 2.1464750E+01  2.3653261E+01
 2.1476252E+01  2.3629660E+01
 2.1487751E+01  2.3662540E+01
 2.1499250E+01  2.3679342E+01
 2.1510752E+01  2.3683388E+01
 2.1522251E+01  2.3666199E+01
 2.1533751E+01  2.3666378E+01
 2.1545252E+01  2.3648809E+01
 2.1556751E+01  2.3640896E+01
 2.1568251E+01  2.3615454E+01
 2.1579752E+01  2.3634155E+01
 2.1591251E+01  2.3678450E+01
 2.1602751E+01  2.3764391E+01
 2.1614250E+01  2.3832533E+01
 2.1625751E+01  2.3860853E+01
 2.1637251E+01  2.3860867E+01
 2.1648750E+01  2.3852365E+01
 2.1660252E+01  2.3863218E+01
 2.1671751E+01  2.3870914E+01
 2.1683250E+01  2.3860369E+01
 2.1694752E+01  2.3872669E+01
 2.1706251E+01  2.3873043E+01
 2.1717751E+01  2.3862114E+01
 2.1729252E+01  2.3839979E+01
 2.1740751E+01  2.3854256E+01
 2.1752251E+01  2.3828489E+01
 2.1763752E+01  2.3813786E+01
 2.1775251E+01  2.3839424E+01
 2.1786751E+01  2.3864500E+01
 2.1798250E+01  2.3833830E+01
 2.1809752E+01  2.3836964E+01
 2.1821251E+01  2.3902723E+01
 2.1832750E+01  2.3927652E+01
 2.1844252E+01  2.3925392E+01
 2.1855751E+01  2.3980612E+01
 2.1867250E+01  2.3983564E+01
 2.1878752E+01  2.3961035E+01
 2.1890251E+01  2.3946627E+01
 2.1901751E+01  2.3986580E+01
 2.1913252E+01  2.4031351E+01
 2.1924751E+01  2.4047781E+01
 2.1936251E+01  2.4004004E+01
 2.1947752E+01  2.3980705E+01
 2.1959251E+01  2.3981997E+01
 2.1970751E+01  2.3979906E+01
 2.1982250E+01  2.3918669E+01
 2.1993752E+01  2.3891123E+01
 2.2005251E+01  2.3854048E+01
 2.2016750E+01  2.3856133E+01
 2.2028252E+01  2.3891296E+01
 2.2039751E+01  2.3951996E+01
 2.2051250E+01  2.4009762E+01
 2.2062752E+01  2.4022985E+01
 2.2074251E+01  2.4061819E+01
 2.2085751E+01  2.4088785E+01
 2.2097252E+01  2.4105173E+01
 2.2108751E+01  2.4068872E+01
 2.2120251E+01  2.4123600E+01
 2.2131752E+01  2.4165102E+01
 2.2143251E+01  2.4195269E+01
 2.2154751E+01  2.4182312E+01
 2.2166250E+01  2.4194895E+01
 2.2177752E+01  2.4161068E+01
 2.2189251E+01  2.4138636E+01
 2.2200750E+01  2.4142168E+01
 2.2212252E+01  2.4165979E+01
 2.2223751E+01  2.4206257E+01
 2.2235250E+01  2.4233099E+01
 2.2246752E+01  2.4222979E+01
 2.2258251E+01  2.4244379E+01
 2.2269751E+01  2.4239031E+01
 2.2281252E+01  2.4261080E+01
 2.2292751E+01  2.4240183E+01
 2.2304251E+01  2.4291353E+01
 2.2315752E+01  2.4314888E+01
 2.2327251E+01  2.4289083E+01
 2.2338751E+01  2.4318699E+01
 2.2350250E+01  2.4357752E+01
 2.2361752E+01  2.4366499E+01
 2.2373251E+01  2.4332279E+01
 2.2384750E+01  2.4321733E+01
 2.2396252E+01  2.4298021E+01
 2.2407751E+01  2.4294165E+01
 2.2419250E+01  2.4240036E+01
 2.2430752E+01  2.4271957E+01
 2.2442251E+01  2.4314209E+01
 2.2453751E+01  2.4403526E+01
 2.2465252E+01  2.4408251E+01
 2.2476751E+01  2.4391970E+01
 2.2488251E+01  2.4439285E+01
 2.2499752E+01  2.4469046E+01
 2.2511251E+01  2.4541052E+01
 2.2522751E+01  2.4571232E+01
 2.2534250E+01  2.4587200E+01
 2.2545752E+01  2.4581749E+01
 2.2557251E+01  2.4561977E+01
 2.2568750E+01  2.4601940E+01
 2.2580252E+01  2.4621094E+01
 2.2591751E+01  2.4666286E+01
 2.2603251E+01  2.4700092E+01
 2.2614752E+01  2.4694427E+01
 2.2626251E+01  2.4666615E+01
 2.2637751E+01  2.4599554E+01
 2.2649252E+01  2.4562796E+01
 2.2660751E+01  2.4576218E+01
 2.2672251E+01  2.4711639E+01
 2.2683752E+01  2.4838909E+01
 2.2695251E+01  2.4903450E+01
 2.2706751E+01  2.4882633E+01
 2.2718250E+01  2.4879578E+01
 2.2729752E+01  2.4830572E+01
 2.2741251E+01  2.4902679E+01
 2.2752750E+01  2.4974026E+01
 2.2764252E+01  2.5028393E+01
 2.2775751E+01  2.4987823E+01
 2.2787251E+01  2.5007484E+01
 2.2798752E+01  2.5052580E+01
 2.2810251E+01  2.5166134E+01
 2.2821751E+01  2.5191439E+01
 2.2833252E+01  2.5203949E+01
 2.2844751E+01  2.5216440E+01
 2.2856251E+01  2.5266239E+01
 2.2867750E+01  2.5320734E+01
 2.2879251E+01  2.5336040E+01
 2.2890751E+01  2.5383852E+01
 2.2902250E+01  2.5406378E+01
 2.2913752E+01  2.5503672E+01
 2.2925251E+01  2.5588106E+01
 2.2936750E+01  2.5667944E+01
 2.2948252E+01  2.5689007E+01
 2.2959751E+01  2.5674746E+01
 2.2971251E+01  2.5768528E+01
 2.2982752E+01  2.5836140E+01
 2.2994251E+01  2.5897306E+01
