F:\20151113_APS_34IDE\\Brian\Particle1\OCV\Data_0063.tif
2-Theta Angle (Degrees)
Intensity
       2000
 5.7500005E-03  0.0000000E+00
 1.7250001E-02  0.0000000E+00
 2.8750001E-02  0.0000000E+00
 4.0250003E-02  0.0000000E+00
 5.1750004E-02  0.0000000E+00
 6.3250005E-02  0.0000000E+00
 7.4750006E-02  0.0000000E+00
 8.6250007E-02  0.0000000E+00
 9.7750008E-02  0.0000000E+00
 1.0925001E-01  0.0000000E+00
 1.2075000E-01  0.0000000E+00
 1.3225001E-01  0.0000000E+00
 1.4375001E-01  0.0000000E+00
 1.5525001E-01  0.0000000E+00
 1.6675001E-01  0.0000000E+00
 1.7825001E-01  0.0000000E+00
 1.8975002E-01  0.0000000E+00
 2.0125002E-01  0.0000000E+00
 2.1275002E-01  0.0000000E+00
 2.2425000E-01  0.0000000E+00
 2.3575000E-01  0.0000000E+00
 2.4725001E-01  0.0000000E+00
 2.5875002E-01  0.0000000E+00
 2.7025002E-01  0.0000000E+00
 2.8175002E-01  0.0000000E+00
 2.9325002E-01  0.0000000E+00
 3.0475003E-01  0.0000000E+00
 3.1625003E-01  0.0000000E+00
 3.2775003E-01  0.0000000E+00
 3.3925003E-01  0.0000000E+00
 3.5075003E-01  0.0000000E+00
 3.6225003E-01  0.0000000E+00
 3.7375003E-01  0.0000000E+00
 3.8525003E-01  0.0000000E+00
 3.9675003E-01  0.0000000E+00
 4.0825003E-01  0.0000000E+00
 4.1975003E-01  0.0000000E+00
 4.3125004E-01  0.0000000E+00
 4.4275001E-01  0.0000000E+00
 4.5425001E-01  0.0000000E+00
 4.6575001E-01  0.0000000E+00
 4.7725001E-01  0.0000000E+00
 4.8875001E-01  0.0000000E+00
 5.0025004E-01  0.0000000E+00
 5.1175004E-01  0.0000000E+00
 5.2325004E-01  0.0000000E+00
 5.3475004E-01  0.0000000E+00
 5.4625005E-01  0.0000000E+00
 5.5775005E-01  0.0000000E+00
 5.6925005E-01  0.0000000E+00
 5.8075005E-01  0.0000000E+00
 5.9225005E-01  0.0000000E+00
 6.0375005E-01  0.0000000E+00
 6.1525005E-01  0.0000000E+00
 6.2675005E-01  0.0000000E+00
 6.3825005E-01  0.0000000E+00
 6.4975005E-01  0.0000000E+00
 6.6125005E-01  0.0000000E+00
 6.7275006E-01  0.0000000E+00
 6.8425006E-01  0.0000000E+00
 6.9575006E-01  0.0000000E+00
 7.0725006E-01  0.0000000E+00
 7.1875006E-01  0.0000000E+00
 7.3025006E-01  0.0000000E+00
 7.4175006E-01  0.0000000E+00
 7.5325006E-01  0.0000000E+00
 7.6475006E-01  0.0000000E+00
 7.7625006E-01  0.0000000E+00
 7.8775007E-01  0.0000000E+00
 7.9925007E-01  0.0000000E+00
 8.1075007E-01  0.0000000E+00
 8.2225007E-01  0.0000000E+00
 8.3375007E-01  0.0000000E+00
 8.4525007E-01  0.0000000E+00
 8.5675007E-01  0.0000000E+00
 8.6825007E-01  0.0000000E+00
 8.7975001E-01  0.0000000E+00
 8.9125001E-01  0.0000000E+00
 9.0275002E-01  0.0000000E+00
 9.1425002E-01  0.0000000E+00
 9.2575002E-01  0.0000000E+00
 9.3725002E-01  0.0000000E+00
 9.4875002E-01  0.0000000E+00
 9.6025002E-01  0.0000000E+00
 9.7175002E-01  0.0000000E+00
 9.8325002E-01  0.0000000E+00
 9.9475002E-01  0.0000000E+00
 1.0062500E+00  0.0000000E+00
 1.0177500E+00  0.0000000E+00
 1.0292500E+00  0.0000000E+00
 1.0407500E+00  0.0000000E+00
 1.0522500E+00  0.0000000E+00
 1.0637500E+00  0.0000000E+00
 1.0752500E+00  0.0000000E+00
 1.0867500E+00  0.0000000E+00
 1.0982500E+00  0.0000000E+00
 1.1097500E+00  0.0000000E+00
 1.1212500E+00  0.0000000E+00
 1.1327500E+00  0.0000000E+00
 1.1442500E+00  0.0000000E+00
 1.1557500E+00  0.0000000E+00
 1.1672500E+00  0.0000000E+00
 1.1787500E+00  0.0000000E+00
 1.1902500E+00  0.0000000E+00
 1.2017500E+00  0.0000000E+00
 1.2132500E+00  0.0000000E+00
 1.2247500E+00  0.0000000E+00
 1.2362500E+00  0.0000000E+00
 1.2477500E+00  0.0000000E+00
 1.2592500E+00  0.0000000E+00
 1.2707500E+00  0.0000000E+00
 1.2822500E+00  0.0000000E+00
 1.2937500E+00  0.0000000E+00
 1.3052500E+00  0.0000000E+00
 1.3167500E+00  0.0000000E+00
 1.3282501E+00  0.0000000E+00
 1.3397501E+00  0.0000000E+00
 1.3512501E+00  0.0000000E+00
 1.3627501E+00  0.0000000E+00
 1.3742501E+00  0.0000000E+00
 1.3857501E+00  0.0000000E+00
 1.3972501E+00  0.0000000E+00
 1.4087501E+00  0.0000000E+00
 1.4202501E+00  0.0000000E+00
 1.4317501E+00  0.0000000E+00
 1.4432501E+00  0.0000000E+00
 1.4547501E+00  0.0000000E+00
 1.4662501E+00  0.0000000E+00
 1.4777501E+00  0.0000000E+00
 1.4892501E+00  0.0000000E+00
 1.5007501E+00  0.0000000E+00
 1.5122501E+00  0.0000000E+00
 1.5237501E+00  0.0000000E+00
 1.5352501E+00  0.0000000E+00
 1.5467501E+00  0.0000000E+00
 1.5582501E+00  0.0000000E+00
 1.5697501E+00  0.0000000E+00
 1.5812501E+00  0.0000000E+00
 1.5927501E+00  0.0000000E+00
 1.6042501E+00  0.0000000E+00
 1.6157501E+00  0.0000000E+00
 1.6272501E+00  0.0000000E+00
 1.6387501E+00  0.0000000E+00
 1.6502501E+00  0.0000000E+00
 1.6617501E+00  0.0000000E+00
 1.6732501E+00  0.0000000E+00
 1.6847501E+00  0.0000000E+00
 1.6962501E+00  0.0000000E+00
 1.7077501E+00  0.0000000E+00
 1.7192501E+00  0.0000000E+00
 1.7307501E+00  0.0000000E+00
 1.7422501E+00  0.0000000E+00
 1.7537501E+00  0.0000000E+00
 1.7652501E+00  0.0000000E+00
 1.7767501E+00  0.0000000E+00
 1.7882501E+00  0.0000000E+00
 1.7997501E+00  0.0000000E+00
 1.8112501E+00  0.0000000E+00
 1.8227501E+00  0.0000000E+00
 1.8342501E+00  0.0000000E+00
 1.8457501E+00  0.0000000E+00
 1.8572501E+00  0.0000000E+00
 1.8687501E+00  0.0000000E+00
 1.8802501E+00  0.0000000E+00
 1.8917501E+00  0.0000000E+00
 1.9032501E+00  0.0000000E+00
 1.9147501E+00  0.0000000E+00
 1.9262501E+00  0.0000000E+00
 1.9377501E+00  0.0000000E+00
 1.9492501E+00  0.0000000E+00
 1.9607501E+00  0.0000000E+00
 1.9722501E+00  0.0000000E+00
 1.9837501E+00  0.0000000E+00
 1.9952501E+00  0.0000000E+00
 2.0067501E+00  0.0000000E+00
 2.0182500E+00  0.0000000E+00
 2.0297501E+00  0.0000000E+00
 2.0412500E+00  0.0000000E+00
 2.0527501E+00  0.0000000E+00
 2.0642500E+00  0.0000000E+00
 2.0757501E+00  0.0000000E+00
 2.0872500E+00  0.0000000E+00
 2.0987501E+00  0.0000000E+00
 2.1102500E+00  0.0000000E+00
 2.1217501E+00  0.0000000E+00
 2.1332500E+00  0.0000000E+00
 2.1447501E+00  0.0000000E+00
 2.1562500E+00  0.0000000E+00
 2.1677501E+00  0.0000000E+00
 2.1792500E+00  0.0000000E+00
 2.1907501E+00  0.0000000E+00
 2.2022500E+00  0.0000000E+00
 2.2137501E+00  0.0000000E+00
 2.2252500E+00  0.0000000E+00
 2.2367501E+00  0.0000000E+00
 2.2482500E+00  0.0000000E+00
 2.2597501E+00  0.0000000E+00
 2.2712500E+00  0.0000000E+00
 2.2827501E+00  0.0000000E+00
 2.2942500E+00  0.0000000E+00
 2.3057501E+00  0.0000000E+00
 2.3172500E+00  0.0000000E+00
 2.3287501E+00  0.0000000E+00
 2.3402500E+00  0.0000000E+00
 2.3517501E+00  0.0000000E+00
 2.3632500E+00  0.0000000E+00
 2.3747501E+00  0.0000000E+00
 2.3862500E+00  0.0000000E+00
 2.3977501E+00  0.0000000E+00
 2.4092500E+00  0.0000000E+00
 2.4207501E+00  0.0000000E+00
 2.4322500E+00  0.0000000E+00
 2.4437501E+00  0.0000000E+00
 2.4552500E+00  0.0000000E+00
 2.4667501E+00  0.0000000E+00
 2.4782500E+00  0.0000000E+00
 2.4897501E+00  0.0000000E+00
 2.5012500E+00  0.0000000E+00
 2.5127501E+00  0.0000000E+00
 2.5242500E+00  0.0000000E+00
 2.5357502E+00  0.0000000E+00
 2.5472500E+00  0.0000000E+00
 2.5587502E+00  0.0000000E+00
 2.5702500E+00  0.0000000E+00
 2.5817502E+00  0.0000000E+00
 2.5932500E+00  0.0000000E+00
 2.6047502E+00  0.0000000E+00
 2.6162500E+00  0.0000000E+00
 2.6277502E+00  0.0000000E+00
 2.6392500E+00  0.0000000E+00
 2.6507502E+00  0.0000000E+00
 2.6622500E+00  0.0000000E+00
 2.6737502E+00  0.0000000E+00
 2.6852500E+00  0.0000000E+00
 2.6967502E+00  0.0000000E+00
 2.7082500E+00  0.0000000E+00
 2.7197502E+00  0.0000000E+00
 2.7312500E+00  0.0000000E+00
 2.7427502E+00  0.0000000E+00
 2.7542500E+00  0.0000000E+00
 2.7657502E+00  0.0000000E+00
 2.7772501E+00  0.0000000E+00
 2.7887502E+00  0.0000000E+00
 2.8002501E+00  0.0000000E+00
 2.8117502E+00  0.0000000E+00
 2.8232501E+00  3.3414867E+01
 2.8347502E+00  3.4803204E+01
 2.8462501E+00  3.5102669E+01
 2.8577502E+00  3.4993767E+01
 2.8692501E+00  3.5036240E+01
 2.8807502E+00  3.5063179E+01
 2.8922501E+00  3.5319168E+01
 2.9037502E+00  3.5160667E+01
 2.9152501E+00  3.5391026E+01
 2.9267502E+00  3.5229504E+01
 2.9382501E+00  3.5386536E+01
 2.9497502E+00  3.5717800E+01
 2.9612501E+00  3.5629433E+01
 2.9727502E+00  3.5378918E+01
 2.9842501E+00  3.4492729E+01
 2.9957502E+00  3.4385311E+01
 3.0072501E+00  3.4326229E+01
 3.0187502E+00  3.4536549E+01
 3.0302501E+00  3.4822475E+01
 3.0417502E+00  3.5102657E+01
 3.0532501E+00  3.5334583E+01
 3.0647502E+00  3.5220249E+01
 3.0762501E+00  3.5286884E+01
 3.0877502E+00  3.5334068E+01
 3.0992501E+00  3.5587616E+01
 3.1107502E+00  3.5432396E+01
 3.1222501E+00  3.5592552E+01
 3.1337502E+00  3.5731766E+01
 3.1452501E+00  3.5771103E+01
 3.1567502E+00  3.5531284E+01
 3.1682501E+00  3.5381058E+01
 3.1797502E+00  3.5416527E+01
 3.1912501E+00  3.5375134E+01
 3.2027502E+00  3.5428398E+01
 3.2142501E+00  3.5438610E+01
 3.2257502E+00  3.5483437E+01
 3.2372501E+00  3.5115913E+01
 3.2487502E+00  3.4651123E+01
 3.2602501E+00  3.4443481E+01
 3.2717502E+00  3.4019165E+01
 3.2832501E+00  3.4074688E+01
 3.2947502E+00  3.4020718E+01
 3.3062501E+00  3.4625214E+01
 3.3177502E+00  3.4928616E+01
 3.3292501E+00  3.5145691E+01
 3.3407502E+00  3.5322651E+01
 3.3522501E+00  3.5057789E+01
 3.3637502E+00  3.4924183E+01
 3.3752501E+00  3.4765575E+01
 3.3867502E+00  3.4795132E+01
 3.3982501E+00  3.4654610E+01
 3.4097502E+00  3.4219196E+01
 3.4212501E+00  3.4062820E+01
 3.4327502E+00  3.3837296E+01
 3.4442501E+00  3.4142757E+01
 3.4557502E+00  3.4002728E+01
 3.4672501E+00  3.4256626E+01
 3.4787502E+00  3.4067345E+01
 3.4902501E+00  3.4015026E+01
 3.5017502E+00  3.3613731E+01
 3.5132501E+00  3.3566437E+01
 3.5247502E+00  3.3329079E+01
 3.5362501E+00  3.3569931E+01
 3.5477502E+00  3.3557686E+01
 3.5592501E+00  3.3766720E+01
 3.5707502E+00  3.3782749E+01
 3.5822501E+00  3.3872627E+01
 3.5937502E+00  3.3510384E+01
 3.6052501E+00  3.3112408E+01
 3.6167502E+00  3.2695267E+01
 3.6282501E+00  3.2714764E+01
 3.6397502E+00  3.2838318E+01
 3.6512501E+00  3.2966076E+01
 3.6627502E+00  3.3014351E+01
 3.6742501E+00  3.3080429E+01
 3.6857502E+00  3.3072102E+01
 3.6972501E+00  3.2923500E+01
 3.7087502E+00  3.2770489E+01
 3.7202501E+00  3.2598976E+01
 3.7317502E+00  3.2455330E+01
 3.7432501E+00  3.2410240E+01
 3.7547503E+00  3.2410885E+01
 3.7662501E+00  3.2516148E+01
 3.7777503E+00  3.2469524E+01
 3.7892501E+00  3.2382816E+01
 3.8007503E+00  3.2104431E+01
 3.8122501E+00  3.2103539E+01
 3.8237503E+00  3.2093159E+01
 3.8352501E+00  3.2492775E+01
 3.8467503E+00  3.2620247E+01
 3.8582501E+00  3.2859581E+01
 3.8697503E+00  3.2869114E+01
 3.8812501E+00  3.3020775E+01
 3.8927503E+00  3.2895954E+01
 3.9042501E+00  3.2700550E+01
 3.9157503E+00  3.2485542E+01
 3.9272501E+00  3.2276474E+01
 3.9387503E+00  3.2276970E+01
 3.9502501E+00  3.2284805E+01
 3.9617503E+00  3.2521557E+01
 3.9732502E+00  3.2710484E+01
 3.9847503E+00  3.2776123E+01
 3.9962502E+00  3.2846130E+01
 4.0077500E+00  3.2664040E+01
 4.0192504E+00  3.2547710E+01
 4.0307503E+00  3.2407799E+01
 4.0422502E+00  3.2355953E+01
 4.0537500E+00  3.2429573E+01
 4.0652504E+00  3.2485241E+01
 4.0767503E+00  3.2678040E+01
 4.0882502E+00  3.2677063E+01
 4.0997500E+00  3.2651794E+01
 4.1112504E+00  3.2642700E+01
 4.1227503E+00  3.2727882E+01
 4.1342502E+00  3.2817207E+01
 4.1457500E+00  3.2766624E+01
 4.1572504E+00  3.2526562E+01
 4.1687503E+00  3.2256546E+01
 4.1802502E+00  3.1975548E+01
 4.1917500E+00  3.2036297E+01
 4.2032504E+00  3.2050373E+01
 4.2147503E+00  3.2144394E+01
 4.2262502E+00  3.2059090E+01
 4.2377501E+00  3.1937654E+01
 4.2492504E+00  3.1818521E+01
 4.2607503E+00  3.1782892E+01
 4.2722502E+00  3.1669498E+01
 4.2837501E+00  3.1708246E+01
 4.2952504E+00  3.1638184E+01
 4.3067503E+00  3.1778191E+01
 4.3182502E+00  3.1906837E+01
 4.3297501E+00  3.1977100E+01
 4.3412504E+00  3.2050011E+01
 4.3527503E+00  3.2057972E+01
 4.3642502E+00  3.2075695E+01
 4.3757501E+00  3.2093277E+01
 4.3872504E+00  3.2054893E+01
 4.3987503E+00  3.1959076E+01
 4.4102502E+00  3.2037399E+01
 4.4217501E+00  3.1915083E+01
 4.4332504E+00  3.1918732E+01
 4.4447503E+00  3.1817434E+01
 4.4562502E+00  3.1881376E+01
 4.4677501E+00  3.2019806E+01
 4.4792504E+00  3.2100941E+01
 4.4907503E+00  3.2090714E+01
 4.5022502E+00  3.2009727E+01
 4.5137501E+00  3.2152000E+01
 4.5252504E+00  3.2398514E+01
 4.5367503E+00  3.2614403E+01
 4.5482502E+00  3.2900833E+01
 4.5597501E+00  3.2924084E+01
 4.5712504E+00  3.2898918E+01
 4.5827503E+00  3.2735741E+01
 4.5942502E+00  3.2626720E+01
 4.6057501E+00  3.2559124E+01
 4.6172504E+00  3.2497547E+01
 4.6287503E+00  3.2445412E+01
 4.6402502E+00  3.2521847E+01
 4.6517501E+00  3.2648773E+01
 4.6632504E+00  3.2686119E+01
 4.6747503E+00  3.2856815E+01
 4.6862502E+00  3.2826233E+01
 4.6977501E+00  3.2893753E+01
 4.7092505E+00  3.2796711E+01
 4.7207503E+00  3.2615864E+01
 4.7322502E+00  3.2345085E+01
 4.7437501E+00  3.2286381E+01
 4.7552505E+00  3.2211643E+01
 4.7667503E+00  3.2402454E+01
 4.7782502E+00  3.2552914E+01
 4.7897501E+00  3.2681454E+01
 4.8012505E+00  3.2783592E+01
 4.8127503E+00  3.2684509E+01
 4.8242502E+00  3.2695026E+01
 4.8357501E+00  3.2629448E+01
 4.8472505E+00  3.2745808E+01
 4.8587503E+00  3.2836548E+01
 4.8702502E+00  3.2845066E+01
 4.8817501E+00  3.2693748E+01
 4.8932505E+00  3.2543991E+01
 4.9047503E+00  3.2451881E+01
 4.9162502E+00  3.2555779E+01
 4.9277501E+00  3.2485382E+01
 4.9392505E+00  3.2544563E+01
 4.9507504E+00  3.2474754E+01
 4.9622502E+00  3.2496494E+01
 4.9737501E+00  3.2606686E+01
 4.9852505E+00  3.2716209E+01
 4.9967504E+00  3.2931015E+01
 5.0082502E+00  3.2962269E+01
 5.0197501E+00  3.2977375E+01
 5.0312505E+00  3.2908215E+01
 5.0427504E+00  3.2891396E+01
 5.0542502E+00  3.2863506E+01
 5.0657501E+00  3.2820068E+01
 5.0772505E+00  3.2868301E+01
 5.0887504E+00  3.3044163E+01
 5.1002502E+00  3.3125587E+01
 5.1117501E+00  3.3238251E+01
 5.1232505E+00  3.3303265E+01
 5.1347504E+00  3.3411884E+01
 5.1462502E+00  3.3662830E+01
 5.1577501E+00  3.3705830E+01
 5.1692505E+00  3.3906326E+01
 5.1807504E+00  3.4201523E+01
 5.1922503E+00  3.4507854E+01
 5.2037501E+00  3.5276524E+01
 5.2152505E+00  3.5505840E+01
 5.2267504E+00  3.5423904E+01
 5.2382503E+00  3.4879494E+01
 5.2497501E+00  3.4412540E+01
 5.2612505E+00  3.4260494E+01
 5.2727504E+00  3.4026653E+01
 5.2842503E+00  3.3918491E+01
 5.2957501E+00  3.3902008E+01
 5.3072500E+00  3.4074814E+01
 5.3187504E+00  3.4117455E+01
 5.3302503E+00  3.4167160E+01
 5.3417501E+00  3.4084454E+01
 5.3532500E+00  3.4102608E+01
 5.3647504E+00  3.4084766E+01
 5.3762503E+00  3.4033852E+01
 5.3877501E+00  3.4152393E+01
 5.3992500E+00  3.4133671E+01
 5.4107504E+00  3.4241875E+01
 5.4222503E+00  3.4132111E+01
 5.4337502E+00  3.4054047E+01
 5.4452500E+00  3.4160030E+01
 5.4567504E+00  3.4207119E+01
 5.4682503E+00  3.4256191E+01
 5.4797502E+00  3.4290470E+01
 5.4912500E+00  3.4248970E+01
 5.5027504E+00  3.4425259E+01
 5.5142503E+00  3.4428005E+01
 5.5257502E+00  3.4445881E+01
 5.5372500E+00  3.4356567E+01
 5.5487504E+00  3.4354923E+01
 5.5602503E+00  3.4536713E+01
 5.5717502E+00  3.4657864E+01
 5.5832500E+00  3.4740780E+01
 5.5947504E+00  3.4754391E+01
 5.6062503E+00  3.4849995E+01
 5.6177502E+00  3.4850994E+01
 5.6292500E+00  3.4849369E+01
 5.6407504E+00  3.4794079E+01
 5.6522503E+00  3.4848309E+01
 5.6637502E+00  3.4914410E+01
 5.6752501E+00  3.5010166E+01
 5.6867504E+00  3.5096432E+01
 5.6982503E+00  3.5239933E+01
 5.7097502E+00  3.5311981E+01
 5.7212501E+00  3.5445179E+01
 5.7327504E+00  3.5509293E+01
 5.7442503E+00  3.5544559E+01
 5.7557502E+00  3.5570732E+01
 5.7672501E+00  3.5535030E+01
 5.7787504E+00  3.5633991E+01
 5.7902503E+00  3.5804539E+01
 5.8017502E+00  3.5763317E+01
 5.8132501E+00  3.5884781E+01
 5.8247504E+00  3.5829205E+01
 5.8362503E+00  3.6079510E+01
 5.8477502E+00  3.6036068E+01
 5.8592501E+00  3.6059963E+01
 5.8707504E+00  3.6119102E+01
 5.8822503E+00  3.6311710E+01
 5.8937502E+00  3.6493916E+01
 5.9052501E+00  3.6801479E+01
 5.9167504E+00  3.7078030E+01
 5.9282503E+00  3.7773815E+01
 5.9397502E+00  3.8932140E+01
 5.9512501E+00  4.0361477E+01
 5.9627504E+00  4.2091919E+01
 5.9742503E+00  4.3642960E+01
 5.9857502E+00  4.4618023E+01
 5.9972501E+00  4.4489250E+01
 6.0087504E+00  4.3286591E+01
 6.0202503E+00  4.1572395E+01
 6.0317502E+00  4.0101692E+01
 6.0432501E+00  3.8703617E+01
 6.0547504E+00  3.7806747E+01
 6.0662503E+00  3.7217651E+01
 6.0777502E+00  3.6838055E+01
 6.0892501E+00  3.6734848E+01
 6.1007504E+00  3.6615261E+01
 6.1122503E+00  3.6645248E+01
 6.1237502E+00  3.6561264E+01
 6.1352501E+00  3.6467251E+01
 6.1467505E+00  3.6429855E+01
 6.1582503E+00  3.6402092E+01
 6.1697502E+00  3.6317017E+01
 6.1812501E+00  3.6421444E+01
 6.1927505E+00  3.6507648E+01
 6.2042503E+00  3.6719612E+01
 6.2157502E+00  3.6822014E+01
 6.2272501E+00  3.6978859E+01
 6.2387505E+00  3.6997337E+01
 6.2502503E+00  3.7058231E+01
 6.2617502E+00  3.7042450E+01
 6.2732501E+00  3.7277195E+01
 6.2847505E+00  3.7390980E+01
 6.2962503E+00  3.7448223E+01
 6.3077502E+00  3.7462288E+01
 6.3192501E+00  3.7457081E+01
 6.3307505E+00  3.7583961E+01
 6.3422503E+00  3.7642052E+01
 6.3537502E+00  3.7755650E+01
 6.3652501E+00  3.7781013E+01
 6.3767505E+00  3.7794624E+01
 6.3882504E+00  3.7883373E+01
 6.3997502E+00  3.7842571E+01
 6.4112501E+00  3.7950241E+01
 6.4227505E+00  3.7950527E+01
 6.4342504E+00  3.8134785E+01
 6.4457502E+00  3.8249081E+01
 6.4572501E+00  3.8311668E+01
 6.4687505E+00  3.8409634E+01
 6.4802504E+00  3.8378124E+01
 6.4917502E+00  3.8437267E+01
 6.5032501E+00  3.8559052E+01
 6.5147505E+00  3.8725616E+01
 6.5262504E+00  3.8798683E+01
 6.5377502E+00  3.8848064E+01
 6.5492501E+00  3.8819660E+01
 6.5607505E+00  3.8933826E+01
 6.5722504E+00  3.8898136E+01
 6.5837502E+00  3.8913399E+01
 6.5952501E+00  3.8961311E+01
 6.6067505E+00  3.9057964E+01
 6.6182504E+00  3.9169796E+01
 6.6297503E+00  3.9192127E+01
 6.6412501E+00  3.9272930E+01
 6.6527505E+00  3.9364906E+01
 6.6642504E+00  3.9537495E+01
 6.6757503E+00  3.9637184E+01
 6.6872501E+00  3.9802189E+01
 6.6987505E+00  3.9922428E+01
 6.7102504E+00  4.0038464E+01
 6.7217503E+00  4.0199173E+01
 6.7332501E+00  4.0267048E+01
 6.7447505E+00  4.0406021E+01
 6.7562504E+00  4.0473404E+01
 6.7677503E+00  4.0573521E+01
 6.7792501E+00  4.0663673E+01
 6.7907505E+00  4.0741005E+01
 6.8022504E+00  4.0836769E+01
 6.8137503E+00  4.0968052E+01
 6.8252501E+00  4.1075027E+01
 6.8367505E+00  4.1094769E+01
 6.8482504E+00  4.1170483E+01
 6.8597503E+00  4.1183868E+01
 6.8712502E+00  4.1153881E+01
 6.8827505E+00  4.1235794E+01
 6.8942504E+00  4.1317768E+01
 6.9057503E+00  4.1500546E+01
 6.9172502E+00  4.1586960E+01
 6.9287505E+00  4.1527283E+01
 6.9402504E+00  4.1685093E+01
 6.9517503E+00  4.1744785E+01
 6.9632502E+00  4.1900677E+01
 6.9747505E+00  4.1893066E+01
 6.9862504E+00  4.1900581E+01
 6.9977503E+00  4.1801483E+01
 7.0092502E+00  4.1862846E+01
 7.0207505E+00  4.1758915E+01
 7.0322504E+00  4.1970680E+01
 7.0437503E+00  4.2162247E+01
 7.0552502E+00  4.2352680E+01
 7.0667505E+00  4.2472836E+01
 7.0782504E+00  4.2360146E+01
 7.0897503E+00  4.2419559E+01
 7.1012502E+00  4.2387783E+01
 7.1127505E+00  4.2497177E+01
 7.1242504E+00  4.2564236E+01
 7.1357503E+00  4.2600346E+01
 7.1472502E+00  4.2594902E+01
 7.1587505E+00  4.2582199E+01
 7.1702504E+00  4.2557564E+01
 7.1817503E+00  4.2534672E+01
 7.1932502E+00  4.2565552E+01
 7.2047505E+00  4.2680866E+01
 7.2162504E+00  4.2800396E+01
 7.2277503E+00  4.2945271E+01
 7.2392502E+00  4.3088718E+01
 7.2507505E+00  4.3226604E+01
 7.2622504E+00  4.3319221E+01
 7.2737503E+00  4.3337875E+01
 7.2852502E+00  4.3418785E+01
 7.2967505E+00  4.3421093E+01
 7.3082504E+00  4.3514355E+01
 7.3197503E+00  4.3473492E+01
 7.3312502E+00  4.3455914E+01
 7.3427505E+00  4.3427658E+01
 7.3542504E+00  4.3457066E+01
 7.3657503E+00  4.3478039E+01
 7.3772502E+00  4.3502949E+01
 7.3887506E+00  4.3564983E+01
 7.4002504E+00  4.3665051E+01
 7.4117503E+00  4.3741669E+01
 7.4232502E+00  4.3717033E+01
 7.4347506E+00  4.3678535E+01
 7.4462504E+00  4.3676846E+01
 7.4577503E+00  4.3657951E+01
 7.4692502E+00  4.3657269E+01
 7.4807506E+00  4.3616856E+01
 7.4922504E+00  4.3653519E+01
 7.5037503E+00  4.3568207E+01
 7.5152502E+00  4.3613113E+01
 7.5267506E+00  4.3678722E+01
 7.5382504E+00  4.3834991E+01
 7.5497503E+00  4.4013248E+01
 7.5612502E+00  4.4039909E+01
 7.5727506E+00  4.4083954E+01
 7.5842505E+00  4.3942192E+01
 7.5957503E+00  4.3876522E+01
 7.6072502E+00  4.3885979E+01
 7.6187506E+00  4.3982662E+01
 7.6302505E+00  4.4065628E+01
 7.6417503E+00  4.4102287E+01
 7.6532502E+00  4.4032562E+01
 7.6647506E+00  4.3987495E+01
 7.6762505E+00  4.3904835E+01
 7.6877503E+00  4.3879139E+01
 7.6992502E+00  4.3867493E+01
 7.7107506E+00  4.3929859E+01
 7.7222505E+00  4.3962578E+01
 7.7337503E+00  4.4020542E+01
 7.7452502E+00  4.4038319E+01
 7.7567506E+00  4.4103424E+01
 7.7682505E+00  4.4113930E+01
 7.7797503E+00  4.4111305E+01
 7.7912502E+00  4.4081802E+01
 7.8027506E+00  4.4090744E+01
 7.8142505E+00  4.4006893E+01
 7.8257504E+00  4.3975822E+01
 7.8372502E+00  4.3827702E+01
 7.8487506E+00  4.3888950E+01
 7.8602505E+00  4.3860493E+01
 7.8717504E+00  4.3836960E+01
 7.8832502E+00  4.3652122E+01
 7.8947506E+00  4.3430569E+01
 7.9062505E+00  4.3343475E+01
 7.9177504E+00  4.3228394E+01
 7.9292502E+00  4.3160507E+01
 7.9407506E+00  4.3084400E+01
 7.9522505E+00  4.3013336E+01
 7.9637504E+00  4.3026443E+01
 7.9752502E+00  4.2986168E+01
 7.9867506E+00  4.3048965E+01
 7.9982505E+00  4.3054398E+01
 8.0097504E+00  4.3075085E+01
 8.0212507E+00  4.2964676E+01
 8.0327501E+00  4.2870495E+01
 8.0442505E+00  4.2805912E+01
 8.0557508E+00  4.2819557E+01
 8.0672503E+00  4.2751961E+01
 8.0787506E+00  4.2692860E+01
 8.0902500E+00  4.2547295E+01
 8.1017504E+00  4.2481056E+01
 8.1132507E+00  4.2368664E+01
 8.1247501E+00  4.2236111E+01
 8.1362505E+00  4.2213783E+01
 8.1477509E+00  4.2049183E+01
 8.1592503E+00  4.1926140E+01
 8.1707506E+00  4.1663250E+01
 8.1822500E+00  4.1600986E+01
 8.1937504E+00  4.1485630E+01
 8.2052507E+00  4.1456741E+01
 8.2167501E+00  4.1285892E+01
 8.2282505E+00  4.1237286E+01
 8.2397509E+00  4.1146667E+01
 8.2512503E+00  4.1042992E+01
 8.2627506E+00  4.0922485E+01
 8.2742500E+00  4.0862549E+01
 8.2857504E+00  4.0767860E+01
 8.2972507E+00  4.0634773E+01
 8.3087502E+00  4.0463253E+01
 8.3202505E+00  4.0374077E+01
 8.3317509E+00  4.0211166E+01
 8.3432503E+00  3.9978428E+01
 8.3547506E+00  3.9762402E+01
 8.3662500E+00  3.9618561E+01
 8.3777504E+00  3.9456722E+01
 8.3892508E+00  3.9336708E+01
 8.4007502E+00  3.9214115E+01
 8.4122505E+00  3.9107990E+01
 8.4237509E+00  3.8974808E+01
 8.4352503E+00  3.8746391E+01
 8.4467506E+00  3.8610790E+01
 8.4582500E+00  3.8474621E+01
 8.4697504E+00  3.8392925E+01
 8.4812508E+00  3.8242809E+01
 8.4927502E+00  3.8005764E+01
 8.5042505E+00  3.7764290E+01
 8.5157509E+00  3.7606167E+01
 8.5272503E+00  3.7391365E+01
 8.5387506E+00  3.7283768E+01
 8.5502501E+00  3.7053959E+01
 8.5617504E+00  3.6929615E+01
 8.5732508E+00  3.6771877E+01
 8.5847502E+00  3.6574600E+01
 8.5962505E+00  3.6325867E+01
 8.6077509E+00  3.6103569E+01
 8.6192503E+00  3.5935963E+01
 8.6307507E+00  3.5820480E+01
 8.6422501E+00  3.5611870E+01
 8.6537504E+00  3.5358540E+01
 8.6652508E+00  3.5215260E+01
 8.6767502E+00  3.5054188E+01
 8.6882505E+00  3.4927170E+01
 8.6997509E+00  3.4798729E+01
 8.7112503E+00  3.4590778E+01
 8.7227507E+00  3.4440311E+01
 8.7342501E+00  3.4218521E+01
 8.7457504E+00  3.4005676E+01
 8.7572508E+00  3.3830128E+01
 8.7687502E+00  3.3601658E+01
 8.7802505E+00  3.3412018E+01
 8.7917500E+00  3.3245003E+01
 8.8032503E+00  3.3027996E+01
 8.8147507E+00  3.2993122E+01
 8.8262501E+00  3.2900452E+01
 8.8377504E+00  3.2894871E+01
 8.8492508E+00  3.2715221E+01
 8.8607502E+00  3.2536816E+01
 8.8722506E+00  3.2371780E+01
 8.8837500E+00  3.2273251E+01
 8.8952503E+00  3.2143814E+01
 8.9067507E+00  3.2000980E+01
 8.9182501E+00  3.1808262E+01
 8.9297504E+00  3.1604601E+01
 8.9412508E+00  3.1400797E+01
 8.9527502E+00  3.1308533E+01
 8.9642506E+00  3.1194715E+01
 8.9757500E+00  3.1099974E+01
 8.9872503E+00  3.0946764E+01
 8.9987507E+00  3.0743568E+01
 9.0102501E+00  3.0633995E+01
 9.0217505E+00  3.0398411E+01
 9.0332508E+00  3.0270508E+01
 9.0447502E+00  3.0141609E+01
 9.0562506E+00  3.0011154E+01
 9.0677500E+00  2.9957487E+01
 9.0792503E+00  2.9882164E+01
 9.0907507E+00  2.9763697E+01
 9.1022501E+00  2.9543177E+01
 9.1137505E+00  2.9316729E+01
 9.1252508E+00  2.9192520E+01
 9.1367502E+00  2.9155787E+01
 9.1482506E+00  2.9150553E+01
 9.1597500E+00  2.9078279E+01
 9.1712503E+00  2.8999632E+01
 9.1827507E+00  2.8887537E+01
 9.1942501E+00  2.8751089E+01
 9.2057505E+00  2.8587696E+01
 9.2172508E+00  2.8423059E+01
 9.2287502E+00  2.8323399E+01
 9.2402506E+00  2.8229973E+01
 9.2517500E+00  2.8162525E+01
 9.2632504E+00  2.8087490E+01
 9.2747507E+00  2.8088686E+01
 9.2862501E+00  2.7939838E+01
 9.2977505E+00  2.7799520E+01
 9.3092508E+00  2.7642336E+01
 9.3207502E+00  2.7495565E+01
 9.3322506E+00  2.7427382E+01
 9.3437500E+00  2.7320234E+01
 9.3552504E+00  2.7209581E+01
 9.3667507E+00  2.7075340E+01
 9.3782501E+00  2.7002262E+01
 9.3897505E+00  2.6923609E+01
 9.4012508E+00  2.6963751E+01
 9.4127502E+00  2.6921394E+01
 9.4242506E+00  2.6857332E+01
 9.4357500E+00  2.6694798E+01
 9.4472504E+00  2.6571163E+01
 9.4587507E+00  2.6549728E+01
 9.4702501E+00  2.6513094E+01
 9.4817505E+00  2.6511961E+01
 9.4932508E+00  2.6413691E+01
 9.5047503E+00  2.6331593E+01
 9.5162506E+00  2.6182228E+01
 9.5277500E+00  2.6165718E+01
 9.5392504E+00  2.6099636E+01
 9.5507507E+00  2.6004339E+01
 9.5622501E+00  2.5924368E+01
 9.5737505E+00  2.5840200E+01
 9.5852509E+00  2.5764469E+01
 9.5967503E+00  2.5752798E+01
 9.6082506E+00  2.5761829E+01
 9.6197500E+00  2.5828726E+01
 9.6312504E+00  2.5772514E+01
 9.6427507E+00  2.5678667E+01
 9.6542501E+00  2.5609905E+01
 9.6657505E+00  2.5481594E+01
 9.6772509E+00  2.5377970E+01
 9.6887503E+00  2.5262255E+01
 9.7002506E+00  2.5204382E+01
 9.7117500E+00  2.5243969E+01
 9.7232504E+00  2.5303764E+01
 9.7347507E+00  2.5340672E+01
 9.7462502E+00  2.5320444E+01
 9.7577505E+00  2.5207682E+01
 9.7692509E+00  2.5119148E+01
 9.7807503E+00  2.5048985E+01
 9.7922506E+00  2.5063681E+01
 9.8037500E+00  2.5086353E+01
 9.8152504E+00  2.5079172E+01
 9.8267508E+00  2.4952385E+01
 9.8382502E+00  2.4897202E+01
 9.8497505E+00  2.4795004E+01
 9.8612509E+00  2.4771065E+01
 9.8727503E+00  2.4669636E+01
 9.8842506E+00  2.4625113E+01
 9.8957500E+00  2.4627316E+01
 9.9072504E+00  2.4620815E+01
 9.9187508E+00  2.4638269E+01
 9.9302502E+00  2.4602221E+01
 9.9417505E+00  2.4553364E+01
 9.9532509E+00  2.4423399E+01
 9.9647503E+00  2.4312746E+01
 9.9762506E+00  2.4241734E+01
 9.9877501E+00  2.4210360E+01
 9.9992504E+00  2.4263186E+01
 1.0010751E+01  2.4245085E+01
 1.0022250E+01  2.4223537E+01
 1.0033751E+01  2.4178776E+01
 1.0045251E+01  2.4198109E+01
 1.0056750E+01  2.4194025E+01
 1.0068251E+01  2.4150583E+01
 1.0079750E+01  2.4032185E+01
 1.0091250E+01  2.3974863E+01
 1.0102751E+01  2.3916262E+01
 1.0114250E+01  2.3970350E+01
 1.0125751E+01  2.4005178E+01
 1.0137251E+01  2.3978132E+01
 1.0148750E+01  2.3963453E+01
 1.0160251E+01  2.3941952E+01
 1.0171750E+01  2.3912775E+01
 1.0183250E+01  2.3892586E+01
 1.0194751E+01  2.3860897E+01
 1.0206250E+01  2.3867682E+01
 1.0217751E+01  2.3794353E+01
 1.0229251E+01  2.3750992E+01
 1.0240750E+01  2.3703945E+01
 1.0252251E+01  2.3641336E+01
 1.0263750E+01  2.3584585E+01
 1.0275250E+01  2.3576925E+01
 1.0286751E+01  2.3593796E+01
 1.0298250E+01  2.3627493E+01
 1.0309751E+01  2.3700237E+01
 1.0321251E+01  2.3635555E+01
 1.0332750E+01  2.3576668E+01
 1.0344251E+01  2.3421791E+01
 1.0355750E+01  2.3377094E+01
 1.0367250E+01  2.3324179E+01
 1.0378751E+01  2.3299839E+01
 1.0390250E+01  2.3350615E+01
 1.0401751E+01  2.3366882E+01
 1.0413251E+01  2.3388687E+01
 1.0424750E+01  2.3396353E+01
 1.0436251E+01  2.3380013E+01
 1.0447750E+01  2.3320267E+01
 1.0459250E+01  2.3258596E+01
 1.0470751E+01  2.3211126E+01
 1.0482250E+01  2.3224224E+01
 1.0493751E+01  2.3227053E+01
 1.0505251E+01  2.3204113E+01
 1.0516750E+01  2.3176319E+01
 1.0528251E+01  2.3102953E+01
 1.0539750E+01  2.3065031E+01
 1.0551250E+01  2.3047089E+01
 1.0562751E+01  2.3073427E+01
 1.0574250E+01  2.3079742E+01
 1.0585751E+01  2.3104235E+01
 1.0597251E+01  2.3090052E+01
 1.0608750E+01  2.3113579E+01
 1.0620251E+01  2.3081018E+01
 1.0631750E+01  2.3103743E+01
 1.0643250E+01  2.3099197E+01
 1.0654751E+01  2.3132950E+01
 1.0666250E+01  2.3087418E+01
 1.0677751E+01  2.3085909E+01
 1.0689251E+01  2.2996183E+01
 1.0700750E+01  2.2965345E+01
 1.0712251E+01  2.2945654E+01
 1.0723750E+01  2.2937824E+01
 1.0735250E+01  2.2912365E+01
 1.0746751E+01  2.2854828E+01
 1.0758250E+01  2.2812502E+01
 1.0769751E+01  2.2797960E+01
 1.0781251E+01  2.2764784E+01
 1.0792750E+01  2.2757153E+01
 1.0804251E+01  2.2697060E+01
 1.0815750E+01  2.2638550E+01
 1.0827250E+01  2.2618559E+01
 1.0838751E+01  2.2629957E+01
 1.0850250E+01  2.2724628E+01
 1.0861751E+01  2.2779736E+01
 1.0873251E+01  2.2826895E+01
 1.0884750E+01  2.2766546E+01
 1.0896251E+01  2.2646191E+01
 1.0907750E+01  2.2592892E+01
 1.0919250E+01  2.2611982E+01
 1.0930751E+01  2.2653490E+01
 1.0942250E+01  2.2652073E+01
 1.0953751E+01  2.2623236E+01
 1.0965251E+01  2.2613440E+01
 1.0976750E+01  2.2618361E+01
 1.0988251E+01  2.2588079E+01
 1.0999750E+01  2.2575663E+01
 1.1011250E+01  2.2544388E+01
 1.1022751E+01  2.2487007E+01
 1.1034250E+01  2.2466990E+01
 1.1045751E+01  2.2455797E+01
 1.1057251E+01  2.2547300E+01
 1.1068750E+01  2.2625002E+01
 1.1080251E+01  2.2678600E+01
 1.1091750E+01  2.2708681E+01
 1.1103251E+01  2.2709707E+01
 1.1114751E+01  2.2705086E+01
 1.1126250E+01  2.2713453E+01
 1.1137751E+01  2.2723650E+01
 1.1149251E+01  2.2758623E+01
 1.1160750E+01  2.2700655E+01
 1.1172251E+01  2.2605680E+01
 1.1183750E+01  2.2501984E+01
 1.1195251E+01  2.2452946E+01
 1.1206751E+01  2.2440598E+01
 1.1218250E+01  2.2448412E+01
 1.1229751E+01  2.2413757E+01
 1.1241251E+01  2.2417953E+01
 1.1252750E+01  2.2372694E+01
 1.1264251E+01  2.2314936E+01
 1.1275750E+01  2.2297621E+01
 1.1287251E+01  2.2292282E+01
 1.1298751E+01  2.2430613E+01
 1.1310250E+01  2.2456442E+01
 1.1321751E+01  2.2508276E+01
 1.1333251E+01  2.2463070E+01
 1.1344750E+01  2.2431934E+01
 1.1356251E+01  2.2448795E+01
 1.1367750E+01  2.2533310E+01
 1.1379251E+01  2.2635828E+01
 1.1390751E+01  2.2691959E+01
 1.1402250E+01  2.2840437E+01
 1.1413751E+01  2.2856356E+01
 1.1425251E+01  2.2895054E+01
 1.1436750E+01  2.2814043E+01
 1.1448251E+01  2.2837629E+01
 1.1459750E+01  2.2867687E+01
 1.1471251E+01  2.2881563E+01
 1.1482751E+01  2.2926622E+01
 1.1494250E+01  2.2967506E+01
 1.1505751E+01  2.3030159E+01
 1.1517251E+01  2.3337729E+01
 1.1528750E+01  2.3758877E+01
 1.1540251E+01  2.4383753E+01
 1.1551750E+01  2.5359764E+01
 1.1563251E+01  2.6523066E+01
 1.1574751E+01  2.7801378E+01
 1.1586250E+01  2.9047865E+01
 1.1597751E+01  2.9455650E+01
 1.1609251E+01  2.9325533E+01
 1.1620750E+01  2.8354065E+01
 1.1632251E+01  2.7214689E+01
 1.1643750E+01  2.6034815E+01
 1.1655251E+01  2.4925615E+01
 1.1666751E+01  2.4247833E+01
 1.1678250E+01  2.3693058E+01
 1.1689751E+01  2.3277365E+01
 1.1701251E+01  2.3015743E+01
 1.1712750E+01  2.2805656E+01
 1.1724251E+01  2.2653200E+01
 1.1735750E+01  2.2540119E+01
 1.1747251E+01  2.2433542E+01
 1.1758751E+01  2.2424623E+01
 1.1770250E+01  2.2403036E+01
 1.1781751E+01  2.2492010E+01
 1.1793251E+01  2.2482929E+01
 1.1804750E+01  2.2520401E+01
 1.1816251E+01  2.2500929E+01
 1.1827750E+01  2.2487215E+01
 1.1839251E+01  2.2490572E+01
 1.1850751E+01  2.2489321E+01
 1.1862250E+01  2.2503860E+01
 1.1873751E+01  2.2474247E+01
 1.1885251E+01  2.2468798E+01
 1.1896750E+01  2.2511627E+01
 1.1908251E+01  2.2568317E+01
 1.1919750E+01  2.2659819E+01
 1.1931251E+01  2.2773739E+01
 1.1942751E+01  2.2873390E+01
 1.1954250E+01  2.2922665E+01
 1.1965751E+01  2.3017624E+01
 1.1977251E+01  2.3122408E+01
 1.1988750E+01  2.3244562E+01
 1.2000251E+01  2.3321499E+01
 1.2011750E+01  2.3409988E+01
 1.2023251E+01  2.3614077E+01
 1.2034751E+01  2.3903469E+01
 1.2046250E+01  2.4339706E+01
 1.2057751E+01  2.5023214E+01
 1.2069251E+01  2.6092505E+01
 1.2080750E+01  2.6875786E+01
 1.2092251E+01  2.7917854E+01
 1.2103750E+01  2.7923840E+01
 1.2115251E+01  2.7833046E+01
 1.2126751E+01  2.6628765E+01
 1.2138250E+01  2.5684914E+01
 1.2149751E+01  2.4613398E+01
 1.2161251E+01  2.3912548E+01
 1.2172750E+01  2.3379404E+01
 1.2184251E+01  2.3150822E+01
 1.2195750E+01  2.2966219E+01
 1.2207251E+01  2.2827805E+01
 1.2218751E+01  2.2657543E+01
 1.2230250E+01  2.2556808E+01
 1.2241751E+01  2.2512730E+01
 1.2253251E+01  2.2526024E+01
 1.2264750E+01  2.2526272E+01
 1.2276251E+01  2.2475189E+01
 1.2287750E+01  2.2498451E+01
 1.2299251E+01  2.2528446E+01
 1.2310751E+01  2.2608515E+01
 1.2322250E+01  2.2629473E+01
 1.2333751E+01  2.2634825E+01
 1.2345250E+01  2.2651384E+01
 1.2356750E+01  2.2685034E+01
 1.2368251E+01  2.2697002E+01
 1.2379750E+01  2.2662195E+01
 1.2391251E+01  2.2637930E+01
 1.2402751E+01  2.2600107E+01
 1.2414250E+01  2.2570431E+01
 1.2425751E+01  2.2532099E+01
 1.2437250E+01  2.2558588E+01
 1.2448750E+01  2.2604910E+01
 1.2460251E+01  2.2603571E+01
 1.2471750E+01  2.2630968E+01
 1.2483251E+01  2.2671741E+01
 1.2494751E+01  2.2664589E+01
 1.2506250E+01  2.2646160E+01
 1.2517751E+01  2.2615896E+01
 1.2529250E+01  2.2628931E+01
 1.2540751E+01  2.2629095E+01
 1.2552251E+01  2.2617146E+01
 1.2563750E+01  2.2642103E+01
 1.2575251E+01  2.2655493E+01
 1.2586751E+01  2.2726686E+01
 1.2598250E+01  2.2807764E+01
 1.2609751E+01  2.2923403E+01
 1.2621250E+01  2.3016087E+01
 1.2632751E+01  2.3085661E+01
 1.2644251E+01  2.3053699E+01
 1.2655750E+01  2.3010149E+01
 1.2667251E+01  2.2969715E+01
 1.2678751E+01  2.2952288E+01
 1.2690250E+01  2.2922558E+01
 1.2701751E+01  2.2944843E+01
 1.2713250E+01  2.3017588E+01
 1.2724751E+01  2.3041582E+01
 1.2736251E+01  2.2995255E+01
 1.2747750E+01  2.2963684E+01
 1.2759251E+01  2.3012463E+01
 1.2770751E+01  2.3095732E+01
 1.2782250E+01  2.3199148E+01
 1.2793751E+01  2.3211710E+01
 1.2805250E+01  2.3269117E+01
 1.2816751E+01  2.3270250E+01
 1.2828251E+01  2.3304125E+01
 1.2839750E+01  2.3348465E+01
 1.2851251E+01  2.3378807E+01
 1.2862751E+01  2.3464634E+01
 1.2874250E+01  2.3516994E+01
 1.2885751E+01  2.3535395E+01
 1.2897250E+01  2.3550238E+01
 1.2908751E+01  2.3570463E+01
 1.2920251E+01  2.3647173E+01
 1.2931750E+01  2.3712994E+01
 1.2943251E+01  2.3735689E+01
 1.2954751E+01  2.3744659E+01
 1.2966250E+01  2.3750837E+01
 1.2977751E+01  2.3797886E+01
 1.2989250E+01  2.3838037E+01
 1.3000751E+01  2.3891346E+01
 1.3012251E+01  2.3964710E+01
 1.3023750E+01  2.4053497E+01
 1.3035251E+01  2.4163731E+01
 1.3046751E+01  2.4205261E+01
 1.3058250E+01  2.4310915E+01
 1.3069751E+01  2.4319901E+01
 1.3081250E+01  2.4416059E+01
 1.3092751E+01  2.4509142E+01
 1.3104251E+01  2.4699375E+01
 1.3115750E+01  2.4876520E+01
 1.3127251E+01  2.5002163E+01
 1.3138751E+01  2.5053654E+01
 1.3150250E+01  2.5141659E+01
 1.3161751E+01  2.5210896E+01
 1.3173250E+01  2.5328861E+01
 1.3184751E+01  2.5406605E+01
 1.3196251E+01  2.5553923E+01
 1.3207750E+01  2.5754192E+01
 1.3219251E+01  2.5922089E+01
 1.3230751E+01  2.6122477E+01
 1.3242250E+01  2.6276203E+01
 1.3253751E+01  2.6368935E+01
 1.3265250E+01  2.6434280E+01
 1.3276751E+01  2.6478325E+01
 1.3288251E+01  2.6593201E+01
 1.3299750E+01  2.6709438E+01
 1.3311251E+01  2.6847752E+01
 1.3322751E+01  2.7075638E+01
 1.3334250E+01  2.7281532E+01
 1.3345751E+01  2.7439907E+01
 1.3357250E+01  2.7597406E+01
 1.3368751E+01  2.7716467E+01
 1.3380251E+01  2.7947035E+01
 1.3391750E+01  2.8067554E+01
 1.3403251E+01  2.8224958E+01
 1.3414751E+01  2.8307362E+01
 1.3426250E+01  2.8404060E+01
 1.3437751E+01  2.8523932E+01
 1.3449250E+01  2.8645859E+01
 1.3460751E+01  2.8784977E+01
 1.3472251E+01  2.8868025E+01
 1.3483750E+01  2.8969343E+01
 1.3495251E+01  2.9007652E+01
 1.3506751E+01  2.9120813E+01
 1.3518250E+01  2.9211744E+01
 1.3529751E+01  2.9304211E+01
 1.3541250E+01  2.9361401E+01
 1.3552751E+01  2.9400208E+01
 1.3564251E+01  2.9497057E+01
 1.3575750E+01  2.9593777E+01
 1.3587251E+01  2.9652288E+01
 1.3598751E+01  2.9719324E+01
 1.3610250E+01  2.9694578E+01
 1.3621751E+01  2.9759075E+01
 1.3633250E+01  2.9746662E+01
 1.3644751E+01  2.9840574E+01
 1.3656251E+01  2.9833435E+01
 1.3667750E+01  2.9902153E+01
 1.3679251E+01  2.9855644E+01
 1.3690751E+01  2.9803989E+01
 1.3702250E+01  2.9661320E+01
 1.3713751E+01  2.9587402E+01
 1.3725250E+01  2.9554281E+01
 1.3736751E+01  2.9583784E+01
 1.3748251E+01  2.9546923E+01
 1.3759750E+01  2.9527451E+01
 1.3771251E+01  2.9487740E+01
 1.3782751E+01  2.9461842E+01
 1.3794250E+01  2.9420525E+01
 1.3805751E+01  2.9389296E+01
 1.3817250E+01  2.9393900E+01
 1.3828751E+01  2.9440222E+01
 1.3840251E+01  2.9515444E+01
 1.3851750E+01  2.9671616E+01
 1.3863251E+01  2.9926777E+01
 1.3874751E+01  3.0363016E+01
 1.3886250E+01  3.1163887E+01
 1.3897751E+01  3.2236282E+01
 1.3909250E+01  3.3879944E+01
 1.3920751E+01  3.5864632E+01
 1.3932251E+01  3.8343716E+01
 1.3943750E+01  4.0784405E+01
 1.3955251E+01  4.2592892E+01
 1.3966751E+01  4.3113792E+01
 1.3978251E+01  4.1679161E+01
 1.3989751E+01  3.9116642E+01
 1.4001250E+01  3.6053650E+01
 1.4012751E+01  3.3394321E+01
 1.4024251E+01  3.1373049E+01
 1.4035750E+01  3.0165955E+01
 1.4047251E+01  2.9211981E+01
 1.4058751E+01  2.8730759E+01
 1.4070251E+01  2.8317291E+01
 1.4081751E+01  2.8057436E+01
 1.4093250E+01  2.7822588E+01
 1.4104751E+01  2.7658678E+01
 1.4116251E+01  2.7571531E+01
 1.4127750E+01  2.7494526E+01
 1.4139251E+01  2.7388535E+01
 1.4150751E+01  2.7305033E+01
 1.4162251E+01  2.7242077E+01
 1.4173751E+01  2.7172297E+01
 1.4185250E+01  2.7082775E+01
 1.4196751E+01  2.6997557E+01
 1.4208251E+01  2.6947723E+01
 1.4219750E+01  2.6819126E+01
 1.4231251E+01  2.6724102E+01
 1.4242751E+01  2.6628284E+01
 1.4254251E+01  2.6599443E+01
 1.4265751E+01  2.6519606E+01
 1.4277250E+01  2.6506201E+01
 1.4288751E+01  2.6496162E+01
 1.4300251E+01  2.6473431E+01
 1.4311750E+01  2.6373409E+01
 1.4323251E+01  2.6199650E+01
 1.4334751E+01  2.6058243E+01
 1.4346251E+01  2.5969744E+01
 1.4357751E+01  2.5945866E+01
 1.4369250E+01  2.5986197E+01
 1.4380751E+01  2.6027142E+01
 1.4392251E+01  2.6079256E+01
 1.4403750E+01  2.6113317E+01
 1.4415251E+01  2.6098869E+01
 1.4426751E+01  2.6048470E+01
 1.4438251E+01  2.5959238E+01
 1.4449751E+01  2.5865608E+01
 1.4461250E+01  2.5795208E+01
 1.4472751E+01  2.5753733E+01
 1.4484251E+01  2.5755959E+01
 1.4495750E+01  2.5723728E+01
 1.4507251E+01  2.5676870E+01
 1.4518751E+01  2.5604450E+01
 1.4530251E+01  2.5634398E+01
 1.4541751E+01  2.5598785E+01
 1.4553250E+01  2.5658031E+01
 1.4564751E+01  2.5634237E+01
 1.4576251E+01  2.5624962E+01
 1.4587750E+01  2.5579828E+01
 1.4599251E+01  2.5509365E+01
 1.4610751E+01  2.5475554E+01
 1.4622251E+01  2.5439821E+01
 1.4633751E+01  2.5464548E+01
 1.4645250E+01  2.5511961E+01
 1.4656751E+01  2.5465973E+01
 1.4668251E+01  2.5493212E+01
 1.4679750E+01  2.5515642E+01
 1.4691251E+01  2.5578711E+01
 1.4702751E+01  2.5552757E+01
 1.4714251E+01  2.5428207E+01
 1.4725751E+01  2.5322878E+01
 1.4737250E+01  2.5195175E+01
 1.4748751E+01  2.5117941E+01
 1.4760251E+01  2.5053541E+01
 1.4771750E+01  2.5039637E+01
 1.4783251E+01  2.5015699E+01
 1.4794751E+01  2.4991142E+01
 1.4806251E+01  2.4973312E+01
 1.4817751E+01  2.4937267E+01
 1.4829250E+01  2.4914114E+01
 1.4840751E+01  2.4846544E+01
 1.4852251E+01  2.4839760E+01
 1.4863750E+01  2.4795675E+01
 1.4875251E+01  2.4795849E+01
 1.4886751E+01  2.4813625E+01
 1.4898251E+01  2.4869614E+01
 1.4909751E+01  2.4935465E+01
 1.4921250E+01  2.4934771E+01
 1.4932751E+01  2.4939659E+01
 1.4944251E+01  2.4882244E+01
 1.4955750E+01  2.4861094E+01
 1.4967251E+01  2.4814056E+01
 1.4978751E+01  2.4794382E+01
 1.4990251E+01  2.4785082E+01
 1.5001751E+01  2.4839890E+01
 1.5013250E+01  2.4891325E+01
 1.5024751E+01  2.4947845E+01
 1.5036251E+01  2.4898888E+01
 1.5047750E+01  2.4865173E+01
 1.5059251E+01  2.4818262E+01
 1.5070751E+01  2.4826118E+01
 1.5082251E+01  2.4827852E+01
 1.5093751E+01  2.4861471E+01
 1.5105250E+01  2.4930593E+01
 1.5116751E+01  2.5081223E+01
 1.5128251E+01  2.5269716E+01
 1.5139750E+01  2.5608036E+01
 1.5151251E+01  2.6059059E+01
 1.5162751E+01  2.6687666E+01
 1.5174251E+01  2.7247452E+01
 1.5185751E+01  2.7800079E+01
 1.5197250E+01  2.7902248E+01
 1.5208751E+01  2.7965458E+01
 1.5220251E+01  2.7513088E+01
 1.5231750E+01  2.7007341E+01
 1.5243251E+01  2.6237576E+01
 1.5254751E+01  2.5711363E+01
 1.5266251E+01  2.5234007E+01
 1.5277751E+01  2.4989122E+01
 1.5289250E+01  2.4860653E+01
 1.5300751E+01  2.4786526E+01
 1.5312251E+01  2.4745062E+01
 1.5323750E+01  2.4700533E+01
 1.5335251E+01  2.4674116E+01
 1.5346751E+01  2.4632425E+01
 1.5358251E+01  2.4632324E+01
 1.5369751E+01  2.4603729E+01
 1.5381250E+01  2.4541357E+01
 1.5392751E+01  2.4489901E+01
 1.5404251E+01  2.4488720E+01
 1.5415751E+01  2.4460939E+01
 1.5427251E+01  2.4463318E+01
 1.5438751E+01  2.4477083E+01
 1.5450251E+01  2.4482594E+01
 1.5461751E+01  2.4488209E+01
 1.5473250E+01  2.4437216E+01
 1.5484751E+01  2.4429672E+01
 1.5496251E+01  2.4404808E+01
 1.5507751E+01  2.4457073E+01
 1.5519251E+01  2.4505976E+01
 1.5530751E+01  2.4536402E+01
 1.5542251E+01  2.4539185E+01
 1.5553751E+01  2.4537306E+01
 1.5565250E+01  2.4568600E+01
 1.5576751E+01  2.4611153E+01
 1.5588251E+01  2.4594030E+01
 1.5599751E+01  2.4615217E+01
 1.5611251E+01  2.4566751E+01
 1.5622751E+01  2.4567429E+01
 1.5634251E+01  2.4545584E+01
 1.5645751E+01  2.4590527E+01
 1.5657250E+01  2.4670649E+01
 1.5668751E+01  2.4717489E+01
 1.5680251E+01  2.4720646E+01
 1.5691751E+01  2.4700277E+01
 1.5703251E+01  2.4684599E+01
 1.5714751E+01  2.4663090E+01
 1.5726251E+01  2.4683041E+01
 1.5737751E+01  2.4715609E+01
 1.5749250E+01  2.4739630E+01
 1.5760751E+01  2.4709410E+01
 1.5772251E+01  2.4654470E+01
 1.5783751E+01  2.4607168E+01
 1.5795251E+01  2.4546520E+01
 1.5806751E+01  2.4535921E+01
 1.5818251E+01  2.4515001E+01
 1.5829751E+01  2.4473192E+01
 1.5841250E+01  2.4450764E+01
 1.5852751E+01  2.4456999E+01
 1.5864251E+01  2.4457464E+01
 1.5875751E+01  2.4502420E+01
 1.5887251E+01  2.4571388E+01
 1.5898750E+01  2.4645126E+01
 1.5910251E+01  2.4693958E+01
 1.5921751E+01  2.4728554E+01
 1.5933250E+01  2.4742809E+01
 1.5944751E+01  2.4702759E+01
 1.5956251E+01  2.4646564E+01
 1.5967751E+01  2.4581234E+01
 1.5979251E+01  2.4582869E+01
 1.5990750E+01  2.4598160E+01
 1.6002251E+01  2.4604849E+01
 1.6013750E+01  2.4599028E+01
 1.6025251E+01  2.4561802E+01
 1.6036751E+01  2.4623344E+01
 1.6048250E+01  2.4640188E+01
 1.6059752E+01  2.4703665E+01
 1.6071251E+01  2.4654411E+01
 1.6082750E+01  2.4674934E+01
 1.6094252E+01  2.4620464E+01
 1.6105751E+01  2.4631887E+01
 1.6117250E+01  2.4631161E+01
 1.6128750E+01  2.4652794E+01
 1.6140251E+01  2.4736814E+01
 1.6151751E+01  2.4734402E+01
 1.6163250E+01  2.4774582E+01
 1.6174751E+01  2.4750790E+01
 1.6186251E+01  2.4881207E+01
 1.6197750E+01  2.4869617E+01
 1.6209251E+01  2.5031897E+01
 1.6220751E+01  2.5012653E+01
 1.6232250E+01  2.5201384E+01
 1.6243752E+01  2.5304289E+01
 1.6255251E+01  2.5442106E+01
 1.6266750E+01  2.5611752E+01
 1.6278252E+01  2.5451588E+01
 1.6289751E+01  2.5530947E+01
 1.6301250E+01  2.5096525E+01
 1.6312750E+01  2.5199589E+01
 1.6324251E+01  2.4909409E+01
 1.6335751E+01  2.4942867E+01
 1.6347250E+01  2.4738329E+01
 1.6358751E+01  2.4661047E+01
 1.6370251E+01  2.4567730E+01
 1.6381750E+01  2.4539074E+01
 1.6393251E+01  2.4504772E+01
 1.6404751E+01  2.4547850E+01
 1.6416250E+01  2.4587637E+01
 1.6427752E+01  2.4629580E+01
 1.6439251E+01  2.4643694E+01
 1.6450750E+01  2.4598888E+01
 1.6462252E+01  2.4587494E+01
 1.6473751E+01  2.4582289E+01
 1.6485250E+01  2.4612026E+01
 1.6496750E+01  2.4640383E+01
 1.6508251E+01  2.4637993E+01
 1.6519751E+01  2.4621626E+01
 1.6531250E+01  2.4642813E+01
 1.6542751E+01  2.4691660E+01
 1.6554251E+01  2.4742817E+01
 1.6565750E+01  2.4751909E+01
 1.6577251E+01  2.4796103E+01
 1.6588751E+01  2.4892559E+01
 1.6600250E+01  2.4901075E+01
 1.6611752E+01  2.4809326E+01
 1.6623251E+01  2.4657558E+01
 1.6634750E+01  2.4557655E+01
 1.6646252E+01  2.4500452E+01
 1.6657751E+01  2.4464037E+01
 1.6669250E+01  2.4464827E+01
 1.6680750E+01  2.4477867E+01
 1.6692251E+01  2.4534132E+01
 1.6703751E+01  2.4566975E+01
 1.6715250E+01  2.4607662E+01
 1.6726751E+01  2.4589548E+01
 1.6738251E+01  2.4600412E+01
 1.6749750E+01  2.4603334E+01
 1.6761251E+01  2.4590485E+01
 1.6772751E+01  2.4582838E+01
 1.6784250E+01  2.4565960E+01
 1.6795752E+01  2.4561674E+01
 1.6807251E+01  2.4608257E+01
 1.6818750E+01  2.4622255E+01
 1.6830252E+01  2.4644272E+01
 1.6841751E+01  2.4592211E+01
 1.6853251E+01  2.4556667E+01
 1.6864750E+01  2.4575048E+01
 1.6876251E+01  2.4595139E+01
 1.6887751E+01  2.4590799E+01
 1.6899250E+01  2.4504396E+01
 1.6910751E+01  2.4441126E+01
 1.6922251E+01  2.4432726E+01
 1.6933750E+01  2.4405392E+01
 1.6945251E+01  2.4377178E+01
 1.6956751E+01  2.4307505E+01
 1.6968250E+01  2.4305635E+01
 1.6979752E+01  2.4278530E+01
 1.6991251E+01  2.4299095E+01
 1.7002750E+01  2.4320177E+01
 1.7014252E+01  2.4340687E+01
 1.7025751E+01  2.4342533E+01
 1.7037251E+01  2.4313242E+01
 1.7048750E+01  2.4337950E+01
 1.7060251E+01  2.4302578E+01
 1.7071751E+01  2.4274233E+01
 1.7083250E+01  2.4193253E+01
 1.7094751E+01  2.4157965E+01
 1.7106251E+01  2.4162577E+01
 1.7117750E+01  2.4168695E+01
 1.7129251E+01  2.4179865E+01
 1.7140751E+01  2.4182735E+01
 1.7152250E+01  2.4190681E+01
 1.7163752E+01  2.4160475E+01
 1.7175251E+01  2.4171164E+01
 1.7186750E+01  2.4175737E+01
 1.7198252E+01  2.4261257E+01
 1.7209751E+01  2.4248070E+01
 1.7221251E+01  2.4215511E+01
 1.7232750E+01  2.4218948E+01
 1.7244251E+01  2.4213800E+01
 1.7255751E+01  2.4169910E+01
 1.7267250E+01  2.4113119E+01
 1.7278751E+01  2.4058470E+01
 1.7290251E+01  2.4082741E+01
 1.7301750E+01  2.4070547E+01
 1.7313251E+01  2.4123640E+01
 1.7324751E+01  2.4159136E+01
 1.7336250E+01  2.4156815E+01
 1.7347752E+01  2.4096018E+01
 1.7359251E+01  2.4013910E+01
 1.7370750E+01  2.4002188E+01
 1.7382252E+01  2.3993690E+01
 1.7393751E+01  2.4007778E+01
 1.7405251E+01  2.3994606E+01
 1.7416750E+01  2.4028057E+01
 1.7428251E+01  2.3968739E+01
 1.7439751E+01  2.3933464E+01
 1.7451250E+01  2.3903376E+01
 1.7462751E+01  2.3931820E+01
 1.7474251E+01  2.3932461E+01
 1.7485750E+01  2.3917042E+01
 1.7497252E+01  2.3898962E+01
 1.7508751E+01  2.3896519E+01
 1.7520250E+01  2.3886265E+01
 1.7531752E+01  2.3892502E+01
 1.7543251E+01  2.3923738E+01
 1.7554750E+01  2.3926399E+01
 1.7566252E+01  2.3933760E+01
 1.7577751E+01  2.3917696E+01
 1.7589251E+01  2.3926022E+01
 1.7600750E+01  2.3985071E+01
 1.7612251E+01  2.3999237E+01
 1.7623751E+01  2.4024971E+01
 1.7635250E+01  2.3959808E+01
 1.7646751E+01  2.3934574E+01
 1.7658251E+01  2.3894169E+01
 1.7669750E+01  2.3883987E+01
 1.7681252E+01  2.3836506E+01
 1.7692751E+01  2.3858824E+01
 1.7704250E+01  2.3857979E+01
 1.7715752E+01  2.3887611E+01
 1.7727251E+01  2.3859945E+01
 1.7738750E+01  2.3856413E+01
 1.7750252E+01  2.3839104E+01
 1.7761751E+01  2.3812059E+01
 1.7773251E+01  2.3833689E+01
 1.7784750E+01  2.3855453E+01
 1.7796251E+01  2.3942604E+01
 1.7807751E+01  2.3938423E+01
 1.7819250E+01  2.3920172E+01
 1.7830751E+01  2.3843666E+01
 1.7842251E+01  2.3812449E+01
 1.7853750E+01  2.3808187E+01
 1.7865252E+01  2.3812189E+01
 1.7876751E+01  2.3830944E+01
 1.7888250E+01  2.3798130E+01
 1.7899752E+01  2.3790216E+01
 1.7911251E+01  2.3884199E+01
 1.7922750E+01  2.4008917E+01
 1.7934252E+01  2.4055693E+01
 1.7945751E+01  2.4066618E+01
 1.7957251E+01  2.4110832E+01
 1.7968750E+01  2.4250731E+01
 1.7980251E+01  2.4414726E+01
 1.7991751E+01  2.4745506E+01
 1.8003250E+01  2.5064598E+01
 1.8014751E+01  2.5348915E+01
 1.8026251E+01  2.5619244E+01
 1.8037750E+01  2.5669708E+01
 1.8049252E+01  2.5722246E+01
 1.8060751E+01  2.5484783E+01
 1.8072250E+01  2.5471987E+01
 1.8083752E+01  2.5420462E+01
 1.8095251E+01  2.5509871E+01
 1.8106750E+01  2.5449318E+01
 1.8118252E+01  2.5431948E+01
 1.8129751E+01  2.5279310E+01
 1.8141251E+01  2.5138176E+01
 1.8152750E+01  2.4871264E+01
 1.8164251E+01  2.4681616E+01
 1.8175751E+01  2.4416822E+01
 1.8187250E+01  2.4229532E+01
 1.8198751E+01  2.4045965E+01
 1.8210251E+01  2.3972000E+01
 1.8221750E+01  2.3898361E+01
 1.8233252E+01  2.3851351E+01
 1.8244751E+01  2.3768402E+01
 1.8256250E+01  2.3756178E+01
 1.8267752E+01  2.3697834E+01
 1.8279251E+01  2.3707634E+01
 1.8290751E+01  2.3652845E+01
 1.8302252E+01  2.3708019E+01
 1.8313751E+01  2.3746305E+01
 1.8325251E+01  2.3780437E+01
 1.8336750E+01  2.3785412E+01
 1.8348251E+01  2.3774054E+01
 1.8359751E+01  2.3833925E+01
 1.8371250E+01  2.3823345E+01
 1.8382751E+01  2.3801647E+01
 1.8394251E+01  2.3748774E+01
 1.8405750E+01  2.3803827E+01
 1.8417252E+01  2.3818699E+01
 1.8428751E+01  2.3791176E+01
 1.8440250E+01  2.3753000E+01
 1.8451752E+01  2.3731550E+01
 1.8463251E+01  2.3764385E+01
 1.8474751E+01  2.3761570E+01
 1.8486252E+01  2.3731747E+01
 1.8497751E+01  2.3698683E+01
 1.8509251E+01  2.3667326E+01
 1.8520750E+01  2.3665117E+01
 1.8532251E+01  2.3651041E+01
 1.8543751E+01  2.3645021E+01
 1.8555250E+01  2.3644182E+01
 1.8566751E+01  2.3642696E+01
 1.8578251E+01  2.3677881E+01
 1.8589750E+01  2.3696669E+01
 1.8601252E+01  2.3668602E+01
 1.8612751E+01  2.3606417E+01
 1.8624250E+01  2.3529884E+01
 1.8635752E+01  2.3562466E+01
 1.8647251E+01  2.3512907E+01
 1.8658751E+01  2.3526896E+01
 1.8670252E+01  2.3513666E+01
 1.8681751E+01  2.3627438E+01
 1.8693251E+01  2.3632856E+01
 1.8704750E+01  2.3674065E+01
 1.8716251E+01  2.3633327E+01
 1.8727751E+01  2.3649599E+01
 1.8739250E+01  2.3577322E+01
 1.8750751E+01  2.3590191E+01
 1.8762251E+01  2.3549269E+01
 1.8773750E+01  2.3560329E+01
 1.8785252E+01  2.3597971E+01
 1.8796751E+01  2.3657410E+01
 1.8808250E+01  2.3688324E+01
 1.8819752E+01  2.3661711E+01
 1.8831251E+01  2.3609728E+01
 1.8842751E+01  2.3573668E+01
 1.8854252E+01  2.3562958E+01
 1.8865751E+01  2.3569862E+01
 1.8877251E+01  2.3564835E+01
 1.8888750E+01  2.3555655E+01
 1.8900251E+01  2.3568224E+01
 1.8911751E+01  2.3554197E+01
 1.8923250E+01  2.3578526E+01
 1.8934752E+01  2.3596048E+01
 1.8946251E+01  2.3620798E+01
 1.8957750E+01  2.3581015E+01
 1.8969252E+01  2.3547972E+01
 1.8980751E+01  2.3511911E+01
 1.8992250E+01  2.3500032E+01
 1.9003752E+01  2.3550806E+01
 1.9015251E+01  2.3617376E+01
 1.9026751E+01  2.3669449E+01
 1.9038252E+01  2.3671928E+01
 1.9049751E+01  2.3629200E+01
 1.9061251E+01  2.3609875E+01
 1.9072750E+01  2.3604288E+01
 1.9084251E+01  2.3632221E+01
 1.9095751E+01  2.3639835E+01
 1.9107250E+01  2.3602369E+01
 1.9118752E+01  2.3578518E+01
 1.9130251E+01  2.3583290E+01
 1.9141750E+01  2.3606850E+01
 1.9153252E+01  2.3597071E+01
 1.9164751E+01  2.3609062E+01
 1.9176250E+01  2.3632097E+01
 1.9187752E+01  2.3683725E+01
 1.9199251E+01  2.3651268E+01
 1.9210751E+01  2.3662388E+01
 1.9222252E+01  2.3642729E+01
 1.9233751E+01  2.3619589E+01
 1.9245251E+01  2.3593439E+01
 1.9256750E+01  2.3624630E+01
 1.9268251E+01  2.3683432E+01
 1.9279751E+01  2.3625898E+01
 1.9291250E+01  2.3635820E+01
 1.9302752E+01  2.3653013E+01
 1.9314251E+01  2.3697035E+01
 1.9325750E+01  2.3734755E+01
 1.9337252E+01  2.3769703E+01
 1.9348751E+01  2.3795437E+01
 1.9360250E+01  2.3773865E+01
 1.9371752E+01  2.3797768E+01
 1.9383251E+01  2.3806004E+01
 1.9394751E+01  2.3852379E+01
 1.9406250E+01  2.3891275E+01
 1.9417751E+01  2.3927292E+01
 1.9429251E+01  2.3914188E+01
 1.9440750E+01  2.3900909E+01
 1.9452251E+01  2.3902065E+01
 1.9463751E+01  2.3924517E+01
 1.9475250E+01  2.3965174E+01
 1.9486752E+01  2.4005783E+01
 1.9498251E+01  2.3991098E+01
 1.9509750E+01  2.3994951E+01
 1.9521252E+01  2.4073046E+01
 1.9532751E+01  2.4158518E+01
 1.9544250E+01  2.4261896E+01
 1.9555752E+01  2.4325356E+01
 1.9567251E+01  2.4367414E+01
 1.9578751E+01  2.4467716E+01
 1.9590250E+01  2.4558788E+01
 1.9601751E+01  2.4713324E+01
 1.9613251E+01  2.4985178E+01
 1.9624750E+01  2.5374050E+01
 1.9636251E+01  2.6212347E+01
 1.9647751E+01  2.7298264E+01
 1.9659250E+01  2.9158907E+01
 1.9670752E+01  3.1326618E+01
 1.9682251E+01  3.3425556E+01
 1.9693750E+01  3.5516987E+01
 1.9705252E+01  3.5804096E+01
 1.9716751E+01  3.5703861E+01
 1.9728251E+01  3.3668434E+01
 1.9739752E+01  3.1791922E+01
 1.9751251E+01  2.9831985E+01
 1.9762751E+01  2.8333305E+01
 1.9774250E+01  2.7565060E+01
 1.9785751E+01  2.6808945E+01
 1.9797251E+01  2.6897095E+01
 1.9808750E+01  2.7178293E+01
 1.9820251E+01  2.7447224E+01
 1.9831751E+01  2.8768631E+01
 1.9843250E+01  2.9414074E+01
 1.9854752E+01  3.0275539E+01
 1.9866251E+01  3.1203432E+01
 1.9877750E+01  3.0730644E+01
 1.9889252E+01  3.0105309E+01
 1.9900751E+01  2.8164356E+01
 1.9912251E+01  2.7672588E+01
 1.9923752E+01  2.5978380E+01
 1.9935251E+01  2.5482840E+01
 1.9946751E+01  2.4991297E+01
 1.9958250E+01  2.4583260E+01
 1.9969751E+01  2.4529453E+01
 1.9981251E+01  2.4333462E+01
 1.9992750E+01  2.4317060E+01
 2.0004251E+01  2.4201723E+01
 2.0015751E+01  2.4130381E+01
 2.0027250E+01  2.4030153E+01
 2.0038752E+01  2.3986969E+01
 2.0050251E+01  2.3973827E+01
 2.0061750E+01  2.3945364E+01
 2.0073252E+01  2.3910194E+01
 2.0084751E+01  2.3922138E+01
 2.0096251E+01  2.3948112E+01
 2.0107752E+01  2.3947824E+01
 2.0119251E+01  2.3887377E+01
 2.0130751E+01  2.3832533E+01
 2.0142250E+01  2.3757298E+01
 2.0153751E+01  2.3760805E+01
 2.0165251E+01  2.3766190E+01
 2.0176750E+01  2.3826912E+01
 2.0188251E+01  2.3849115E+01
 2.0199751E+01  2.3825741E+01
 2.0211250E+01  2.3780371E+01
 2.0222752E+01  2.3768181E+01
 2.0234251E+01  2.3783628E+01
 2.0245750E+01  2.3800310E+01
 2.0257252E+01  2.3839457E+01
 2.0268751E+01  2.3874756E+01
 2.0280251E+01  2.3839998E+01
 2.0291752E+01  2.3783236E+01
 2.0303251E+01  2.3724466E+01
 2.0314751E+01  2.3732147E+01
 2.0326250E+01  2.3748655E+01
 2.0337751E+01  2.3747225E+01
 2.0349251E+01  2.3688396E+01
 2.0360750E+01  2.3691809E+01
 2.0372252E+01  2.3752205E+01
 2.0383751E+01  2.3819818E+01
 2.0395250E+01  2.3857723E+01
 2.0406752E+01  2.3868341E+01
 2.0418251E+01  2.3898182E+01
 2.0429750E+01  2.3892159E+01
 2.0441252E+01  2.3874075E+01
 2.0452751E+01  2.3838629E+01
 2.0464251E+01  2.3815611E+01
 2.0475752E+01  2.3782486E+01
 2.0487251E+01  2.3753035E+01
 2.0498751E+01  2.3746012E+01
 2.0510250E+01  2.3725943E+01
 2.0521751E+01  2.3740648E+01
 2.0533251E+01  2.3716772E+01
 2.0544750E+01  2.3750677E+01
 2.0556252E+01  2.3816086E+01
 2.0567751E+01  2.3883080E+01
 2.0579250E+01  2.3931532E+01
 2.0590752E+01  2.4012623E+01
 2.0602251E+01  2.4128115E+01
 2.0613750E+01  2.4155684E+01
 2.0625252E+01  2.4133564E+01
 2.0636751E+01  2.4143711E+01
 2.0648251E+01  2.4149347E+01
 2.0659752E+01  2.4170916E+01
 2.0671251E+01  2.4244274E+01
 2.0682751E+01  2.4483665E+01
 2.0694250E+01  2.4737976E+01
 2.0705751E+01  2.5142241E+01
 2.0717251E+01  2.5581589E+01
 2.0728750E+01  2.6162121E+01
 2.0740252E+01  2.6505316E+01
 2.0751751E+01  2.6741985E+01
 2.0763250E+01  2.6726999E+01
 2.0774752E+01  2.6354061E+01
 2.0786251E+01  2.5883562E+01
 2.0797750E+01  2.5345131E+01
 2.0809252E+01  2.4992588E+01
 2.0820751E+01  2.4670507E+01
 2.0832251E+01  2.4484879E+01
 2.0843752E+01  2.4313080E+01
 2.0855251E+01  2.4196514E+01
 2.0866751E+01  2.4128036E+01
 2.0878250E+01  2.4102816E+01
 2.0889751E+01  2.4114285E+01
 2.0901251E+01  2.4163065E+01
 2.0912750E+01  2.4197937E+01
 2.0924252E+01  2.4153078E+01
 2.0935751E+01  2.4121344E+01
 2.0947250E+01  2.4058937E+01
 2.0958752E+01  2.4018959E+01
 2.0970251E+01  2.3989805E+01
 2.0981750E+01  2.4023073E+01
 2.0993252E+01  2.4074953E+01
 2.1004751E+01  2.4061321E+01
 2.1016251E+01  2.4031723E+01
 2.1027752E+01  2.4013191E+01
 2.1039251E+01  2.4023270E+01
 2.1050751E+01  2.3954168E+01
 2.1062250E+01  2.3900883E+01
 2.1073751E+01  2.3949518E+01
 2.1085251E+01  2.3984518E+01
 2.1096750E+01  2.3969994E+01
 2.1108252E+01  2.3971891E+01
 2.1119751E+01  2.4034204E+01
 2.1131250E+01  2.4085369E+01
 2.1142752E+01  2.4069052E+01
 2.1154251E+01  2.3997665E+01
 2.1165751E+01  2.3983944E+01
 2.1177252E+01  2.3982758E+01
 2.1188751E+01  2.4024261E+01
 2.1200251E+01  2.3995274E+01
 2.1211752E+01  2.3957981E+01
 2.1223251E+01  2.3892715E+01
 2.1234751E+01  2.3894709E+01
 2.1246250E+01  2.3926193E+01
 2.1257751E+01  2.3959585E+01
 2.1269251E+01  2.3987675E+01
 2.1280750E+01  2.3979731E+01
 2.1292252E+01  2.3989573E+01
 2.1303751E+01  2.3983660E+01
 2.1315250E+01  2.3944750E+01
 2.1326752E+01  2.3920372E+01
 2.1338251E+01  2.3912880E+01
 2.1349751E+01  2.3930359E+01
 2.1361252E+01  2.3951523E+01
 2.1372751E+01  2.3997553E+01
 2.1384251E+01  2.3972446E+01
 2.1395752E+01  2.3967670E+01
 2.1407251E+01  2.3935698E+01
 2.1418751E+01  2.3973234E+01
 2.1430250E+01  2.3940861E+01
 2.1441751E+01  2.3926609E+01
 2.1453251E+01  2.3910629E+01
 2.1464750E+01  2.3944214E+01
 2.1476252E+01  2.3924858E+01
 2.1487751E+01  2.3965715E+01
 2.1499250E+01  2.3979757E+01
 2.1510752E+01  2.4023973E+01
 2.1522251E+01  2.4037924E+01
 2.1533751E+01  2.4022789E+01
 2.1545252E+01  2.4001629E+01
 2.1556751E+01  2.3999132E+01
 2.1568251E+01  2.4008726E+01
 2.1579752E+01  2.4029068E+01
 2.1591251E+01  2.4073866E+01
 2.1602751E+01  2.4076962E+01
 2.1614250E+01  2.4049158E+01
 2.1625751E+01  2.4008793E+01
 2.1637251E+01  2.4040638E+01
 2.1648750E+01  2.4044954E+01
 2.1660252E+01  2.4127113E+01
 2.1671751E+01  2.4218014E+01
 2.1683250E+01  2.4289492E+01
 2.1694752E+01  2.4290432E+01
 2.1706251E+01  2.4323906E+01
 2.1717751E+01  2.4338072E+01
 2.1729252E+01  2.4267767E+01
 2.1740751E+01  2.4186558E+01
 2.1752251E+01  2.4138700E+01
 2.1763752E+01  2.4138330E+01
 2.1775251E+01  2.4134459E+01
 2.1786751E+01  2.4175573E+01
 2.1798250E+01  2.4179066E+01
 2.1809752E+01  2.4210272E+01
 2.1821251E+01  2.4244455E+01
 2.1832750E+01  2.4259401E+01
 2.1844252E+01  2.4243240E+01
 2.1855751E+01  2.4165125E+01
 2.1867250E+01  2.4145012E+01
 2.1878752E+01  2.4140270E+01
 2.1890251E+01  2.4169159E+01
 2.1901751E+01  2.4205561E+01
 2.1913252E+01  2.4232979E+01
 2.1924751E+01  2.4264408E+01
 2.1936251E+01  2.4268761E+01
 2.1947752E+01  2.4277296E+01
 2.1959251E+01  2.4280424E+01
 2.1970751E+01  2.4329191E+01
 2.1982250E+01  2.4355661E+01
 2.1993752E+01  2.4370533E+01
 2.2005251E+01  2.4350430E+01
 2.2016750E+01  2.4316446E+01
 2.2028252E+01  2.4311844E+01
 2.2039751E+01  2.4343515E+01
 2.2051250E+01  2.4383183E+01
 2.2062752E+01  2.4417603E+01
 2.2074251E+01  2.4449818E+01
 2.2085751E+01  2.4415497E+01
 2.2097252E+01  2.4378761E+01
 2.2108751E+01  2.4313446E+01
 2.2120251E+01  2.4347103E+01
 2.2131752E+01  2.4376293E+01
 2.2143251E+01  2.4381054E+01
 2.2154751E+01  2.4376406E+01
 2.2166250E+01  2.4364851E+01
 2.2177752E+01  2.4336401E+01
 2.2189251E+01  2.4274166E+01
 2.2200750E+01  2.4310480E+01
 2.2212252E+01  2.4356565E+01
 2.2223751E+01  2.4417400E+01
 2.2235250E+01  2.4397028E+01
 2.2246752E+01  2.4407799E+01
 2.2258251E+01  2.4413389E+01
 2.2269751E+01  2.4428329E+01
 2.2281252E+01  2.4469893E+01
 2.2292751E+01  2.4502104E+01
 2.2304251E+01  2.4556213E+01
 2.2315752E+01  2.4581045E+01
 2.2327251E+01  2.4585617E+01
 2.2338751E+01  2.4624805E+01
 2.2350250E+01  2.4632368E+01
 2.2361752E+01  2.4642197E+01
 2.2373251E+01  2.4624987E+01
 2.2384750E+01  2.4584677E+01
 2.2396252E+01  2.4594246E+01
 2.2407751E+01  2.4565481E+01
 2.2419250E+01  2.4584560E+01
 2.2430752E+01  2.4614252E+01
 2.2442251E+01  2.4718349E+01
 2.2453751E+01  2.4733419E+01
 2.2465252E+01  2.4738230E+01
 2.2476751E+01  2.4704285E+01
 2.2488251E+01  2.4683113E+01
 2.2499752E+01  2.4678902E+01
 2.2511251E+01  2.4721441E+01
 2.2522751E+01  2.4783749E+01
 2.2534250E+01  2.4821074E+01
 2.2545752E+01  2.4849339E+01
 2.2557251E+01  2.4838251E+01
 2.2568750E+01  2.4839634E+01
 2.2580252E+01  2.4824360E+01
 2.2591751E+01  2.4872929E+01
 2.2603251E+01  2.4892361E+01
 2.2614752E+01  2.4909060E+01
 2.2626251E+01  2.4923580E+01
 2.2637751E+01  2.4984579E+01
 2.2649252E+01  2.5017015E+01
 2.2660751E+01  2.5033392E+01
 2.2672251E+01  2.5064610E+01
 2.2683752E+01  2.5172825E+01
 2.2695251E+01  2.5232771E+01
 2.2706751E+01  2.5208433E+01
 2.2718250E+01  2.5235018E+01
 2.2729752E+01  2.5226513E+01
 2.2741251E+01  2.5244410E+01
 2.2752750E+01  2.5289017E+01
 2.2764252E+01  2.5351274E+01
 2.2775751E+01  2.5349901E+01
 2.2787251E+01  2.5328974E+01
 2.2798752E+01  2.5363113E+01
 2.2810251E+01  2.5461031E+01
 2.2821751E+01  2.5501011E+01
 2.2833252E+01  2.5592669E+01
 2.2844751E+01  2.5670147E+01
 2.2856251E+01  2.5700874E+01
 2.2867750E+01  2.5737236E+01
 2.2879251E+01  2.5780590E+01
 2.2890751E+01  2.5900949E+01
 2.2902250E+01  2.5953535E+01
 2.2913752E+01  2.6036423E+01
 2.2925251E+01  2.6119297E+01
 2.2936750E+01  2.6150261E+01
 2.2948252E+01  2.6185537E+01
 2.2959751E+01  2.6203772E+01
 2.2971251E+01  2.6385040E+01
 2.2982752E+01  2.6551538E+01
 2.2994251E+01  2.6736237E+01
