F:\20151113_APS_34IDE\\Brian\Particle1\OCV\Data_0080.tif
2-Theta Angle (Degrees)
Intensity
       2000
 5.7500005E-03  0.0000000E+00
 1.7250001E-02  0.0000000E+00
 2.8750001E-02  0.0000000E+00
 4.0250003E-02  0.0000000E+00
 5.1750004E-02  0.0000000E+00
 6.3250005E-02  0.0000000E+00
 7.4750006E-02  0.0000000E+00
 8.6250007E-02  0.0000000E+00
 9.7750008E-02  0.0000000E+00
 1.0925001E-01  0.0000000E+00
 1.2075000E-01  0.0000000E+00
 1.3225001E-01  0.0000000E+00
 1.4375001E-01  0.0000000E+00
 1.5525001E-01  0.0000000E+00
 1.6675001E-01  0.0000000E+00
 1.7825001E-01  0.0000000E+00
 1.8975002E-01  0.0000000E+00
 2.0125002E-01  0.0000000E+00
 2.1275002E-01  0.0000000E+00
 2.2425000E-01  0.0000000E+00
 2.3575000E-01  0.0000000E+00
 2.4725001E-01  0.0000000E+00
 2.5875002E-01  0.0000000E+00
 2.7025002E-01  0.0000000E+00
 2.8175002E-01  0.0000000E+00
 2.9325002E-01  0.0000000E+00
 3.0475003E-01  0.0000000E+00
 3.1625003E-01  0.0000000E+00
 3.2775003E-01  0.0000000E+00
 3.3925003E-01  0.0000000E+00
 3.5075003E-01  0.0000000E+00
 3.6225003E-01  0.0000000E+00
 3.7375003E-01  0.0000000E+00
 3.8525003E-01  0.0000000E+00
 3.9675003E-01  0.0000000E+00
 4.0825003E-01  0.0000000E+00
 4.1975003E-01  0.0000000E+00
 4.3125004E-01  0.0000000E+00
 4.4275001E-01  0.0000000E+00
 4.5425001E-01  0.0000000E+00
 4.6575001E-01  0.0000000E+00
 4.7725001E-01  0.0000000E+00
 4.8875001E-01  0.0000000E+00
 5.0025004E-01  0.0000000E+00
 5.1175004E-01  0.0000000E+00
 5.2325004E-01  0.0000000E+00
 5.3475004E-01  0.0000000E+00
 5.4625005E-01  0.0000000E+00
 5.5775005E-01  0.0000000E+00
 5.6925005E-01  0.0000000E+00
 5.8075005E-01  0.0000000E+00
 5.9225005E-01  0.0000000E+00
 6.0375005E-01  0.0000000E+00
 6.1525005E-01  0.0000000E+00
 6.2675005E-01  0.0000000E+00
 6.3825005E-01  0.0000000E+00
 6.4975005E-01  0.0000000E+00
 6.6125005E-01  0.0000000E+00
 6.7275006E-01  0.0000000E+00
 6.8425006E-01  0.0000000E+00
 6.9575006E-01  0.0000000E+00
 7.0725006E-01  0.0000000E+00
 7.1875006E-01  0.0000000E+00
 7.3025006E-01  0.0000000E+00
 7.4175006E-01  0.0000000E+00
 7.5325006E-01  0.0000000E+00
 7.6475006E-01  0.0000000E+00
 7.7625006E-01  0.0000000E+00
 7.8775007E-01  0.0000000E+00
 7.9925007E-01  0.0000000E+00
 8.1075007E-01  0.0000000E+00
 8.2225007E-01  0.0000000E+00
 8.3375007E-01  0.0000000E+00
 8.4525007E-01  0.0000000E+00
 8.5675007E-01  0.0000000E+00
 8.6825007E-01  0.0000000E+00
 8.7975001E-01  0.0000000E+00
 8.9125001E-01  0.0000000E+00
 9.0275002E-01  0.0000000E+00
 9.1425002E-01  0.0000000E+00
 9.2575002E-01  0.0000000E+00
 9.3725002E-01  0.0000000E+00
 9.4875002E-01  0.0000000E+00
 9.6025002E-01  0.0000000E+00
 9.7175002E-01  0.0000000E+00
 9.8325002E-01  0.0000000E+00
 9.9475002E-01  0.0000000E+00
 1.0062500E+00  0.0000000E+00
 1.0177500E+00  0.0000000E+00
 1.0292500E+00  0.0000000E+00
 1.0407500E+00  0.0000000E+00
 1.0522500E+00  0.0000000E+00
 1.0637500E+00  0.0000000E+00
 1.0752500E+00  0.0000000E+00
 1.0867500E+00  0.0000000E+00
 1.0982500E+00  0.0000000E+00
 1.1097500E+00  0.0000000E+00
 1.1212500E+00  0.0000000E+00
 1.1327500E+00  0.0000000E+00
 1.1442500E+00  0.0000000E+00
 1.1557500E+00  0.0000000E+00
 1.1672500E+00  0.0000000E+00
 1.1787500E+00  0.0000000E+00
 1.1902500E+00  0.0000000E+00
 1.2017500E+00  0.0000000E+00
 1.2132500E+00  0.0000000E+00
 1.2247500E+00  0.0000000E+00
 1.2362500E+00  0.0000000E+00
 1.2477500E+00  0.0000000E+00
 1.2592500E+00  0.0000000E+00
 1.2707500E+00  0.0000000E+00
 1.2822500E+00  0.0000000E+00
 1.2937500E+00  0.0000000E+00
 1.3052500E+00  0.0000000E+00
 1.3167500E+00  0.0000000E+00
 1.3282501E+00  0.0000000E+00
 1.3397501E+00  0.0000000E+00
 1.3512501E+00  0.0000000E+00
 1.3627501E+00  0.0000000E+00
 1.3742501E+00  0.0000000E+00
 1.3857501E+00  0.0000000E+00
 1.3972501E+00  0.0000000E+00
 1.4087501E+00  0.0000000E+00
 1.4202501E+00  0.0000000E+00
 1.4317501E+00  0.0000000E+00
 1.4432501E+00  0.0000000E+00
 1.4547501E+00  0.0000000E+00
 1.4662501E+00  0.0000000E+00
 1.4777501E+00  0.0000000E+00
 1.4892501E+00  0.0000000E+00
 1.5007501E+00  0.0000000E+00
 1.5122501E+00  0.0000000E+00
 1.5237501E+00  0.0000000E+00
 1.5352501E+00  0.0000000E+00
 1.5467501E+00  0.0000000E+00
 1.5582501E+00  0.0000000E+00
 1.5697501E+00  0.0000000E+00
 1.5812501E+00  0.0000000E+00
 1.5927501E+00  0.0000000E+00
 1.6042501E+00  0.0000000E+00
 1.6157501E+00  0.0000000E+00
 1.6272501E+00  0.0000000E+00
 1.6387501E+00  0.0000000E+00
 1.6502501E+00  0.0000000E+00
 1.6617501E+00  0.0000000E+00
 1.6732501E+00  0.0000000E+00
 1.6847501E+00  0.0000000E+00
 1.6962501E+00  0.0000000E+00
 1.7077501E+00  0.0000000E+00
 1.7192501E+00  0.0000000E+00
 1.7307501E+00  0.0000000E+00
 1.7422501E+00  0.0000000E+00
 1.7537501E+00  0.0000000E+00
 1.7652501E+00  0.0000000E+00
 1.7767501E+00  0.0000000E+00
 1.7882501E+00  0.0000000E+00
 1.7997501E+00  0.0000000E+00
 1.8112501E+00  0.0000000E+00
 1.8227501E+00  0.0000000E+00
 1.8342501E+00  0.0000000E+00
 1.8457501E+00  0.0000000E+00
 1.8572501E+00  0.0000000E+00
 1.8687501E+00  0.0000000E+00
 1.8802501E+00  0.0000000E+00
 1.8917501E+00  0.0000000E+00
 1.9032501E+00  0.0000000E+00
 1.9147501E+00  0.0000000E+00
 1.9262501E+00  0.0000000E+00
 1.9377501E+00  0.0000000E+00
 1.9492501E+00  0.0000000E+00
 1.9607501E+00  0.0000000E+00
 1.9722501E+00  0.0000000E+00
 1.9837501E+00  0.0000000E+00
 1.9952501E+00  0.0000000E+00
 2.0067501E+00  0.0000000E+00
 2.0182500E+00  0.0000000E+00
 2.0297501E+00  0.0000000E+00
 2.0412500E+00  0.0000000E+00
 2.0527501E+00  0.0000000E+00
 2.0642500E+00  0.0000000E+00
 2.0757501E+00  0.0000000E+00
 2.0872500E+00  0.0000000E+00
 2.0987501E+00  0.0000000E+00
 2.1102500E+00  0.0000000E+00
 2.1217501E+00  0.0000000E+00
 2.1332500E+00  0.0000000E+00
 2.1447501E+00  0.0000000E+00
 2.1562500E+00  0.0000000E+00
 2.1677501E+00  0.0000000E+00
 2.1792500E+00  0.0000000E+00
 2.1907501E+00  0.0000000E+00
 2.2022500E+00  0.0000000E+00
 2.2137501E+00  0.0000000E+00
 2.2252500E+00  0.0000000E+00
 2.2367501E+00  0.0000000E+00
 2.2482500E+00  0.0000000E+00
 2.2597501E+00  0.0000000E+00
 2.2712500E+00  0.0000000E+00
 2.2827501E+00  0.0000000E+00
 2.2942500E+00  0.0000000E+00
 2.3057501E+00  0.0000000E+00
 2.3172500E+00  0.0000000E+00
 2.3287501E+00  0.0000000E+00
 2.3402500E+00  0.0000000E+00
 2.3517501E+00  0.0000000E+00
 2.3632500E+00  0.0000000E+00
 2.3747501E+00  0.0000000E+00
 2.3862500E+00  0.0000000E+00
 2.3977501E+00  0.0000000E+00
 2.4092500E+00  0.0000000E+00
 2.4207501E+00  0.0000000E+00
 2.4322500E+00  0.0000000E+00
 2.4437501E+00  0.0000000E+00
 2.4552500E+00  0.0000000E+00
 2.4667501E+00  0.0000000E+00
 2.4782500E+00  0.0000000E+00
 2.4897501E+00  0.0000000E+00
 2.5012500E+00  0.0000000E+00
 2.5127501E+00  0.0000000E+00
 2.5242500E+00  0.0000000E+00
 2.5357502E+00  0.0000000E+00
 2.5472500E+00  0.0000000E+00
 2.5587502E+00  0.0000000E+00
 2.5702500E+00  0.0000000E+00
 2.5817502E+00  0.0000000E+00
 2.5932500E+00  0.0000000E+00
 2.6047502E+00  0.0000000E+00
 2.6162500E+00  0.0000000E+00
 2.6277502E+00  0.0000000E+00
 2.6392500E+00  0.0000000E+00
 2.6507502E+00  0.0000000E+00
 2.6622500E+00  0.0000000E+00
 2.6737502E+00  0.0000000E+00
 2.6852500E+00  0.0000000E+00
 2.6967502E+00  0.0000000E+00
 2.7082500E+00  0.0000000E+00
 2.7197502E+00  0.0000000E+00
 2.7312500E+00  0.0000000E+00
 2.7427502E+00  0.0000000E+00
 2.7542500E+00  0.0000000E+00
 2.7657502E+00  0.0000000E+00
 2.7772501E+00  0.0000000E+00
 2.7887502E+00  0.0000000E+00
 2.8002501E+00  0.0000000E+00
 2.8117502E+00  0.0000000E+00
 2.8232501E+00  3.5517796E+01
 2.8347502E+00  3.5591442E+01
 2.8462501E+00  3.5574665E+01
 2.8577502E+00  3.4980797E+01
 2.8692501E+00  3.4718567E+01
 2.8807502E+00  3.4329601E+01
 2.8922501E+00  3.4195892E+01
 2.9037502E+00  3.4083405E+01
 2.9152501E+00  3.4188179E+01
 2.9267502E+00  3.4385181E+01
 2.9382501E+00  3.4766991E+01
 2.9497502E+00  3.4988525E+01
 2.9612501E+00  3.5162399E+01
 2.9727502E+00  3.5244682E+01
 2.9842501E+00  3.5401455E+01
 2.9957502E+00  3.5890774E+01
 3.0072501E+00  3.5955429E+01
 3.0187502E+00  3.6083607E+01
 3.0302501E+00  3.5872246E+01
 3.0417502E+00  3.5910400E+01
 3.0532501E+00  3.5731186E+01
 3.0647502E+00  3.5694664E+01
 3.0762501E+00  3.5781082E+01
 3.0877502E+00  3.5711849E+01
 3.0992501E+00  3.5807148E+01
 3.1107502E+00  3.5629330E+01
 3.1222501E+00  3.5831108E+01
 3.1337502E+00  3.5692356E+01
 3.1452501E+00  3.5913990E+01
 3.1567502E+00  3.5636250E+01
 3.1682501E+00  3.5432632E+01
 3.1797502E+00  3.5361748E+01
 3.1912501E+00  3.5206390E+01
 3.2027502E+00  3.5607365E+01
 3.2142501E+00  3.5430748E+01
 3.2257502E+00  3.5620300E+01
 3.2372501E+00  3.5492500E+01
 3.2487502E+00  3.5512150E+01
 3.2602501E+00  3.5601250E+01
 3.2717502E+00  3.5673164E+01
 3.2832501E+00  3.5704678E+01
 3.2947502E+00  3.5982220E+01
 3.3062501E+00  3.6243107E+01
 3.3177502E+00  3.6113060E+01
 3.3292501E+00  3.5843201E+01
 3.3407502E+00  3.5348797E+01
 3.3522501E+00  3.5588356E+01
 3.3637502E+00  3.5364826E+01
 3.3752501E+00  3.5275616E+01
 3.3867502E+00  3.4796673E+01
 3.3982501E+00  3.4789948E+01
 3.4097502E+00  3.4389538E+01
 3.4212501E+00  3.4353348E+01
 3.4327502E+00  3.4016632E+01
 3.4442501E+00  3.3764988E+01
 3.4557502E+00  3.3497597E+01
 3.4672501E+00  3.3404953E+01
 3.4787502E+00  3.3603542E+01
 3.4902501E+00  3.4190292E+01
 3.5017502E+00  3.4384941E+01
 3.5132501E+00  3.4294090E+01
 3.5247502E+00  3.4129021E+01
 3.5362501E+00  3.4123020E+01
 3.5477502E+00  3.4092510E+01
 3.5592501E+00  3.4080784E+01
 3.5707502E+00  3.3775311E+01
 3.5822501E+00  3.3637886E+01
 3.5937502E+00  3.3530434E+01
 3.6052501E+00  3.3417477E+01
 3.6167502E+00  3.3448063E+01
 3.6282501E+00  3.3550972E+01
 3.6397502E+00  3.3458080E+01
 3.6512501E+00  3.3727673E+01
 3.6627502E+00  3.3619289E+01
 3.6742501E+00  3.3693634E+01
 3.6857502E+00  3.3618946E+01
 3.6972501E+00  3.3594555E+01
 3.7087502E+00  3.3514771E+01
 3.7202501E+00  3.3422504E+01
 3.7317502E+00  3.3367836E+01
 3.7432501E+00  3.3468613E+01
 3.7547503E+00  3.3497711E+01
 3.7662501E+00  3.3335392E+01
 3.7777503E+00  3.3252373E+01
 3.7892501E+00  3.3046627E+01
 3.8007503E+00  3.2916283E+01
 3.8122501E+00  3.2882362E+01
 3.8237503E+00  3.2949055E+01
 3.8352501E+00  3.3015121E+01
 3.8467503E+00  3.2824375E+01
 3.8582501E+00  3.2896576E+01
 3.8697503E+00  3.2827118E+01
 3.8812501E+00  3.3006393E+01
 3.8927503E+00  3.2885090E+01
 3.9042501E+00  3.2777481E+01
 3.9157503E+00  3.2752102E+01
 3.9272501E+00  3.2783764E+01
 3.9387503E+00  3.2953369E+01
 3.9502501E+00  3.2931034E+01
 3.9617503E+00  3.2922585E+01
 3.9732502E+00  3.2943398E+01
 3.9847503E+00  3.2979427E+01
 3.9962502E+00  3.3053028E+01
 4.0077500E+00  3.3013691E+01
 4.0192504E+00  3.2853333E+01
 4.0307503E+00  3.2547802E+01
 4.0422502E+00  3.2343655E+01
 4.0537500E+00  3.2334938E+01
 4.0652504E+00  3.2361568E+01
 4.0767503E+00  3.2282536E+01
 4.0882502E+00  3.2365379E+01
 4.0997500E+00  3.2282425E+01
 4.1112504E+00  3.2336201E+01
 4.1227503E+00  3.2259251E+01
 4.1342502E+00  3.2404247E+01
 4.1457500E+00  3.2566715E+01
 4.1572504E+00  3.2465569E+01
 4.1687503E+00  3.2448719E+01
 4.1802502E+00  3.2136063E+01
 4.1917500E+00  3.2301174E+01
 4.2032504E+00  3.2221500E+01
 4.2147503E+00  3.2327232E+01
 4.2262502E+00  3.2202663E+01
 4.2377501E+00  3.2116207E+01
 4.2492504E+00  3.2016277E+01
 4.2607503E+00  3.2043983E+01
 4.2722502E+00  3.2030987E+01
 4.2837501E+00  3.2144501E+01
 4.2952504E+00  3.2166264E+01
 4.3067503E+00  3.2296001E+01
 4.3182502E+00  3.2245621E+01
 4.3297501E+00  3.2303955E+01
 4.3412504E+00  3.2206711E+01
 4.3527503E+00  3.2221912E+01
 4.3642502E+00  3.2142555E+01
 4.3757501E+00  3.2199654E+01
 4.3872504E+00  3.2192619E+01
 4.3987503E+00  3.2306515E+01
 4.4102502E+00  3.2448700E+01
 4.4217501E+00  3.2554245E+01
 4.4332504E+00  3.2647636E+01
 4.4447503E+00  3.2779255E+01
 4.4562502E+00  3.2750965E+01
 4.4677501E+00  3.2711216E+01
 4.4792504E+00  3.2613060E+01
 4.4907503E+00  3.2621082E+01
 4.5022502E+00  3.2608864E+01
 4.5137501E+00  3.2449692E+01
 4.5252504E+00  3.2423225E+01
 4.5367503E+00  3.2400513E+01
 4.5482502E+00  3.2362003E+01
 4.5597501E+00  3.2316334E+01
 4.5712504E+00  3.2216316E+01
 4.5827503E+00  3.2173496E+01
 4.5942502E+00  3.2263519E+01
 4.6057501E+00  3.2373730E+01
 4.6172504E+00  3.2450840E+01
 4.6287503E+00  3.2448277E+01
 4.6402502E+00  3.2642330E+01
 4.6517501E+00  3.2813179E+01
 4.6632504E+00  3.3045235E+01
 4.6747503E+00  3.3059891E+01
 4.6862502E+00  3.3192890E+01
 4.6977501E+00  3.3093033E+01
 4.7092505E+00  3.2971992E+01
 4.7207503E+00  3.2813370E+01
 4.7322502E+00  3.2723171E+01
 4.7437501E+00  3.2681797E+01
 4.7552505E+00  3.2670856E+01
 4.7667503E+00  3.2637138E+01
 4.7782502E+00  3.2652527E+01
 4.7897501E+00  3.2648399E+01
 4.8012505E+00  3.2521545E+01
 4.8127503E+00  3.2472763E+01
 4.8242502E+00  3.2301689E+01
 4.8357501E+00  3.2428284E+01
 4.8472505E+00  3.2490547E+01
 4.8587503E+00  3.2740192E+01
 4.8702502E+00  3.2836384E+01
 4.8817501E+00  3.2862347E+01
 4.8932505E+00  3.2879471E+01
 4.9047503E+00  3.2909054E+01
 4.9162502E+00  3.3068245E+01
 4.9277501E+00  3.3157692E+01
 4.9392505E+00  3.3227459E+01
 4.9507504E+00  3.3078625E+01
 4.9622502E+00  3.2896111E+01
 4.9737501E+00  3.2799068E+01
 4.9852505E+00  3.2802837E+01
 4.9967504E+00  3.2880535E+01
 5.0082502E+00  3.2993824E+01
 5.0197501E+00  3.3156326E+01
 5.0312505E+00  3.3291714E+01
 5.0427504E+00  3.3224949E+01
 5.0542502E+00  3.3160751E+01
 5.0657501E+00  3.3161140E+01
 5.0772505E+00  3.3247536E+01
 5.0887504E+00  3.3306007E+01
 5.1002502E+00  3.3334591E+01
 5.1117501E+00  3.3383762E+01
 5.1232505E+00  3.3367783E+01
 5.1347504E+00  3.3515175E+01
 5.1462502E+00  3.3502834E+01
 5.1577501E+00  3.3677269E+01
 5.1692505E+00  3.3659504E+01
 5.1807504E+00  3.3793056E+01
 5.1922503E+00  3.3829700E+01
 5.2037501E+00  3.3805901E+01
 5.2152505E+00  3.3921871E+01
 5.2267504E+00  3.3951569E+01
 5.2382503E+00  3.4100697E+01
 5.2497501E+00  3.4007401E+01
 5.2612505E+00  3.4229389E+01
 5.2727504E+00  3.4354881E+01
 5.2842503E+00  3.4478325E+01
 5.2957501E+00  3.4527084E+01
 5.3072500E+00  3.4459835E+01
 5.3187504E+00  3.4494476E+01
 5.3302503E+00  3.4389442E+01
 5.3417501E+00  3.4356533E+01
 5.3532500E+00  3.4304878E+01
 5.3647504E+00  3.4358055E+01
 5.3762503E+00  3.4338367E+01
 5.3877501E+00  3.4411396E+01
 5.3992500E+00  3.4333851E+01
 5.4107504E+00  3.4380081E+01
 5.4222503E+00  3.4444798E+01
 5.4337502E+00  3.4547577E+01
 5.4452500E+00  3.4843285E+01
 5.4567504E+00  3.4953339E+01
 5.4682503E+00  3.4960770E+01
 5.4797502E+00  3.4859943E+01
 5.4912500E+00  3.4595318E+01
 5.5027504E+00  3.4550850E+01
 5.5142503E+00  3.4503075E+01
 5.5257502E+00  3.4614662E+01
 5.5372500E+00  3.4724514E+01
 5.5487504E+00  3.4847229E+01
 5.5602503E+00  3.4918137E+01
 5.5717502E+00  3.5111809E+01
 5.5832500E+00  3.5199795E+01
 5.5947504E+00  3.5345055E+01
 5.6062503E+00  3.5430038E+01
 5.6177502E+00  3.5466644E+01
 5.6292500E+00  3.5504459E+01
 5.6407504E+00  3.5462948E+01
 5.6522503E+00  3.5531261E+01
 5.6637502E+00  3.5638153E+01
 5.6752501E+00  3.5764713E+01
 5.6867504E+00  3.5737095E+01
 5.6982503E+00  3.5752499E+01
 5.7097502E+00  3.5616386E+01
 5.7212501E+00  3.5578178E+01
 5.7327504E+00  3.5523121E+01
 5.7442503E+00  3.5626492E+01
 5.7557502E+00  3.5688374E+01
 5.7672501E+00  3.5774719E+01
 5.7787504E+00  3.5838558E+01
 5.7902503E+00  3.5901802E+01
 5.8017502E+00  3.5951012E+01
 5.8132501E+00  3.6009342E+01
 5.8247504E+00  3.6036072E+01
 5.8362503E+00  3.6086891E+01
 5.8477502E+00  3.6106480E+01
 5.8592501E+00  3.6165951E+01
 5.8707504E+00  3.6302586E+01
 5.8822503E+00  3.6601955E+01
 5.8937502E+00  3.7022686E+01
 5.9052501E+00  3.7621418E+01
 5.9167504E+00  3.8630215E+01
 5.9282503E+00  4.0277271E+01
 5.9397502E+00  4.2579979E+01
 5.9512501E+00  4.7263184E+01
 5.9627504E+00  5.0072136E+01
 5.9742503E+00  5.4178028E+01
 5.9857502E+00  5.5247448E+01
 5.9972501E+00  5.6535053E+01
 6.0087504E+00  5.4231884E+01
 6.0202503E+00  5.1555141E+01
 6.0317502E+00  4.7066547E+01
 6.0432501E+00  4.4353436E+01
 6.0547504E+00  4.0786289E+01
 6.0662503E+00  3.9517982E+01
 6.0777502E+00  3.8108246E+01
 6.0892501E+00  3.7694878E+01
 6.1007504E+00  3.7239086E+01
 6.1122503E+00  3.7203026E+01
 6.1237502E+00  3.7099442E+01
 6.1352501E+00  3.7044209E+01
 6.1467505E+00  3.6949848E+01
 6.1582503E+00  3.6994465E+01
 6.1697502E+00  3.7069450E+01
 6.1812501E+00  3.7176422E+01
 6.1927505E+00  3.7149082E+01
 6.2042503E+00  3.7131866E+01
 6.2157502E+00  3.7190948E+01
 6.2272501E+00  3.7281841E+01
 6.2387505E+00  3.7354839E+01
 6.2502503E+00  3.7480209E+01
 6.2617502E+00  3.7529419E+01
 6.2732501E+00  3.7673557E+01
 6.2847505E+00  3.7709801E+01
 6.2962503E+00  3.7712639E+01
 6.3077502E+00  3.7700401E+01
 6.3192501E+00  3.7654839E+01
 6.3307505E+00  3.7768616E+01
 6.3422503E+00  3.7888790E+01
 6.3537502E+00  3.8048637E+01
 6.3652501E+00  3.8107018E+01
 6.3767505E+00  3.8164860E+01
 6.3882504E+00  3.8118778E+01
 6.3997502E+00  3.8082653E+01
 6.4112501E+00  3.8063095E+01
 6.4227505E+00  3.8152550E+01
 6.4342504E+00  3.8250729E+01
 6.4457502E+00  3.8355927E+01
 6.4572501E+00  3.8411400E+01
 6.4687505E+00  3.8516457E+01
 6.4802504E+00  3.8613888E+01
 6.4917502E+00  3.8664913E+01
 6.5032501E+00  3.8753567E+01
 6.5147505E+00  3.8830338E+01
 6.5262504E+00  3.8924557E+01
 6.5377502E+00  3.9002892E+01
 6.5492501E+00  3.9143227E+01
 6.5607505E+00  3.9319103E+01
 6.5722504E+00  3.9404335E+01
 6.5837502E+00  3.9458241E+01
 6.5952501E+00  3.9472195E+01
 6.6067505E+00  3.9500523E+01
 6.6182504E+00  3.9520550E+01
 6.6297503E+00  3.9567360E+01
 6.6412501E+00  3.9677910E+01
 6.6527505E+00  3.9795845E+01
 6.6642504E+00  4.0006310E+01
 6.6757503E+00  4.0039555E+01
 6.6872501E+00  4.0164085E+01
 6.6987505E+00  4.0157520E+01
 6.7102504E+00  4.0356174E+01
 6.7217503E+00  4.0455112E+01
 6.7332501E+00  4.0611778E+01
 6.7447505E+00  4.0682476E+01
 6.7562504E+00  4.0792427E+01
 6.7677503E+00  4.0828728E+01
 6.7792501E+00  4.0979347E+01
 6.7907505E+00  4.1053169E+01
 6.8022504E+00  4.1173939E+01
 6.8137503E+00  4.1256725E+01
 6.8252501E+00  4.1384609E+01
 6.8367505E+00  4.1411419E+01
 6.8482504E+00  4.1467323E+01
 6.8597503E+00  4.1429035E+01
 6.8712502E+00  4.1572075E+01
 6.8827505E+00  4.1667942E+01
 6.8942504E+00  4.1779552E+01
 6.9057503E+00  4.1843224E+01
 6.9172502E+00  4.1989765E+01
 6.9287505E+00  4.2044754E+01
 6.9402504E+00  4.2195972E+01
 6.9517503E+00  4.2197716E+01
 6.9632502E+00  4.2333546E+01
 6.9747505E+00  4.2374302E+01
 6.9862504E+00  4.2335300E+01
 6.9977503E+00  4.2253258E+01
 7.0092502E+00  4.2202068E+01
 7.0207505E+00  4.2201847E+01
 7.0322504E+00  4.2285759E+01
 7.0437503E+00  4.2304165E+01
 7.0552502E+00  4.2512310E+01
 7.0667505E+00  4.2617664E+01
 7.0782504E+00  4.2710804E+01
 7.0897503E+00  4.2779633E+01
 7.1012502E+00  4.2808956E+01
 7.1127505E+00  4.2903473E+01
 7.1242504E+00  4.2931301E+01
 7.1357503E+00  4.2945774E+01
 7.1472502E+00  4.3006088E+01
 7.1587505E+00  4.2979752E+01
 7.1702504E+00  4.3023994E+01
 7.1817503E+00  4.3034721E+01
 7.1932502E+00  4.3107468E+01
 7.2047505E+00  4.3171227E+01
 7.2162504E+00  4.3240173E+01
 7.2277503E+00  4.3248608E+01
 7.2392502E+00  4.3339527E+01
 7.2507505E+00  4.3428383E+01
 7.2622504E+00  4.3518520E+01
 7.2737503E+00  4.3480309E+01
 7.2852502E+00  4.3506718E+01
 7.2967505E+00  4.3435890E+01
 7.3082504E+00  4.3490997E+01
 7.3197503E+00  4.3544609E+01
 7.3312502E+00  4.3678444E+01
 7.3427505E+00  4.3794849E+01
 7.3542504E+00  4.3821636E+01
 7.3657503E+00  4.3799042E+01
 7.3772502E+00  4.3743515E+01
 7.3887506E+00  4.3677013E+01
 7.4002504E+00  4.3654114E+01
 7.4117503E+00  4.3695332E+01
 7.4232502E+00  4.3748314E+01
 7.4347506E+00  4.3802364E+01
 7.4462504E+00  4.3822487E+01
 7.4577503E+00  4.3937160E+01
 7.4692502E+00  4.4102310E+01
 7.4807506E+00  4.4240799E+01
 7.4922504E+00  4.4307060E+01
 7.5037503E+00  4.4278606E+01
 7.5152502E+00  4.4333836E+01
 7.5267506E+00  4.4328388E+01
 7.5382504E+00  4.4364960E+01
 7.5497503E+00  4.4423615E+01
 7.5612502E+00  4.4588490E+01
 7.5727506E+00  4.4552444E+01
 7.5842505E+00  4.4593281E+01
 7.5957503E+00  4.4563431E+01
 7.6072502E+00  4.4503174E+01
 7.6187506E+00  4.4488907E+01
 7.6302505E+00  4.4426750E+01
 7.6417503E+00  4.4570530E+01
 7.6532502E+00  4.4566612E+01
 7.6647506E+00  4.4592190E+01
 7.6762505E+00  4.4517761E+01
 7.6877503E+00  4.4460529E+01
 7.6992502E+00  4.4341583E+01
 7.7107506E+00  4.4417709E+01
 7.7222505E+00  4.4457676E+01
 7.7337503E+00  4.4441422E+01
 7.7452502E+00  4.4436302E+01
 7.7567506E+00  4.4398262E+01
 7.7682505E+00  4.4364864E+01
 7.7797503E+00  4.4277634E+01
 7.7912502E+00  4.4199581E+01
 7.8027506E+00  4.4192360E+01
 7.8142505E+00  4.4266163E+01
 7.8257504E+00  4.4257740E+01
 7.8372502E+00  4.4270267E+01
 7.8487506E+00  4.4217270E+01
 7.8602505E+00  4.4126221E+01
 7.8717504E+00  4.4002972E+01
 7.8832502E+00  4.3839462E+01
 7.8947506E+00  4.3685936E+01
 7.9062505E+00  4.3616966E+01
 7.9177504E+00  4.3558395E+01
 7.9292502E+00  4.3640575E+01
 7.9407506E+00  4.3641045E+01
 7.9522505E+00  4.3686378E+01
 7.9637504E+00  4.3638641E+01
 7.9752502E+00  4.3647034E+01
 7.9867506E+00  4.3539410E+01
 7.9982505E+00  4.3577312E+01
 8.0097504E+00  4.3535954E+01
 8.0212507E+00  4.3540047E+01
 8.0327501E+00  4.3426620E+01
 8.0442505E+00  4.3343555E+01
 8.0557508E+00  4.3272293E+01
 8.0672503E+00  4.3094467E+01
 8.0787506E+00  4.2930725E+01
 8.0902500E+00  4.2757069E+01
 8.1017504E+00  4.2716957E+01
 8.1132507E+00  4.2707844E+01
 8.1247501E+00  4.2592220E+01
 8.1362505E+00  4.2483650E+01
 8.1477509E+00  4.2390495E+01
 8.1592503E+00  4.2412216E+01
 8.1707506E+00  4.2354286E+01
 8.1822500E+00  4.2245369E+01
 8.1937504E+00  4.2036800E+01
 8.2052507E+00  4.1831509E+01
 8.2167501E+00  4.1703259E+01
 8.2282505E+00  4.1590446E+01
 8.2397509E+00  4.1566898E+01
 8.2512503E+00  4.1431732E+01
 8.2627506E+00  4.1339409E+01
 8.2742500E+00  4.1244087E+01
 8.2857504E+00  4.1050701E+01
 8.2972507E+00  4.0853798E+01
 8.3087502E+00  4.0672684E+01
 8.3202505E+00  4.0572201E+01
 8.3317509E+00  4.0406971E+01
 8.3432503E+00  4.0121914E+01
 8.3547506E+00  3.9850773E+01
 8.3662500E+00  3.9641262E+01
 8.3777504E+00  3.9442646E+01
 8.3892508E+00  3.9307362E+01
 8.4007502E+00  3.9240868E+01
 8.4122505E+00  3.9142113E+01
 8.4237509E+00  3.9097038E+01
 8.4352503E+00  3.8943382E+01
 8.4467506E+00  3.8813831E+01
 8.4582500E+00  3.8606678E+01
 8.4697504E+00  3.8384342E+01
 8.4812508E+00  3.8199699E+01
 8.4927502E+00  3.7968678E+01
 8.5042505E+00  3.7743416E+01
 8.5157509E+00  3.7614521E+01
 8.5272503E+00  3.7466343E+01
 8.5387506E+00  3.7437840E+01
 8.5502501E+00  3.7296005E+01
 8.5617504E+00  3.7226704E+01
 8.5732508E+00  3.7011517E+01
 8.5847502E+00  3.6791004E+01
 8.5962505E+00  3.6528709E+01
 8.6077509E+00  3.6316578E+01
 8.6192503E+00  3.6203171E+01
 8.6307507E+00  3.6021488E+01
 8.6422501E+00  3.5769989E+01
 8.6537504E+00  3.5444431E+01
 8.6652508E+00  3.5212513E+01
 8.6767502E+00  3.5087593E+01
 8.6882505E+00  3.4987843E+01
 8.6997509E+00  3.4796349E+01
 8.7112503E+00  3.4613808E+01
 8.7227507E+00  3.4390274E+01
 8.7342501E+00  3.4261513E+01
 8.7457504E+00  3.4122829E+01
 8.7572508E+00  3.4056652E+01
 8.7687502E+00  3.3981369E+01
 8.7802505E+00  3.3860401E+01
 8.7917500E+00  3.3656948E+01
 8.8032503E+00  3.3451984E+01
 8.8147507E+00  3.3318344E+01
 8.8262501E+00  3.3150711E+01
 8.8377504E+00  3.2987720E+01
 8.8492508E+00  3.2760273E+01
 8.8607502E+00  3.2626663E+01
 8.8722506E+00  3.2420895E+01
 8.8837500E+00  3.2249138E+01
 8.8952503E+00  3.2105312E+01
 8.9067507E+00  3.2054012E+01
 8.9182501E+00  3.1958807E+01
 8.9297504E+00  3.1842955E+01
 8.9412508E+00  3.1644974E+01
 8.9527502E+00  3.1488588E+01
 8.9642506E+00  3.1314453E+01
 8.9757500E+00  3.1096846E+01
 8.9872503E+00  3.0952553E+01
 8.9987507E+00  3.0672918E+01
 9.0102501E+00  3.0553654E+01
 9.0217505E+00  3.0387640E+01
 9.0332508E+00  3.0306858E+01
 9.0447502E+00  3.0221243E+01
 9.0562506E+00  3.0071779E+01
 9.0677500E+00  3.0060444E+01
 9.0792503E+00  2.9910755E+01
 9.0907507E+00  2.9796373E+01
 9.1022501E+00  2.9665840E+01
 9.1137505E+00  2.9581932E+01
 9.1252508E+00  2.9523466E+01
 9.1367502E+00  2.9430996E+01
 9.1482506E+00  2.9332111E+01
 9.1597500E+00  2.9287931E+01
 9.1712503E+00  2.9129311E+01
 9.1827507E+00  2.9017078E+01
 9.1942501E+00  2.8847179E+01
 9.2057505E+00  2.8723654E+01
 9.2172508E+00  2.8641783E+01
 9.2287502E+00  2.8495134E+01
 9.2402506E+00  2.8418058E+01
 9.2517500E+00  2.8235779E+01
 9.2632504E+00  2.8103937E+01
 9.2747507E+00  2.7979246E+01
 9.2862501E+00  2.7878473E+01
 9.2977505E+00  2.7813276E+01
 9.3092508E+00  2.7733669E+01
 9.3207502E+00  2.7571869E+01
 9.3322506E+00  2.7459230E+01
 9.3437500E+00  2.7289148E+01
 9.3552504E+00  2.7267221E+01
 9.3667507E+00  2.7230837E+01
 9.3782501E+00  2.7161510E+01
 9.3897505E+00  2.7115360E+01
 9.4012508E+00  2.7016331E+01
 9.4127502E+00  2.6919655E+01
 9.4242506E+00  2.6768078E+01
 9.4357500E+00  2.6692478E+01
 9.4472504E+00  2.6640779E+01
 9.4587507E+00  2.6669577E+01
 9.4702501E+00  2.6671974E+01
 9.4817505E+00  2.6684534E+01
 9.4932508E+00  2.6657276E+01
 9.5047503E+00  2.6548611E+01
 9.5162506E+00  2.6497047E+01
 9.5277500E+00  2.6366941E+01
 9.5392504E+00  2.6324680E+01
 9.5507507E+00  2.6229691E+01
 9.5622501E+00  2.6245064E+01
 9.5737505E+00  2.6146332E+01
 9.5852509E+00  2.6029005E+01
 9.5967503E+00  2.5950371E+01
 9.6082506E+00  2.5838581E+01
 9.6197500E+00  2.5758945E+01
 9.6312504E+00  2.5592846E+01
 9.6427507E+00  2.5501343E+01
 9.6542501E+00  2.5447430E+01
 9.6657505E+00  2.5344143E+01
 9.6772509E+00  2.5266575E+01
 9.6887503E+00  2.5165277E+01
 9.7002506E+00  2.5152630E+01
 9.7117500E+00  2.5145279E+01
 9.7232504E+00  2.5154009E+01
 9.7347507E+00  2.5158667E+01
 9.7462502E+00  2.5113165E+01
 9.7577505E+00  2.5069387E+01
 9.7692509E+00  2.5031237E+01
 9.7807503E+00  2.5054129E+01
 9.7922506E+00  2.5070690E+01
 9.8037500E+00  2.5015972E+01
 9.8152504E+00  2.4929506E+01
 9.8267508E+00  2.4850548E+01
 9.8382502E+00  2.4809158E+01
 9.8497505E+00  2.4767408E+01
 9.8612509E+00  2.4666271E+01
 9.8727503E+00  2.4619757E+01
 9.8842506E+00  2.4472834E+01
 9.8957500E+00  2.4433365E+01
 9.9072504E+00  2.4355852E+01
 9.9187508E+00  2.4417841E+01
 9.9302502E+00  2.4422733E+01
 9.9417505E+00  2.4445730E+01
 9.9532509E+00  2.4415960E+01
 9.9647503E+00  2.4416475E+01
 9.9762506E+00  2.4424669E+01
 9.9877501E+00  2.4413231E+01
 9.9992504E+00  2.4391912E+01
 1.0010751E+01  2.4313375E+01
 1.0022250E+01  2.4313057E+01
 1.0033751E+01  2.4227999E+01
 1.0045251E+01  2.4209181E+01
 1.0056750E+01  2.4151739E+01
 1.0068251E+01  2.4108006E+01
 1.0079750E+01  2.4079725E+01
 1.0091250E+01  2.4036411E+01
 1.0102751E+01  2.4047318E+01
 1.0114250E+01  2.3987511E+01
 1.0125751E+01  2.3967344E+01
 1.0137251E+01  2.3931547E+01
 1.0148750E+01  2.3974266E+01
 1.0160251E+01  2.3969503E+01
 1.0171750E+01  2.4000244E+01
 1.0183250E+01  2.3957373E+01
 1.0194751E+01  2.3946732E+01
 1.0206250E+01  2.3921839E+01
 1.0217751E+01  2.3940022E+01
 1.0229251E+01  2.3904512E+01
 1.0240750E+01  2.3876177E+01
 1.0252251E+01  2.3792429E+01
 1.0263750E+01  2.3750038E+01
 1.0275250E+01  2.3712788E+01
 1.0286751E+01  2.3630453E+01
 1.0298250E+01  2.3579195E+01
 1.0309751E+01  2.3508259E+01
 1.0321251E+01  2.3542751E+01
 1.0332750E+01  2.3583233E+01
 1.0344251E+01  2.3613811E+01
 1.0355750E+01  2.3638880E+01
 1.0367250E+01  2.3558828E+01
 1.0378751E+01  2.3494110E+01
 1.0390250E+01  2.3448616E+01
 1.0401751E+01  2.3457478E+01
 1.0413251E+01  2.3407082E+01
 1.0424750E+01  2.3316570E+01
 1.0436251E+01  2.3216476E+01
 1.0447750E+01  2.3187517E+01
 1.0459250E+01  2.3167631E+01
 1.0470751E+01  2.3202799E+01
 1.0482250E+01  2.3244858E+01
 1.0493751E+01  2.3295864E+01
 1.0505251E+01  2.3267214E+01
 1.0516750E+01  2.3253798E+01
 1.0528251E+01  2.3193823E+01
 1.0539750E+01  2.3190697E+01
 1.0551250E+01  2.3189510E+01
 1.0562751E+01  2.3211397E+01
 1.0574250E+01  2.3190147E+01
 1.0585751E+01  2.3190405E+01
 1.0597251E+01  2.3122972E+01
 1.0608750E+01  2.3185040E+01
 1.0620251E+01  2.3178288E+01
 1.0631750E+01  2.3245037E+01
 1.0643250E+01  2.3228043E+01
 1.0654751E+01  2.3246119E+01
 1.0666250E+01  2.3239166E+01
 1.0677751E+01  2.3172249E+01
 1.0689251E+01  2.3092201E+01
 1.0700750E+01  2.3019293E+01
 1.0712251E+01  2.2989153E+01
 1.0723750E+01  2.2977461E+01
 1.0735250E+01  2.2914360E+01
 1.0746751E+01  2.2883078E+01
 1.0758250E+01  2.2823141E+01
 1.0769751E+01  2.2833830E+01
 1.0781251E+01  2.2869478E+01
 1.0792750E+01  2.2893499E+01
 1.0804251E+01  2.2936983E+01
 1.0815750E+01  2.2889528E+01
 1.0827250E+01  2.2867838E+01
 1.0838751E+01  2.2803511E+01
 1.0850250E+01  2.2817291E+01
 1.0861751E+01  2.2822384E+01
 1.0873251E+01  2.2816467E+01
 1.0884750E+01  2.2784927E+01
 1.0896251E+01  2.2744911E+01
 1.0907750E+01  2.2738747E+01
 1.0919250E+01  2.2738100E+01
 1.0930751E+01  2.2752632E+01
 1.0942250E+01  2.2743826E+01
 1.0953751E+01  2.2726614E+01
 1.0965251E+01  2.2707054E+01
 1.0976750E+01  2.2700745E+01
 1.0988251E+01  2.2685913E+01
 1.0999750E+01  2.2635811E+01
 1.1011250E+01  2.2611868E+01
 1.1022751E+01  2.2617115E+01
 1.1034250E+01  2.2691595E+01
 1.1045751E+01  2.2674644E+01
 1.1057251E+01  2.2644411E+01
 1.1068750E+01  2.2595881E+01
 1.1080251E+01  2.2624887E+01
 1.1091750E+01  2.2638369E+01
 1.1103251E+01  2.2633963E+01
 1.1114751E+01  2.2635206E+01
 1.1126250E+01  2.2642115E+01
 1.1137751E+01  2.2652855E+01
 1.1149251E+01  2.2649193E+01
 1.1160750E+01  2.2667128E+01
 1.1172251E+01  2.2667366E+01
 1.1183750E+01  2.2625732E+01
 1.1195251E+01  2.2620125E+01
 1.1206751E+01  2.2599100E+01
 1.1218250E+01  2.2619375E+01
 1.1229751E+01  2.2578142E+01
 1.1241251E+01  2.2583620E+01
 1.1252750E+01  2.2603638E+01
 1.1264251E+01  2.2669674E+01
 1.1275750E+01  2.2690140E+01
 1.1287251E+01  2.2689297E+01
 1.1298751E+01  2.2646683E+01
 1.1310250E+01  2.2639650E+01
 1.1321751E+01  2.2652567E+01
 1.1333251E+01  2.2667807E+01
 1.1344750E+01  2.2734083E+01
 1.1356251E+01  2.2864456E+01
 1.1367750E+01  2.2954403E+01
 1.1379251E+01  2.3039419E+01
 1.1390751E+01  2.3083939E+01
 1.1402250E+01  2.3186567E+01
 1.1413751E+01  2.3228851E+01
 1.1425251E+01  2.3226950E+01
 1.1436750E+01  2.3201687E+01
 1.1448251E+01  2.3248760E+01
 1.1459750E+01  2.3270983E+01
 1.1471251E+01  2.3387365E+01
 1.1482751E+01  2.3534454E+01
 1.1494250E+01  2.3591904E+01
 1.1505751E+01  2.4048731E+01
 1.1517251E+01  2.4475540E+01
 1.1528750E+01  2.5081543E+01
 1.1540251E+01  2.8720644E+01
 1.1551750E+01  3.0003874E+01
 1.1563251E+01  3.5745567E+01
 1.1574751E+01  4.6176762E+01
 1.1586250E+01  4.7149284E+01
 1.1597751E+01  5.0594727E+01
 1.1609251E+01  4.2077473E+01
 1.1620750E+01  4.1016163E+01
 1.1632251E+01  3.3860237E+01
 1.1643750E+01  2.8678650E+01
 1.1655251E+01  2.7402330E+01
 1.1666751E+01  2.4940050E+01
 1.1678250E+01  2.4213646E+01
 1.1689751E+01  2.3789320E+01
 1.1701251E+01  2.3329678E+01
 1.1712750E+01  2.3244589E+01
 1.1724251E+01  2.3077648E+01
 1.1735750E+01  2.2969082E+01
 1.1747251E+01  2.2958403E+01
 1.1758751E+01  2.2909374E+01
 1.1770250E+01  2.2910908E+01
 1.1781751E+01  2.2943714E+01
 1.1793251E+01  2.2974792E+01
 1.1804750E+01  2.2965649E+01
 1.1816251E+01  2.2883276E+01
 1.1827750E+01  2.2763130E+01
 1.1839251E+01  2.2642641E+01
 1.1850751E+01  2.2512569E+01
 1.1862250E+01  2.2479643E+01
 1.1873751E+01  2.2488056E+01
 1.1885251E+01  2.2607372E+01
 1.1896750E+01  2.2719120E+01
 1.1908251E+01  2.2801882E+01
 1.1919750E+01  2.2832375E+01
 1.1931251E+01  2.2935373E+01
 1.1942751E+01  2.3153526E+01
 1.1954250E+01  2.3339558E+01
 1.1965751E+01  2.3563673E+01
 1.1977251E+01  2.3716608E+01
 1.1988750E+01  2.3885273E+01
 1.2000251E+01  2.3853979E+01
 1.2011750E+01  2.3840473E+01
 1.2023251E+01  2.3718454E+01
 1.2034751E+01  2.3838837E+01
 1.2046250E+01  2.3948338E+01
 1.2057751E+01  2.4488516E+01
 1.2069251E+01  2.5118858E+01
 1.2080750E+01  2.6066494E+01
 1.2092251E+01  2.6960857E+01
 1.2103750E+01  2.7286215E+01
 1.2115251E+01  2.7181103E+01
 1.2126751E+01  2.6683165E+01
 1.2138250E+01  2.5932331E+01
 1.2149751E+01  2.5203445E+01
 1.2161251E+01  2.4323542E+01
 1.2172750E+01  2.3871042E+01
 1.2184251E+01  2.3349073E+01
 1.2195750E+01  2.3106668E+01
 1.2207251E+01  2.2899622E+01
 1.2218751E+01  2.2815231E+01
 1.2230250E+01  2.2728409E+01
 1.2241751E+01  2.2736647E+01
 1.2253251E+01  2.2758793E+01
 1.2264750E+01  2.2804657E+01
 1.2276251E+01  2.2794706E+01
 1.2287750E+01  2.2800816E+01
 1.2299251E+01  2.2746992E+01
 1.2310751E+01  2.2745108E+01
 1.2322250E+01  2.2683338E+01
 1.2333751E+01  2.2632803E+01
 1.2345250E+01  2.2586681E+01
 1.2356750E+01  2.2605476E+01
 1.2368251E+01  2.2643547E+01
 1.2379750E+01  2.2720722E+01
 1.2391251E+01  2.2741081E+01
 1.2402751E+01  2.2748800E+01
 1.2414250E+01  2.2715630E+01
 1.2425751E+01  2.2736217E+01
 1.2437250E+01  2.2791639E+01
 1.2448750E+01  2.2838804E+01
 1.2460251E+01  2.2861086E+01
 1.2471750E+01  2.2827986E+01
 1.2483251E+01  2.2810329E+01
 1.2494751E+01  2.2741865E+01
 1.2506250E+01  2.2696669E+01
 1.2517751E+01  2.2659128E+01
 1.2529250E+01  2.2622923E+01
 1.2540751E+01  2.2646749E+01
 1.2552251E+01  2.2654371E+01
 1.2563750E+01  2.2701979E+01
 1.2575251E+01  2.2743181E+01
 1.2586751E+01  2.2785154E+01
 1.2598250E+01  2.2872660E+01
 1.2609751E+01  2.2892515E+01
 1.2621250E+01  2.2940300E+01
 1.2632751E+01  2.2949297E+01
 1.2644251E+01  2.2991106E+01
 1.2655750E+01  2.3034790E+01
 1.2667251E+01  2.3054852E+01
 1.2678751E+01  2.3050697E+01
 1.2690250E+01  2.2994051E+01
 1.2701751E+01  2.2983566E+01
 1.2713250E+01  2.3070641E+01
 1.2724751E+01  2.3126919E+01
 1.2736251E+01  2.3151646E+01
 1.2747750E+01  2.3145771E+01
 1.2759251E+01  2.3194965E+01
 1.2770751E+01  2.3234079E+01
 1.2782250E+01  2.3290699E+01
 1.2793751E+01  2.3239313E+01
 1.2805250E+01  2.3258146E+01
 1.2816751E+01  2.3282661E+01
 1.2828251E+01  2.3356304E+01
 1.2839750E+01  2.3387177E+01
 1.2851251E+01  2.3392288E+01
 1.2862751E+01  2.3474640E+01
 1.2874250E+01  2.3540136E+01
 1.2885751E+01  2.3556196E+01
 1.2897250E+01  2.3555962E+01
 1.2908751E+01  2.3613075E+01
 1.2920251E+01  2.3683441E+01
 1.2931750E+01  2.3802086E+01
 1.2943251E+01  2.3865244E+01
 1.2954751E+01  2.3946550E+01
 1.2966250E+01  2.3985123E+01
 1.2977751E+01  2.4020649E+01
 1.2989250E+01  2.4053043E+01
 1.3000751E+01  2.4102516E+01
 1.3012251E+01  2.4099251E+01
 1.3023750E+01  2.4147791E+01
 1.3035251E+01  2.4227730E+01
 1.3046751E+01  2.4364920E+01
 1.3058250E+01  2.4421999E+01
 1.3069751E+01  2.4452938E+01
 1.3081250E+01  2.4525488E+01
 1.3092751E+01  2.4644550E+01
 1.3104251E+01  2.4785460E+01
 1.3115750E+01  2.4941154E+01
 1.3127251E+01  2.5066700E+01
 1.3138751E+01  2.5111629E+01
 1.3150250E+01  2.5200905E+01
 1.3161751E+01  2.5251020E+01
 1.3173250E+01  2.5420607E+01
 1.3184751E+01  2.5549398E+01
 1.3196251E+01  2.5716936E+01
 1.3207750E+01  2.5860924E+01
 1.3219251E+01  2.5991749E+01
 1.3230751E+01  2.6150745E+01
 1.3242250E+01  2.6288321E+01
 1.3253751E+01  2.6447853E+01
 1.3265250E+01  2.6570185E+01
 1.3276751E+01  2.6634321E+01
 1.3288251E+01  2.6773762E+01
 1.3299750E+01  2.6895386E+01
 1.3311251E+01  2.7025455E+01
 1.3322751E+01  2.7094812E+01
 1.3334250E+01  2.7262707E+01
 1.3345751E+01  2.7374016E+01
 1.3357250E+01  2.7496828E+01
 1.3368751E+01  2.7526350E+01
 1.3380251E+01  2.7695677E+01
 1.3391750E+01  2.7870279E+01
 1.3403251E+01  2.8136713E+01
 1.3414751E+01  2.8317064E+01
 1.3426250E+01  2.8476442E+01
 1.3437751E+01  2.8625849E+01
 1.3449250E+01  2.8728756E+01
 1.3460751E+01  2.8839941E+01
 1.3472251E+01  2.8902756E+01
 1.3483750E+01  2.9026436E+01
 1.3495251E+01  2.9068581E+01
 1.3506751E+01  2.9162130E+01
 1.3518250E+01  2.9221203E+01
 1.3529751E+01  2.9313211E+01
 1.3541250E+01  2.9330566E+01
 1.3552751E+01  2.9390209E+01
 1.3564251E+01  2.9446043E+01
 1.3575750E+01  2.9558973E+01
 1.3587251E+01  2.9617765E+01
 1.3598751E+01  2.9703127E+01
 1.3610250E+01  2.9710169E+01
 1.3621751E+01  2.9764984E+01
 1.3633250E+01  2.9750847E+01
 1.3644751E+01  2.9768591E+01
 1.3656251E+01  2.9694757E+01
 1.3667750E+01  2.9663712E+01
 1.3679251E+01  2.9674234E+01
 1.3690751E+01  2.9706745E+01
 1.3702250E+01  2.9722071E+01
 1.3713751E+01  2.9691565E+01
 1.3725250E+01  2.9678745E+01
 1.3736751E+01  2.9642717E+01
 1.3748251E+01  2.9574657E+01
 1.3759750E+01  2.9541288E+01
 1.3771251E+01  2.9539886E+01
 1.3782751E+01  2.9586830E+01
 1.3794250E+01  2.9626852E+01
 1.3805751E+01  2.9668440E+01
 1.3817250E+01  2.9676079E+01
 1.3828751E+01  2.9669067E+01
 1.3840251E+01  2.9658463E+01
 1.3851750E+01  2.9679123E+01
 1.3863251E+01  2.9758244E+01
 1.3874751E+01  2.9961256E+01
 1.3886250E+01  3.0341602E+01
 1.3897751E+01  3.1093449E+01
 1.3909250E+01  3.1948412E+01
 1.3920751E+01  3.3441959E+01
 1.3932251E+01  3.4925259E+01
 1.3943750E+01  3.6568901E+01
 1.3955251E+01  3.8009033E+01
 1.3966751E+01  3.8475456E+01
 1.3978251E+01  3.8510872E+01
 1.3989751E+01  3.7145432E+01
 1.4001250E+01  3.5582222E+01
 1.4012751E+01  3.3350967E+01
 1.4024251E+01  3.1556841E+01
 1.4035750E+01  3.0157684E+01
 1.4047251E+01  2.9134695E+01
 1.4058751E+01  2.8527210E+01
 1.4070251E+01  2.8196194E+01
 1.4081751E+01  2.7944244E+01
 1.4093250E+01  2.7871836E+01
 1.4104751E+01  2.7787573E+01
 1.4116251E+01  2.7720070E+01
 1.4127750E+01  2.7631784E+01
 1.4139251E+01  2.7495506E+01
 1.4150751E+01  2.7372761E+01
 1.4162251E+01  2.7308189E+01
 1.4173751E+01  2.7182987E+01
 1.4185250E+01  2.7065182E+01
 1.4196751E+01  2.6967587E+01
 1.4208251E+01  2.6942539E+01
 1.4219750E+01  2.6913399E+01
 1.4231251E+01  2.6842310E+01
 1.4242751E+01  2.6774117E+01
 1.4254251E+01  2.6666119E+01
 1.4265751E+01  2.6577662E+01
 1.4277250E+01  2.6509310E+01
 1.4288751E+01  2.6516821E+01
 1.4300251E+01  2.6453829E+01
 1.4311750E+01  2.6407188E+01
 1.4323251E+01  2.6272795E+01
 1.4334751E+01  2.6256731E+01
 1.4346251E+01  2.6253872E+01
 1.4357751E+01  2.6377167E+01
 1.4369250E+01  2.6546036E+01
 1.4380751E+01  2.6674490E+01
 1.4392251E+01  2.6678621E+01
 1.4403750E+01  2.6590866E+01
 1.4415251E+01  2.6463484E+01
 1.4426751E+01  2.6306686E+01
 1.4438251E+01  2.6095930E+01
 1.4449751E+01  2.6015736E+01
 1.4461250E+01  2.5905483E+01
 1.4472751E+01  2.5912243E+01
 1.4484251E+01  2.5889881E+01
 1.4495750E+01  2.5848854E+01
 1.4507251E+01  2.5824886E+01
 1.4518751E+01  2.5774172E+01
 1.4530251E+01  2.5781902E+01
 1.4541751E+01  2.5770615E+01
 1.4553250E+01  2.5747562E+01
 1.4564751E+01  2.5749043E+01
 1.4576251E+01  2.5672251E+01
 1.4587750E+01  2.5647921E+01
 1.4599251E+01  2.5551044E+01
 1.4610751E+01  2.5504318E+01
 1.4622251E+01  2.5425457E+01
 1.4633751E+01  2.5383076E+01
 1.4645250E+01  2.5317791E+01
 1.4656751E+01  2.5300821E+01
 1.4668251E+01  2.5240639E+01
 1.4679750E+01  2.5224916E+01
 1.4691251E+01  2.5204262E+01
 1.4702751E+01  2.5238739E+01
 1.4714251E+01  2.5242016E+01
 1.4725751E+01  2.5224888E+01
 1.4737250E+01  2.5218079E+01
 1.4748751E+01  2.5195505E+01
 1.4760251E+01  2.5161873E+01
 1.4771750E+01  2.5169712E+01
 1.4783251E+01  2.5221514E+01
 1.4794751E+01  2.5281033E+01
 1.4806251E+01  2.5277433E+01
 1.4817751E+01  2.5190329E+01
 1.4829250E+01  2.5109129E+01
 1.4840751E+01  2.5079422E+01
 1.4852251E+01  2.5091389E+01
 1.4863750E+01  2.5104368E+01
 1.4875251E+01  2.5100510E+01
 1.4886751E+01  2.5121401E+01
 1.4898251E+01  2.5169403E+01
 1.4909751E+01  2.5182455E+01
 1.4921250E+01  2.5196560E+01
 1.4932751E+01  2.5188990E+01
 1.4944251E+01  2.5185122E+01
 1.4955750E+01  2.5144627E+01
 1.4967251E+01  2.5078056E+01
 1.4978751E+01  2.5065826E+01
 1.4990251E+01  2.5066067E+01
 1.5001751E+01  2.5098034E+01
 1.5013250E+01  2.5135571E+01
 1.5024751E+01  2.5173592E+01
 1.5036251E+01  2.5162958E+01
 1.5047750E+01  2.5105110E+01
 1.5059251E+01  2.5112537E+01
 1.5070751E+01  2.5102390E+01
 1.5082251E+01  2.5084984E+01
 1.5093751E+01  2.5023664E+01
 1.5105250E+01  2.5049093E+01
 1.5116751E+01  2.5108812E+01
 1.5128251E+01  2.5314865E+01
 1.5139750E+01  2.5589882E+01
 1.5151251E+01  2.6129663E+01
 1.5162751E+01  2.6687992E+01
 1.5174251E+01  2.7259615E+01
 1.5185751E+01  2.7700537E+01
 1.5197250E+01  2.7847282E+01
 1.5208751E+01  2.7868647E+01
 1.5220251E+01  2.7455769E+01
 1.5231750E+01  2.6936802E+01
 1.5243251E+01  2.6219683E+01
 1.5254751E+01  2.5691694E+01
 1.5266251E+01  2.5239662E+01
 1.5277751E+01  2.5038544E+01
 1.5289250E+01  2.4947334E+01
 1.5300751E+01  2.4899187E+01
 1.5312251E+01  2.4849176E+01
 1.5323750E+01  2.4753023E+01
 1.5335251E+01  2.4729959E+01
 1.5346751E+01  2.4649570E+01
 1.5358251E+01  2.4628929E+01
 1.5369751E+01  2.4612152E+01
 1.5381250E+01  2.4632490E+01
 1.5392751E+01  2.4650566E+01
 1.5404251E+01  2.4662931E+01
 1.5415751E+01  2.4641136E+01
 1.5427251E+01  2.4625414E+01
 1.5438751E+01  2.4661919E+01
 1.5450251E+01  2.4672440E+01
 1.5461751E+01  2.4736931E+01
 1.5473250E+01  2.4720778E+01
 1.5484751E+01  2.4740231E+01
 1.5496251E+01  2.4712563E+01
 1.5507751E+01  2.4690014E+01
 1.5519251E+01  2.4644783E+01
 1.5530751E+01  2.4581242E+01
 1.5542251E+01  2.4574467E+01
 1.5553751E+01  2.4518036E+01
 1.5565250E+01  2.4557261E+01
 1.5576751E+01  2.4530235E+01
 1.5588251E+01  2.4618320E+01
 1.5599751E+01  2.4576418E+01
 1.5611251E+01  2.4584143E+01
 1.5622751E+01  2.4538141E+01
 1.5634251E+01  2.4501173E+01
 1.5645751E+01  2.4524290E+01
 1.5657250E+01  2.4578247E+01
 1.5668751E+01  2.4666977E+01
 1.5680251E+01  2.4685160E+01
 1.5691751E+01  2.4681204E+01
 1.5703251E+01  2.4652248E+01
 1.5714751E+01  2.4604128E+01
 1.5726251E+01  2.4603781E+01
 1.5737751E+01  2.4541296E+01
 1.5749250E+01  2.4573900E+01
 1.5760751E+01  2.4599791E+01
 1.5772251E+01  2.4673656E+01
 1.5783751E+01  2.4642731E+01
 1.5795251E+01  2.4653841E+01
 1.5806751E+01  2.4647306E+01
 1.5818251E+01  2.4647385E+01
 1.5829751E+01  2.4640261E+01
 1.5841250E+01  2.4633278E+01
 1.5852751E+01  2.4606556E+01
 1.5864251E+01  2.4512196E+01
 1.5875751E+01  2.4516191E+01
 1.5887251E+01  2.4486044E+01
 1.5898750E+01  2.4515322E+01
 1.5910251E+01  2.4604000E+01
 1.5921751E+01  2.4717163E+01
 1.5933250E+01  2.4832335E+01
 1.5944751E+01  2.4789942E+01
 1.5956251E+01  2.4833538E+01
 1.5967751E+01  2.4777664E+01
 1.5979251E+01  2.4845919E+01
 1.5990750E+01  2.4855902E+01
 1.6002251E+01  2.4882311E+01
 1.6013750E+01  2.4892075E+01
 1.6025251E+01  2.4887888E+01
 1.6036751E+01  2.4921343E+01
 1.6048250E+01  2.4902708E+01
 1.6059752E+01  2.4946667E+01
 1.6071251E+01  2.4911531E+01
 1.6082750E+01  2.4949251E+01
 1.6094252E+01  2.4921419E+01
 1.6105751E+01  2.4971724E+01
 1.6117250E+01  2.4929054E+01
 1.6128750E+01  2.4904285E+01
 1.6140251E+01  2.4920387E+01
 1.6151751E+01  2.4925264E+01
 1.6163250E+01  2.5075607E+01
 1.6174751E+01  2.5030807E+01
 1.6186251E+01  2.5307779E+01
 1.6197750E+01  2.5222109E+01
 1.6209251E+01  2.5799242E+01
 1.6220751E+01  2.5803873E+01
 1.6232250E+01  2.6512392E+01
 1.6243752E+01  2.6734016E+01
 1.6255251E+01  2.7120094E+01
 1.6266750E+01  2.7249914E+01
 1.6278252E+01  2.6776964E+01
 1.6289751E+01  2.6680687E+01
 1.6301250E+01  2.5740873E+01
 1.6312750E+01  2.5672438E+01
 1.6324251E+01  2.5049013E+01
 1.6335751E+01  2.5088135E+01
 1.6347250E+01  2.4892897E+01
 1.6358751E+01  2.4913790E+01
 1.6370251E+01  2.4838020E+01
 1.6381750E+01  2.4808128E+01
 1.6393251E+01  2.4827995E+01
 1.6404751E+01  2.4844749E+01
 1.6416250E+01  2.4903883E+01
 1.6427752E+01  2.4898520E+01
 1.6439251E+01  2.4884613E+01
 1.6450750E+01  2.4848162E+01
 1.6462252E+01  2.4785759E+01
 1.6473751E+01  2.4750837E+01
 1.6485250E+01  2.4762966E+01
 1.6496750E+01  2.4796066E+01
 1.6508251E+01  2.4816534E+01
 1.6519751E+01  2.4797546E+01
 1.6531250E+01  2.4725971E+01
 1.6542751E+01  2.4735584E+01
 1.6554251E+01  2.4759546E+01
 1.6565750E+01  2.4778643E+01
 1.6577251E+01  2.4729309E+01
 1.6588751E+01  2.4704988E+01
 1.6600250E+01  2.4750242E+01
 1.6611752E+01  2.4743753E+01
 1.6623251E+01  2.4686842E+01
 1.6634750E+01  2.4624813E+01
 1.6646252E+01  2.4606428E+01
 1.6657751E+01  2.4590355E+01
 1.6669250E+01  2.4589085E+01
 1.6680750E+01  2.4598017E+01
 1.6692251E+01  2.4645155E+01
 1.6703751E+01  2.4680819E+01
 1.6715250E+01  2.4707651E+01
 1.6726751E+01  2.4731932E+01
 1.6738251E+01  2.4768194E+01
 1.6749750E+01  2.4773685E+01
 1.6761251E+01  2.4710854E+01
 1.6772751E+01  2.4644245E+01
 1.6784250E+01  2.4580160E+01
 1.6795752E+01  2.4553705E+01
 1.6807251E+01  2.4535694E+01
 1.6818750E+01  2.4532579E+01
 1.6830252E+01  2.4526983E+01
 1.6841751E+01  2.4524376E+01
 1.6853251E+01  2.4507494E+01
 1.6864750E+01  2.4510637E+01
 1.6876251E+01  2.4532209E+01
 1.6887751E+01  2.4541510E+01
 1.6899250E+01  2.4564377E+01
 1.6910751E+01  2.4530510E+01
 1.6922251E+01  2.4550596E+01
 1.6933750E+01  2.4510185E+01
 1.6945251E+01  2.4537256E+01
 1.6956751E+01  2.4492708E+01
 1.6968250E+01  2.4490314E+01
 1.6979752E+01  2.4487354E+01
 1.6991251E+01  2.4493706E+01
 1.7002750E+01  2.4468430E+01
 1.7014252E+01  2.4439472E+01
 1.7025751E+01  2.4422468E+01
 1.7037251E+01  2.4407974E+01
 1.7048750E+01  2.4412066E+01
 1.7060251E+01  2.4388201E+01
 1.7071751E+01  2.4423597E+01
 1.7083250E+01  2.4430563E+01
 1.7094751E+01  2.4440035E+01
 1.7106251E+01  2.4427000E+01
 1.7117750E+01  2.4414192E+01
 1.7129251E+01  2.4463350E+01
 1.7140751E+01  2.4385033E+01
 1.7152250E+01  2.4347618E+01
 1.7163752E+01  2.4266369E+01
 1.7175251E+01  2.4278069E+01
 1.7186750E+01  2.4271358E+01
 1.7198252E+01  2.4261179E+01
 1.7209751E+01  2.4315712E+01
 1.7221251E+01  2.4303335E+01
 1.7232750E+01  2.4307953E+01
 1.7244251E+01  2.4243841E+01
 1.7255751E+01  2.4219711E+01
 1.7267250E+01  2.4209372E+01
 1.7278751E+01  2.4209059E+01
 1.7290251E+01  2.4178480E+01
 1.7301750E+01  2.4201099E+01
 1.7313251E+01  2.4184298E+01
 1.7324751E+01  2.4253418E+01
 1.7336250E+01  2.4229488E+01
 1.7347752E+01  2.4214502E+01
 1.7359251E+01  2.4177895E+01
 1.7370750E+01  2.4128155E+01
 1.7382252E+01  2.4107073E+01
 1.7393751E+01  2.4036386E+01
 1.7405251E+01  2.4031755E+01
 1.7416750E+01  2.4028046E+01
 1.7428251E+01  2.4064526E+01
 1.7439751E+01  2.4101885E+01
 1.7451250E+01  2.4084709E+01
 1.7462751E+01  2.4055695E+01
 1.7474251E+01  2.3988661E+01
 1.7485750E+01  2.3990013E+01
 1.7497252E+01  2.3995211E+01
 1.7508751E+01  2.4013422E+01
 1.7520250E+01  2.3964140E+01
 1.7531752E+01  2.3982992E+01
 1.7543251E+01  2.3999380E+01
 1.7554750E+01  2.4069532E+01
 1.7566252E+01  2.4042765E+01
 1.7577751E+01  2.4036743E+01
 1.7589251E+01  2.3988899E+01
 1.7600750E+01  2.4017536E+01
 1.7612251E+01  2.4053474E+01
 1.7623751E+01  2.4104204E+01
 1.7635250E+01  2.4076571E+01
 1.7646751E+01  2.4046316E+01
 1.7658251E+01  2.3965878E+01
 1.7669750E+01  2.3932716E+01
 1.7681252E+01  2.3895452E+01
 1.7692751E+01  2.3951864E+01
 1.7704250E+01  2.3979050E+01
 1.7715752E+01  2.3992357E+01
 1.7727251E+01  2.3970074E+01
 1.7738750E+01  2.3948366E+01
 1.7750252E+01  2.3970297E+01
 1.7761751E+01  2.3996595E+01
 1.7773251E+01  2.4018970E+01
 1.7784750E+01  2.4029003E+01
 1.7796251E+01  2.4004503E+01
 1.7807751E+01  2.3976217E+01
 1.7819250E+01  2.3962004E+01
 1.7830751E+01  2.3938078E+01
 1.7842251E+01  2.3949133E+01
 1.7853750E+01  2.3958977E+01
 1.7865252E+01  2.4002985E+01
 1.7876751E+01  2.4001596E+01
 1.7888250E+01  2.4002577E+01
 1.7899752E+01  2.4040318E+01
 1.7911251E+01  2.4078571E+01
 1.7922750E+01  2.4070091E+01
 1.7934252E+01  2.4066479E+01
 1.7945751E+01  2.4106148E+01
 1.7957251E+01  2.4156456E+01
 1.7968750E+01  2.4254612E+01
 1.7980251E+01  2.4353519E+01
 1.7991751E+01  2.4539207E+01
 1.8003250E+01  2.4729677E+01
 1.8014751E+01  2.4940237E+01
 1.8026251E+01  2.5166306E+01
 1.8037750E+01  2.5422625E+01
 1.8049252E+01  2.5756071E+01
 1.8060751E+01  2.6270403E+01
 1.8072250E+01  2.6792202E+01
 1.8083752E+01  2.7338795E+01
 1.8095251E+01  2.7742901E+01
 1.8106750E+01  2.7848654E+01
 1.8118252E+01  2.7701612E+01
 1.8129751E+01  2.7046638E+01
 1.8141251E+01  2.6506460E+01
 1.8152750E+01  2.5753569E+01
 1.8164251E+01  2.5282003E+01
 1.8175751E+01  2.4879763E+01
 1.8187250E+01  2.4615789E+01
 1.8198751E+01  2.4445936E+01
 1.8210251E+01  2.4359255E+01
 1.8221750E+01  2.4259613E+01
 1.8233252E+01  2.4150864E+01
 1.8244751E+01  2.4053484E+01
 1.8256250E+01  2.3977768E+01
 1.8267752E+01  2.3941694E+01
 1.8279251E+01  2.3885838E+01
 1.8290751E+01  2.3875393E+01
 1.8302252E+01  2.3889233E+01
 1.8313751E+01  2.3886194E+01
 1.8325251E+01  2.3817564E+01
 1.8336750E+01  2.3767612E+01
 1.8348251E+01  2.3743864E+01
 1.8359751E+01  2.3769171E+01
 1.8371250E+01  2.3743612E+01
 1.8382751E+01  2.3739632E+01
 1.8394251E+01  2.3709017E+01
 1.8405750E+01  2.3796352E+01
 1.8417252E+01  2.3856155E+01
 1.8428751E+01  2.3843294E+01
 1.8440250E+01  2.3774281E+01
 1.8451752E+01  2.3739620E+01
 1.8463251E+01  2.3739086E+01
 1.8474751E+01  2.3740864E+01
 1.8486252E+01  2.3717299E+01
 1.8497751E+01  2.3690590E+01
 1.8509251E+01  2.3660149E+01
 1.8520750E+01  2.3638016E+01
 1.8532251E+01  2.3633698E+01
 1.8543751E+01  2.3604912E+01
 1.8555250E+01  2.3632807E+01
 1.8566751E+01  2.3621597E+01
 1.8578251E+01  2.3608349E+01
 1.8589750E+01  2.3631010E+01
 1.8601252E+01  2.3655993E+01
 1.8612751E+01  2.3644384E+01
 1.8624250E+01  2.3609987E+01
 1.8635752E+01  2.3644772E+01
 1.8647251E+01  2.3645983E+01
 1.8658751E+01  2.3630909E+01
 1.8670252E+01  2.3682072E+01
 1.8681751E+01  2.3758989E+01
 1.8693251E+01  2.3790888E+01
 1.8704750E+01  2.3735474E+01
 1.8716251E+01  2.3670687E+01
 1.8727751E+01  2.3633894E+01
 1.8739250E+01  2.3614460E+01
 1.8750751E+01  2.3645563E+01
 1.8762251E+01  2.3647554E+01
 1.8773750E+01  2.3658758E+01
 1.8785252E+01  2.3678495E+01
 1.8796751E+01  2.3715927E+01
 1.8808250E+01  2.3695681E+01
 1.8819752E+01  2.3672226E+01
 1.8831251E+01  2.3628248E+01
 1.8842751E+01  2.3668943E+01
 1.8854252E+01  2.3656145E+01
 1.8865751E+01  2.3665630E+01
 1.8877251E+01  2.3644144E+01
 1.8888750E+01  2.3633146E+01
 1.8900251E+01  2.3651146E+01
 1.8911751E+01  2.3699026E+01
 1.8923250E+01  2.3765848E+01
 1.8934752E+01  2.3811806E+01
 1.8946251E+01  2.3817501E+01
 1.8957750E+01  2.3767508E+01
 1.8969252E+01  2.3627090E+01
 1.8980751E+01  2.3539120E+01
 1.8992250E+01  2.3529087E+01
 1.9003752E+01  2.3579105E+01
 1.9015251E+01  2.3621252E+01
 1.9026751E+01  2.3651533E+01
 1.9038252E+01  2.3654016E+01
 1.9049751E+01  2.3607967E+01
 1.9061251E+01  2.3579689E+01
 1.9072750E+01  2.3557535E+01
 1.9084251E+01  2.3567902E+01
 1.9095751E+01  2.3567764E+01
 1.9107250E+01  2.3575064E+01
 1.9118752E+01  2.3595791E+01
 1.9130251E+01  2.3636942E+01
 1.9141750E+01  2.3694368E+01
 1.9153252E+01  2.3777653E+01
 1.9164751E+01  2.3775591E+01
 1.9176250E+01  2.3731245E+01
 1.9187752E+01  2.3688379E+01
 1.9199251E+01  2.3676249E+01
 1.9210751E+01  2.3697191E+01
 1.9222252E+01  2.3708988E+01
 1.9233751E+01  2.3703766E+01
 1.9245251E+01  2.3668840E+01
 1.9256750E+01  2.3693317E+01
 1.9268251E+01  2.3755127E+01
 1.9279751E+01  2.3820066E+01
 1.9291250E+01  2.3844082E+01
 1.9302752E+01  2.3897869E+01
 1.9314251E+01  2.3887106E+01
 1.9325750E+01  2.3880371E+01
 1.9337252E+01  2.3857342E+01
 1.9348751E+01  2.3892527E+01
 1.9360250E+01  2.3905285E+01
 1.9371752E+01  2.3932089E+01
 1.9383251E+01  2.3910471E+01
 1.9394751E+01  2.3938122E+01
 1.9406250E+01  2.3859280E+01
 1.9417751E+01  2.3884048E+01
 1.9429251E+01  2.3873659E+01
 1.9440750E+01  2.3910633E+01
 1.9452251E+01  2.3885836E+01
 1.9463751E+01  2.3880980E+01
 1.9475250E+01  2.3925776E+01
 1.9486752E+01  2.3957584E+01
 1.9498251E+01  2.3991867E+01
 1.9509750E+01  2.4012192E+01
 1.9521252E+01  2.4071268E+01
 1.9532751E+01  2.4150375E+01
 1.9544250E+01  2.4215332E+01
 1.9555752E+01  2.4283463E+01
 1.9567251E+01  2.4316765E+01
 1.9578751E+01  2.4344049E+01
 1.9590250E+01  2.4343452E+01
 1.9601751E+01  2.4433662E+01
 1.9613251E+01  2.4563446E+01
 1.9624750E+01  2.4760944E+01
 1.9636251E+01  2.5055391E+01
 1.9647751E+01  2.5394545E+01
 1.9659250E+01  2.5926380E+01
 1.9670752E+01  2.6658394E+01
 1.9682251E+01  2.7540365E+01
 1.9693750E+01  2.8719423E+01
 1.9705252E+01  2.9319225E+01
 1.9716751E+01  3.0023144E+01
 1.9728251E+01  2.9797825E+01
 1.9739752E+01  2.9405199E+01
 1.9751251E+01  2.8941050E+01
 1.9762751E+01  2.9068768E+01
 1.9774250E+01  2.9746132E+01
 1.9785751E+01  3.1600643E+01
 1.9797251E+01  3.6331112E+01
 1.9808750E+01  4.0978123E+01
 1.9820251E+01  4.5734718E+01
 1.9831751E+01  4.9589275E+01
 1.9843250E+01  5.0554111E+01
 1.9854752E+01  4.6535240E+01
 1.9866251E+01  4.2145077E+01
 1.9877750E+01  3.8256519E+01
 1.9889252E+01  3.4056705E+01
 1.9900751E+01  3.0961969E+01
 1.9912251E+01  2.9074072E+01
 1.9923752E+01  2.7727583E+01
 1.9935251E+01  2.6612871E+01
 1.9946751E+01  2.5914087E+01
 1.9958250E+01  2.5513115E+01
 1.9969751E+01  2.5308065E+01
 1.9981251E+01  2.5070639E+01
 1.9992750E+01  2.4941706E+01
 2.0004251E+01  2.4851866E+01
 2.0015751E+01  2.4778471E+01
 2.0027250E+01  2.4649496E+01
 2.0038752E+01  2.4587141E+01
 2.0050251E+01  2.4518560E+01
 2.0061750E+01  2.4404902E+01
 2.0073252E+01  2.4359119E+01
 2.0084751E+01  2.4348818E+01
 2.0096251E+01  2.4354473E+01
 2.0107752E+01  2.4303122E+01
 2.0119251E+01  2.4328506E+01
 2.0130751E+01  2.4273069E+01
 2.0142250E+01  2.4220955E+01
 2.0153751E+01  2.4214344E+01
 2.0165251E+01  2.4200779E+01
 2.0176750E+01  2.4185476E+01
 2.0188251E+01  2.4135265E+01
 2.0199751E+01  2.4138399E+01
 2.0211250E+01  2.4116791E+01
 2.0222752E+01  2.4117481E+01
 2.0234251E+01  2.4161053E+01
 2.0245750E+01  2.4160244E+01
 2.0257252E+01  2.4135881E+01
 2.0268751E+01  2.4086361E+01
 2.0280251E+01  2.4093481E+01
 2.0291752E+01  2.4068670E+01
 2.0303251E+01  2.3974878E+01
 2.0314751E+01  2.3913284E+01
 2.0326250E+01  2.3898432E+01
 2.0337751E+01  2.3961786E+01
 2.0349251E+01  2.4030432E+01
 2.0360750E+01  2.4089602E+01
 2.0372252E+01  2.4078249E+01
 2.0383751E+01  2.4022810E+01
 2.0395250E+01  2.3984352E+01
 2.0406752E+01  2.3963774E+01
 2.0418251E+01  2.3962700E+01
 2.0429750E+01  2.3982100E+01
 2.0441252E+01  2.3974014E+01
 2.0452751E+01  2.3956650E+01
 2.0464251E+01  2.3915733E+01
 2.0475752E+01  2.3882690E+01
 2.0487251E+01  2.3872244E+01
 2.0498751E+01  2.3889551E+01
 2.0510250E+01  2.3904905E+01
 2.0521751E+01  2.3882675E+01
 2.0533251E+01  2.3884405E+01
 2.0544750E+01  2.3896967E+01
 2.0556252E+01  2.3995783E+01
 2.0567751E+01  2.4097980E+01
 2.0579250E+01  2.4180712E+01
 2.0590752E+01  2.4179247E+01
 2.0602251E+01  2.4192184E+01
 2.0613750E+01  2.4209906E+01
 2.0625252E+01  2.4242987E+01
 2.0636751E+01  2.4256451E+01
 2.0648251E+01  2.4246626E+01
 2.0659752E+01  2.4274124E+01
 2.0671251E+01  2.4292728E+01
 2.0682751E+01  2.4400167E+01
 2.0694250E+01  2.4554258E+01
 2.0705751E+01  2.4901474E+01
 2.0717251E+01  2.5333023E+01
 2.0728750E+01  2.5871685E+01
 2.0740252E+01  2.6348600E+01
 2.0751751E+01  2.6708019E+01
 2.0763250E+01  2.6810579E+01
 2.0774752E+01  2.6638065E+01
 2.0786251E+01  2.6310745E+01
 2.0797750E+01  2.5925800E+01
 2.0809252E+01  2.5510447E+01
 2.0820751E+01  2.5160999E+01
 2.0832251E+01  2.4819912E+01
 2.0843752E+01  2.4544037E+01
 2.0855251E+01  2.4331955E+01
 2.0866751E+01  2.4212990E+01
 2.0878250E+01  2.4163017E+01
 2.0889751E+01  2.4159746E+01
 2.0901251E+01  2.4191193E+01
 2.0912750E+01  2.4190742E+01
 2.0924252E+01  2.4202999E+01
 2.0935751E+01  2.4198877E+01
 2.0947250E+01  2.4196566E+01
 2.0958752E+01  2.4114670E+01
 2.0970251E+01  2.4068291E+01
 2.0981750E+01  2.4003948E+01
 2.0993252E+01  2.3952822E+01
 2.1004751E+01  2.3941685E+01
 2.1016251E+01  2.3959259E+01
 2.1027752E+01  2.4031994E+01
 2.1039251E+01  2.4134512E+01
 2.1050751E+01  2.4172632E+01
 2.1062250E+01  2.4190460E+01
 2.1073751E+01  2.4157343E+01
 2.1085251E+01  2.4142975E+01
 2.1096750E+01  2.4095182E+01
 2.1108252E+01  2.4115086E+01
 2.1119751E+01  2.4105547E+01
 2.1131250E+01  2.4110273E+01
 2.1142752E+01  2.4060169E+01
 2.1154251E+01  2.4028631E+01
 2.1165751E+01  2.3980762E+01
 2.1177252E+01  2.3974173E+01
 2.1188751E+01  2.3983702E+01
 2.1200251E+01  2.3970573E+01
 2.1211752E+01  2.3973635E+01
 2.1223251E+01  2.3961473E+01
 2.1234751E+01  2.4000593E+01
 2.1246250E+01  2.4057577E+01
 2.1257751E+01  2.4112169E+01
 2.1269251E+01  2.4135826E+01
 2.1280750E+01  2.4135149E+01
 2.1292252E+01  2.4136389E+01
 2.1303751E+01  2.4100506E+01
 2.1315250E+01  2.4078220E+01
 2.1326752E+01  2.4072420E+01
 2.1338251E+01  2.4072426E+01
 2.1349751E+01  2.4130230E+01
 2.1361252E+01  2.4149040E+01
 2.1372751E+01  2.4194925E+01
 2.1384251E+01  2.4180639E+01
 2.1395752E+01  2.4170887E+01
 2.1407251E+01  2.4095140E+01
 2.1418751E+01  2.4073215E+01
 2.1430250E+01  2.4084835E+01
 2.1441751E+01  2.4099710E+01
 2.1453251E+01  2.4166552E+01
 2.1464750E+01  2.4185356E+01
 2.1476252E+01  2.4223650E+01
 2.1487751E+01  2.4204960E+01
 2.1499250E+01  2.4181406E+01
 2.1510752E+01  2.4163498E+01
 2.1522251E+01  2.4182783E+01
 2.1533751E+01  2.4188530E+01
 2.1545252E+01  2.4138479E+01
 2.1556751E+01  2.4120249E+01
 2.1568251E+01  2.4090288E+01
 2.1579752E+01  2.4128460E+01
 2.1591251E+01  2.4150391E+01
 2.1602751E+01  2.4172865E+01
 2.1614250E+01  2.4172184E+01
 2.1625751E+01  2.4180483E+01
 2.1637251E+01  2.4179775E+01
 2.1648750E+01  2.4163162E+01
 2.1660252E+01  2.4171494E+01
 2.1671751E+01  2.4202042E+01
 2.1683250E+01  2.4238743E+01
 2.1694752E+01  2.4242458E+01
 2.1706251E+01  2.4230322E+01
 2.1717751E+01  2.4203537E+01
 2.1729252E+01  2.4248840E+01
 2.1740751E+01  2.4274948E+01
 2.1752251E+01  2.4322201E+01
 2.1763752E+01  2.4293461E+01
 2.1775251E+01  2.4321997E+01
 2.1786751E+01  2.4320518E+01
 2.1798250E+01  2.4310024E+01
 2.1809752E+01  2.4279915E+01
 2.1821251E+01  2.4293711E+01
 2.1832750E+01  2.4272511E+01
 2.1844252E+01  2.4256802E+01
 2.1855751E+01  2.4233694E+01
 2.1867250E+01  2.4202110E+01
 2.1878752E+01  2.4205175E+01
 2.1890251E+01  2.4223852E+01
 2.1901751E+01  2.4281675E+01
 2.1913252E+01  2.4298239E+01
 2.1924751E+01  2.4333485E+01
 2.1936251E+01  2.4329327E+01
 2.1947752E+01  2.4365753E+01
 2.1959251E+01  2.4375881E+01
 2.1970751E+01  2.4371695E+01
 2.1982250E+01  2.4335857E+01
 2.1993752E+01  2.4292355E+01
 2.2005251E+01  2.4307632E+01
 2.2016750E+01  2.4344006E+01
 2.2028252E+01  2.4410702E+01
 2.2039751E+01  2.4399372E+01
 2.2051250E+01  2.4409405E+01
 2.2062752E+01  2.4376471E+01
 2.2074251E+01  2.4384491E+01
 2.2085751E+01  2.4340462E+01
 2.2097252E+01  2.4367718E+01
 2.2108751E+01  2.4397785E+01
 2.2120251E+01  2.4484581E+01
 2.2131752E+01  2.4517189E+01
 2.2143251E+01  2.4542889E+01
 2.2154751E+01  2.4528419E+01
 2.2166250E+01  2.4548594E+01
 2.2177752E+01  2.4543205E+01
 2.2189251E+01  2.4506273E+01
 2.2200750E+01  2.4480246E+01
 2.2212252E+01  2.4476236E+01
 2.2223751E+01  2.4495102E+01
 2.2235250E+01  2.4528831E+01
 2.2246752E+01  2.4574080E+01
 2.2258251E+01  2.4594852E+01
 2.2269751E+01  2.4598576E+01
 2.2281252E+01  2.4609560E+01
 2.2292751E+01  2.4655327E+01
 2.2304251E+01  2.4692911E+01
 2.2315752E+01  2.4721354E+01
 2.2327251E+01  2.4708258E+01
 2.2338751E+01  2.4726021E+01
 2.2350250E+01  2.4710562E+01
 2.2361752E+01  2.4711483E+01
 2.2373251E+01  2.4691835E+01
 2.2384750E+01  2.4679853E+01
 2.2396252E+01  2.4649555E+01
 2.2407751E+01  2.4635401E+01
 2.2419250E+01  2.4608829E+01
 2.2430752E+01  2.4663162E+01
 2.2442251E+01  2.4763617E+01
 2.2453751E+01  2.4839380E+01
 2.2465252E+01  2.4891424E+01
 2.2476751E+01  2.4748903E+01
 2.2488251E+01  2.4753862E+01
 2.2499752E+01  2.4709852E+01
 2.2511251E+01  2.4828289E+01
 2.2522751E+01  2.4887705E+01
 2.2534250E+01  2.4933756E+01
 2.2545752E+01  2.4950808E+01
 2.2557251E+01  2.4959682E+01
 2.2568750E+01  2.4936640E+01
 2.2580252E+01  2.4923416E+01
 2.2591751E+01  2.4891199E+01
 2.2603251E+01  2.4899851E+01
 2.2614752E+01  2.4964598E+01
 2.2626251E+01  2.5048386E+01
 2.2637751E+01  2.5106188E+01
 2.2649252E+01  2.5145676E+01
 2.2660751E+01  2.5201448E+01
 2.2672251E+01  2.5237431E+01
 2.2683752E+01  2.5289680E+01
 2.2695251E+01  2.5341146E+01
 2.2706751E+01  2.5342463E+01
 2.2718250E+01  2.5341206E+01
 2.2729752E+01  2.5355980E+01
 2.2741251E+01  2.5402988E+01
 2.2752750E+01  2.5440866E+01
 2.2764252E+01  2.5474442E+01
 2.2775751E+01  2.5525166E+01
 2.2787251E+01  2.5480135E+01
 2.2798752E+01  2.5524055E+01
 2.2810251E+01  2.5568039E+01
 2.2821751E+01  2.5630276E+01
 2.2833252E+01  2.5719500E+01
 2.2844751E+01  2.5794567E+01
 2.2856251E+01  2.5771900E+01
 2.2867750E+01  2.5758059E+01
 2.2879251E+01  2.5777824E+01
 2.2890751E+01  2.5830343E+01
 2.2902250E+01  2.5861105E+01
 2.2913752E+01  2.5931627E+01
 2.2925251E+01  2.6047253E+01
 2.2936750E+01  2.6157024E+01
 2.2948252E+01  2.6293528E+01
 2.2959751E+01  2.6340599E+01
 2.2971251E+01  2.6486580E+01
 2.2982752E+01  2.6632357E+01
 2.2994251E+01  2.6778526E+01
