F:\20151113_APS_34IDE\\Brian\Particle1\OCV\Data_0077.tif
2-Theta Angle (Degrees)
Intensity
       2000
 5.7500005E-03  0.0000000E+00
 1.7250001E-02  0.0000000E+00
 2.8750001E-02  0.0000000E+00
 4.0250003E-02  0.0000000E+00
 5.1750004E-02  0.0000000E+00
 6.3250005E-02  0.0000000E+00
 7.4750006E-02  0.0000000E+00
 8.6250007E-02  0.0000000E+00
 9.7750008E-02  0.0000000E+00
 1.0925001E-01  0.0000000E+00
 1.2075000E-01  0.0000000E+00
 1.3225001E-01  0.0000000E+00
 1.4375001E-01  0.0000000E+00
 1.5525001E-01  0.0000000E+00
 1.6675001E-01  0.0000000E+00
 1.7825001E-01  0.0000000E+00
 1.8975002E-01  0.0000000E+00
 2.0125002E-01  0.0000000E+00
 2.1275002E-01  0.0000000E+00
 2.2425000E-01  0.0000000E+00
 2.3575000E-01  0.0000000E+00
 2.4725001E-01  0.0000000E+00
 2.5875002E-01  0.0000000E+00
 2.7025002E-01  0.0000000E+00
 2.8175002E-01  0.0000000E+00
 2.9325002E-01  0.0000000E+00
 3.0475003E-01  0.0000000E+00
 3.1625003E-01  0.0000000E+00
 3.2775003E-01  0.0000000E+00
 3.3925003E-01  0.0000000E+00
 3.5075003E-01  0.0000000E+00
 3.6225003E-01  0.0000000E+00
 3.7375003E-01  0.0000000E+00
 3.8525003E-01  0.0000000E+00
 3.9675003E-01  0.0000000E+00
 4.0825003E-01  0.0000000E+00
 4.1975003E-01  0.0000000E+00
 4.3125004E-01  0.0000000E+00
 4.4275001E-01  0.0000000E+00
 4.5425001E-01  0.0000000E+00
 4.6575001E-01  0.0000000E+00
 4.7725001E-01  0.0000000E+00
 4.8875001E-01  0.0000000E+00
 5.0025004E-01  0.0000000E+00
 5.1175004E-01  0.0000000E+00
 5.2325004E-01  0.0000000E+00
 5.3475004E-01  0.0000000E+00
 5.4625005E-01  0.0000000E+00
 5.5775005E-01  0.0000000E+00
 5.6925005E-01  0.0000000E+00
 5.8075005E-01  0.0000000E+00
 5.9225005E-01  0.0000000E+00
 6.0375005E-01  0.0000000E+00
 6.1525005E-01  0.0000000E+00
 6.2675005E-01  0.0000000E+00
 6.3825005E-01  0.0000000E+00
 6.4975005E-01  0.0000000E+00
 6.6125005E-01  0.0000000E+00
 6.7275006E-01  0.0000000E+00
 6.8425006E-01  0.0000000E+00
 6.9575006E-01  0.0000000E+00
 7.0725006E-01  0.0000000E+00
 7.1875006E-01  0.0000000E+00
 7.3025006E-01  0.0000000E+00
 7.4175006E-01  0.0000000E+00
 7.5325006E-01  0.0000000E+00
 7.6475006E-01  0.0000000E+00
 7.7625006E-01  0.0000000E+00
 7.8775007E-01  0.0000000E+00
 7.9925007E-01  0.0000000E+00
 8.1075007E-01  0.0000000E+00
 8.2225007E-01  0.0000000E+00
 8.3375007E-01  0.0000000E+00
 8.4525007E-01  0.0000000E+00
 8.5675007E-01  0.0000000E+00
 8.6825007E-01  0.0000000E+00
 8.7975001E-01  0.0000000E+00
 8.9125001E-01  0.0000000E+00
 9.0275002E-01  0.0000000E+00
 9.1425002E-01  0.0000000E+00
 9.2575002E-01  0.0000000E+00
 9.3725002E-01  0.0000000E+00
 9.4875002E-01  0.0000000E+00
 9.6025002E-01  0.0000000E+00
 9.7175002E-01  0.0000000E+00
 9.8325002E-01  0.0000000E+00
 9.9475002E-01  0.0000000E+00
 1.0062500E+00  0.0000000E+00
 1.0177500E+00  0.0000000E+00
 1.0292500E+00  0.0000000E+00
 1.0407500E+00  0.0000000E+00
 1.0522500E+00  0.0000000E+00
 1.0637500E+00  0.0000000E+00
 1.0752500E+00  0.0000000E+00
 1.0867500E+00  0.0000000E+00
 1.0982500E+00  0.0000000E+00
 1.1097500E+00  0.0000000E+00
 1.1212500E+00  0.0000000E+00
 1.1327500E+00  0.0000000E+00
 1.1442500E+00  0.0000000E+00
 1.1557500E+00  0.0000000E+00
 1.1672500E+00  0.0000000E+00
 1.1787500E+00  0.0000000E+00
 1.1902500E+00  0.0000000E+00
 1.2017500E+00  0.0000000E+00
 1.2132500E+00  0.0000000E+00
 1.2247500E+00  0.0000000E+00
 1.2362500E+00  0.0000000E+00
 1.2477500E+00  0.0000000E+00
 1.2592500E+00  0.0000000E+00
 1.2707500E+00  0.0000000E+00
 1.2822500E+00  0.0000000E+00
 1.2937500E+00  0.0000000E+00
 1.3052500E+00  0.0000000E+00
 1.3167500E+00  0.0000000E+00
 1.3282501E+00  0.0000000E+00
 1.3397501E+00  0.0000000E+00
 1.3512501E+00  0.0000000E+00
 1.3627501E+00  0.0000000E+00
 1.3742501E+00  0.0000000E+00
 1.3857501E+00  0.0000000E+00
 1.3972501E+00  0.0000000E+00
 1.4087501E+00  0.0000000E+00
 1.4202501E+00  0.0000000E+00
 1.4317501E+00  0.0000000E+00
 1.4432501E+00  0.0000000E+00
 1.4547501E+00  0.0000000E+00
 1.4662501E+00  0.0000000E+00
 1.4777501E+00  0.0000000E+00
 1.4892501E+00  0.0000000E+00
 1.5007501E+00  0.0000000E+00
 1.5122501E+00  0.0000000E+00
 1.5237501E+00  0.0000000E+00
 1.5352501E+00  0.0000000E+00
 1.5467501E+00  0.0000000E+00
 1.5582501E+00  0.0000000E+00
 1.5697501E+00  0.0000000E+00
 1.5812501E+00  0.0000000E+00
 1.5927501E+00  0.0000000E+00
 1.6042501E+00  0.0000000E+00
 1.6157501E+00  0.0000000E+00
 1.6272501E+00  0.0000000E+00
 1.6387501E+00  0.0000000E+00
 1.6502501E+00  0.0000000E+00
 1.6617501E+00  0.0000000E+00
 1.6732501E+00  0.0000000E+00
 1.6847501E+00  0.0000000E+00
 1.6962501E+00  0.0000000E+00
 1.7077501E+00  0.0000000E+00
 1.7192501E+00  0.0000000E+00
 1.7307501E+00  0.0000000E+00
 1.7422501E+00  0.0000000E+00
 1.7537501E+00  0.0000000E+00
 1.7652501E+00  0.0000000E+00
 1.7767501E+00  0.0000000E+00
 1.7882501E+00  0.0000000E+00
 1.7997501E+00  0.0000000E+00
 1.8112501E+00  0.0000000E+00
 1.8227501E+00  0.0000000E+00
 1.8342501E+00  0.0000000E+00
 1.8457501E+00  0.0000000E+00
 1.8572501E+00  0.0000000E+00
 1.8687501E+00  0.0000000E+00
 1.8802501E+00  0.0000000E+00
 1.8917501E+00  0.0000000E+00
 1.9032501E+00  0.0000000E+00
 1.9147501E+00  0.0000000E+00
 1.9262501E+00  0.0000000E+00
 1.9377501E+00  0.0000000E+00
 1.9492501E+00  0.0000000E+00
 1.9607501E+00  0.0000000E+00
 1.9722501E+00  0.0000000E+00
 1.9837501E+00  0.0000000E+00
 1.9952501E+00  0.0000000E+00
 2.0067501E+00  0.0000000E+00
 2.0182500E+00  0.0000000E+00
 2.0297501E+00  0.0000000E+00
 2.0412500E+00  0.0000000E+00
 2.0527501E+00  0.0000000E+00
 2.0642500E+00  0.0000000E+00
 2.0757501E+00  0.0000000E+00
 2.0872500E+00  0.0000000E+00
 2.0987501E+00  0.0000000E+00
 2.1102500E+00  0.0000000E+00
 2.1217501E+00  0.0000000E+00
 2.1332500E+00  0.0000000E+00
 2.1447501E+00  0.0000000E+00
 2.1562500E+00  0.0000000E+00
 2.1677501E+00  0.0000000E+00
 2.1792500E+00  0.0000000E+00
 2.1907501E+00  0.0000000E+00
 2.2022500E+00  0.0000000E+00
 2.2137501E+00  0.0000000E+00
 2.2252500E+00  0.0000000E+00
 2.2367501E+00  0.0000000E+00
 2.2482500E+00  0.0000000E+00
 2.2597501E+00  0.0000000E+00
 2.2712500E+00  0.0000000E+00
 2.2827501E+00  0.0000000E+00
 2.2942500E+00  0.0000000E+00
 2.3057501E+00  0.0000000E+00
 2.3172500E+00  0.0000000E+00
 2.3287501E+00  0.0000000E+00
 2.3402500E+00  0.0000000E+00
 2.3517501E+00  0.0000000E+00
 2.3632500E+00  0.0000000E+00
 2.3747501E+00  0.0000000E+00
 2.3862500E+00  0.0000000E+00
 2.3977501E+00  0.0000000E+00
 2.4092500E+00  0.0000000E+00
 2.4207501E+00  0.0000000E+00
 2.4322500E+00  0.0000000E+00
 2.4437501E+00  0.0000000E+00
 2.4552500E+00  0.0000000E+00
 2.4667501E+00  0.0000000E+00
 2.4782500E+00  0.0000000E+00
 2.4897501E+00  0.0000000E+00
 2.5012500E+00  0.0000000E+00
 2.5127501E+00  0.0000000E+00
 2.5242500E+00  0.0000000E+00
 2.5357502E+00  0.0000000E+00
 2.5472500E+00  0.0000000E+00
 2.5587502E+00  0.0000000E+00
 2.5702500E+00  0.0000000E+00
 2.5817502E+00  0.0000000E+00
 2.5932500E+00  0.0000000E+00
 2.6047502E+00  0.0000000E+00
 2.6162500E+00  0.0000000E+00
 2.6277502E+00  0.0000000E+00
 2.6392500E+00  0.0000000E+00
 2.6507502E+00  0.0000000E+00
 2.6622500E+00  0.0000000E+00
 2.6737502E+00  0.0000000E+00
 2.6852500E+00  0.0000000E+00
 2.6967502E+00  0.0000000E+00
 2.7082500E+00  0.0000000E+00
 2.7197502E+00  0.0000000E+00
 2.7312500E+00  0.0000000E+00
 2.7427502E+00  0.0000000E+00
 2.7542500E+00  0.0000000E+00
 2.7657502E+00  0.0000000E+00
 2.7772501E+00  0.0000000E+00
 2.7887502E+00  0.0000000E+00
 2.8002501E+00  0.0000000E+00
 2.8117502E+00  0.0000000E+00
 2.8232501E+00  3.8861679E+01
 2.8347502E+00  3.7395027E+01
 2.8462501E+00  3.6407001E+01
 2.8577502E+00  3.5951378E+01
 2.8692501E+00  3.6206329E+01
 2.8807502E+00  3.6104027E+01
 2.8922501E+00  3.5946968E+01
 2.9037502E+00  3.5338818E+01
 2.9152501E+00  3.5281990E+01
 2.9267502E+00  3.4961071E+01
 2.9382501E+00  3.5129757E+01
 2.9497502E+00  3.5206741E+01
 2.9612501E+00  3.5632061E+01
 2.9727502E+00  3.6114178E+01
 2.9842501E+00  3.6107162E+01
 2.9957502E+00  3.6586578E+01
 3.0072501E+00  3.6471603E+01
 3.0187502E+00  3.6222515E+01
 3.0302501E+00  3.5996521E+01
 3.0417502E+00  3.5790627E+01
 3.0532501E+00  3.5746571E+01
 3.0647502E+00  3.5740440E+01
 3.0762501E+00  3.5822544E+01
 3.0877502E+00  3.5980316E+01
 3.0992501E+00  3.6034218E+01
 3.1107502E+00  3.5560150E+01
 3.1222501E+00  3.5431366E+01
 3.1337502E+00  3.4985134E+01
 3.1452501E+00  3.5139404E+01
 3.1567502E+00  3.5307606E+01
 3.1682501E+00  3.5176594E+01
 3.1797502E+00  3.5294785E+01
 3.1912501E+00  3.4977077E+01
 3.2027502E+00  3.4876274E+01
 3.2142501E+00  3.4860832E+01
 3.2257502E+00  3.5027260E+01
 3.2372501E+00  3.5065701E+01
 3.2487502E+00  3.4741425E+01
 3.2602501E+00  3.4474068E+01
 3.2717502E+00  3.4040459E+01
 3.2832501E+00  3.3875931E+01
 3.2947502E+00  3.3717495E+01
 3.3062501E+00  3.4154415E+01
 3.3177502E+00  3.4280476E+01
 3.3292501E+00  3.4619400E+01
 3.3407502E+00  3.4764950E+01
 3.3522501E+00  3.5091057E+01
 3.3637502E+00  3.5240143E+01
 3.3752501E+00  3.5255363E+01
 3.3867502E+00  3.4992016E+01
 3.3982501E+00  3.4706745E+01
 3.4097502E+00  3.4241520E+01
 3.4212501E+00  3.3969631E+01
 3.4327502E+00  3.4050148E+01
 3.4442501E+00  3.4292156E+01
 3.4557502E+00  3.4511745E+01
 3.4672501E+00  3.4481697E+01
 3.4787502E+00  3.4379360E+01
 3.4902501E+00  3.4160946E+01
 3.5017502E+00  3.3742592E+01
 3.5132501E+00  3.3461723E+01
 3.5247502E+00  3.3314247E+01
 3.5362501E+00  3.3305470E+01
 3.5477502E+00  3.3339153E+01
 3.5592501E+00  3.3389957E+01
 3.5707502E+00  3.3305195E+01
 3.5822501E+00  3.3234058E+01
 3.5937502E+00  3.3205326E+01
 3.6052501E+00  3.3176987E+01
 3.6167502E+00  3.3240852E+01
 3.6282501E+00  3.3129520E+01
 3.6397502E+00  3.3199322E+01
 3.6512501E+00  3.3152168E+01
 3.6627502E+00  3.3055012E+01
 3.6742501E+00  3.2998417E+01
 3.6857502E+00  3.2759056E+01
 3.6972501E+00  3.2683506E+01
 3.7087502E+00  3.2600700E+01
 3.7202501E+00  3.2715023E+01
 3.7317502E+00  3.2809326E+01
 3.7432501E+00  3.3062012E+01
 3.7547503E+00  3.3113041E+01
 3.7662501E+00  3.3260365E+01
 3.7777503E+00  3.3147427E+01
 3.7892501E+00  3.2962002E+01
 3.8007503E+00  3.2855080E+01
 3.8122501E+00  3.2755314E+01
 3.8237503E+00  3.2785439E+01
 3.8352501E+00  3.2634861E+01
 3.8467503E+00  3.2528336E+01
 3.8582501E+00  3.2718315E+01
 3.8697503E+00  3.2942028E+01
 3.8812501E+00  3.3067402E+01
 3.8927503E+00  3.2947765E+01
 3.9042501E+00  3.2790482E+01
 3.9157503E+00  3.2660976E+01
 3.9272501E+00  3.2576054E+01
 3.9387503E+00  3.2547310E+01
 3.9502501E+00  3.2535381E+01
 3.9617503E+00  3.2546555E+01
 3.9732502E+00  3.2538837E+01
 3.9847503E+00  3.2632030E+01
 3.9962502E+00  3.2699341E+01
 4.0077500E+00  3.2485287E+01
 4.0192504E+00  3.2472710E+01
 4.0307503E+00  3.2288898E+01
 4.0422502E+00  3.2488365E+01
 4.0537500E+00  3.2648739E+01
 4.0652504E+00  3.2824451E+01
 4.0767503E+00  3.2732407E+01
 4.0882502E+00  3.2850636E+01
 4.0997500E+00  3.2683083E+01
 4.1112504E+00  3.2710884E+01
 4.1227503E+00  3.2403122E+01
 4.1342502E+00  3.2488476E+01
 4.1457500E+00  3.2558289E+01
 4.1572504E+00  3.2527760E+01
 4.1687503E+00  3.2329807E+01
 4.1802502E+00  3.2137352E+01
 4.1917500E+00  3.2020901E+01
 4.2032504E+00  3.1987989E+01
 4.2147503E+00  3.1983732E+01
 4.2262502E+00  3.2049976E+01
 4.2377501E+00  3.2150463E+01
 4.2492504E+00  3.2169319E+01
 4.2607503E+00  3.2245396E+01
 4.2722502E+00  3.2253483E+01
 4.2837501E+00  3.2406273E+01
 4.2952504E+00  3.2382729E+01
 4.3067503E+00  3.2445869E+01
 4.3182502E+00  3.2345940E+01
 4.3297501E+00  3.2271198E+01
 4.3412504E+00  3.2104397E+01
 4.3527503E+00  3.2024879E+01
 4.3642502E+00  3.2145832E+01
 4.3757501E+00  3.2108284E+01
 4.3872504E+00  3.2094498E+01
 4.3987503E+00  3.2056927E+01
 4.4102502E+00  3.2084309E+01
 4.4217501E+00  3.2066147E+01
 4.4332504E+00  3.2019363E+01
 4.4447503E+00  3.2027035E+01
 4.4562502E+00  3.2266693E+01
 4.4677501E+00  3.2490517E+01
 4.4792504E+00  3.2688606E+01
 4.4907503E+00  3.2704468E+01
 4.5022502E+00  3.2648911E+01
 4.5137501E+00  3.2569923E+01
 4.5252504E+00  3.2580574E+01
 4.5367503E+00  3.2642067E+01
 4.5482502E+00  3.2703339E+01
 4.5597501E+00  3.2825195E+01
 4.5712504E+00  3.2879604E+01
 4.5827503E+00  3.3019478E+01
 4.5942502E+00  3.3073322E+01
 4.6057501E+00  3.3030659E+01
 4.6172504E+00  3.3033375E+01
 4.6287503E+00  3.2942593E+01
 4.6402502E+00  3.2936455E+01
 4.6517501E+00  3.2790279E+01
 4.6632504E+00  3.2706501E+01
 4.6747503E+00  3.2549900E+01
 4.6862502E+00  3.2440586E+01
 4.6977501E+00  3.2436089E+01
 4.7092505E+00  3.2467846E+01
 4.7207503E+00  3.2681335E+01
 4.7322502E+00  3.2555038E+01
 4.7437501E+00  3.2573517E+01
 4.7552505E+00  3.2337746E+01
 4.7667503E+00  3.2496319E+01
 4.7782502E+00  3.2499142E+01
 4.7897501E+00  3.2555908E+01
 4.8012505E+00  3.2404720E+01
 4.8127503E+00  3.2473682E+01
 4.8242502E+00  3.2508873E+01
 4.8357501E+00  3.2609287E+01
 4.8472505E+00  3.2552364E+01
 4.8587503E+00  3.2662258E+01
 4.8702502E+00  3.2615398E+01
 4.8817501E+00  3.2571712E+01
 4.8932505E+00  3.2468128E+01
 4.9047503E+00  3.2454182E+01
 4.9162502E+00  3.2519672E+01
 4.9277501E+00  3.2587811E+01
 4.9392505E+00  3.2723896E+01
 4.9507504E+00  3.2723152E+01
 4.9622502E+00  3.2736496E+01
 4.9737501E+00  3.2766479E+01
 4.9852505E+00  3.3005169E+01
 4.9967504E+00  3.3205631E+01
 5.0082502E+00  3.3362835E+01
 5.0197501E+00  3.3350948E+01
 5.0312505E+00  3.3355179E+01
 5.0427504E+00  3.3226620E+01
 5.0542502E+00  3.3073681E+01
 5.0657501E+00  3.3045322E+01
 5.0772505E+00  3.3135937E+01
 5.0887504E+00  3.3292133E+01
 5.1002502E+00  3.3358826E+01
 5.1117501E+00  3.3411057E+01
 5.1232505E+00  3.3493408E+01
 5.1347504E+00  3.3552242E+01
 5.1462502E+00  3.3674107E+01
 5.1577501E+00  3.3717373E+01
 5.1692505E+00  3.3807434E+01
 5.1807504E+00  3.3796638E+01
 5.1922503E+00  3.3895103E+01
 5.2037501E+00  3.3853710E+01
 5.2152505E+00  3.3931595E+01
 5.2267504E+00  3.3982468E+01
 5.2382503E+00  3.4115551E+01
 5.2497501E+00  3.4114830E+01
 5.2612505E+00  3.4093887E+01
 5.2727504E+00  3.3944244E+01
 5.2842503E+00  3.3890762E+01
 5.2957501E+00  3.3946312E+01
 5.3072500E+00  3.4079739E+01
 5.3187504E+00  3.4226864E+01
 5.3302503E+00  3.4249790E+01
 5.3417501E+00  3.4294270E+01
 5.3532500E+00  3.4356071E+01
 5.3647504E+00  3.4376987E+01
 5.3762503E+00  3.4571308E+01
 5.3877501E+00  3.4715221E+01
 5.3992500E+00  3.4819160E+01
 5.4107504E+00  3.4768608E+01
 5.4222503E+00  3.4750664E+01
 5.4337502E+00  3.4637794E+01
 5.4452500E+00  3.4697968E+01
 5.4567504E+00  3.4574406E+01
 5.4682503E+00  3.4657509E+01
 5.4797502E+00  3.4545044E+01
 5.4912500E+00  3.4644836E+01
 5.5027504E+00  3.4742722E+01
 5.5142503E+00  3.4800243E+01
 5.5257502E+00  3.4853916E+01
 5.5372500E+00  3.4815182E+01
 5.5487504E+00  3.4877987E+01
 5.5602503E+00  3.4917088E+01
 5.5717502E+00  3.4997383E+01
 5.5832500E+00  3.5019733E+01
 5.5947504E+00  3.4932549E+01
 5.6062503E+00  3.4951542E+01
 5.6177502E+00  3.4846886E+01
 5.6292500E+00  3.4878548E+01
 5.6407504E+00  3.4895184E+01
 5.6522503E+00  3.4996262E+01
 5.6637502E+00  3.5178623E+01
 5.6752501E+00  3.5257072E+01
 5.6867504E+00  3.5316101E+01
 5.6982503E+00  3.5392860E+01
 5.7097502E+00  3.5304077E+01
 5.7212501E+00  3.5330929E+01
 5.7327504E+00  3.5306564E+01
 5.7442503E+00  3.5373249E+01
 5.7557502E+00  3.5446468E+01
 5.7672501E+00  3.5503296E+01
 5.7787504E+00  3.5599602E+01
 5.7902503E+00  3.5696678E+01
 5.8017502E+00  3.5666157E+01
 5.8132501E+00  3.5632202E+01
 5.8247504E+00  3.5511082E+01
 5.8362503E+00  3.5527855E+01
 5.8477502E+00  3.5554825E+01
 5.8592501E+00  3.5613331E+01
 5.8707504E+00  3.5741302E+01
 5.8822503E+00  3.5926682E+01
 5.8937502E+00  3.6086613E+01
 5.9052501E+00  3.6273251E+01
 5.9167504E+00  3.6448273E+01
 5.9282503E+00  3.6884430E+01
 5.9397502E+00  3.7766022E+01
 5.9512501E+00  3.8842831E+01
 5.9627504E+00  3.9866798E+01
 5.9742503E+00  4.1204636E+01
 5.9857502E+00  4.1636852E+01
 5.9972501E+00  4.1307774E+01
 6.0087504E+00  4.0656857E+01
 6.0202503E+00  3.9376255E+01
 6.0317502E+00  3.8907230E+01
 6.0432501E+00  3.7723804E+01
 6.0547504E+00  3.7346573E+01
 6.0662503E+00  3.6940853E+01
 6.0777502E+00  3.6696114E+01
 6.0892501E+00  3.6527931E+01
 6.1007504E+00  3.6517532E+01
 6.1122503E+00  3.6625656E+01
 6.1237502E+00  3.6690765E+01
 6.1352501E+00  3.6709396E+01
 6.1467505E+00  3.6632008E+01
 6.1582503E+00  3.6750679E+01
 6.1697502E+00  3.6829967E+01
 6.1812501E+00  3.6912170E+01
 6.1927505E+00  3.7004509E+01
 6.2042503E+00  3.7021259E+01
 6.2157502E+00  3.7148724E+01
 6.2272501E+00  3.7154762E+01
 6.2387505E+00  3.7162468E+01
 6.2502503E+00  3.7318336E+01
 6.2617502E+00  3.7366489E+01
 6.2732501E+00  3.7561943E+01
 6.2847505E+00  3.7685345E+01
 6.2962503E+00  3.7801456E+01
 6.3077502E+00  3.7869045E+01
 6.3192501E+00  3.7843525E+01
 6.3307505E+00  3.7957924E+01
 6.3422503E+00  3.8102627E+01
 6.3537502E+00  3.8281155E+01
 6.3652501E+00  3.8375004E+01
 6.3767505E+00  3.8465969E+01
 6.3882504E+00  3.8473621E+01
 6.3997502E+00  3.8489624E+01
 6.4112501E+00  3.8491554E+01
 6.4227505E+00  3.8553364E+01
 6.4342504E+00  3.8622211E+01
 6.4457502E+00  3.8745735E+01
 6.4572501E+00  3.8806416E+01
 6.4687505E+00  3.8804398E+01
 6.4802504E+00  3.8850800E+01
 6.4917502E+00  3.8941589E+01
 6.5032501E+00  3.9056461E+01
 6.5147505E+00  3.9086155E+01
 6.5262504E+00  3.9029587E+01
 6.5377502E+00  3.9135895E+01
 6.5492501E+00  3.9297276E+01
 6.5607505E+00  3.9529789E+01
 6.5722504E+00  3.9701504E+01
 6.5837502E+00  3.9825008E+01
 6.5952501E+00  3.9825005E+01
 6.6067505E+00  3.9880917E+01
 6.6182504E+00  3.9913364E+01
 6.6297503E+00  4.0105724E+01
 6.6412501E+00  4.0194466E+01
 6.6527505E+00  4.0229099E+01
 6.6642504E+00  4.0320316E+01
 6.6757503E+00  4.0292198E+01
 6.6872501E+00  4.0340469E+01
 6.6987505E+00  4.0200779E+01
 6.7102504E+00  4.0337589E+01
 6.7217503E+00  4.0391071E+01
 6.7332501E+00  4.0500217E+01
 6.7447505E+00  4.0523769E+01
 6.7562504E+00  4.0670166E+01
 6.7677503E+00  4.0796021E+01
 6.7792501E+00  4.0907433E+01
 6.7907505E+00  4.0988895E+01
 6.8022504E+00  4.1106945E+01
 6.8137503E+00  4.1209080E+01
 6.8252501E+00  4.1315582E+01
 6.8367505E+00  4.1324020E+01
 6.8482504E+00  4.1414459E+01
 6.8597503E+00  4.1296352E+01
 6.8712502E+00  4.1362236E+01
 6.8827505E+00  4.1406212E+01
 6.8942504E+00  4.1555878E+01
 6.9057503E+00  4.1664238E+01
 6.9172502E+00  4.1789013E+01
 6.9287505E+00  4.1851746E+01
 6.9402504E+00  4.1990452E+01
 6.9517503E+00  4.2067623E+01
 6.9632502E+00  4.2208054E+01
 6.9747505E+00  4.2310768E+01
 6.9862504E+00  4.2351429E+01
 6.9977503E+00  4.2319805E+01
 7.0092502E+00  4.2355320E+01
 7.0207505E+00  4.2404957E+01
 7.0322504E+00  4.2490532E+01
 7.0437503E+00  4.2499367E+01
 7.0552502E+00  4.2502171E+01
 7.0667505E+00  4.2520100E+01
 7.0782504E+00  4.2613132E+01
 7.0897503E+00  4.2677998E+01
 7.1012502E+00  4.2790428E+01
 7.1127505E+00  4.2841599E+01
 7.1242504E+00  4.3011665E+01
 7.1357503E+00  4.3058598E+01
 7.1472502E+00  4.3224854E+01
 7.1587505E+00  4.3353195E+01
 7.1702504E+00  4.3499775E+01
 7.1817503E+00  4.3586617E+01
 7.1932502E+00  4.3704742E+01
 7.2047505E+00  4.3707596E+01
 7.2162504E+00  4.3769703E+01
 7.2277503E+00  4.3778065E+01
 7.2392502E+00  4.3969929E+01
 7.2507505E+00  4.4062695E+01
 7.2622504E+00  4.4061543E+01
 7.2737503E+00  4.3960056E+01
 7.2852502E+00  4.3872761E+01
 7.2967505E+00  4.3773296E+01
 7.3082504E+00  4.3810242E+01
 7.3197503E+00  4.3911324E+01
 7.3312502E+00  4.4135811E+01
 7.3427505E+00  4.4251930E+01
 7.3542504E+00  4.4272026E+01
 7.3657503E+00  4.4213158E+01
 7.3772502E+00  4.4183292E+01
 7.3887506E+00  4.4187927E+01
 7.4002504E+00  4.4106071E+01
 7.4117503E+00  4.4096279E+01
 7.4232502E+00  4.3940754E+01
 7.4347506E+00  4.3923069E+01
 7.4462504E+00  4.3824841E+01
 7.4577503E+00  4.3975212E+01
 7.4692502E+00  4.4049667E+01
 7.4807506E+00  4.4142311E+01
 7.4922504E+00  4.4266502E+01
 7.5037503E+00  4.4323025E+01
 7.5152502E+00  4.4431999E+01
 7.5267506E+00  4.4427631E+01
 7.5382504E+00  4.4432976E+01
 7.5497503E+00  4.4411419E+01
 7.5612502E+00  4.4412712E+01
 7.5727506E+00  4.4433147E+01
 7.5842505E+00  4.4449383E+01
 7.5957503E+00  4.4436111E+01
 7.6072502E+00  4.4422794E+01
 7.6187506E+00  4.4431313E+01
 7.6302505E+00  4.4302250E+01
 7.6417503E+00  4.4388592E+01
 7.6532502E+00  4.4319981E+01
 7.6647506E+00  4.4329639E+01
 7.6762505E+00  4.4259434E+01
 7.6877503E+00  4.4392563E+01
 7.6992502E+00  4.4417118E+01
 7.7107506E+00  4.4478855E+01
 7.7222505E+00  4.4489010E+01
 7.7337503E+00  4.4591095E+01
 7.7452502E+00  4.4605389E+01
 7.7567506E+00  4.4571751E+01
 7.7682505E+00  4.4508583E+01
 7.7797503E+00  4.4556183E+01
 7.7912502E+00  4.4436775E+01
 7.8027506E+00  4.4471565E+01
 7.8142505E+00  4.4236771E+01
 7.8257504E+00  4.4135128E+01
 7.8372502E+00  4.4032734E+01
 7.8487506E+00  4.3990547E+01
 7.8602505E+00  4.3946747E+01
 7.8717504E+00  4.3791271E+01
 7.8832502E+00  4.3747433E+01
 7.8947506E+00  4.3660580E+01
 7.9062505E+00  4.3662327E+01
 7.9177504E+00  4.3633366E+01
 7.9292502E+00  4.3676472E+01
 7.9407506E+00  4.3714821E+01
 7.9522505E+00  4.3707958E+01
 7.9637504E+00  4.3656704E+01
 7.9752502E+00  4.3703987E+01
 7.9867506E+00  4.3678173E+01
 7.9982505E+00  4.3656139E+01
 8.0097504E+00  4.3585129E+01
 8.0212507E+00  4.3503998E+01
 8.0327501E+00  4.3427658E+01
 8.0442505E+00  4.3311829E+01
 8.0557508E+00  4.3222069E+01
 8.0672503E+00  4.3138592E+01
 8.0787506E+00  4.3094959E+01
 8.0902500E+00  4.3052334E+01
 8.1017504E+00  4.3028679E+01
 8.1132507E+00  4.2967728E+01
 8.1247501E+00  4.2886463E+01
 8.1362505E+00  4.2827728E+01
 8.1477509E+00  4.2694973E+01
 8.1592503E+00  4.2618290E+01
 8.1707506E+00  4.2482433E+01
 8.1822500E+00  4.2407829E+01
 8.1937504E+00  4.2303623E+01
 8.2052507E+00  4.2206184E+01
 8.2167501E+00  4.1998688E+01
 8.2282505E+00  4.1806896E+01
 8.2397509E+00  4.1636295E+01
 8.2512503E+00  4.1666378E+01
 8.2627506E+00  4.1478512E+01
 8.2742500E+00  4.1417313E+01
 8.2857504E+00  4.1109493E+01
 8.2972507E+00  4.0878479E+01
 8.3087502E+00  4.0670475E+01
 8.3202505E+00  4.0530376E+01
 8.3317509E+00  4.0515545E+01
 8.3432503E+00  4.0470844E+01
 8.3547506E+00  4.0432907E+01
 8.3662500E+00  4.0363388E+01
 8.3777504E+00  4.0108742E+01
 8.3892508E+00  3.9854019E+01
 8.4007502E+00  3.9632034E+01
 8.4122505E+00  3.9395588E+01
 8.4237509E+00  3.9192005E+01
 8.4352503E+00  3.8877197E+01
 8.4467506E+00  3.8700390E+01
 8.4582500E+00  3.8554001E+01
 8.4697504E+00  3.8445038E+01
 8.4812508E+00  3.8317745E+01
 8.4927502E+00  3.8071514E+01
 8.5042505E+00  3.7922993E+01
 8.5157509E+00  3.7836670E+01
 8.5272503E+00  3.7744167E+01
 8.5387506E+00  3.7592724E+01
 8.5502501E+00  3.7404087E+01
 8.5617504E+00  3.7216862E+01
 8.5732508E+00  3.6993801E+01
 8.5847502E+00  3.6718964E+01
 8.5962505E+00  3.6531097E+01
 8.6077509E+00  3.6349739E+01
 8.6192503E+00  3.6271057E+01
 8.6307507E+00  3.6174839E+01
 8.6422501E+00  3.6043491E+01
 8.6537504E+00  3.5816998E+01
 8.6652508E+00  3.5625256E+01
 8.6767502E+00  3.5420002E+01
 8.6882505E+00  3.5214382E+01
 8.6997509E+00  3.5013523E+01
 8.7112503E+00  3.4804192E+01
 8.7227507E+00  3.4612671E+01
 8.7342501E+00  3.4372604E+01
 8.7457504E+00  3.4172192E+01
 8.7572508E+00  3.4048893E+01
 8.7687502E+00  3.3926186E+01
 8.7802505E+00  3.3812840E+01
 8.7917500E+00  3.3659058E+01
 8.8032503E+00  3.3507710E+01
 8.8147507E+00  3.3321644E+01
 8.8262501E+00  3.3193535E+01
 8.8377504E+00  3.2987816E+01
 8.8492508E+00  3.2801487E+01
 8.8607502E+00  3.2633286E+01
 8.8722506E+00  3.2518780E+01
 8.8837500E+00  3.2471184E+01
 8.8952503E+00  3.2392433E+01
 8.9067507E+00  3.2286789E+01
 8.9182501E+00  3.2111500E+01
 8.9297504E+00  3.1909859E+01
 8.9412508E+00  3.1683430E+01
 8.9527502E+00  3.1478678E+01
 8.9642506E+00  3.1272825E+01
 8.9757500E+00  3.1063013E+01
 8.9872503E+00  3.0909189E+01
 8.9987507E+00  3.0755371E+01
 9.0102501E+00  3.0700792E+01
 9.0217505E+00  3.0635941E+01
 9.0332508E+00  3.0538910E+01
 9.0447502E+00  3.0414646E+01
 9.0562506E+00  3.0246956E+01
 9.0677500E+00  3.0107803E+01
 9.0792503E+00  2.9961340E+01
 9.0907507E+00  2.9750313E+01
 9.1022501E+00  2.9562630E+01
 9.1137505E+00  2.9397373E+01
 9.1252508E+00  2.9307739E+01
 9.1367502E+00  2.9219370E+01
 9.1482506E+00  2.9192574E+01
 9.1597500E+00  2.9113251E+01
 9.1712503E+00  2.9070164E+01
 9.1827507E+00  2.8903078E+01
 9.1942501E+00  2.8827957E+01
 9.2057505E+00  2.8713392E+01
 9.2172508E+00  2.8591070E+01
 9.2287502E+00  2.8411798E+01
 9.2402506E+00  2.8270611E+01
 9.2517500E+00  2.8099113E+01
 9.2632504E+00  2.8027637E+01
 9.2747507E+00  2.7891663E+01
 9.2862501E+00  2.7835876E+01
 9.2977505E+00  2.7735285E+01
 9.3092508E+00  2.7650209E+01
 9.3207502E+00  2.7560949E+01
 9.3322506E+00  2.7425200E+01
 9.3437500E+00  2.7339815E+01
 9.3552504E+00  2.7249651E+01
 9.3667507E+00  2.7195623E+01
 9.3782501E+00  2.7129036E+01
 9.3897505E+00  2.7144192E+01
 9.4012508E+00  2.7108141E+01
 9.4127502E+00  2.7005363E+01
 9.4242506E+00  2.6846476E+01
 9.4357500E+00  2.6700140E+01
 9.4472504E+00  2.6609404E+01
 9.4587507E+00  2.6545759E+01
 9.4702501E+00  2.6530968E+01
 9.4817505E+00  2.6507599E+01
 9.4932508E+00  2.6421034E+01
 9.5047503E+00  2.6333025E+01
 9.5162506E+00  2.6237827E+01
 9.5277500E+00  2.6163813E+01
 9.5392504E+00  2.6104185E+01
 9.5507507E+00  2.6029367E+01
 9.5622501E+00  2.6000603E+01
 9.5737505E+00  2.5931786E+01
 9.5852509E+00  2.5882200E+01
 9.5967503E+00  2.5837664E+01
 9.6082506E+00  2.5751009E+01
 9.6197500E+00  2.5746819E+01
 9.6312504E+00  2.5689888E+01
 9.6427507E+00  2.5629927E+01
 9.6542501E+00  2.5580011E+01
 9.6657505E+00  2.5489117E+01
 9.6772509E+00  2.5390673E+01
 9.6887503E+00  2.5245649E+01
 9.7002506E+00  2.5124479E+01
 9.7117500E+00  2.5127357E+01
 9.7232504E+00  2.5070572E+01
 9.7347507E+00  2.5045662E+01
 9.7462502E+00  2.4986532E+01
 9.7577505E+00  2.4934002E+01
 9.7692509E+00  2.4876543E+01
 9.7807503E+00  2.4886190E+01
 9.7922506E+00  2.4855490E+01
 9.8037500E+00  2.4928871E+01
 9.8152504E+00  2.4824348E+01
 9.8267508E+00  2.4730562E+01
 9.8382502E+00  2.4613667E+01
 9.8497505E+00  2.4534615E+01
 9.8612509E+00  2.4486120E+01
 9.8727503E+00  2.4395269E+01
 9.8842506E+00  2.4344692E+01
 9.8957500E+00  2.4335278E+01
 9.9072504E+00  2.4363737E+01
 9.9187508E+00  2.4360310E+01
 9.9302502E+00  2.4358122E+01
 9.9417505E+00  2.4337202E+01
 9.9532509E+00  2.4324501E+01
 9.9647503E+00  2.4321571E+01
 9.9762506E+00  2.4261835E+01
 9.9877501E+00  2.4228670E+01
 9.9992504E+00  2.4204096E+01
 1.0010751E+01  2.4165817E+01
 1.0022250E+01  2.4110044E+01
 1.0033751E+01  2.4120907E+01
 1.0045251E+01  2.4078941E+01
 1.0056750E+01  2.4053129E+01
 1.0068251E+01  2.3969381E+01
 1.0079750E+01  2.3928816E+01
 1.0091250E+01  2.3884195E+01
 1.0102751E+01  2.3836565E+01
 1.0114250E+01  2.3826664E+01
 1.0125751E+01  2.3821892E+01
 1.0137251E+01  2.3766634E+01
 1.0148750E+01  2.3777021E+01
 1.0160251E+01  2.3749338E+01
 1.0171750E+01  2.3732639E+01
 1.0183250E+01  2.3690577E+01
 1.0194751E+01  2.3680363E+01
 1.0206250E+01  2.3693487E+01
 1.0217751E+01  2.3698404E+01
 1.0229251E+01  2.3653669E+01
 1.0240750E+01  2.3621395E+01
 1.0252251E+01  2.3498604E+01
 1.0263750E+01  2.3434679E+01
 1.0275250E+01  2.3402687E+01
 1.0286751E+01  2.3432447E+01
 1.0298250E+01  2.3478161E+01
 1.0309751E+01  2.3474983E+01
 1.0321251E+01  2.3462690E+01
 1.0332750E+01  2.3430052E+01
 1.0344251E+01  2.3352392E+01
 1.0355750E+01  2.3248896E+01
 1.0367250E+01  2.3122618E+01
 1.0378751E+01  2.3099941E+01
 1.0390250E+01  2.3173616E+01
 1.0401751E+01  2.3256899E+01
 1.0413251E+01  2.3274738E+01
 1.0424750E+01  2.3215387E+01
 1.0436251E+01  2.3160612E+01
 1.0447750E+01  2.3083733E+01
 1.0459250E+01  2.3055876E+01
 1.0470751E+01  2.3084925E+01
 1.0482250E+01  2.3089052E+01
 1.0493751E+01  2.3113188E+01
 1.0505251E+01  2.3096771E+01
 1.0516750E+01  2.3138824E+01
 1.0528251E+01  2.3104898E+01
 1.0539750E+01  2.3094080E+01
 1.0551250E+01  2.3078444E+01
 1.0562751E+01  2.3093811E+01
 1.0574250E+01  2.3025578E+01
 1.0585751E+01  2.2956598E+01
 1.0597251E+01  2.2848028E+01
 1.0608750E+01  2.2844618E+01
 1.0620251E+01  2.2850653E+01
 1.0631750E+01  2.2921612E+01
 1.0643250E+01  2.2922344E+01
 1.0654751E+01  2.2945150E+01
 1.0666250E+01  2.2952639E+01
 1.0677751E+01  2.2929649E+01
 1.0689251E+01  2.2893456E+01
 1.0700750E+01  2.2857567E+01
 1.0712251E+01  2.2875353E+01
 1.0723750E+01  2.2890732E+01
 1.0735250E+01  2.2834040E+01
 1.0746751E+01  2.2829449E+01
 1.0758250E+01  2.2751495E+01
 1.0769751E+01  2.2803400E+01
 1.0781251E+01  2.2767263E+01
 1.0792750E+01  2.2769682E+01
 1.0804251E+01  2.2736971E+01
 1.0815750E+01  2.2723457E+01
 1.0827250E+01  2.2772068E+01
 1.0838751E+01  2.2763588E+01
 1.0850250E+01  2.2755131E+01
 1.0861751E+01  2.2703838E+01
 1.0873251E+01  2.2643583E+01
 1.0884750E+01  2.2561619E+01
 1.0896251E+01  2.2516401E+01
 1.0907750E+01  2.2560469E+01
 1.0919250E+01  2.2604597E+01
 1.0930751E+01  2.2682093E+01
 1.0942250E+01  2.2670593E+01
 1.0953751E+01  2.2682573E+01
 1.0965251E+01  2.2658428E+01
 1.0976750E+01  2.2688145E+01
 1.0988251E+01  2.2644556E+01
 1.0999750E+01  2.2606152E+01
 1.1011250E+01  2.2550365E+01
 1.1022751E+01  2.2515284E+01
 1.1034250E+01  2.2500429E+01
 1.1045751E+01  2.2453941E+01
 1.1057251E+01  2.2429548E+01
 1.1068750E+01  2.2393456E+01
 1.1080251E+01  2.2439289E+01
 1.1091750E+01  2.2571596E+01
 1.1103251E+01  2.2594509E+01
 1.1114751E+01  2.2601177E+01
 1.1126250E+01  2.2517733E+01
 1.1137751E+01  2.2464579E+01
 1.1149251E+01  2.2424831E+01
 1.1160750E+01  2.2409189E+01
 1.1172251E+01  2.2436272E+01
 1.1183750E+01  2.2398306E+01
 1.1195251E+01  2.2416750E+01
 1.1206751E+01  2.2462074E+01
 1.1218250E+01  2.2492020E+01
 1.1229751E+01  2.2484161E+01
 1.1241251E+01  2.2441324E+01
 1.1252750E+01  2.2398880E+01
 1.1264251E+01  2.2369204E+01
 1.1275750E+01  2.2353291E+01
 1.1287251E+01  2.2338491E+01
 1.1298751E+01  2.2331652E+01
 1.1310250E+01  2.2307953E+01
 1.1321751E+01  2.2311558E+01
 1.1333251E+01  2.2255753E+01
 1.1344750E+01  2.2216394E+01
 1.1356251E+01  2.2194246E+01
 1.1367750E+01  2.2297373E+01
 1.1379251E+01  2.2359924E+01
 1.1390751E+01  2.2497429E+01
 1.1402250E+01  2.2607040E+01
 1.1413751E+01  2.2598137E+01
 1.1425251E+01  2.2577021E+01
 1.1436750E+01  2.2490900E+01
 1.1448251E+01  2.2487717E+01
 1.1459750E+01  2.2497780E+01
 1.1471251E+01  2.2437624E+01
 1.1482751E+01  2.2421021E+01
 1.1494250E+01  2.2393745E+01
 1.1505751E+01  2.2345745E+01
 1.1517251E+01  2.2454571E+01
 1.1528750E+01  2.2555735E+01
 1.1540251E+01  2.2791016E+01
 1.1551750E+01  2.3053312E+01
 1.1563251E+01  2.3379995E+01
 1.1574751E+01  2.3655434E+01
 1.1586250E+01  2.4066547E+01
 1.1597751E+01  2.4043915E+01
 1.1609251E+01  2.4209846E+01
 1.1620750E+01  2.3731415E+01
 1.1632251E+01  2.3610197E+01
 1.1643750E+01  2.3023281E+01
 1.1655251E+01  2.2816999E+01
 1.1666751E+01  2.2474457E+01
 1.1678250E+01  2.2439772E+01
 1.1689751E+01  2.2333838E+01
 1.1701251E+01  2.2286900E+01
 1.1712750E+01  2.2266996E+01
 1.1724251E+01  2.2286947E+01
 1.1735750E+01  2.2331846E+01
 1.1747251E+01  2.2305042E+01
 1.1758751E+01  2.2312160E+01
 1.1770250E+01  2.2272581E+01
 1.1781751E+01  2.2269979E+01
 1.1793251E+01  2.2246376E+01
 1.1804750E+01  2.2263611E+01
 1.1816251E+01  2.2254080E+01
 1.1827750E+01  2.2218050E+01
 1.1839251E+01  2.2196383E+01
 1.1850751E+01  2.2130989E+01
 1.1862250E+01  2.2197845E+01
 1.1873751E+01  2.2189789E+01
 1.1885251E+01  2.2268892E+01
 1.1896750E+01  2.2306599E+01
 1.1908251E+01  2.2350769E+01
 1.1919750E+01  2.2358303E+01
 1.1931251E+01  2.2306307E+01
 1.1942751E+01  2.2316936E+01
 1.1954250E+01  2.2334591E+01
 1.1965751E+01  2.2372549E+01
 1.1977251E+01  2.2387995E+01
 1.1988750E+01  2.2372969E+01
 1.2000251E+01  2.2303146E+01
 1.2011750E+01  2.2283318E+01
 1.2023251E+01  2.2252214E+01
 1.2034751E+01  2.2301435E+01
 1.2046250E+01  2.2311127E+01
 1.2057751E+01  2.2369993E+01
 1.2069251E+01  2.2493361E+01
 1.2080750E+01  2.2648739E+01
 1.2092251E+01  2.2753471E+01
 1.2103750E+01  2.2769039E+01
 1.2115251E+01  2.2704241E+01
 1.2126751E+01  2.2678364E+01
 1.2138250E+01  2.2629261E+01
 1.2149751E+01  2.2572075E+01
 1.2161251E+01  2.2511229E+01
 1.2172750E+01  2.2411573E+01
 1.2184251E+01  2.2363228E+01
 1.2195750E+01  2.2328157E+01
 1.2207251E+01  2.2284016E+01
 1.2218751E+01  2.2309410E+01
 1.2230250E+01  2.2301865E+01
 1.2241751E+01  2.2379210E+01
 1.2253251E+01  2.2410185E+01
 1.2264750E+01  2.2458654E+01
 1.2276251E+01  2.2462368E+01
 1.2287750E+01  2.2530497E+01
 1.2299251E+01  2.2550323E+01
 1.2310751E+01  2.2650578E+01
 1.2322250E+01  2.2584270E+01
 1.2333751E+01  2.2604033E+01
 1.2345250E+01  2.2518888E+01
 1.2356750E+01  2.2507912E+01
 1.2368251E+01  2.2448923E+01
 1.2379750E+01  2.2449631E+01
 1.2391251E+01  2.2448547E+01
 1.2402751E+01  2.2419010E+01
 1.2414250E+01  2.2406214E+01
 1.2425751E+01  2.2391344E+01
 1.2437250E+01  2.2509464E+01
 1.2448750E+01  2.2547129E+01
 1.2460251E+01  2.2603052E+01
 1.2471750E+01  2.2565481E+01
 1.2483251E+01  2.2631283E+01
 1.2494751E+01  2.2626511E+01
 1.2506250E+01  2.2638060E+01
 1.2517751E+01  2.2578217E+01
 1.2529250E+01  2.2649990E+01
 1.2540751E+01  2.2665909E+01
 1.2552251E+01  2.2732565E+01
 1.2563750E+01  2.2702480E+01
 1.2575251E+01  2.2682148E+01
 1.2586751E+01  2.2672377E+01
 1.2598250E+01  2.2694313E+01
 1.2609751E+01  2.2762777E+01
 1.2621250E+01  2.2817945E+01
 1.2632751E+01  2.2840630E+01
 1.2644251E+01  2.2787397E+01
 1.2655750E+01  2.2725597E+01
 1.2667251E+01  2.2698145E+01
 1.2678751E+01  2.2747833E+01
 1.2690250E+01  2.2744511E+01
 1.2701751E+01  2.2784187E+01
 1.2713250E+01  2.2806910E+01
 1.2724751E+01  2.2823786E+01
 1.2736251E+01  2.2820406E+01
 1.2747750E+01  2.2828688E+01
 1.2759251E+01  2.2902018E+01
 1.2770751E+01  2.2941549E+01
 1.2782250E+01  2.3035402E+01
 1.2793751E+01  2.3005756E+01
 1.2805250E+01  2.3067038E+01
 1.2816751E+01  2.3096872E+01
 1.2828251E+01  2.3140524E+01
 1.2839750E+01  2.3160782E+01
 1.2851251E+01  2.3171108E+01
 1.2862751E+01  2.3216311E+01
 1.2874250E+01  2.3248732E+01
 1.2885751E+01  2.3248640E+01
 1.2897250E+01  2.3304667E+01
 1.2908751E+01  2.3350702E+01
 1.2920251E+01  2.3405107E+01
 1.2931750E+01  2.3442780E+01
 1.2943251E+01  2.3472651E+01
 1.2954751E+01  2.3538950E+01
 1.2966250E+01  2.3645130E+01
 1.2977751E+01  2.3672539E+01
 1.2989250E+01  2.3676668E+01
 1.3000751E+01  2.3626266E+01
 1.3012251E+01  2.3658434E+01
 1.3023750E+01  2.3744297E+01
 1.3035251E+01  2.3936852E+01
 1.3046751E+01  2.4105986E+01
 1.3058250E+01  2.4266510E+01
 1.3069751E+01  2.4357321E+01
 1.3081250E+01  2.4457039E+01
 1.3092751E+01  2.4544128E+01
 1.3104251E+01  2.4715263E+01
 1.3115750E+01  2.4853790E+01
 1.3127251E+01  2.5013922E+01
 1.3138751E+01  2.5053154E+01
 1.3150250E+01  2.5167856E+01
 1.3161751E+01  2.5141645E+01
 1.3173250E+01  2.5222500E+01
 1.3184751E+01  2.5316639E+01
 1.3196251E+01  2.5504961E+01
 1.3207750E+01  2.5683409E+01
 1.3219251E+01  2.5818657E+01
 1.3230751E+01  2.6008766E+01
 1.3242250E+01  2.6211872E+01
 1.3253751E+01  2.6412451E+01
 1.3265250E+01  2.6569317E+01
 1.3276751E+01  2.6715061E+01
 1.3288251E+01  2.6785069E+01
 1.3299750E+01  2.6908966E+01
 1.3311251E+01  2.6930834E+01
 1.3322751E+01  2.7099659E+01
 1.3334250E+01  2.7288782E+01
 1.3345751E+01  2.7488636E+01
 1.3357250E+01  2.7679441E+01
 1.3368751E+01  2.7710575E+01
 1.3380251E+01  2.7864201E+01
 1.3391750E+01  2.7965044E+01
 1.3403251E+01  2.8155981E+01
 1.3414751E+01  2.8268007E+01
 1.3426250E+01  2.8430065E+01
 1.3437751E+01  2.8467438E+01
 1.3449250E+01  2.8569923E+01
 1.3460751E+01  2.8637033E+01
 1.3472251E+01  2.8827562E+01
 1.3483750E+01  2.8948282E+01
 1.3495251E+01  2.9055611E+01
 1.3506751E+01  2.9203972E+01
 1.3518250E+01  2.9303940E+01
 1.3529751E+01  2.9428894E+01
 1.3541250E+01  2.9504850E+01
 1.3552751E+01  2.9566784E+01
 1.3564251E+01  2.9630714E+01
 1.3575750E+01  2.9676538E+01
 1.3587251E+01  2.9692472E+01
 1.3598751E+01  2.9658016E+01
 1.3610250E+01  2.9591557E+01
 1.3621751E+01  2.9558918E+01
 1.3633250E+01  2.9530500E+01
 1.3644751E+01  2.9485744E+01
 1.3656251E+01  2.9534592E+01
 1.3667750E+01  2.9597717E+01
 1.3679251E+01  2.9668488E+01
 1.3690751E+01  2.9604055E+01
 1.3702250E+01  2.9475710E+01
 1.3713751E+01  2.9373257E+01
 1.3725250E+01  2.9281033E+01
 1.3736751E+01  2.9173893E+01
 1.3748251E+01  2.9081324E+01
 1.3759750E+01  2.9006187E+01
 1.3771251E+01  2.9055264E+01
 1.3782751E+01  2.9065035E+01
 1.3794250E+01  2.9092733E+01
 1.3805751E+01  2.9089767E+01
 1.3817250E+01  2.9090313E+01
 1.3828751E+01  2.9123781E+01
 1.3840251E+01  2.9108852E+01
 1.3851750E+01  2.9163588E+01
 1.3863251E+01  2.9334024E+01
 1.3874751E+01  2.9450096E+01
 1.3886250E+01  2.9862402E+01
 1.3897751E+01  3.0744974E+01
 1.3909250E+01  3.1097454E+01
 1.3920751E+01  3.4253113E+01
 1.3932251E+01  3.5577877E+01
 1.3943750E+01  3.6950970E+01
 1.3955251E+01  3.8907467E+01
 1.3966751E+01  3.7771637E+01
 1.3978251E+01  3.7117348E+01
 1.3989751E+01  3.2344078E+01
 1.4001250E+01  3.1534323E+01
 1.4012751E+01  2.9860979E+01
 1.4024251E+01  2.8752184E+01
 1.4035750E+01  2.8415152E+01
 1.4047251E+01  2.7925819E+01
 1.4058751E+01  2.7779858E+01
 1.4070251E+01  2.7613123E+01
 1.4081751E+01  2.7461298E+01
 1.4093250E+01  2.7356146E+01
 1.4104751E+01  2.7222599E+01
 1.4116251E+01  2.7150131E+01
 1.4127750E+01  2.7093138E+01
 1.4139251E+01  2.7076529E+01
 1.4150751E+01  2.7016090E+01
 1.4162251E+01  2.6945091E+01
 1.4173751E+01  2.6866995E+01
 1.4185250E+01  2.6776674E+01
 1.4196751E+01  2.6666971E+01
 1.4208251E+01  2.6560913E+01
 1.4219750E+01  2.6506443E+01
 1.4231251E+01  2.6463068E+01
 1.4242751E+01  2.6436831E+01
 1.4254251E+01  2.6366716E+01
 1.4265751E+01  2.6288776E+01
 1.4277250E+01  2.6220236E+01
 1.4288751E+01  2.6210428E+01
 1.4300251E+01  2.6210207E+01
 1.4311750E+01  2.6243208E+01
 1.4323251E+01  2.6192446E+01
 1.4334751E+01  2.6158920E+01
 1.4346251E+01  2.6046556E+01
 1.4357751E+01  2.5973171E+01
 1.4369250E+01  2.5907475E+01
 1.4380751E+01  2.5889414E+01
 1.4392251E+01  2.5840307E+01
 1.4403750E+01  2.5790733E+01
 1.4415251E+01  2.5742712E+01
 1.4426751E+01  2.5757505E+01
 1.4438251E+01  2.5746101E+01
 1.4449751E+01  2.5710335E+01
 1.4461250E+01  2.5633419E+01
 1.4472751E+01  2.5548880E+01
 1.4484251E+01  2.5510071E+01
 1.4495750E+01  2.5500423E+01
 1.4507251E+01  2.5539179E+01
 1.4518751E+01  2.5503544E+01
 1.4530251E+01  2.5537956E+01
 1.4541751E+01  2.5518230E+01
 1.4553250E+01  2.5487324E+01
 1.4564751E+01  2.5388447E+01
 1.4576251E+01  2.5311670E+01
 1.4587750E+01  2.5229002E+01
 1.4599251E+01  2.5139217E+01
 1.4610751E+01  2.5126907E+01
 1.4622251E+01  2.5159060E+01
 1.4633751E+01  2.5191925E+01
 1.4645250E+01  2.5232281E+01
 1.4656751E+01  2.5269827E+01
 1.4668251E+01  2.5272408E+01
 1.4679750E+01  2.5215475E+01
 1.4691251E+01  2.5228464E+01
 1.4702751E+01  2.5244207E+01
 1.4714251E+01  2.5201365E+01
 1.4725751E+01  2.5097145E+01
 1.4737250E+01  2.4977070E+01
 1.4748751E+01  2.4965723E+01
 1.4760251E+01  2.4925097E+01
 1.4771750E+01  2.4970062E+01
 1.4783251E+01  2.4943630E+01
 1.4794751E+01  2.4946890E+01
 1.4806251E+01  2.4917297E+01
 1.4817751E+01  2.4870518E+01
 1.4829250E+01  2.4835194E+01
 1.4840751E+01  2.4808443E+01
 1.4852251E+01  2.4778488E+01
 1.4863750E+01  2.4698103E+01
 1.4875251E+01  2.4627384E+01
 1.4886751E+01  2.4611441E+01
 1.4898251E+01  2.4671591E+01
 1.4909751E+01  2.4684404E+01
 1.4921250E+01  2.4637762E+01
 1.4932751E+01  2.4649078E+01
 1.4944251E+01  2.4646639E+01
 1.4955750E+01  2.4724447E+01
 1.4967251E+01  2.4689096E+01
 1.4978751E+01  2.4736931E+01
 1.4990251E+01  2.4709854E+01
 1.5001751E+01  2.4787334E+01
 1.5013250E+01  2.4829947E+01
 1.5024751E+01  2.4859344E+01
 1.5036251E+01  2.4839184E+01
 1.5047750E+01  2.4768787E+01
 1.5059251E+01  2.4733923E+01
 1.5070751E+01  2.4632771E+01
 1.5082251E+01  2.4553421E+01
 1.5093751E+01  2.4496450E+01
 1.5105250E+01  2.4514748E+01
 1.5116751E+01  2.4561268E+01
 1.5128251E+01  2.4616215E+01
 1.5139750E+01  2.4738811E+01
 1.5151251E+01  2.4930531E+01
 1.5162751E+01  2.5105816E+01
 1.5174251E+01  2.5267729E+01
 1.5185751E+01  2.5376097E+01
 1.5197250E+01  2.5396360E+01
 1.5208751E+01  2.5293518E+01
 1.5220251E+01  2.5142864E+01
 1.5231750E+01  2.5005022E+01
 1.5243251E+01  2.4847120E+01
 1.5254751E+01  2.4775278E+01
 1.5266251E+01  2.4687963E+01
 1.5277751E+01  2.4694029E+01
 1.5289250E+01  2.4611523E+01
 1.5300751E+01  2.4537279E+01
 1.5312251E+01  2.4455053E+01
 1.5323750E+01  2.4347033E+01
 1.5335251E+01  2.4355890E+01
 1.5346751E+01  2.4346510E+01
 1.5358251E+01  2.4386806E+01
 1.5369751E+01  2.4370777E+01
 1.5381250E+01  2.4338623E+01
 1.5392751E+01  2.4336699E+01
 1.5404251E+01  2.4338537E+01
 1.5415751E+01  2.4341753E+01
 1.5427251E+01  2.4318285E+01
 1.5438751E+01  2.4301622E+01
 1.5450251E+01  2.4297970E+01
 1.5461751E+01  2.4320499E+01
 1.5473250E+01  2.4332624E+01
 1.5484751E+01  2.4392294E+01
 1.5496251E+01  2.4436008E+01
 1.5507751E+01  2.4453697E+01
 1.5519251E+01  2.4427490E+01
 1.5530751E+01  2.4421213E+01
 1.5542251E+01  2.4436108E+01
 1.5553751E+01  2.4469347E+01
 1.5565250E+01  2.4463215E+01
 1.5576751E+01  2.4467171E+01
 1.5588251E+01  2.4442127E+01
 1.5599751E+01  2.4413198E+01
 1.5611251E+01  2.4383581E+01
 1.5622751E+01  2.4377289E+01
 1.5634251E+01  2.4359812E+01
 1.5645751E+01  2.4406469E+01
 1.5657250E+01  2.4398966E+01
 1.5668751E+01  2.4393557E+01
 1.5680251E+01  2.4327940E+01
 1.5691751E+01  2.4318546E+01
 1.5703251E+01  2.4347101E+01
 1.5714751E+01  2.4384378E+01
 1.5726251E+01  2.4405455E+01
 1.5737751E+01  2.4399385E+01
 1.5749250E+01  2.4433695E+01
 1.5760751E+01  2.4455704E+01
 1.5772251E+01  2.4504055E+01
 1.5783751E+01  2.4504932E+01
 1.5795251E+01  2.4561962E+01
 1.5806751E+01  2.4563484E+01
 1.5818251E+01  2.4524002E+01
 1.5829751E+01  2.4455330E+01
 1.5841250E+01  2.4399395E+01
 1.5852751E+01  2.4396242E+01
 1.5864251E+01  2.4339748E+01
 1.5875751E+01  2.4388004E+01
 1.5887251E+01  2.4438768E+01
 1.5898750E+01  2.4521433E+01
 1.5910251E+01  2.4568583E+01
 1.5921751E+01  2.4528923E+01
 1.5933250E+01  2.4498137E+01
 1.5944751E+01  2.4413374E+01
 1.5956251E+01  2.4408131E+01
 1.5967751E+01  2.4371525E+01
 1.5979251E+01  2.4378668E+01
 1.5990750E+01  2.4431902E+01
 1.6002251E+01  2.4441383E+01
 1.6013750E+01  2.4492561E+01
 1.6025251E+01  2.4483543E+01
 1.6036751E+01  2.4540365E+01
 1.6048250E+01  2.4514898E+01
 1.6059752E+01  2.4515942E+01
 1.6071251E+01  2.4484285E+01
 1.6082750E+01  2.4570211E+01
 1.6094252E+01  2.4620380E+01
 1.6105751E+01  2.4706331E+01
 1.6117250E+01  2.4700455E+01
 1.6128750E+01  2.4683664E+01
 1.6140251E+01  2.4646736E+01
 1.6151751E+01  2.4591387E+01
 1.6163250E+01  2.4620075E+01
 1.6174751E+01  2.4617968E+01
 1.6186251E+01  2.4717772E+01
 1.6197750E+01  2.4699892E+01
 1.6209251E+01  2.4783175E+01
 1.6220751E+01  2.4748075E+01
 1.6232250E+01  2.4814537E+01
 1.6243752E+01  2.4857580E+01
 1.6255251E+01  2.4970205E+01
 1.6266750E+01  2.5123299E+01
 1.6278252E+01  2.5044088E+01
 1.6289751E+01  2.5153875E+01
 1.6301250E+01  2.4883505E+01
 1.6312750E+01  2.4961384E+01
 1.6324251E+01  2.4703323E+01
 1.6335751E+01  2.4748995E+01
 1.6347250E+01  2.4593266E+01
 1.6358751E+01  2.4541506E+01
 1.6370251E+01  2.4516775E+01
 1.6381750E+01  2.4533722E+01
 1.6393251E+01  2.4607359E+01
 1.6404751E+01  2.4616159E+01
 1.6416250E+01  2.4638931E+01
 1.6427752E+01  2.4578457E+01
 1.6439251E+01  2.4515476E+01
 1.6450750E+01  2.4475016E+01
 1.6462252E+01  2.4444862E+01
 1.6473751E+01  2.4466452E+01
 1.6485250E+01  2.4509649E+01
 1.6496750E+01  2.4599258E+01
 1.6508251E+01  2.4626825E+01
 1.6519751E+01  2.4562973E+01
 1.6531250E+01  2.4536150E+01
 1.6542751E+01  2.4529236E+01
 1.6554251E+01  2.4599155E+01
 1.6565750E+01  2.4596399E+01
 1.6577251E+01  2.4560415E+01
 1.6588751E+01  2.4501551E+01
 1.6600250E+01  2.4456032E+01
 1.6611752E+01  2.4464470E+01
 1.6623251E+01  2.4390404E+01
 1.6634750E+01  2.4367298E+01
 1.6646252E+01  2.4340334E+01
 1.6657751E+01  2.4362951E+01
 1.6669250E+01  2.4400883E+01
 1.6680750E+01  2.4356194E+01
 1.6692251E+01  2.4365173E+01
 1.6703751E+01  2.4310781E+01
 1.6715250E+01  2.4323900E+01
 1.6726751E+01  2.4290308E+01
 1.6738251E+01  2.4323917E+01
 1.6749750E+01  2.4359795E+01
 1.6761251E+01  2.4357525E+01
 1.6772751E+01  2.4389368E+01
 1.6784250E+01  2.4346216E+01
 1.6795752E+01  2.4342134E+01
 1.6807251E+01  2.4286139E+01
 1.6818750E+01  2.4269121E+01
 1.6830252E+01  2.4289360E+01
 1.6841751E+01  2.4282192E+01
 1.6853251E+01  2.4242975E+01
 1.6864750E+01  2.4196474E+01
 1.6876251E+01  2.4211679E+01
 1.6887751E+01  2.4242664E+01
 1.6899250E+01  2.4232702E+01
 1.6910751E+01  2.4174906E+01
 1.6922251E+01  2.4144907E+01
 1.6933750E+01  2.4073057E+01
 1.6945251E+01  2.4081169E+01
 1.6956751E+01  2.4066008E+01
 1.6968250E+01  2.4118956E+01
 1.6979752E+01  2.4105759E+01
 1.6991251E+01  2.4109022E+01
 1.7002750E+01  2.4037474E+01
 1.7014252E+01  2.4058247E+01
 1.7025751E+01  2.4021172E+01
 1.7037251E+01  2.4012197E+01
 1.7048750E+01  2.3925301E+01
 1.7060251E+01  2.3892719E+01
 1.7071751E+01  2.3909592E+01
 1.7083250E+01  2.3923206E+01
 1.7094751E+01  2.3943237E+01
 1.7106251E+01  2.3948559E+01
 1.7117750E+01  2.3932810E+01
 1.7129251E+01  2.3968273E+01
 1.7140751E+01  2.3967834E+01
 1.7152250E+01  2.3986589E+01
 1.7163752E+01  2.3997936E+01
 1.7175251E+01  2.4056767E+01
 1.7186750E+01  2.4098570E+01
 1.7198252E+01  2.4082806E+01
 1.7209751E+01  2.4070755E+01
 1.7221251E+01  2.4022129E+01
 1.7232750E+01  2.4007347E+01
 1.7244251E+01  2.3931253E+01
 1.7255751E+01  2.3877874E+01
 1.7267250E+01  2.3832661E+01
 1.7278751E+01  2.3805506E+01
 1.7290251E+01  2.3834232E+01
 1.7301750E+01  2.3879705E+01
 1.7313251E+01  2.3911753E+01
 1.7324751E+01  2.3942862E+01
 1.7336250E+01  2.3937155E+01
 1.7347752E+01  2.3934689E+01
 1.7359251E+01  2.3932068E+01
 1.7370750E+01  2.3945879E+01
 1.7382252E+01  2.3894436E+01
 1.7393751E+01  2.3829453E+01
 1.7405251E+01  2.3744381E+01
 1.7416750E+01  2.3740198E+01
 1.7428251E+01  2.3720404E+01
 1.7439751E+01  2.3781494E+01
 1.7451250E+01  2.3834799E+01
 1.7462751E+01  2.3872339E+01
 1.7474251E+01  2.3904211E+01
 1.7485750E+01  2.3898798E+01
 1.7497252E+01  2.3830458E+01
 1.7508751E+01  2.3821924E+01
 1.7520250E+01  2.3790167E+01
 1.7531752E+01  2.3873415E+01
 1.7543251E+01  2.3852871E+01
 1.7554750E+01  2.3807293E+01
 1.7566252E+01  2.3708708E+01
 1.7577751E+01  2.3615442E+01
 1.7589251E+01  2.3574833E+01
 1.7600750E+01  2.3611727E+01
 1.7612251E+01  2.3615211E+01
 1.7623751E+01  2.3659765E+01
 1.7635250E+01  2.3608856E+01
 1.7646751E+01  2.3619015E+01
 1.7658251E+01  2.3600887E+01
 1.7669750E+01  2.3613047E+01
 1.7681252E+01  2.3654808E+01
 1.7692751E+01  2.3668509E+01
 1.7704250E+01  2.3682642E+01
 1.7715752E+01  2.3678532E+01
 1.7727251E+01  2.3657888E+01
 1.7738750E+01  2.3604446E+01
 1.7750252E+01  2.3557583E+01
 1.7761751E+01  2.3548519E+01
 1.7773251E+01  2.3572756E+01
 1.7784750E+01  2.3635790E+01
 1.7796251E+01  2.3681173E+01
 1.7807751E+01  2.3616430E+01
 1.7819250E+01  2.3519756E+01
 1.7830751E+01  2.3477850E+01
 1.7842251E+01  2.3504169E+01
 1.7853750E+01  2.3549984E+01
 1.7865252E+01  2.3594521E+01
 1.7876751E+01  2.3579615E+01
 1.7888250E+01  2.3529690E+01
 1.7899752E+01  2.3477959E+01
 1.7911251E+01  2.3548065E+01
 1.7922750E+01  2.3591248E+01
 1.7934252E+01  2.3616745E+01
 1.7945751E+01  2.3610970E+01
 1.7957251E+01  2.3572681E+01
 1.7968750E+01  2.3546021E+01
 1.7980251E+01  2.3541840E+01
 1.7991751E+01  2.3574810E+01
 1.8003250E+01  2.3641689E+01
 1.8014751E+01  2.3725082E+01
 1.8026251E+01  2.3818340E+01
 1.8037750E+01  2.3875330E+01
 1.8049252E+01  2.3969835E+01
 1.8060751E+01  2.4167107E+01
 1.8072250E+01  2.4346071E+01
 1.8083752E+01  2.4523325E+01
 1.8095251E+01  2.4597267E+01
 1.8106750E+01  2.4621317E+01
 1.8118252E+01  2.4502750E+01
 1.8129751E+01  2.4346436E+01
 1.8141251E+01  2.4064758E+01
 1.8152750E+01  2.3880423E+01
 1.8164251E+01  2.3742708E+01
 1.8175751E+01  2.3677149E+01
 1.8187250E+01  2.3614794E+01
 1.8198751E+01  2.3578423E+01
 1.8210251E+01  2.3578888E+01
 1.8221750E+01  2.3561838E+01
 1.8233252E+01  2.3492865E+01
 1.8244751E+01  2.3458960E+01
 1.8256250E+01  2.3433701E+01
 1.8267752E+01  2.3427361E+01
 1.8279251E+01  2.3389713E+01
 1.8290751E+01  2.3357515E+01
 1.8302252E+01  2.3334314E+01
 1.8313751E+01  2.3345043E+01
 1.8325251E+01  2.3309750E+01
 1.8336750E+01  2.3295933E+01
 1.8348251E+01  2.3295120E+01
 1.8359751E+01  2.3362814E+01
 1.8371250E+01  2.3382475E+01
 1.8382751E+01  2.3454048E+01
 1.8394251E+01  2.3488596E+01
 1.8405750E+01  2.3523691E+01
 1.8417252E+01  2.3453257E+01
 1.8428751E+01  2.3397814E+01
 1.8440250E+01  2.3359325E+01
 1.8451752E+01  2.3349646E+01
 1.8463251E+01  2.3372284E+01
 1.8474751E+01  2.3421410E+01
 1.8486252E+01  2.3416986E+01
 1.8497751E+01  2.3395758E+01
 1.8509251E+01  2.3377222E+01
 1.8520750E+01  2.3328033E+01
 1.8532251E+01  2.3327944E+01
 1.8543751E+01  2.3267546E+01
 1.8555250E+01  2.3290289E+01
 1.8566751E+01  2.3310635E+01
 1.8578251E+01  2.3369852E+01
 1.8589750E+01  2.3398733E+01
 1.8601252E+01  2.3393789E+01
 1.8612751E+01  2.3333590E+01
 1.8624250E+01  2.3276125E+01
 1.8635752E+01  2.3240622E+01
 1.8647251E+01  2.3238987E+01
 1.8658751E+01  2.3270691E+01
 1.8670252E+01  2.3329435E+01
 1.8681751E+01  2.3376659E+01
 1.8693251E+01  2.3425190E+01
 1.8704750E+01  2.3404551E+01
 1.8716251E+01  2.3359079E+01
 1.8727751E+01  2.3330950E+01
 1.8739250E+01  2.3337391E+01
 1.8750751E+01  2.3382277E+01
 1.8762251E+01  2.3398491E+01
 1.8773750E+01  2.3364317E+01
 1.8785252E+01  2.3341082E+01
 1.8796751E+01  2.3352818E+01
 1.8808250E+01  2.3378342E+01
 1.8819752E+01  2.3417875E+01
 1.8831251E+01  2.3340572E+01
 1.8842751E+01  2.3325518E+01
 1.8854252E+01  2.3262583E+01
 1.8865751E+01  2.3297939E+01
 1.8877251E+01  2.3290428E+01
 1.8888750E+01  2.3309942E+01
 1.8900251E+01  2.3359129E+01
 1.8911751E+01  2.3359917E+01
 1.8923250E+01  2.3402136E+01
 1.8934752E+01  2.3404819E+01
 1.8946251E+01  2.3432137E+01
 1.8957750E+01  2.3385792E+01
 1.8969252E+01  2.3347219E+01
 1.8980751E+01  2.3347687E+01
 1.8992250E+01  2.3331299E+01
 1.9003752E+01  2.3334101E+01
 1.9015251E+01  2.3348082E+01
 1.9026751E+01  2.3398872E+01
 1.9038252E+01  2.3396822E+01
 1.9049751E+01  2.3376204E+01
 1.9061251E+01  2.3380911E+01
 1.9072750E+01  2.3425617E+01
 1.9084251E+01  2.3411959E+01
 1.9095751E+01  2.3390184E+01
 1.9107250E+01  2.3348440E+01
 1.9118752E+01  2.3355539E+01
 1.9130251E+01  2.3378992E+01
 1.9141750E+01  2.3361475E+01
 1.9153252E+01  2.3402100E+01
 1.9164751E+01  2.3314432E+01
 1.9176250E+01  2.3253916E+01
 1.9187752E+01  2.3200764E+01
 1.9199251E+01  2.3199118E+01
 1.9210751E+01  2.3153263E+01
 1.9222252E+01  2.3150232E+01
 1.9233751E+01  2.3167336E+01
 1.9245251E+01  2.3224274E+01
 1.9256750E+01  2.3267799E+01
 1.9268251E+01  2.3309708E+01
 1.9279751E+01  2.3295279E+01
 1.9291250E+01  2.3340931E+01
 1.9302752E+01  2.3371994E+01
 1.9314251E+01  2.3371601E+01
 1.9325750E+01  2.3360155E+01
 1.9337252E+01  2.3382742E+01
 1.9348751E+01  2.3433065E+01
 1.9360250E+01  2.3473038E+01
 1.9371752E+01  2.3480639E+01
 1.9383251E+01  2.3465981E+01
 1.9394751E+01  2.3476765E+01
 1.9406250E+01  2.3454901E+01
 1.9417751E+01  2.3489361E+01
 1.9429251E+01  2.3469374E+01
 1.9440750E+01  2.3504309E+01
 1.9452251E+01  2.3445576E+01
 1.9463751E+01  2.3402697E+01
 1.9475250E+01  2.3347198E+01
 1.9486752E+01  2.3312233E+01
 1.9498251E+01  2.3312248E+01
 1.9509750E+01  2.3335686E+01
 1.9521252E+01  2.3436565E+01
 1.9532751E+01  2.3445484E+01
 1.9544250E+01  2.3491718E+01
 1.9555752E+01  2.3431269E+01
 1.9567251E+01  2.3419132E+01
 1.9578751E+01  2.3400770E+01
 1.9590250E+01  2.3415077E+01
 1.9601751E+01  2.3419691E+01
 1.9613251E+01  2.3451273E+01
 1.9624750E+01  2.3478514E+01
 1.9636251E+01  2.3499640E+01
 1.9647751E+01  2.3510719E+01
 1.9659250E+01  2.3655268E+01
 1.9670752E+01  2.3701527E+01
 1.9682251E+01  2.3830952E+01
 1.9693750E+01  2.3971714E+01
 1.9705252E+01  2.4130529E+01
 1.9716751E+01  2.4207554E+01
 1.9728251E+01  2.4199026E+01
 1.9739752E+01  2.4116795E+01
 1.9751251E+01  2.4053625E+01
 1.9762751E+01  2.3965904E+01
 1.9774250E+01  2.3920477E+01
 1.9785751E+01  2.3834044E+01
 1.9797251E+01  2.3893269E+01
 1.9808750E+01  2.3938557E+01
 1.9820251E+01  2.4045031E+01
 1.9831751E+01  2.4172215E+01
 1.9843250E+01  2.4246805E+01
 1.9854752E+01  2.4315653E+01
 1.9866251E+01  2.4389654E+01
 1.9877750E+01  2.4422270E+01
 1.9889252E+01  2.4363632E+01
 1.9900751E+01  2.4247139E+01
 1.9912251E+01  2.4075542E+01
 1.9923752E+01  2.3854425E+01
 1.9935251E+01  2.3642496E+01
 1.9946751E+01  2.3591373E+01
 1.9958250E+01  2.3562819E+01
 1.9969751E+01  2.3631458E+01
 1.9981251E+01  2.3582340E+01
 1.9992750E+01  2.3605911E+01
 2.0004251E+01  2.3591166E+01
 2.0015751E+01  2.3605461E+01
 2.0027250E+01  2.3551073E+01
 2.0038752E+01  2.3506702E+01
 2.0050251E+01  2.3477751E+01
 2.0061750E+01  2.3449043E+01
 2.0073252E+01  2.3417183E+01
 2.0084751E+01  2.3399242E+01
 2.0096251E+01  2.3403784E+01
 2.0107752E+01  2.3376764E+01
 2.0119251E+01  2.3340027E+01
 2.0130751E+01  2.3341040E+01
 2.0142250E+01  2.3397144E+01
 2.0153751E+01  2.3457085E+01
 2.0165251E+01  2.3472471E+01
 2.0176750E+01  2.3497395E+01
 2.0188251E+01  2.3452589E+01
 2.0199751E+01  2.3437258E+01
 2.0211250E+01  2.3398558E+01
 2.0222752E+01  2.3389353E+01
 2.0234251E+01  2.3388227E+01
 2.0245750E+01  2.3404825E+01
 2.0257252E+01  2.3380890E+01
 2.0268751E+01  2.3352291E+01
 2.0280251E+01  2.3373737E+01
 2.0291752E+01  2.3385933E+01
 2.0303251E+01  2.3372837E+01
 2.0314751E+01  2.3342157E+01
 2.0326250E+01  2.3333914E+01
 2.0337751E+01  2.3334208E+01
 2.0349251E+01  2.3333164E+01
 2.0360750E+01  2.3346926E+01
 2.0372252E+01  2.3362528E+01
 2.0383751E+01  2.3416842E+01
 2.0395250E+01  2.3493286E+01
 2.0406752E+01  2.3560547E+01
 2.0418251E+01  2.3581646E+01
 2.0429750E+01  2.3541937E+01
 2.0441252E+01  2.3491398E+01
 2.0452751E+01  2.3459337E+01
 2.0464251E+01  2.3471815E+01
 2.0475752E+01  2.3491312E+01
 2.0487251E+01  2.3519241E+01
 2.0498751E+01  2.3512035E+01
 2.0510250E+01  2.3460970E+01
 2.0521751E+01  2.3342300E+01
 2.0533251E+01  2.3281033E+01
 2.0544750E+01  2.3328983E+01
 2.0556252E+01  2.3445105E+01
 2.0567751E+01  2.3527246E+01
 2.0579250E+01  2.3536533E+01
 2.0590752E+01  2.3614710E+01
 2.0602251E+01  2.3622007E+01
 2.0613750E+01  2.3659973E+01
 2.0625252E+01  2.3693729E+01
 2.0636751E+01  2.3732336E+01
 2.0648251E+01  2.3677898E+01
 2.0659752E+01  2.3638412E+01
 2.0671251E+01  2.3620985E+01
 2.0682751E+01  2.3672525E+01
 2.0694250E+01  2.3733814E+01
 2.0705751E+01  2.3787708E+01
 2.0717251E+01  2.3867451E+01
 2.0728750E+01  2.3985744E+01
 2.0740252E+01  2.4117659E+01
 2.0751751E+01  2.4185055E+01
 2.0763250E+01  2.4266432E+01
 2.0774752E+01  2.4197445E+01
 2.0786251E+01  2.4103827E+01
 2.0797750E+01  2.4010597E+01
 2.0809252E+01  2.3981506E+01
 2.0820751E+01  2.3881327E+01
 2.0832251E+01  2.3831394E+01
 2.0843752E+01  2.3814526E+01
 2.0855251E+01  2.3859697E+01
 2.0866751E+01  2.3900354E+01
 2.0878250E+01  2.3945396E+01
 2.0889751E+01  2.3955870E+01
 2.0901251E+01  2.3908052E+01
 2.0912750E+01  2.3858599E+01
 2.0924252E+01  2.3832914E+01
 2.0935751E+01  2.3800077E+01
 2.0947250E+01  2.3750780E+01
 2.0958752E+01  2.3674215E+01
 2.0970251E+01  2.3626884E+01
 2.0981750E+01  2.3626989E+01
 2.0993252E+01  2.3670225E+01
 2.1004751E+01  2.3687954E+01
 2.1016251E+01  2.3689489E+01
 2.1027752E+01  2.3725868E+01
 2.1039251E+01  2.3701477E+01
 2.1050751E+01  2.3676893E+01
 2.1062250E+01  2.3616308E+01
 2.1073751E+01  2.3628601E+01
 2.1085251E+01  2.3634785E+01
 2.1096750E+01  2.3643204E+01
 2.1108252E+01  2.3685123E+01
 2.1119751E+01  2.3713888E+01
 2.1131250E+01  2.3732513E+01
 2.1142752E+01  2.3687414E+01
 2.1154251E+01  2.3628420E+01
 2.1165751E+01  2.3651472E+01
 2.1177252E+01  2.3715446E+01
 2.1188751E+01  2.3739365E+01
 2.1200251E+01  2.3742699E+01
 2.1211752E+01  2.3749613E+01
 2.1223251E+01  2.3758316E+01
 2.1234751E+01  2.3725164E+01
 2.1246250E+01  2.3749208E+01
 2.1257751E+01  2.3756638E+01
 2.1269251E+01  2.3752199E+01
 2.1280750E+01  2.3720667E+01
 2.1292252E+01  2.3732208E+01
 2.1303751E+01  2.3710279E+01
 2.1315250E+01  2.3676268E+01
 2.1326752E+01  2.3684208E+01
 2.1338251E+01  2.3705572E+01
 2.1349751E+01  2.3751978E+01
 2.1361252E+01  2.3780966E+01
 2.1372751E+01  2.3771557E+01
 2.1384251E+01  2.3710089E+01
 2.1395752E+01  2.3721760E+01
 2.1407251E+01  2.3739010E+01
 2.1418751E+01  2.3760448E+01
 2.1430250E+01  2.3752693E+01
 2.1441751E+01  2.3740366E+01
 2.1453251E+01  2.3780951E+01
 2.1464750E+01  2.3793915E+01
 2.1476252E+01  2.3788654E+01
 2.1487751E+01  2.3806034E+01
 2.1499250E+01  2.3812592E+01
 2.1510752E+01  2.3807337E+01
 2.1522251E+01  2.3764118E+01
 2.1533751E+01  2.3754824E+01
 2.1545252E+01  2.3762207E+01
 2.1556751E+01  2.3761112E+01
 2.1568251E+01  2.3802256E+01
 2.1579752E+01  2.3905766E+01
 2.1591251E+01  2.3977390E+01
 2.1602751E+01  2.3985420E+01
 2.1614250E+01  2.3953060E+01
 2.1625751E+01  2.3909578E+01
 2.1637251E+01  2.3868309E+01
 2.1648750E+01  2.3863985E+01
 2.1660252E+01  2.3875725E+01
 2.1671751E+01  2.3935774E+01
 2.1683250E+01  2.4004202E+01
 2.1694752E+01  2.3976101E+01
 2.1706251E+01  2.3950203E+01
 2.1717751E+01  2.3933895E+01
 2.1729252E+01  2.3969482E+01
 2.1740751E+01  2.3950514E+01
 2.1752251E+01  2.3959999E+01
 2.1763752E+01  2.3913746E+01
 2.1775251E+01  2.3959414E+01
 2.1786751E+01  2.3996191E+01
 2.1798250E+01  2.4018404E+01
 2.1809752E+01  2.4039116E+01
 2.1821251E+01  2.4029158E+01
 2.1832750E+01  2.3990850E+01
 2.1844252E+01  2.3946692E+01
 2.1855751E+01  2.3959543E+01
 2.1867250E+01  2.4022169E+01
 2.1878752E+01  2.4051331E+01
 2.1890251E+01  2.4052313E+01
 2.1901751E+01  2.4031662E+01
 2.1913252E+01  2.4029799E+01
 2.1924751E+01  2.4002819E+01
 2.1936251E+01  2.3974186E+01
 2.1947752E+01  2.3948536E+01
 2.1959251E+01  2.3957066E+01
 2.1970751E+01  2.4004219E+01
 2.1982250E+01  2.4061550E+01
 2.1993752E+01  2.4090433E+01
 2.2005251E+01  2.4142765E+01
 2.2016750E+01  2.4151705E+01
 2.2028252E+01  2.4195280E+01
 2.2039751E+01  2.4215734E+01
 2.2051250E+01  2.4233618E+01
 2.2062752E+01  2.4193100E+01
 2.2074251E+01  2.4152641E+01
 2.2085751E+01  2.4091154E+01
 2.2097252E+01  2.4069702E+01
 2.2108751E+01  2.4077690E+01
 2.2120251E+01  2.4193071E+01
 2.2131752E+01  2.4240440E+01
 2.2143251E+01  2.4269308E+01
 2.2154751E+01  2.4230675E+01
 2.2166250E+01  2.4227093E+01
 2.2177752E+01  2.4183302E+01
 2.2189251E+01  2.4181974E+01
 2.2200750E+01  2.4187559E+01
 2.2212252E+01  2.4200768E+01
 2.2223751E+01  2.4244253E+01
 2.2235250E+01  2.4233257E+01
 2.2246752E+01  2.4216150E+01
 2.2258251E+01  2.4232975E+01
 2.2269751E+01  2.4250486E+01
 2.2281252E+01  2.4289280E+01
 2.2292751E+01  2.4252239E+01
 2.2304251E+01  2.4254957E+01
 2.2315752E+01  2.4192436E+01
 2.2327251E+01  2.4185276E+01
 2.2338751E+01  2.4241381E+01
 2.2350250E+01  2.4343523E+01
 2.2361752E+01  2.4407291E+01
 2.2373251E+01  2.4419538E+01
 2.2384750E+01  2.4389347E+01
 2.2396252E+01  2.4362831E+01
 2.2407751E+01  2.4313377E+01
 2.2419250E+01  2.4314596E+01
 2.2430752E+01  2.4370199E+01
 2.2442251E+01  2.4438251E+01
 2.2453751E+01  2.4494310E+01
 2.2465252E+01  2.4501667E+01
 2.2476751E+01  2.4434092E+01
 2.2488251E+01  2.4426056E+01
 2.2499752E+01  2.4461782E+01
 2.2511251E+01  2.4531456E+01
 2.2522751E+01  2.4578068E+01
 2.2534250E+01  2.4627651E+01
 2.2545752E+01  2.4685167E+01
 2.2557251E+01  2.4691128E+01
 2.2568750E+01  2.4654633E+01
 2.2580252E+01  2.4606249E+01
 2.2591751E+01  2.4556374E+01
 2.2603251E+01  2.4559042E+01
 2.2614752E+01  2.4574947E+01
 2.2626251E+01  2.4632751E+01
 2.2637751E+01  2.4679649E+01
 2.2649252E+01  2.4706839E+01
 2.2660751E+01  2.4738407E+01
 2.2672251E+01  2.4797451E+01
 2.2683752E+01  2.4861374E+01
 2.2695251E+01  2.4920113E+01
 2.2706751E+01  2.4958248E+01
 2.2718250E+01  2.4969492E+01
 2.2729752E+01  2.4948267E+01
 2.2741251E+01  2.5005737E+01
 2.2752750E+01  2.5096962E+01
 2.2764252E+01  2.5150719E+01
 2.2775751E+01  2.5136805E+01
 2.2787251E+01  2.5089506E+01
 2.2798752E+01  2.5102362E+01
 2.2810251E+01  2.5186720E+01
 2.2821751E+01  2.5275761E+01
 2.2833252E+01  2.5339384E+01
 2.2844751E+01  2.5354280E+01
 2.2856251E+01  2.5318502E+01
 2.2867750E+01  2.5327251E+01
 2.2879251E+01  2.5351286E+01
 2.2890751E+01  2.5445051E+01
 2.2902250E+01  2.5539516E+01
 2.2913752E+01  2.5653841E+01
 2.2925251E+01  2.5765177E+01
 2.2936750E+01  2.5788252E+01
 2.2948252E+01  2.5806129E+01
 2.2959751E+01  2.5844477E+01
 2.2971251E+01  2.6001551E+01
 2.2982752E+01  2.6058901E+01
 2.2994251E+01  2.6142921E+01
