F:\20151113_APS_34IDE\\Brian\Particle1\OCV\Data_0055.tif
2-Theta Angle (Degrees)
Intensity
       2000
 5.7500005E-03  0.0000000E+00
 1.7250001E-02  0.0000000E+00
 2.8750001E-02  0.0000000E+00
 4.0250003E-02  0.0000000E+00
 5.1750004E-02  0.0000000E+00
 6.3250005E-02  0.0000000E+00
 7.4750006E-02  0.0000000E+00
 8.6250007E-02  0.0000000E+00
 9.7750008E-02  0.0000000E+00
 1.0925001E-01  0.0000000E+00
 1.2075000E-01  0.0000000E+00
 1.3225001E-01  0.0000000E+00
 1.4375001E-01  0.0000000E+00
 1.5525001E-01  0.0000000E+00
 1.6675001E-01  0.0000000E+00
 1.7825001E-01  0.0000000E+00
 1.8975002E-01  0.0000000E+00
 2.0125002E-01  0.0000000E+00
 2.1275002E-01  0.0000000E+00
 2.2425000E-01  0.0000000E+00
 2.3575000E-01  0.0000000E+00
 2.4725001E-01  0.0000000E+00
 2.5875002E-01  0.0000000E+00
 2.7025002E-01  0.0000000E+00
 2.8175002E-01  0.0000000E+00
 2.9325002E-01  0.0000000E+00
 3.0475003E-01  0.0000000E+00
 3.1625003E-01  0.0000000E+00
 3.2775003E-01  0.0000000E+00
 3.3925003E-01  0.0000000E+00
 3.5075003E-01  0.0000000E+00
 3.6225003E-01  0.0000000E+00
 3.7375003E-01  0.0000000E+00
 3.8525003E-01  0.0000000E+00
 3.9675003E-01  0.0000000E+00
 4.0825003E-01  0.0000000E+00
 4.1975003E-01  0.0000000E+00
 4.3125004E-01  0.0000000E+00
 4.4275001E-01  0.0000000E+00
 4.5425001E-01  0.0000000E+00
 4.6575001E-01  0.0000000E+00
 4.7725001E-01  0.0000000E+00
 4.8875001E-01  0.0000000E+00
 5.0025004E-01  0.0000000E+00
 5.1175004E-01  0.0000000E+00
 5.2325004E-01  0.0000000E+00
 5.3475004E-01  0.0000000E+00
 5.4625005E-01  0.0000000E+00
 5.5775005E-01  0.0000000E+00
 5.6925005E-01  0.0000000E+00
 5.8075005E-01  0.0000000E+00
 5.9225005E-01  0.0000000E+00
 6.0375005E-01  0.0000000E+00
 6.1525005E-01  0.0000000E+00
 6.2675005E-01  0.0000000E+00
 6.3825005E-01  0.0000000E+00
 6.4975005E-01  0.0000000E+00
 6.6125005E-01  0.0000000E+00
 6.7275006E-01  0.0000000E+00
 6.8425006E-01  0.0000000E+00
 6.9575006E-01  0.0000000E+00
 7.0725006E-01  0.0000000E+00
 7.1875006E-01  0.0000000E+00
 7.3025006E-01  0.0000000E+00
 7.4175006E-01  0.0000000E+00
 7.5325006E-01  0.0000000E+00
 7.6475006E-01  0.0000000E+00
 7.7625006E-01  0.0000000E+00
 7.8775007E-01  0.0000000E+00
 7.9925007E-01  0.0000000E+00
 8.1075007E-01  0.0000000E+00
 8.2225007E-01  0.0000000E+00
 8.3375007E-01  0.0000000E+00
 8.4525007E-01  0.0000000E+00
 8.5675007E-01  0.0000000E+00
 8.6825007E-01  0.0000000E+00
 8.7975001E-01  0.0000000E+00
 8.9125001E-01  0.0000000E+00
 9.0275002E-01  0.0000000E+00
 9.1425002E-01  0.0000000E+00
 9.2575002E-01  0.0000000E+00
 9.3725002E-01  0.0000000E+00
 9.4875002E-01  0.0000000E+00
 9.6025002E-01  0.0000000E+00
 9.7175002E-01  0.0000000E+00
 9.8325002E-01  0.0000000E+00
 9.9475002E-01  0.0000000E+00
 1.0062500E+00  0.0000000E+00
 1.0177500E+00  0.0000000E+00
 1.0292500E+00  0.0000000E+00
 1.0407500E+00  0.0000000E+00
 1.0522500E+00  0.0000000E+00
 1.0637500E+00  0.0000000E+00
 1.0752500E+00  0.0000000E+00
 1.0867500E+00  0.0000000E+00
 1.0982500E+00  0.0000000E+00
 1.1097500E+00  0.0000000E+00
 1.1212500E+00  0.0000000E+00
 1.1327500E+00  0.0000000E+00
 1.1442500E+00  0.0000000E+00
 1.1557500E+00  0.0000000E+00
 1.1672500E+00  0.0000000E+00
 1.1787500E+00  0.0000000E+00
 1.1902500E+00  0.0000000E+00
 1.2017500E+00  0.0000000E+00
 1.2132500E+00  0.0000000E+00
 1.2247500E+00  0.0000000E+00
 1.2362500E+00  0.0000000E+00
 1.2477500E+00  0.0000000E+00
 1.2592500E+00  0.0000000E+00
 1.2707500E+00  0.0000000E+00
 1.2822500E+00  0.0000000E+00
 1.2937500E+00  0.0000000E+00
 1.3052500E+00  0.0000000E+00
 1.3167500E+00  0.0000000E+00
 1.3282501E+00  0.0000000E+00
 1.3397501E+00  0.0000000E+00
 1.3512501E+00  0.0000000E+00
 1.3627501E+00  0.0000000E+00
 1.3742501E+00  0.0000000E+00
 1.3857501E+00  0.0000000E+00
 1.3972501E+00  0.0000000E+00
 1.4087501E+00  0.0000000E+00
 1.4202501E+00  0.0000000E+00
 1.4317501E+00  0.0000000E+00
 1.4432501E+00  0.0000000E+00
 1.4547501E+00  0.0000000E+00
 1.4662501E+00  0.0000000E+00
 1.4777501E+00  0.0000000E+00
 1.4892501E+00  0.0000000E+00
 1.5007501E+00  0.0000000E+00
 1.5122501E+00  0.0000000E+00
 1.5237501E+00  0.0000000E+00
 1.5352501E+00  0.0000000E+00
 1.5467501E+00  0.0000000E+00
 1.5582501E+00  0.0000000E+00
 1.5697501E+00  0.0000000E+00
 1.5812501E+00  0.0000000E+00
 1.5927501E+00  0.0000000E+00
 1.6042501E+00  0.0000000E+00
 1.6157501E+00  0.0000000E+00
 1.6272501E+00  0.0000000E+00
 1.6387501E+00  0.0000000E+00
 1.6502501E+00  0.0000000E+00
 1.6617501E+00  0.0000000E+00
 1.6732501E+00  0.0000000E+00
 1.6847501E+00  0.0000000E+00
 1.6962501E+00  0.0000000E+00
 1.7077501E+00  0.0000000E+00
 1.7192501E+00  0.0000000E+00
 1.7307501E+00  0.0000000E+00
 1.7422501E+00  0.0000000E+00
 1.7537501E+00  0.0000000E+00
 1.7652501E+00  0.0000000E+00
 1.7767501E+00  0.0000000E+00
 1.7882501E+00  0.0000000E+00
 1.7997501E+00  0.0000000E+00
 1.8112501E+00  0.0000000E+00
 1.8227501E+00  0.0000000E+00
 1.8342501E+00  0.0000000E+00
 1.8457501E+00  0.0000000E+00
 1.8572501E+00  0.0000000E+00
 1.8687501E+00  0.0000000E+00
 1.8802501E+00  0.0000000E+00
 1.8917501E+00  0.0000000E+00
 1.9032501E+00  0.0000000E+00
 1.9147501E+00  0.0000000E+00
 1.9262501E+00  0.0000000E+00
 1.9377501E+00  0.0000000E+00
 1.9492501E+00  0.0000000E+00
 1.9607501E+00  0.0000000E+00
 1.9722501E+00  0.0000000E+00
 1.9837501E+00  0.0000000E+00
 1.9952501E+00  0.0000000E+00
 2.0067501E+00  0.0000000E+00
 2.0182500E+00  0.0000000E+00
 2.0297501E+00  0.0000000E+00
 2.0412500E+00  0.0000000E+00
 2.0527501E+00  0.0000000E+00
 2.0642500E+00  0.0000000E+00
 2.0757501E+00  0.0000000E+00
 2.0872500E+00  0.0000000E+00
 2.0987501E+00  0.0000000E+00
 2.1102500E+00  0.0000000E+00
 2.1217501E+00  0.0000000E+00
 2.1332500E+00  0.0000000E+00
 2.1447501E+00  0.0000000E+00
 2.1562500E+00  0.0000000E+00
 2.1677501E+00  0.0000000E+00
 2.1792500E+00  0.0000000E+00
 2.1907501E+00  0.0000000E+00
 2.2022500E+00  0.0000000E+00
 2.2137501E+00  0.0000000E+00
 2.2252500E+00  0.0000000E+00
 2.2367501E+00  0.0000000E+00
 2.2482500E+00  0.0000000E+00
 2.2597501E+00  0.0000000E+00
 2.2712500E+00  0.0000000E+00
 2.2827501E+00  0.0000000E+00
 2.2942500E+00  0.0000000E+00
 2.3057501E+00  0.0000000E+00
 2.3172500E+00  0.0000000E+00
 2.3287501E+00  0.0000000E+00
 2.3402500E+00  0.0000000E+00
 2.3517501E+00  0.0000000E+00
 2.3632500E+00  0.0000000E+00
 2.3747501E+00  0.0000000E+00
 2.3862500E+00  0.0000000E+00
 2.3977501E+00  0.0000000E+00
 2.4092500E+00  0.0000000E+00
 2.4207501E+00  0.0000000E+00
 2.4322500E+00  0.0000000E+00
 2.4437501E+00  0.0000000E+00
 2.4552500E+00  0.0000000E+00
 2.4667501E+00  0.0000000E+00
 2.4782500E+00  0.0000000E+00
 2.4897501E+00  0.0000000E+00
 2.5012500E+00  0.0000000E+00
 2.5127501E+00  0.0000000E+00
 2.5242500E+00  0.0000000E+00
 2.5357502E+00  0.0000000E+00
 2.5472500E+00  0.0000000E+00
 2.5587502E+00  0.0000000E+00
 2.5702500E+00  0.0000000E+00
 2.5817502E+00  0.0000000E+00
 2.5932500E+00  0.0000000E+00
 2.6047502E+00  0.0000000E+00
 2.6162500E+00  0.0000000E+00
 2.6277502E+00  0.0000000E+00
 2.6392500E+00  0.0000000E+00
 2.6507502E+00  0.0000000E+00
 2.6622500E+00  0.0000000E+00
 2.6737502E+00  0.0000000E+00
 2.6852500E+00  0.0000000E+00
 2.6967502E+00  0.0000000E+00
 2.7082500E+00  0.0000000E+00
 2.7197502E+00  0.0000000E+00
 2.7312500E+00  0.0000000E+00
 2.7427502E+00  0.0000000E+00
 2.7542500E+00  0.0000000E+00
 2.7657502E+00  0.0000000E+00
 2.7772501E+00  0.0000000E+00
 2.7887502E+00  0.0000000E+00
 2.8002501E+00  0.0000000E+00
 2.8117502E+00  0.0000000E+00
 2.8232501E+00  3.3208389E+01
 2.8347502E+00  3.3513550E+01
 2.8462501E+00  3.3713974E+01
 2.8577502E+00  3.3375687E+01
 2.8692501E+00  3.3593170E+01
 2.8807502E+00  3.3500694E+01
 2.8922501E+00  3.4001591E+01
 2.9037502E+00  3.4105778E+01
 2.9152501E+00  3.4383022E+01
 2.9267502E+00  3.4686897E+01
 2.9382501E+00  3.5161106E+01
 2.9497502E+00  3.5331120E+01
 2.9612501E+00  3.5066956E+01
 2.9727502E+00  3.4899452E+01
 2.9842501E+00  3.4728790E+01
 2.9957502E+00  3.4850483E+01
 3.0072501E+00  3.4992001E+01
 3.0187502E+00  3.5376301E+01
 3.0302501E+00  3.5769772E+01
 3.0417502E+00  3.5819038E+01
 3.0532501E+00  3.5653912E+01
 3.0647502E+00  3.5678093E+01
 3.0762501E+00  3.5685345E+01
 3.0877502E+00  3.5602215E+01
 3.0992501E+00  3.5669777E+01
 3.1107502E+00  3.5416775E+01
 3.1222501E+00  3.5499207E+01
 3.1337502E+00  3.5537281E+01
 3.1452501E+00  3.5846825E+01
 3.1567502E+00  3.6241161E+01
 3.1682501E+00  3.6275650E+01
 3.1797502E+00  3.6456142E+01
 3.1912501E+00  3.6514542E+01
 3.2027502E+00  3.6757729E+01
 3.2142501E+00  3.6727283E+01
 3.2257502E+00  3.6653717E+01
 3.2372501E+00  3.6166740E+01
 3.2487502E+00  3.5984825E+01
 3.2602501E+00  3.5648064E+01
 3.2717502E+00  3.5464329E+01
 3.2832501E+00  3.5312344E+01
 3.2947502E+00  3.5345020E+01
 3.3062501E+00  3.5594776E+01
 3.3177502E+00  3.5550327E+01
 3.3292501E+00  3.5339222E+01
 3.3407502E+00  3.4980751E+01
 3.3522501E+00  3.4976799E+01
 3.3637502E+00  3.5069107E+01
 3.3752501E+00  3.5433010E+01
 3.3867502E+00  3.5305874E+01
 3.3982501E+00  3.5478600E+01
 3.4097502E+00  3.5210278E+01
 3.4212501E+00  3.5201630E+01
 3.4327502E+00  3.4743885E+01
 3.4442501E+00  3.4661964E+01
 3.4557502E+00  3.4281456E+01
 3.4672501E+00  3.4218567E+01
 3.4787502E+00  3.4412170E+01
 3.4902501E+00  3.4523182E+01
 3.5017502E+00  3.4816933E+01
 3.5132501E+00  3.4586868E+01
 3.5247502E+00  3.4761791E+01
 3.5362501E+00  3.4825645E+01
 3.5477502E+00  3.4716869E+01
 3.5592501E+00  3.4551399E+01
 3.5707502E+00  3.4272358E+01
 3.5822501E+00  3.4037365E+01
 3.5937502E+00  3.3929710E+01
 3.6052501E+00  3.3621803E+01
 3.6167502E+00  3.3511528E+01
 3.6282501E+00  3.3412556E+01
 3.6397502E+00  3.3448185E+01
 3.6512501E+00  3.3589661E+01
 3.6627502E+00  3.3706329E+01
 3.6742501E+00  3.3951290E+01
 3.6857502E+00  3.3984974E+01
 3.6972501E+00  3.3937527E+01
 3.7087502E+00  3.3883629E+01
 3.7202501E+00  3.3675869E+01
 3.7317502E+00  3.3217323E+01
 3.7432501E+00  3.2978996E+01
 3.7547503E+00  3.2852123E+01
 3.7662501E+00  3.2933147E+01
 3.7777503E+00  3.2982243E+01
 3.7892501E+00  3.3047115E+01
 3.8007503E+00  3.3184216E+01
 3.8122501E+00  3.3049034E+01
 3.8237503E+00  3.2958271E+01
 3.8352501E+00  3.2955322E+01
 3.8467503E+00  3.2982216E+01
 3.8582501E+00  3.3121159E+01
 3.8697503E+00  3.3097195E+01
 3.8812501E+00  3.3037968E+01
 3.8927503E+00  3.2768871E+01
 3.9042501E+00  3.2556583E+01
 3.9157503E+00  3.2509716E+01
 3.9272501E+00  3.2496170E+01
 3.9387503E+00  3.2740501E+01
 3.9502501E+00  3.2828056E+01
 3.9617503E+00  3.3058426E+01
 3.9732502E+00  3.3051243E+01
 3.9847503E+00  3.3146290E+01
 3.9962502E+00  3.3126320E+01
 4.0077500E+00  3.3046471E+01
 4.0192504E+00  3.2963997E+01
 4.0307503E+00  3.2818920E+01
 4.0422502E+00  3.2757484E+01
 4.0537500E+00  3.2625793E+01
 4.0652504E+00  3.2487003E+01
 4.0767503E+00  3.2456982E+01
 4.0882502E+00  3.2306110E+01
 4.0997500E+00  3.2392048E+01
 4.1112504E+00  3.2356232E+01
 4.1227503E+00  3.2487297E+01
 4.1342502E+00  3.2573170E+01
 4.1457500E+00  3.2602524E+01
 4.1572504E+00  3.2528862E+01
 4.1687503E+00  3.2398968E+01
 4.1802502E+00  3.2338406E+01
 4.1917500E+00  3.2381157E+01
 4.2032504E+00  3.2441502E+01
 4.2147503E+00  3.2377357E+01
 4.2262502E+00  3.2394020E+01
 4.2377501E+00  3.2397247E+01
 4.2492504E+00  3.2259575E+01
 4.2607503E+00  3.2248039E+01
 4.2722502E+00  3.2076015E+01
 4.2837501E+00  3.2331413E+01
 4.2952504E+00  3.2347679E+01
 4.3067503E+00  3.2510769E+01
 4.3182502E+00  3.2519985E+01
 4.3297501E+00  3.2515133E+01
 4.3412504E+00  3.2561790E+01
 4.3527503E+00  3.2526291E+01
 4.3642502E+00  3.2587860E+01
 4.3757501E+00  3.2480385E+01
 4.3872504E+00  3.2559109E+01
 4.3987503E+00  3.2514931E+01
 4.4102502E+00  3.2538288E+01
 4.4217501E+00  3.2485825E+01
 4.4332504E+00  3.2552101E+01
 4.4447503E+00  3.2419758E+01
 4.4562502E+00  3.2318958E+01
 4.4677501E+00  3.2249313E+01
 4.4792504E+00  3.2412571E+01
 4.4907503E+00  3.2537495E+01
 4.5022502E+00  3.2610184E+01
 4.5137501E+00  3.2703342E+01
 4.5252504E+00  3.2850964E+01
 4.5367503E+00  3.2863491E+01
 4.5482502E+00  3.2862717E+01
 4.5597501E+00  3.2787582E+01
 4.5712504E+00  3.2765991E+01
 4.5827503E+00  3.2796806E+01
 4.5942502E+00  3.2824127E+01
 4.6057501E+00  3.2738728E+01
 4.6172504E+00  3.2550739E+01
 4.6287503E+00  3.2397903E+01
 4.6402502E+00  3.2451073E+01
 4.6517501E+00  3.2556358E+01
 4.6632504E+00  3.2724022E+01
 4.6747503E+00  3.2964916E+01
 4.6862502E+00  3.3025688E+01
 4.6977501E+00  3.2944237E+01
 4.7092505E+00  3.2687431E+01
 4.7207503E+00  3.2618336E+01
 4.7322502E+00  3.2448185E+01
 4.7437501E+00  3.2390652E+01
 4.7552505E+00  3.2342655E+01
 4.7667503E+00  3.2488892E+01
 4.7782502E+00  3.2648411E+01
 4.7897501E+00  3.2670513E+01
 4.8012505E+00  3.2661434E+01
 4.8127503E+00  3.2591267E+01
 4.8242502E+00  3.2731544E+01
 4.8357501E+00  3.2799515E+01
 4.8472505E+00  3.2891819E+01
 4.8587503E+00  3.2965111E+01
 4.8702502E+00  3.2967709E+01
 4.8817501E+00  3.2958138E+01
 4.8932505E+00  3.2947796E+01
 4.9047503E+00  3.2854820E+01
 4.9162502E+00  3.2977238E+01
 4.9277501E+00  3.2921402E+01
 4.9392505E+00  3.3019375E+01
 4.9507504E+00  3.2894985E+01
 4.9622502E+00  3.2819897E+01
 4.9737501E+00  3.2897041E+01
 4.9852505E+00  3.2905598E+01
 4.9967504E+00  3.3043182E+01
 5.0082502E+00  3.3080521E+01
 5.0197501E+00  3.3015556E+01
 5.0312505E+00  3.3011398E+01
 5.0427504E+00  3.2923870E+01
 5.0542502E+00  3.2974937E+01
 5.0657501E+00  3.3071281E+01
 5.0772505E+00  3.3171429E+01
 5.0887504E+00  3.3314064E+01
 5.1002502E+00  3.3502914E+01
 5.1117501E+00  3.3457603E+01
 5.1232505E+00  3.3502399E+01
 5.1347504E+00  3.3519390E+01
 5.1462502E+00  3.3697392E+01
 5.1577501E+00  3.3929054E+01
 5.1692505E+00  3.3974052E+01
 5.1807504E+00  3.4047417E+01
 5.1922503E+00  3.4163109E+01
 5.2037501E+00  3.4145882E+01
 5.2152505E+00  3.4208706E+01
 5.2267504E+00  3.4064507E+01
 5.2382503E+00  3.4095062E+01
 5.2497501E+00  3.4058926E+01
 5.2612505E+00  3.4104954E+01
 5.2727504E+00  3.4133198E+01
 5.2842503E+00  3.4332012E+01
 5.2957501E+00  3.4408993E+01
 5.3072500E+00  3.4596306E+01
 5.3187504E+00  3.4742672E+01
 5.3302503E+00  3.4878437E+01
 5.3417501E+00  3.4852173E+01
 5.3532500E+00  3.4777512E+01
 5.3647504E+00  3.4661526E+01
 5.3762503E+00  3.4538200E+01
 5.3877501E+00  3.4439465E+01
 5.3992500E+00  3.4452122E+01
 5.4107504E+00  3.4399815E+01
 5.4222503E+00  3.4335804E+01
 5.4337502E+00  3.4211246E+01
 5.4452500E+00  3.4349243E+01
 5.4567504E+00  3.4396404E+01
 5.4682503E+00  3.4555653E+01
 5.4797502E+00  3.4577103E+01
 5.4912500E+00  3.4538185E+01
 5.5027504E+00  3.4640366E+01
 5.5142503E+00  3.4707275E+01
 5.5257502E+00  3.4973698E+01
 5.5372500E+00  3.4995380E+01
 5.5487504E+00  3.5106472E+01
 5.5602503E+00  3.5173054E+01
 5.5717502E+00  3.5288643E+01
 5.5832500E+00  3.5290901E+01
 5.5947504E+00  3.5285847E+01
 5.6062503E+00  3.5323921E+01
 5.6177502E+00  3.5422359E+01
 5.6292500E+00  3.5407845E+01
 5.6407504E+00  3.5440960E+01
 5.6522503E+00  3.5273293E+01
 5.6637502E+00  3.5391376E+01
 5.6752501E+00  3.5356529E+01
 5.6867504E+00  3.5475128E+01
 5.6982503E+00  3.5454338E+01
 5.7097502E+00  3.5451824E+01
 5.7212501E+00  3.5426945E+01
 5.7327504E+00  3.5498779E+01
 5.7442503E+00  3.5523529E+01
 5.7557502E+00  3.5711296E+01
 5.7672501E+00  3.5735130E+01
 5.7787504E+00  3.5818600E+01
 5.7902503E+00  3.5837959E+01
 5.8017502E+00  3.5741486E+01
 5.8132501E+00  3.5655369E+01
 5.8247504E+00  3.5599674E+01
 5.8362503E+00  3.5665108E+01
 5.8477502E+00  3.5739342E+01
 5.8592501E+00  3.5702789E+01
 5.8707504E+00  3.5779636E+01
 5.8822503E+00  3.5918022E+01
 5.8937502E+00  3.6002575E+01
 5.9052501E+00  3.6145493E+01
 5.9167504E+00  3.6328800E+01
 5.9282503E+00  3.6786236E+01
 5.9397502E+00  3.7478359E+01
 5.9512501E+00  3.8185455E+01
 5.9627504E+00  3.9064167E+01
 5.9742503E+00  3.9608543E+01
 5.9857502E+00  3.9840965E+01
 5.9972501E+00  3.9566395E+01
 6.0087504E+00  3.9040691E+01
 6.0202503E+00  3.8235844E+01
 6.0317502E+00  3.7593491E+01
 6.0432501E+00  3.6987713E+01
 6.0547504E+00  3.6791290E+01
 6.0662503E+00  3.6586720E+01
 6.0777502E+00  3.6475914E+01
 6.0892501E+00  3.6496727E+01
 6.1007504E+00  3.6492851E+01
 6.1122503E+00  3.6533741E+01
 6.1237502E+00  3.6556118E+01
 6.1352501E+00  3.6524666E+01
 6.1467505E+00  3.6483387E+01
 6.1582503E+00  3.6504627E+01
 6.1697502E+00  3.6566269E+01
 6.1812501E+00  3.6697739E+01
 6.1927505E+00  3.6704426E+01
 6.2042503E+00  3.6761505E+01
 6.2157502E+00  3.6843315E+01
 6.2272501E+00  3.6961239E+01
 6.2387505E+00  3.7075214E+01
 6.2502503E+00  3.7238110E+01
 6.2617502E+00  3.7439228E+01
 6.2732501E+00  3.7555832E+01
 6.2847505E+00  3.7684460E+01
 6.2962503E+00  3.7609585E+01
 6.3077502E+00  3.7640842E+01
 6.3192501E+00  3.7640060E+01
 6.3307505E+00  3.7851585E+01
 6.3422503E+00  3.7972614E+01
 6.3537502E+00  3.8136681E+01
 6.3652501E+00  3.8133949E+01
 6.3767505E+00  3.8132378E+01
 6.3882504E+00  3.8127640E+01
 6.3997502E+00  3.8155506E+01
 6.4112501E+00  3.8291798E+01
 6.4227505E+00  3.8303097E+01
 6.4342504E+00  3.8371906E+01
 6.4457502E+00  3.8456322E+01
 6.4572501E+00  3.8565628E+01
 6.4687505E+00  3.8706474E+01
 6.4802504E+00  3.8753162E+01
 6.4917502E+00  3.8894123E+01
 6.5032501E+00  3.9056473E+01
 6.5147505E+00  3.9253010E+01
 6.5262504E+00  3.9352974E+01
 6.5377502E+00  3.9437218E+01
 6.5492501E+00  3.9399815E+01
 6.5607505E+00  3.9427670E+01
 6.5722504E+00  3.9431969E+01
 6.5837502E+00  3.9450455E+01
 6.5952501E+00  3.9475525E+01
 6.6067505E+00  3.9535591E+01
 6.6182504E+00  3.9683338E+01
 6.6297503E+00  3.9933479E+01
 6.6412501E+00  4.0068119E+01
 6.6527505E+00  4.0234348E+01
 6.6642504E+00  4.0331272E+01
 6.6757503E+00  4.0339493E+01
 6.6872501E+00  4.0379089E+01
 6.6987505E+00  4.0360607E+01
 6.7102504E+00  4.0468147E+01
 6.7217503E+00  4.0473736E+01
 6.7332501E+00  4.0539352E+01
 6.7447505E+00  4.0572681E+01
 6.7562504E+00  4.0729626E+01
 6.7677503E+00  4.0759762E+01
 6.7792501E+00  4.0892380E+01
 6.7907505E+00  4.0997837E+01
 6.8022504E+00  4.1155979E+01
 6.8137503E+00  4.1420326E+01
 6.8252501E+00  4.1571812E+01
 6.8367505E+00  4.1631035E+01
 6.8482504E+00  4.1662807E+01
 6.8597503E+00  4.1685299E+01
 6.8712502E+00  4.1804848E+01
 6.8827505E+00  4.1952579E+01
 6.8942504E+00  4.2048729E+01
 6.9057503E+00  4.2198765E+01
 6.9172502E+00  4.2186840E+01
 6.9287505E+00  4.2260956E+01
 6.9402504E+00  4.2382584E+01
 6.9517503E+00  4.2519661E+01
 6.9632502E+00  4.2598095E+01
 6.9747505E+00  4.2597992E+01
 6.9862504E+00  4.2561783E+01
 6.9977503E+00  4.2556713E+01
 7.0092502E+00  4.2602329E+01
 7.0207505E+00  4.2619019E+01
 7.0322504E+00  4.2626118E+01
 7.0437503E+00  4.2579571E+01
 7.0552502E+00  4.2617130E+01
 7.0667505E+00  4.2659233E+01
 7.0782504E+00  4.2698315E+01
 7.0897503E+00  4.2788799E+01
 7.1012502E+00  4.2870129E+01
 7.1127505E+00  4.2987206E+01
 7.1242504E+00  4.3170803E+01
 7.1357503E+00  4.3293716E+01
 7.1472502E+00  4.3269958E+01
 7.1587505E+00  4.3250763E+01
 7.1702504E+00  4.3165039E+01
 7.1817503E+00  4.3278542E+01
 7.1932502E+00  4.3355171E+01
 7.2047505E+00  4.3526871E+01
 7.2162504E+00  4.3667171E+01
 7.2277503E+00  4.3816719E+01
 7.2392502E+00  4.3849888E+01
 7.2507505E+00  4.3968197E+01
 7.2622504E+00  4.3923649E+01
 7.2737503E+00  4.3923752E+01
 7.2852502E+00  4.3796410E+01
 7.2967505E+00  4.3685333E+01
 7.3082504E+00  4.3723003E+01
 7.3197503E+00  4.3741783E+01
 7.3312502E+00  4.3795559E+01
 7.3427505E+00  4.3813118E+01
 7.3542504E+00  4.3871647E+01
 7.3657503E+00  4.3930489E+01
 7.3772502E+00  4.3869961E+01
 7.3887506E+00  4.3914021E+01
 7.4002504E+00  4.3966755E+01
 7.4117503E+00  4.4090466E+01
 7.4232502E+00  4.4028858E+01
 7.4347506E+00  4.4005585E+01
 7.4462504E+00  4.4054630E+01
 7.4577503E+00  4.4115265E+01
 7.4692502E+00  4.4222679E+01
 7.4807506E+00  4.4227539E+01
 7.4922504E+00  4.4341423E+01
 7.5037503E+00  4.4306122E+01
 7.5152502E+00  4.4337208E+01
 7.5267506E+00  4.4277107E+01
 7.5382504E+00  4.4282265E+01
 7.5497503E+00  4.4254307E+01
 7.5612502E+00  4.4273926E+01
 7.5727506E+00  4.4311966E+01
 7.5842505E+00  4.4345974E+01
 7.5957503E+00  4.4443359E+01
 7.6072502E+00  4.4457638E+01
 7.6187506E+00  4.4403713E+01
 7.6302505E+00  4.4312466E+01
 7.6417503E+00  4.4324688E+01
 7.6532502E+00  4.4357437E+01
 7.6647506E+00  4.4424953E+01
 7.6762505E+00  4.4486923E+01
 7.6877503E+00  4.4554630E+01
 7.6992502E+00  4.4511803E+01
 7.7107506E+00  4.4580589E+01
 7.7222505E+00  4.4658772E+01
 7.7337503E+00  4.4688168E+01
 7.7452502E+00  4.4662567E+01
 7.7567506E+00  4.4582531E+01
 7.7682505E+00  4.4549332E+01
 7.7797503E+00  4.4495087E+01
 7.7912502E+00  4.4455597E+01
 7.8027506E+00  4.4488682E+01
 7.8142505E+00  4.4456078E+01
 7.8257504E+00  4.4382389E+01
 7.8372502E+00  4.4410942E+01
 7.8487506E+00  4.4454220E+01
 7.8602505E+00  4.4554859E+01
 7.8717504E+00  4.4460293E+01
 7.8832502E+00  4.4333954E+01
 7.8947506E+00  4.4184757E+01
 7.9062505E+00  4.4194523E+01
 7.9177504E+00  4.4149555E+01
 7.9292502E+00  4.4054451E+01
 7.9407506E+00  4.3919708E+01
 7.9522505E+00  4.3839939E+01
 7.9637504E+00  4.3740444E+01
 7.9752502E+00  4.3664284E+01
 7.9867506E+00  4.3576157E+01
 7.9982505E+00  4.3647083E+01
 8.0097504E+00  4.3583920E+01
 8.0212507E+00  4.3502445E+01
 8.0327501E+00  4.3475933E+01
 8.0442505E+00  4.3406658E+01
 8.0557508E+00  4.3370102E+01
 8.0672503E+00  4.3250927E+01
 8.0787506E+00  4.3094116E+01
 8.0902500E+00  4.3086216E+01
 8.1017504E+00  4.3044815E+01
 8.1132507E+00  4.3023037E+01
 8.1247501E+00  4.2892185E+01
 8.1362505E+00  4.2781826E+01
 8.1477509E+00  4.2643375E+01
 8.1592503E+00  4.2493107E+01
 8.1707506E+00  4.2303745E+01
 8.1822500E+00  4.2198971E+01
 8.1937504E+00  4.2158821E+01
 8.2052507E+00  4.2042347E+01
 8.2167501E+00  4.1973068E+01
 8.2282505E+00  4.1929512E+01
 8.2397509E+00  4.1823273E+01
 8.2512503E+00  4.1712132E+01
 8.2627506E+00  4.1578323E+01
 8.2742500E+00  4.1485500E+01
 8.2857504E+00  4.1430279E+01
 8.2972507E+00  4.1266808E+01
 8.3087502E+00  4.1190300E+01
 8.3202505E+00  4.1029026E+01
 8.3317509E+00  4.0911758E+01
 8.3432503E+00  4.0710758E+01
 8.3547506E+00  4.0571262E+01
 8.3662500E+00  4.0387627E+01
 8.3777504E+00  4.0200676E+01
 8.3892508E+00  3.9846405E+01
 8.4007502E+00  3.9559872E+01
 8.4122505E+00  3.9271622E+01
 8.4237509E+00  3.9112228E+01
 8.4352503E+00  3.8844269E+01
 8.4467506E+00  3.8646152E+01
 8.4582500E+00  3.8419659E+01
 8.4697504E+00  3.8365746E+01
 8.4812508E+00  3.8193810E+01
 8.4927502E+00  3.8094265E+01
 8.5042505E+00  3.7912224E+01
 8.5157509E+00  3.7857319E+01
 8.5272503E+00  3.7723507E+01
 8.5387506E+00  3.7584896E+01
 8.5502501E+00  3.7329670E+01
 8.5617504E+00  3.7186581E+01
 8.5732508E+00  3.7061260E+01
 8.5847502E+00  3.6923210E+01
 8.5962505E+00  3.6704182E+01
 8.6077509E+00  3.6442112E+01
 8.6192503E+00  3.6202923E+01
 8.6307507E+00  3.5956150E+01
 8.6422501E+00  3.5675861E+01
 8.6537504E+00  3.5459625E+01
 8.6652508E+00  3.5250523E+01
 8.6767502E+00  3.5150475E+01
 8.6882505E+00  3.5078327E+01
 8.6997509E+00  3.4986721E+01
 8.7112503E+00  3.4773048E+01
 8.7227507E+00  3.4614887E+01
 8.7342501E+00  3.4351517E+01
 8.7457504E+00  3.4112461E+01
 8.7572508E+00  3.3800213E+01
 8.7687502E+00  3.3611156E+01
 8.7802505E+00  3.3476170E+01
 8.7917500E+00  3.3341915E+01
 8.8032503E+00  3.3223816E+01
 8.8147507E+00  3.3141998E+01
 8.8262501E+00  3.2987152E+01
 8.8377504E+00  3.2860947E+01
 8.8492508E+00  3.2674866E+01
 8.8607502E+00  3.2533024E+01
 8.8722506E+00  3.2415276E+01
 8.8837500E+00  3.2270676E+01
 8.8952503E+00  3.2130333E+01
 8.9067507E+00  3.2029491E+01
 8.9182501E+00  3.1877729E+01
 8.9297504E+00  3.1654646E+01
 8.9412508E+00  3.1388529E+01
 8.9527502E+00  3.1186237E+01
 8.9642506E+00  3.1080969E+01
 8.9757500E+00  3.1015181E+01
 8.9872503E+00  3.0903244E+01
 8.9987507E+00  3.0759146E+01
 9.0102501E+00  3.0584570E+01
 9.0217505E+00  3.0459480E+01
 9.0332508E+00  3.0397213E+01
 9.0447502E+00  3.0258848E+01
 9.0562506E+00  3.0134401E+01
 9.0677500E+00  2.9994831E+01
 9.0792503E+00  2.9797441E+01
 9.0907507E+00  2.9634510E+01
 9.1022501E+00  2.9482649E+01
 9.1137505E+00  2.9420954E+01
 9.1252508E+00  2.9323071E+01
 9.1367502E+00  2.9252201E+01
 9.1482506E+00  2.9164089E+01
 9.1597500E+00  2.9048056E+01
 9.1712503E+00  2.8899557E+01
 9.1827507E+00  2.8768650E+01
 9.1942501E+00  2.8609665E+01
 9.2057505E+00  2.8453392E+01
 9.2172508E+00  2.8357546E+01
 9.2287502E+00  2.8276031E+01
 9.2402506E+00  2.8182110E+01
 9.2517500E+00  2.8061108E+01
 9.2632504E+00  2.7969498E+01
 9.2747507E+00  2.7893282E+01
 9.2862501E+00  2.7770987E+01
 9.2977505E+00  2.7681042E+01
 9.3092508E+00  2.7541805E+01
 9.3207502E+00  2.7419399E+01
 9.3322506E+00  2.7296329E+01
 9.3437500E+00  2.7185331E+01
 9.3552504E+00  2.7097845E+01
 9.3667507E+00  2.7027323E+01
 9.3782501E+00  2.6955702E+01
 9.3897505E+00  2.6862980E+01
 9.4012508E+00  2.6707106E+01
 9.4127502E+00  2.6592161E+01
 9.4242506E+00  2.6561487E+01
 9.4357500E+00  2.6516127E+01
 9.4472504E+00  2.6527765E+01
 9.4587507E+00  2.6480713E+01
 9.4702501E+00  2.6505302E+01
 9.4817505E+00  2.6498535E+01
 9.4932508E+00  2.6502716E+01
 9.5047503E+00  2.6371456E+01
 9.5162506E+00  2.6269888E+01
 9.5277500E+00  2.6077017E+01
 9.5392504E+00  2.5958736E+01
 9.5507507E+00  2.5763369E+01
 9.5622501E+00  2.5679520E+01
 9.5737505E+00  2.5601982E+01
 9.5852509E+00  2.5522411E+01
 9.5967503E+00  2.5481071E+01
 9.6082506E+00  2.5435061E+01
 9.6197500E+00  2.5484068E+01
 9.6312504E+00  2.5505955E+01
 9.6427507E+00  2.5545059E+01
 9.6542501E+00  2.5502216E+01
 9.6657505E+00  2.5417038E+01
 9.6772509E+00  2.5323875E+01
 9.6887503E+00  2.5232037E+01
 9.7002506E+00  2.5173532E+01
 9.7117500E+00  2.5130579E+01
 9.7232504E+00  2.5108736E+01
 9.7347507E+00  2.5081005E+01
 9.7462502E+00  2.5015079E+01
 9.7577505E+00  2.4914660E+01
 9.7692509E+00  2.4852381E+01
 9.7807503E+00  2.4783648E+01
 9.7922506E+00  2.4746729E+01
 9.8037500E+00  2.4629671E+01
 9.8152504E+00  2.4553745E+01
 9.8267508E+00  2.4527813E+01
 9.8382502E+00  2.4579517E+01
 9.8497505E+00  2.4587612E+01
 9.8612509E+00  2.4505526E+01
 9.8727503E+00  2.4419649E+01
 9.8842506E+00  2.4290258E+01
 9.8957500E+00  2.4281672E+01
 9.9072504E+00  2.4219162E+01
 9.9187508E+00  2.4245342E+01
 9.9302502E+00  2.4224314E+01
 9.9417505E+00  2.4231421E+01
 9.9532509E+00  2.4201206E+01
 9.9647503E+00  2.4175898E+01
 9.9762506E+00  2.4149546E+01
 9.9877501E+00  2.4095264E+01
 9.9992504E+00  2.3982275E+01
 1.0010751E+01  2.3883789E+01
 1.0022250E+01  2.3802261E+01
 1.0033751E+01  2.3908159E+01
 1.0045251E+01  2.3945162E+01
 1.0056750E+01  2.3963066E+01
 1.0068251E+01  2.3918615E+01
 1.0079750E+01  2.3853737E+01
 1.0091250E+01  2.3823704E+01
 1.0102751E+01  2.3772633E+01
 1.0114250E+01  2.3758415E+01
 1.0125751E+01  2.3791569E+01
 1.0137251E+01  2.3767475E+01
 1.0148750E+01  2.3787323E+01
 1.0160251E+01  2.3760649E+01
 1.0171750E+01  2.3729134E+01
 1.0183250E+01  2.3709854E+01
 1.0194751E+01  2.3656271E+01
 1.0206250E+01  2.3604794E+01
 1.0217751E+01  2.3550247E+01
 1.0229251E+01  2.3487110E+01
 1.0240750E+01  2.3464836E+01
 1.0252251E+01  2.3385223E+01
 1.0263750E+01  2.3358727E+01
 1.0275250E+01  2.3338148E+01
 1.0286751E+01  2.3389202E+01
 1.0298250E+01  2.3361807E+01
 1.0309751E+01  2.3358589E+01
 1.0321251E+01  2.3303621E+01
 1.0332750E+01  2.3302673E+01
 1.0344251E+01  2.3322247E+01
 1.0355750E+01  2.3344137E+01
 1.0367250E+01  2.3359234E+01
 1.0378751E+01  2.3307480E+01
 1.0390250E+01  2.3279091E+01
 1.0401751E+01  2.3238163E+01
 1.0413251E+01  2.3207846E+01
 1.0424750E+01  2.3118916E+01
 1.0436251E+01  2.3055887E+01
 1.0447750E+01  2.2955996E+01
 1.0459250E+01  2.2908298E+01
 1.0470751E+01  2.2911695E+01
 1.0482250E+01  2.2968420E+01
 1.0493751E+01  2.3039152E+01
 1.0505251E+01  2.3062689E+01
 1.0516750E+01  2.3074253E+01
 1.0528251E+01  2.3050205E+01
 1.0539750E+01  2.2987083E+01
 1.0551250E+01  2.2968739E+01
 1.0562751E+01  2.2973965E+01
 1.0574250E+01  2.2979362E+01
 1.0585751E+01  2.2961926E+01
 1.0597251E+01  2.2904150E+01
 1.0608750E+01  2.2882296E+01
 1.0620251E+01  2.2834881E+01
 1.0631750E+01  2.2766499E+01
 1.0643250E+01  2.2753759E+01
 1.0654751E+01  2.2722715E+01
 1.0666250E+01  2.2754509E+01
 1.0677751E+01  2.2767212E+01
 1.0689251E+01  2.2802683E+01
 1.0700750E+01  2.2778673E+01
 1.0712251E+01  2.2741779E+01
 1.0723750E+01  2.2718569E+01
 1.0735250E+01  2.2696836E+01
 1.0746751E+01  2.2651384E+01
 1.0758250E+01  2.2603249E+01
 1.0769751E+01  2.2560297E+01
 1.0781251E+01  2.2558777E+01
 1.0792750E+01  2.2493567E+01
 1.0804251E+01  2.2483650E+01
 1.0815750E+01  2.2461397E+01
 1.0827250E+01  2.2528538E+01
 1.0838751E+01  2.2512295E+01
 1.0850250E+01  2.2540392E+01
 1.0861751E+01  2.2503035E+01
 1.0873251E+01  2.2525803E+01
 1.0884750E+01  2.2467667E+01
 1.0896251E+01  2.2400412E+01
 1.0907750E+01  2.2420700E+01
 1.0919250E+01  2.2420881E+01
 1.0930751E+01  2.2427984E+01
 1.0942250E+01  2.2360054E+01
 1.0953751E+01  2.2322884E+01
 1.0965251E+01  2.2347696E+01
 1.0976750E+01  2.2351847E+01
 1.0988251E+01  2.2371376E+01
 1.0999750E+01  2.2365431E+01
 1.1011250E+01  2.2386248E+01
 1.1022751E+01  2.2376917E+01
 1.1034250E+01  2.2352373E+01
 1.1045751E+01  2.2353128E+01
 1.1057251E+01  2.2352123E+01
 1.1068750E+01  2.2362154E+01
 1.1080251E+01  2.2400911E+01
 1.1091750E+01  2.2420198E+01
 1.1103251E+01  2.2438131E+01
 1.1114751E+01  2.2396616E+01
 1.1126250E+01  2.2415016E+01
 1.1137751E+01  2.2379753E+01
 1.1149251E+01  2.2433887E+01
 1.1160750E+01  2.2416500E+01
 1.1172251E+01  2.2468834E+01
 1.1183750E+01  2.2449942E+01
 1.1195251E+01  2.2419106E+01
 1.1206751E+01  2.2412344E+01
 1.1218250E+01  2.2333309E+01
 1.1229751E+01  2.2325583E+01
 1.1241251E+01  2.2253616E+01
 1.1252750E+01  2.2267500E+01
 1.1264251E+01  2.2259655E+01
 1.1275750E+01  2.2297768E+01
 1.1287251E+01  2.2234844E+01
 1.1298751E+01  2.2247831E+01
 1.1310250E+01  2.2190939E+01
 1.1321751E+01  2.2210318E+01
 1.1333251E+01  2.2212353E+01
 1.1344750E+01  2.2208200E+01
 1.1356251E+01  2.2240501E+01
 1.1367750E+01  2.2290825E+01
 1.1379251E+01  2.2366512E+01
 1.1390751E+01  2.2396646E+01
 1.1402250E+01  2.2489546E+01
 1.1413751E+01  2.2445444E+01
 1.1425251E+01  2.2469471E+01
 1.1436750E+01  2.2379631E+01
 1.1448251E+01  2.2378014E+01
 1.1459750E+01  2.2355368E+01
 1.1471251E+01  2.2291271E+01
 1.1482751E+01  2.2252941E+01
 1.1494250E+01  2.2193489E+01
 1.1505751E+01  2.2178375E+01
 1.1517251E+01  2.2181789E+01
 1.1528750E+01  2.2246037E+01
 1.1540251E+01  2.2300425E+01
 1.1551750E+01  2.2474665E+01
 1.1563251E+01  2.2668501E+01
 1.1574751E+01  2.2963171E+01
 1.1586250E+01  2.3248682E+01
 1.1597751E+01  2.3396723E+01
 1.1609251E+01  2.3384344E+01
 1.1620750E+01  2.3217726E+01
 1.1632251E+01  2.2971249E+01
 1.1643750E+01  2.2681316E+01
 1.1655251E+01  2.2483400E+01
 1.1666751E+01  2.2365097E+01
 1.1678250E+01  2.2296398E+01
 1.1689751E+01  2.2223768E+01
 1.1701251E+01  2.2176430E+01
 1.1712750E+01  2.2179531E+01
 1.1724251E+01  2.2176823E+01
 1.1735750E+01  2.2186226E+01
 1.1747251E+01  2.2240950E+01
 1.1758751E+01  2.2266153E+01
 1.1770250E+01  2.2240204E+01
 1.1781751E+01  2.2167309E+01
 1.1793251E+01  2.2194067E+01
 1.1804750E+01  2.2205833E+01
 1.1816251E+01  2.2233938E+01
 1.1827750E+01  2.2214294E+01
 1.1839251E+01  2.2200571E+01
 1.1850751E+01  2.2135777E+01
 1.1862250E+01  2.2064648E+01
 1.1873751E+01  2.2038948E+01
 1.1885251E+01  2.2066936E+01
 1.1896750E+01  2.2123962E+01
 1.1908251E+01  2.2201836E+01
 1.1919750E+01  2.2272387E+01
 1.1931251E+01  2.2324846E+01
 1.1942751E+01  2.2338224E+01
 1.1954250E+01  2.2345398E+01
 1.1965751E+01  2.2331009E+01
 1.1977251E+01  2.2358170E+01
 1.1988750E+01  2.2394367E+01
 1.2000251E+01  2.2409672E+01
 1.2011750E+01  2.2445339E+01
 1.2023251E+01  2.2393339E+01
 1.2034751E+01  2.2371572E+01
 1.2046250E+01  2.2322533E+01
 1.2057751E+01  2.2369404E+01
 1.2069251E+01  2.2433956E+01
 1.2080750E+01  2.2523178E+01
 1.2092251E+01  2.2618505E+01
 1.2103750E+01  2.2691242E+01
 1.2115251E+01  2.2700977E+01
 1.2126751E+01  2.2673822E+01
 1.2138250E+01  2.2583332E+01
 1.2149751E+01  2.2508289E+01
 1.2161251E+01  2.2448820E+01
 1.2172750E+01  2.2383270E+01
 1.2184251E+01  2.2340580E+01
 1.2195750E+01  2.2280998E+01
 1.2207251E+01  2.2256567E+01
 1.2218751E+01  2.2219522E+01
 1.2230250E+01  2.2183399E+01
 1.2241751E+01  2.2197329E+01
 1.2253251E+01  2.2216827E+01
 1.2264750E+01  2.2242344E+01
 1.2276251E+01  2.2245554E+01
 1.2287750E+01  2.2285719E+01
 1.2299251E+01  2.2288549E+01
 1.2310751E+01  2.2283676E+01
 1.2322250E+01  2.2211128E+01
 1.2333751E+01  2.2213217E+01
 1.2345250E+01  2.2204544E+01
 1.2356750E+01  2.2235687E+01
 1.2368251E+01  2.2261444E+01
 1.2379750E+01  2.2332300E+01
 1.2391251E+01  2.2382637E+01
 1.2402751E+01  2.2377634E+01
 1.2414250E+01  2.2357416E+01
 1.2425751E+01  2.2331081E+01
 1.2437250E+01  2.2323299E+01
 1.2448750E+01  2.2297434E+01
 1.2460251E+01  2.2318369E+01
 1.2471750E+01  2.2373707E+01
 1.2483251E+01  2.2388487E+01
 1.2494751E+01  2.2400337E+01
 1.2506250E+01  2.2383593E+01
 1.2517751E+01  2.2408566E+01
 1.2529250E+01  2.2420563E+01
 1.2540751E+01  2.2437189E+01
 1.2552251E+01  2.2492092E+01
 1.2563750E+01  2.2509319E+01
 1.2575251E+01  2.2515924E+01
 1.2586751E+01  2.2530176E+01
 1.2598250E+01  2.2534258E+01
 1.2609751E+01  2.2578548E+01
 1.2621250E+01  2.2569471E+01
 1.2632751E+01  2.2567024E+01
 1.2644251E+01  2.2516052E+01
 1.2655750E+01  2.2495977E+01
 1.2667251E+01  2.2503233E+01
 1.2678751E+01  2.2566750E+01
 1.2690250E+01  2.2606384E+01
 1.2701751E+01  2.2687399E+01
 1.2713250E+01  2.2766642E+01
 1.2724751E+01  2.2810562E+01
 1.2736251E+01  2.2782333E+01
 1.2747750E+01  2.2797003E+01
 1.2759251E+01  2.2823389E+01
 1.2770751E+01  2.2850182E+01
 1.2782250E+01  2.2830267E+01
 1.2793751E+01  2.2813595E+01
 1.2805250E+01  2.2827509E+01
 1.2816751E+01  2.2841068E+01
 1.2828251E+01  2.2878832E+01
 1.2839750E+01  2.2952513E+01
 1.2851251E+01  2.3038343E+01
 1.2862751E+01  2.3113890E+01
 1.2874250E+01  2.3137917E+01
 1.2885751E+01  2.3146484E+01
 1.2897250E+01  2.3115446E+01
 1.2908751E+01  2.3183943E+01
 1.2920251E+01  2.3254854E+01
 1.2931750E+01  2.3408262E+01
 1.2943251E+01  2.3464308E+01
 1.2954751E+01  2.3571550E+01
 1.2966250E+01  2.3627016E+01
 1.2977751E+01  2.3720928E+01
 1.2989250E+01  2.3757210E+01
 1.3000751E+01  2.3815210E+01
 1.3012251E+01  2.3889082E+01
 1.3023750E+01  2.3940968E+01
 1.3035251E+01  2.3991322E+01
 1.3046751E+01  2.4003212E+01
 1.3058250E+01  2.4077047E+01
 1.3069751E+01  2.4071043E+01
 1.3081250E+01  2.4164579E+01
 1.3092751E+01  2.4238676E+01
 1.3104251E+01  2.4479782E+01
 1.3115750E+01  2.4664122E+01
 1.3127251E+01  2.4892220E+01
 1.3138751E+01  2.4984613E+01
 1.3150250E+01  2.5123009E+01
 1.3161751E+01  2.5197575E+01
 1.3173250E+01  2.5323578E+01
 1.3184751E+01  2.5446672E+01
 1.3196251E+01  2.5553999E+01
 1.3207750E+01  2.5677780E+01
 1.3219251E+01  2.5750895E+01
 1.3230751E+01  2.5883942E+01
 1.3242250E+01  2.5981876E+01
 1.3253751E+01  2.6043449E+01
 1.3265250E+01  2.6150585E+01
 1.3276751E+01  2.6262453E+01
 1.3288251E+01  2.6453337E+01
 1.3299750E+01  2.6601563E+01
 1.3311251E+01  2.6737864E+01
 1.3322751E+01  2.6917900E+01
 1.3334250E+01  2.7046696E+01
 1.3345751E+01  2.7243727E+01
 1.3357250E+01  2.7410795E+01
 1.3368751E+01  2.7605854E+01
 1.3380251E+01  2.7781986E+01
 1.3391750E+01  2.7956799E+01
 1.3403251E+01  2.8151052E+01
 1.3414751E+01  2.8291462E+01
 1.3426250E+01  2.8357031E+01
 1.3437751E+01  2.8466995E+01
 1.3449250E+01  2.8566164E+01
 1.3460751E+01  2.8711748E+01
 1.3472251E+01  2.8806055E+01
 1.3483750E+01  2.8940063E+01
 1.3495251E+01  2.9036297E+01
 1.3506751E+01  2.9170429E+01
 1.3518250E+01  2.9257418E+01
 1.3529751E+01  2.9336634E+01
 1.3541250E+01  2.9369696E+01
 1.3552751E+01  2.9444061E+01
 1.3564251E+01  2.9512693E+01
 1.3575750E+01  2.9526993E+01
 1.3587251E+01  2.9509733E+01
 1.3598751E+01  2.9457541E+01
 1.3610250E+01  2.9479881E+01
 1.3621751E+01  2.9521515E+01
 1.3633250E+01  2.9571159E+01
 1.3644751E+01  2.9572289E+01
 1.3656251E+01  2.9562304E+01
 1.3667750E+01  2.9573971E+01
 1.3679251E+01  2.9638395E+01
 1.3690751E+01  2.9583527E+01
 1.3702250E+01  2.9543497E+01
 1.3713751E+01  2.9426968E+01
 1.3725250E+01  2.9349598E+01
 1.3736751E+01  2.9303785E+01
 1.3748251E+01  2.9197495E+01
 1.3759750E+01  2.9158369E+01
 1.3771251E+01  2.9094975E+01
 1.3782751E+01  2.9074818E+01
 1.3794250E+01  2.9005314E+01
 1.3805751E+01  2.8909679E+01
 1.3817250E+01  2.8867167E+01
 1.3828751E+01  2.8822540E+01
 1.3840251E+01  2.8817808E+01
 1.3851750E+01  2.8755154E+01
 1.3863251E+01  2.8705233E+01
 1.3874751E+01  2.8660769E+01
 1.3886250E+01  2.8667374E+01
 1.3897751E+01  2.8715940E+01
 1.3909250E+01  2.8801882E+01
 1.3920751E+01  2.9044373E+01
 1.3932251E+01  2.9308880E+01
 1.3943750E+01  2.9572430E+01
 1.3955251E+01  2.9768255E+01
 1.3966751E+01  2.9738625E+01
 1.3978251E+01  2.9505621E+01
 1.3989751E+01  2.9059555E+01
 1.4001250E+01  2.8655821E+01
 1.4012751E+01  2.8254837E+01
 1.4024251E+01  2.7884804E+01
 1.4035750E+01  2.7651796E+01
 1.4047251E+01  2.7528311E+01
 1.4058751E+01  2.7468113E+01
 1.4070251E+01  2.7427542E+01
 1.4081751E+01  2.7330345E+01
 1.4093250E+01  2.7316511E+01
 1.4104751E+01  2.7237154E+01
 1.4116251E+01  2.7174803E+01
 1.4127750E+01  2.7136761E+01
 1.4139251E+01  2.7069822E+01
 1.4150751E+01  2.6966064E+01
 1.4162251E+01  2.6861578E+01
 1.4173751E+01  2.6726309E+01
 1.4185250E+01  2.6634706E+01
 1.4196751E+01  2.6557695E+01
 1.4208251E+01  2.6555727E+01
 1.4219750E+01  2.6529491E+01
 1.4231251E+01  2.6399000E+01
 1.4242751E+01  2.6314213E+01
 1.4254251E+01  2.6221973E+01
 1.4265751E+01  2.6231752E+01
 1.4277250E+01  2.6172386E+01
 1.4288751E+01  2.6166302E+01
 1.4300251E+01  2.6106108E+01
 1.4311750E+01  2.6125881E+01
 1.4323251E+01  2.6058584E+01
 1.4334751E+01  2.6044582E+01
 1.4346251E+01  2.5985779E+01
 1.4357751E+01  2.6006918E+01
 1.4369250E+01  2.5957579E+01
 1.4380751E+01  2.5932920E+01
 1.4392251E+01  2.5829899E+01
 1.4403750E+01  2.5771923E+01
 1.4415251E+01  2.5700872E+01
 1.4426751E+01  2.5671785E+01
 1.4438251E+01  2.5646900E+01
 1.4449751E+01  2.5606745E+01
 1.4461250E+01  2.5539013E+01
 1.4472751E+01  2.5451508E+01
 1.4484251E+01  2.5403072E+01
 1.4495750E+01  2.5373943E+01
 1.4507251E+01  2.5370857E+01
 1.4518751E+01  2.5350925E+01
 1.4530251E+01  2.5396017E+01
 1.4541751E+01  2.5399881E+01
 1.4553250E+01  2.5408552E+01
 1.4564751E+01  2.5336832E+01
 1.4576251E+01  2.5291712E+01
 1.4587750E+01  2.5239307E+01
 1.4599251E+01  2.5196604E+01
 1.4610751E+01  2.5141319E+01
 1.4622251E+01  2.5096102E+01
 1.4633751E+01  2.5034924E+01
 1.4645250E+01  2.5016207E+01
 1.4656751E+01  2.4966625E+01
 1.4668251E+01  2.4930710E+01
 1.4679750E+01  2.4890272E+01
 1.4691251E+01  2.4930563E+01
 1.4702751E+01  2.4954073E+01
 1.4714251E+01  2.4957649E+01
 1.4725751E+01  2.4937601E+01
 1.4737250E+01  2.4914709E+01
 1.4748751E+01  2.4907146E+01
 1.4760251E+01  2.4888784E+01
 1.4771750E+01  2.4980082E+01
 1.4783251E+01  2.4951933E+01
 1.4794751E+01  2.4930864E+01
 1.4806251E+01  2.4868513E+01
 1.4817751E+01  2.4851488E+01
 1.4829250E+01  2.4867077E+01
 1.4840751E+01  2.4873857E+01
 1.4852251E+01  2.4869884E+01
 1.4863750E+01  2.4800188E+01
 1.4875251E+01  2.4756460E+01
 1.4886751E+01  2.4772736E+01
 1.4898251E+01  2.4859919E+01
 1.4909751E+01  2.4874275E+01
 1.4921250E+01  2.4876415E+01
 1.4932751E+01  2.4789274E+01
 1.4944251E+01  2.4725716E+01
 1.4955750E+01  2.4651260E+01
 1.4967251E+01  2.4615255E+01
 1.4978751E+01  2.4628929E+01
 1.4990251E+01  2.4615002E+01
 1.5001751E+01  2.4599533E+01
 1.5013250E+01  2.4598852E+01
 1.5024751E+01  2.4639242E+01
 1.5036251E+01  2.4695055E+01
 1.5047750E+01  2.4721153E+01
 1.5059251E+01  2.4713781E+01
 1.5070751E+01  2.4679743E+01
 1.5082251E+01  2.4601965E+01
 1.5093751E+01  2.4547537E+01
 1.5105250E+01  2.4523176E+01
 1.5116751E+01  2.4565765E+01
 1.5128251E+01  2.4598749E+01
 1.5139750E+01  2.4635937E+01
 1.5151251E+01  2.4724007E+01
 1.5162751E+01  2.4752813E+01
 1.5174251E+01  2.4786974E+01
 1.5185751E+01  2.4808432E+01
 1.5197250E+01  2.4875879E+01
 1.5208751E+01  2.4901978E+01
 1.5220251E+01  2.4899874E+01
 1.5231750E+01  2.4814009E+01
 1.5243251E+01  2.4684687E+01
 1.5254751E+01  2.4537346E+01
 1.5266251E+01  2.4401714E+01
 1.5277751E+01  2.4333347E+01
 1.5289250E+01  2.4272518E+01
 1.5300751E+01  2.4307180E+01
 1.5312251E+01  2.4336439E+01
 1.5323750E+01  2.4319784E+01
 1.5335251E+01  2.4335035E+01
 1.5346751E+01  2.4307659E+01
 1.5358251E+01  2.4318039E+01
 1.5369751E+01  2.4287369E+01
 1.5381250E+01  2.4289749E+01
 1.5392751E+01  2.4311319E+01
 1.5404251E+01  2.4403580E+01
 1.5415751E+01  2.4456425E+01
 1.5427251E+01  2.4454937E+01
 1.5438751E+01  2.4378538E+01
 1.5450251E+01  2.4326090E+01
 1.5461751E+01  2.4250841E+01
 1.5473250E+01  2.4181932E+01
 1.5484751E+01  2.4202274E+01
 1.5496251E+01  2.4262018E+01
 1.5507751E+01  2.4362347E+01
 1.5519251E+01  2.4325129E+01
 1.5530751E+01  2.4306347E+01
 1.5542251E+01  2.4261003E+01
 1.5553751E+01  2.4277184E+01
 1.5565250E+01  2.4320934E+01
 1.5576751E+01  2.4344921E+01
 1.5588251E+01  2.4387007E+01
 1.5599751E+01  2.4383369E+01
 1.5611251E+01  2.4343489E+01
 1.5622751E+01  2.4258743E+01
 1.5634251E+01  2.4205822E+01
 1.5645751E+01  2.4197910E+01
 1.5657250E+01  2.4216095E+01
 1.5668751E+01  2.4215162E+01
 1.5680251E+01  2.4264559E+01
 1.5691751E+01  2.4308090E+01
 1.5703251E+01  2.4362373E+01
 1.5714751E+01  2.4406416E+01
 1.5726251E+01  2.4474466E+01
 1.5737751E+01  2.4450401E+01
 1.5749250E+01  2.4449488E+01
 1.5760751E+01  2.4421795E+01
 1.5772251E+01  2.4440769E+01
 1.5783751E+01  2.4422087E+01
 1.5795251E+01  2.4423409E+01
 1.5806751E+01  2.4435558E+01
 1.5818251E+01  2.4422516E+01
 1.5829751E+01  2.4435286E+01
 1.5841250E+01  2.4398872E+01
 1.5852751E+01  2.4376219E+01
 1.5864251E+01  2.4341375E+01
 1.5875751E+01  2.4337891E+01
 1.5887251E+01  2.4384346E+01
 1.5898750E+01  2.4421030E+01
 1.5910251E+01  2.4490103E+01
 1.5921751E+01  2.4459227E+01
 1.5933250E+01  2.4413862E+01
 1.5944751E+01  2.4321373E+01
 1.5956251E+01  2.4288393E+01
 1.5967751E+01  2.4264397E+01
 1.5979251E+01  2.4322075E+01
 1.5990750E+01  2.4408108E+01
 1.6002251E+01  2.4462902E+01
 1.6013750E+01  2.4499760E+01
 1.6025251E+01  2.4500658E+01
 1.6036751E+01  2.4506521E+01
 1.6048250E+01  2.4507715E+01
 1.6059752E+01  2.4500313E+01
 1.6071251E+01  2.4447598E+01
 1.6082750E+01  2.4445772E+01
 1.6094252E+01  2.4450136E+01
 1.6105751E+01  2.4555250E+01
 1.6117250E+01  2.4583876E+01
 1.6128750E+01  2.4565935E+01
 1.6140251E+01  2.4550900E+01
 1.6151751E+01  2.4476130E+01
 1.6163250E+01  2.4492474E+01
 1.6174751E+01  2.4417330E+01
 1.6186251E+01  2.4519279E+01
 1.6197750E+01  2.4496723E+01
 1.6209251E+01  2.4694345E+01
 1.6220751E+01  2.4722340E+01
 1.6232250E+01  2.4864714E+01
 1.6243752E+01  2.4880495E+01
 1.6255251E+01  2.4936962E+01
 1.6266750E+01  2.4989788E+01
 1.6278252E+01  2.4873873E+01
 1.6289751E+01  2.4956947E+01
 1.6301250E+01  2.4704271E+01
 1.6312750E+01  2.4814777E+01
 1.6324251E+01  2.4605417E+01
 1.6335751E+01  2.4699734E+01
 1.6347250E+01  2.4571810E+01
 1.6358751E+01  2.4627337E+01
 1.6370251E+01  2.4550013E+01
 1.6381750E+01  2.4500748E+01
 1.6393251E+01  2.4489065E+01
 1.6404751E+01  2.4513468E+01
 1.6416250E+01  2.4586699E+01
 1.6427752E+01  2.4584282E+01
 1.6439251E+01  2.4519356E+01
 1.6450750E+01  2.4443930E+01
 1.6462252E+01  2.4364557E+01
 1.6473751E+01  2.4338024E+01
 1.6485250E+01  2.4356401E+01
 1.6496750E+01  2.4401966E+01
 1.6508251E+01  2.4432364E+01
 1.6519751E+01  2.4416370E+01
 1.6531250E+01  2.4405880E+01
 1.6542751E+01  2.4377365E+01
 1.6554251E+01  2.4295782E+01
 1.6565750E+01  2.4295998E+01
 1.6577251E+01  2.4242342E+01
 1.6588751E+01  2.4266743E+01
 1.6600250E+01  2.4246904E+01
 1.6611752E+01  2.4308041E+01
 1.6623251E+01  2.4314293E+01
 1.6634750E+01  2.4300100E+01
 1.6646252E+01  2.4271442E+01
 1.6657751E+01  2.4245821E+01
 1.6669250E+01  2.4261103E+01
 1.6680750E+01  2.4268988E+01
 1.6692251E+01  2.4264219E+01
 1.6703751E+01  2.4245157E+01
 1.6715250E+01  2.4215534E+01
 1.6726751E+01  2.4158848E+01
 1.6738251E+01  2.4139780E+01
 1.6749750E+01  2.4137053E+01
 1.6761251E+01  2.4115459E+01
 1.6772751E+01  2.4079453E+01
 1.6784250E+01  2.4062389E+01
 1.6795752E+01  2.4128695E+01
 1.6807251E+01  2.4152225E+01
 1.6818750E+01  2.4127657E+01
 1.6830252E+01  2.4094124E+01
 1.6841751E+01  2.4067242E+01
 1.6853251E+01  2.4100254E+01
 1.6864750E+01  2.4128332E+01
 1.6876251E+01  2.4179783E+01
 1.6887751E+01  2.4128633E+01
 1.6899250E+01  2.4092196E+01
 1.6910751E+01  2.4063463E+01
 1.6922251E+01  2.4119957E+01
 1.6933750E+01  2.4092930E+01
 1.6945251E+01  2.4076267E+01
 1.6956751E+01  2.4025208E+01
 1.6968250E+01  2.4043837E+01
 1.6979752E+01  2.4026426E+01
 1.6991251E+01  2.4006084E+01
 1.7002750E+01  2.3921518E+01
 1.7014252E+01  2.3906227E+01
 1.7025751E+01  2.3877325E+01
 1.7037251E+01  2.3893154E+01
 1.7048750E+01  2.3872011E+01
 1.7060251E+01  2.3873840E+01
 1.7071751E+01  2.3873369E+01
 1.7083250E+01  2.3875435E+01
 1.7094751E+01  2.3901192E+01
 1.7106251E+01  2.3902397E+01
 1.7117750E+01  2.3900434E+01
 1.7129251E+01  2.3975235E+01
 1.7140751E+01  2.4021627E+01
 1.7152250E+01  2.4032078E+01
 1.7163752E+01  2.3991816E+01
 1.7175251E+01  2.3957470E+01
 1.7186750E+01  2.4005907E+01
 1.7198252E+01  2.4030767E+01
 1.7209751E+01  2.4072233E+01
 1.7221251E+01  2.3993069E+01
 1.7232750E+01  2.3939148E+01
 1.7244251E+01  2.3825813E+01
 1.7255751E+01  2.3702785E+01
 1.7267250E+01  2.3652361E+01
 1.7278751E+01  2.3705641E+01
 1.7290251E+01  2.3743967E+01
 1.7301750E+01  2.3760496E+01
 1.7313251E+01  2.3763403E+01
 1.7324751E+01  2.3854290E+01
 1.7336250E+01  2.3847363E+01
 1.7347752E+01  2.3888792E+01
 1.7359251E+01  2.3834942E+01
 1.7370750E+01  2.3808376E+01
 1.7382252E+01  2.3738007E+01
 1.7393751E+01  2.3702698E+01
 1.7405251E+01  2.3654024E+01
 1.7416750E+01  2.3643015E+01
 1.7428251E+01  2.3690012E+01
 1.7439751E+01  2.3748398E+01
 1.7451250E+01  2.3784935E+01
 1.7462751E+01  2.3828508E+01
 1.7474251E+01  2.3866028E+01
 1.7485750E+01  2.3883713E+01
 1.7497252E+01  2.3853991E+01
 1.7508751E+01  2.3826279E+01
 1.7520250E+01  2.3793001E+01
 1.7531752E+01  2.3748058E+01
 1.7543251E+01  2.3700264E+01
 1.7554750E+01  2.3651104E+01
 1.7566252E+01  2.3583084E+01
 1.7577751E+01  2.3551292E+01
 1.7589251E+01  2.3552885E+01
 1.7600750E+01  2.3612629E+01
 1.7612251E+01  2.3625456E+01
 1.7623751E+01  2.3647697E+01
 1.7635250E+01  2.3644224E+01
 1.7646751E+01  2.3624758E+01
 1.7658251E+01  2.3582972E+01
 1.7669750E+01  2.3562296E+01
 1.7681252E+01  2.3560499E+01
 1.7692751E+01  2.3590443E+01
 1.7704250E+01  2.3585373E+01
 1.7715752E+01  2.3557789E+01
 1.7727251E+01  2.3519560E+01
 1.7738750E+01  2.3492115E+01
 1.7750252E+01  2.3505157E+01
 1.7761751E+01  2.3535128E+01
 1.7773251E+01  2.3557190E+01
 1.7784750E+01  2.3551874E+01
 1.7796251E+01  2.3518694E+01
 1.7807751E+01  2.3518742E+01
 1.7819250E+01  2.3508759E+01
 1.7830751E+01  2.3509811E+01
 1.7842251E+01  2.3500158E+01
 1.7853750E+01  2.3510914E+01
 1.7865252E+01  2.3459028E+01
 1.7876751E+01  2.3440649E+01
 1.7888250E+01  2.3399395E+01
 1.7899752E+01  2.3428665E+01
 1.7911251E+01  2.3435814E+01
 1.7922750E+01  2.3463575E+01
 1.7934252E+01  2.3410273E+01
 1.7945751E+01  2.3370918E+01
 1.7957251E+01  2.3348932E+01
 1.7968750E+01  2.3364511E+01
 1.7980251E+01  2.3408373E+01
 1.7991751E+01  2.3455612E+01
 1.8003250E+01  2.3523237E+01
 1.8014751E+01  2.3551729E+01
 1.8026251E+01  2.3562939E+01
 1.8037750E+01  2.3557280E+01
 1.8049252E+01  2.3578287E+01
 1.8060751E+01  2.3597370E+01
 1.8072250E+01  2.3588152E+01
 1.8083752E+01  2.3603552E+01
 1.8095251E+01  2.3596924E+01
 1.8106750E+01  2.3626055E+01
 1.8118252E+01  2.3641808E+01
 1.8129751E+01  2.3653376E+01
 1.8141251E+01  2.3578436E+01
 1.8152750E+01  2.3493492E+01
 1.8164251E+01  2.3383825E+01
 1.8175751E+01  2.3317184E+01
 1.8187250E+01  2.3216228E+01
 1.8198751E+01  2.3237595E+01
 1.8210251E+01  2.3243042E+01
 1.8221750E+01  2.3263878E+01
 1.8233252E+01  2.3233742E+01
 1.8244751E+01  2.3231619E+01
 1.8256250E+01  2.3260912E+01
 1.8267752E+01  2.3265852E+01
 1.8279251E+01  2.3245842E+01
 1.8290751E+01  2.3219839E+01
 1.8302252E+01  2.3194630E+01
 1.8313751E+01  2.3204346E+01
 1.8325251E+01  2.3223009E+01
 1.8336750E+01  2.3276199E+01
 1.8348251E+01  2.3269360E+01
 1.8359751E+01  2.3284231E+01
 1.8371250E+01  2.3225067E+01
 1.8382751E+01  2.3238226E+01
 1.8394251E+01  2.3256693E+01
 1.8405750E+01  2.3297075E+01
 1.8417252E+01  2.3298592E+01
 1.8428751E+01  2.3271564E+01
 1.8440250E+01  2.3309744E+01
 1.8451752E+01  2.3258499E+01
 1.8463251E+01  2.3257368E+01
 1.8474751E+01  2.3243176E+01
 1.8486252E+01  2.3245827E+01
 1.8497751E+01  2.3249907E+01
 1.8509251E+01  2.3237339E+01
 1.8520750E+01  2.3223032E+01
 1.8532251E+01  2.3231527E+01
 1.8543751E+01  2.3237329E+01
 1.8555250E+01  2.3308037E+01
 1.8566751E+01  2.3275507E+01
 1.8578251E+01  2.3316031E+01
 1.8589750E+01  2.3314627E+01
 1.8601252E+01  2.3335947E+01
 1.8612751E+01  2.3291451E+01
 1.8624250E+01  2.3239901E+01
 1.8635752E+01  2.3203379E+01
 1.8647251E+01  2.3201391E+01
 1.8658751E+01  2.3185099E+01
 1.8670252E+01  2.3223803E+01
 1.8681751E+01  2.3266855E+01
 1.8693251E+01  2.3334213E+01
 1.8704750E+01  2.3335867E+01
 1.8716251E+01  2.3345453E+01
 1.8727751E+01  2.3298172E+01
 1.8739250E+01  2.3283709E+01
 1.8750751E+01  2.3212276E+01
 1.8762251E+01  2.3220461E+01
 1.8773750E+01  2.3209461E+01
 1.8785252E+01  2.3250612E+01
 1.8796751E+01  2.3291943E+01
 1.8808250E+01  2.3309320E+01
 1.8819752E+01  2.3307106E+01
 1.8831251E+01  2.3269489E+01
 1.8842751E+01  2.3248417E+01
 1.8854252E+01  2.3207468E+01
 1.8865751E+01  2.3165991E+01
 1.8877251E+01  2.3173422E+01
 1.8888750E+01  2.3253195E+01
 1.8900251E+01  2.3323540E+01
 1.8911751E+01  2.3412537E+01
 1.8923250E+01  2.3478825E+01
 1.8934752E+01  2.3530710E+01
 1.8946251E+01  2.3476257E+01
 1.8957750E+01  2.3360346E+01
 1.8969252E+01  2.3295492E+01
 1.8980751E+01  2.3273464E+01
 1.8992250E+01  2.3258720E+01
 1.9003752E+01  2.3231289E+01
 1.9015251E+01  2.3283010E+01
 1.9026751E+01  2.3341017E+01
 1.9038252E+01  2.3377693E+01
 1.9049751E+01  2.3413963E+01
 1.9061251E+01  2.3412104E+01
 1.9072750E+01  2.3363729E+01
 1.9084251E+01  2.3283989E+01
 1.9095751E+01  2.3235502E+01
 1.9107250E+01  2.3200434E+01
 1.9118752E+01  2.3164310E+01
 1.9130251E+01  2.3148779E+01
 1.9141750E+01  2.3198704E+01
 1.9153252E+01  2.3238750E+01
 1.9164751E+01  2.3286228E+01
 1.9176250E+01  2.3254175E+01
 1.9187752E+01  2.3315821E+01
 1.9199251E+01  2.3311630E+01
 1.9210751E+01  2.3365173E+01
 1.9222252E+01  2.3314402E+01
 1.9233751E+01  2.3280058E+01
 1.9245251E+01  2.3239042E+01
 1.9256750E+01  2.3261814E+01
 1.9268251E+01  2.3273340E+01
 1.9279751E+01  2.3260466E+01
 1.9291250E+01  2.3226959E+01
 1.9302752E+01  2.3218767E+01
 1.9314251E+01  2.3233217E+01
 1.9325750E+01  2.3263176E+01
 1.9337252E+01  2.3260422E+01
 1.9348751E+01  2.3260138E+01
 1.9360250E+01  2.3264555E+01
 1.9371752E+01  2.3276133E+01
 1.9383251E+01  2.3260456E+01
 1.9394751E+01  2.3257643E+01
 1.9406250E+01  2.3237816E+01
 1.9417751E+01  2.3293604E+01
 1.9429251E+01  2.3268669E+01
 1.9440750E+01  2.3297087E+01
 1.9452251E+01  2.3270884E+01
 1.9463751E+01  2.3370871E+01
 1.9475250E+01  2.3552404E+01
 1.9486752E+01  2.3793053E+01
 1.9498251E+01  2.3974335E+01
 1.9509750E+01  2.3952461E+01
 1.9521252E+01  2.3662409E+01
 1.9532751E+01  2.3410795E+01
 1.9544250E+01  2.3290112E+01
 1.9555752E+01  2.3256901E+01
 1.9567251E+01  2.3263870E+01
 1.9578751E+01  2.3315052E+01
 1.9590250E+01  2.3330946E+01
 1.9601751E+01  2.3383293E+01
 1.9613251E+01  2.3398746E+01
 1.9624750E+01  2.3416725E+01
 1.9636251E+01  2.3452324E+01
 1.9647751E+01  2.3486315E+01
 1.9659250E+01  2.3559309E+01
 1.9670752E+01  2.3619411E+01
 1.9682251E+01  2.3706232E+01
 1.9693750E+01  2.3791016E+01
 1.9705252E+01  2.3851513E+01
 1.9716751E+01  2.3887514E+01
 1.9728251E+01  2.3827124E+01
 1.9739752E+01  2.3760473E+01
 1.9751251E+01  2.3668568E+01
 1.9762751E+01  2.3591606E+01
 1.9774250E+01  2.3535929E+01
 1.9785751E+01  2.3485697E+01
 1.9797251E+01  2.3525578E+01
 1.9808750E+01  2.3601315E+01
 1.9820251E+01  2.3664637E+01
 1.9831751E+01  2.3803173E+01
 1.9843250E+01  2.3834299E+01
 1.9854752E+01  2.3902760E+01
 1.9866251E+01  2.3871450E+01
 1.9877750E+01  2.3875893E+01
 1.9889252E+01  2.3798756E+01
 1.9900751E+01  2.3737556E+01
 1.9912251E+01  2.3689730E+01
 1.9923752E+01  2.3630196E+01
 1.9935251E+01  2.3540369E+01
 1.9946751E+01  2.3500809E+01
 1.9958250E+01  2.3472120E+01
 1.9969751E+01  2.3473808E+01
 1.9981251E+01  2.3408806E+01
 1.9992750E+01  2.3364027E+01
 2.0004251E+01  2.3324301E+01
 2.0015751E+01  2.3311884E+01
 2.0027250E+01  2.3309036E+01
 2.0038752E+01  2.3308079E+01
 2.0050251E+01  2.3308502E+01
 2.0061750E+01  2.3314516E+01
 2.0073252E+01  2.3326391E+01
 2.0084751E+01  2.3342934E+01
 2.0096251E+01  2.3395578E+01
 2.0107752E+01  2.3419846E+01
 2.0119251E+01  2.3478315E+01
 2.0130751E+01  2.3458887E+01
 2.0142250E+01  2.3446375E+01
 2.0153751E+01  2.3394962E+01
 2.0165251E+01  2.3402391E+01
 2.0176750E+01  2.3405989E+01
 2.0188251E+01  2.3443428E+01
 2.0199751E+01  2.3427452E+01
 2.0211250E+01  2.3423290E+01
 2.0222752E+01  2.3384375E+01
 2.0234251E+01  2.3376024E+01
 2.0245750E+01  2.3391958E+01
 2.0257252E+01  2.3361479E+01
 2.0268751E+01  2.3370266E+01
 2.0280251E+01  2.3351334E+01
 2.0291752E+01  2.3361784E+01
 2.0303251E+01  2.3348810E+01
 2.0314751E+01  2.3358759E+01
 2.0326250E+01  2.3379280E+01
 2.0337751E+01  2.3391212E+01
 2.0349251E+01  2.3442089E+01
 2.0360750E+01  2.3481482E+01
 2.0372252E+01  2.3516794E+01
 2.0383751E+01  2.3492142E+01
 2.0395250E+01  2.3466747E+01
 2.0406752E+01  2.3460855E+01
 2.0418251E+01  2.3444338E+01
 2.0429750E+01  2.3432699E+01
 2.0441252E+01  2.3412714E+01
 2.0452751E+01  2.3426592E+01
 2.0464251E+01  2.3429365E+01
 2.0475752E+01  2.3423130E+01
 2.0487251E+01  2.3375002E+01
 2.0498751E+01  2.3338509E+01
 2.0510250E+01  2.3300259E+01
 2.0521751E+01  2.3322733E+01
 2.0533251E+01  2.3347570E+01
 2.0544750E+01  2.3375505E+01
 2.0556252E+01  2.3415644E+01
 2.0567751E+01  2.3436974E+01
 2.0579250E+01  2.3446833E+01
 2.0590752E+01  2.3471556E+01
 2.0602251E+01  2.3517672E+01
 2.0613750E+01  2.3517630E+01
 2.0625252E+01  2.3540691E+01
 2.0636751E+01  2.3517090E+01
 2.0648251E+01  2.3489817E+01
 2.0659752E+01  2.3456135E+01
 2.0671251E+01  2.3489071E+01
 2.0682751E+01  2.3508739E+01
 2.0694250E+01  2.3536879E+01
 2.0705751E+01  2.3563383E+01
 2.0717251E+01  2.3629114E+01
 2.0728750E+01  2.3691818E+01
 2.0740252E+01  2.3792110E+01
 2.0751751E+01  2.3830709E+01
 2.0763250E+01  2.3885551E+01
 2.0774752E+01  2.3870079E+01
 2.0786251E+01  2.3876484E+01
 2.0797750E+01  2.3815033E+01
 2.0809252E+01  2.3765326E+01
 2.0820751E+01  2.3695436E+01
 2.0832251E+01  2.3629400E+01
 2.0843752E+01  2.3581247E+01
 2.0855251E+01  2.3582399E+01
 2.0866751E+01  2.3591219E+01
 2.0878250E+01  2.3603193E+01
 2.0889751E+01  2.3580671E+01
 2.0901251E+01  2.3595238E+01
 2.0912750E+01  2.3593668E+01
 2.0924252E+01  2.3609316E+01
 2.0935751E+01  2.3608059E+01
 2.0947250E+01  2.3645273E+01
 2.0958752E+01  2.3650997E+01
 2.0970251E+01  2.3667509E+01
 2.0981750E+01  2.3700680E+01
 2.0993252E+01  2.3703054E+01
 2.1004751E+01  2.3678495E+01
 2.1016251E+01  2.3657434E+01
 2.1027752E+01  2.3664383E+01
 2.1039251E+01  2.3635006E+01
 2.1050751E+01  2.3590672E+01
 2.1062250E+01  2.3551819E+01
 2.1073751E+01  2.3594561E+01
 2.1085251E+01  2.3572834E+01
 2.1096750E+01  2.3522144E+01
 2.1108252E+01  2.3468353E+01
 2.1119751E+01  2.3518299E+01
 2.1131250E+01  2.3550657E+01
 2.1142752E+01  2.3540354E+01
 2.1154251E+01  2.3523153E+01
 2.1165751E+01  2.3539368E+01
 2.1177252E+01  2.3586843E+01
 2.1188751E+01  2.3587811E+01
 2.1200251E+01  2.3615816E+01
 2.1211752E+01  2.3590382E+01
 2.1223251E+01  2.3590300E+01
 2.1234751E+01  2.3603016E+01
 2.1246250E+01  2.3678335E+01
 2.1257751E+01  2.3735157E+01
 2.1269251E+01  2.3775154E+01
 2.1280750E+01  2.3766056E+01
 2.1292252E+01  2.3750242E+01
 2.1303751E+01  2.3661703E+01
 2.1315250E+01  2.3566925E+01
 2.1326752E+01  2.3548725E+01
 2.1338251E+01  2.3559992E+01
 2.1349751E+01  2.3577734E+01
 2.1361252E+01  2.3601995E+01
 2.1372751E+01  2.3666168E+01
 2.1384251E+01  2.3641359E+01
 2.1395752E+01  2.3598988E+01
 2.1407251E+01  2.3545849E+01
 2.1418751E+01  2.3617762E+01
 2.1430250E+01  2.3649971E+01
 2.1441751E+01  2.3731838E+01
 2.1453251E+01  2.3772108E+01
 2.1464750E+01  2.3799147E+01
 2.1476252E+01  2.3776489E+01
 2.1487751E+01  2.3819908E+01
 2.1499250E+01  2.3817423E+01
 2.1510752E+01  2.3816359E+01
 2.1522251E+01  2.3812914E+01
 2.1533751E+01  2.3811098E+01
 2.1545252E+01  2.3770205E+01
 2.1556751E+01  2.3698050E+01
 2.1568251E+01  2.3709299E+01
 2.1579752E+01  2.3743837E+01
 2.1591251E+01  2.3847021E+01
 2.1602751E+01  2.3871853E+01
 2.1614250E+01  2.3864454E+01
 2.1625751E+01  2.3858330E+01
 2.1637251E+01  2.3826015E+01
 2.1648750E+01  2.3835867E+01
 2.1660252E+01  2.3857843E+01
 2.1671751E+01  2.3859726E+01
 2.1683250E+01  2.3815611E+01
 2.1694752E+01  2.3801149E+01
 2.1706251E+01  2.3832935E+01
 2.1717751E+01  2.3868500E+01
 2.1729252E+01  2.3955853E+01
 2.1740751E+01  2.3967737E+01
 2.1752251E+01  2.3917835E+01
 2.1763752E+01  2.3843410E+01
 2.1775251E+01  2.3808350E+01
 2.1786751E+01  2.3820295E+01
 2.1798250E+01  2.3807541E+01
 2.1809752E+01  2.3832829E+01
 2.1821251E+01  2.3847603E+01
 2.1832750E+01  2.3819813E+01
 2.1844252E+01  2.3818701E+01
 2.1855751E+01  2.3844261E+01
 2.1867250E+01  2.3904894E+01
 2.1878752E+01  2.3929985E+01
 2.1890251E+01  2.3939102E+01
 2.1901751E+01  2.3938204E+01
 2.1913252E+01  2.3944616E+01
 2.1924751E+01  2.3935217E+01
 2.1936251E+01  2.3966681E+01
 2.1947752E+01  2.3987686E+01
 2.1959251E+01  2.3984631E+01
 2.1970751E+01  2.3952589E+01
 2.1982250E+01  2.3906303E+01
 2.1993752E+01  2.3927046E+01
 2.2005251E+01  2.3952267E+01
 2.2016750E+01  2.4015781E+01
 2.2028252E+01  2.4043598E+01
 2.2039751E+01  2.4017797E+01
 2.2051250E+01  2.4049997E+01
 2.2062752E+01  2.4041647E+01
 2.2074251E+01  2.4030338E+01
 2.2085751E+01  2.3987425E+01
 2.2097252E+01  2.3949118E+01
 2.2108751E+01  2.3973354E+01
 2.2120251E+01  2.4044519E+01
 2.2131752E+01  2.4082745E+01
 2.2143251E+01  2.4109751E+01
 2.2154751E+01  2.4103455E+01
 2.2166250E+01  2.4136696E+01
 2.2177752E+01  2.4107962E+01
 2.2189251E+01  2.4118860E+01
 2.2200750E+01  2.4153511E+01
 2.2212252E+01  2.4146982E+01
 2.2223751E+01  2.4117035E+01
 2.2235250E+01  2.4041912E+01
 2.2246752E+01  2.4051250E+01
 2.2258251E+01  2.4067413E+01
 2.2269751E+01  2.4065826E+01
 2.2281252E+01  2.4113466E+01
 2.2292751E+01  2.4162630E+01
 2.2304251E+01  2.4256763E+01
 2.2315752E+01  2.4297510E+01
 2.2327251E+01  2.4315746E+01
 2.2338751E+01  2.4353729E+01
 2.2350250E+01  2.4382008E+01
 2.2361752E+01  2.4380604E+01
 2.2373251E+01  2.4365107E+01
 2.2384750E+01  2.4269445E+01
 2.2396252E+01  2.4199873E+01
 2.2407751E+01  2.4169020E+01
 2.2419250E+01  2.4176704E+01
 2.2430752E+01  2.4167749E+01
 2.2442251E+01  2.4197184E+01
 2.2453751E+01  2.4247765E+01
 2.2465252E+01  2.4273121E+01
 2.2476751E+01  2.4271044E+01
 2.2488251E+01  2.4269249E+01
 2.2499752E+01  2.4291088E+01
 2.2511251E+01  2.4368509E+01
 2.2522751E+01  2.4439217E+01
 2.2534250E+01  2.4485783E+01
 2.2545752E+01  2.4492315E+01
 2.2557251E+01  2.4459732E+01
 2.2568750E+01  2.4447191E+01
 2.2580252E+01  2.4435678E+01
 2.2591751E+01  2.4448242E+01
 2.2603251E+01  2.4481842E+01
 2.2614752E+01  2.4523947E+01
 2.2626251E+01  2.4577579E+01
 2.2637751E+01  2.4589811E+01
 2.2649252E+01  2.4631472E+01
 2.2660751E+01  2.4659855E+01
 2.2672251E+01  2.4639717E+01
 2.2683752E+01  2.4699335E+01
 2.2695251E+01  2.4797228E+01
 2.2706751E+01  2.4851572E+01
 2.2718250E+01  2.4856451E+01
 2.2729752E+01  2.4826174E+01
 2.2741251E+01  2.4809517E+01
 2.2752750E+01  2.4824732E+01
 2.2764252E+01  2.4904747E+01
 2.2775751E+01  2.4957092E+01
 2.2787251E+01  2.4979445E+01
 2.2798752E+01  2.5023760E+01
 2.2810251E+01  2.5059196E+01
 2.2821751E+01  2.5091106E+01
 2.2833252E+01  2.5149448E+01
 2.2844751E+01  2.5181133E+01
 2.2856251E+01  2.5186949E+01
 2.2867750E+01  2.5216417E+01
 2.2879251E+01  2.5257788E+01
 2.2890751E+01  2.5372000E+01
 2.2902250E+01  2.5429739E+01
 2.2913752E+01  2.5562952E+01
 2.2925251E+01  2.5621704E+01
 2.2936750E+01  2.5643820E+01
 2.2948252E+01  2.5642933E+01
 2.2959751E+01  2.5618017E+01
 2.2971251E+01  2.5709469E+01
 2.2982752E+01  2.5767761E+01
 2.2994251E+01  2.5873367E+01
