F:\20151113_APS_34IDE\\Brian\Particle1\OCV\Data_0051.tif
2-Theta Angle (Degrees)
Intensity
       2000
 5.7500005E-03  0.0000000E+00
 1.7250001E-02  0.0000000E+00
 2.8750001E-02  0.0000000E+00
 4.0250003E-02  0.0000000E+00
 5.1750004E-02  0.0000000E+00
 6.3250005E-02  0.0000000E+00
 7.4750006E-02  0.0000000E+00
 8.6250007E-02  0.0000000E+00
 9.7750008E-02  0.0000000E+00
 1.0925001E-01  0.0000000E+00
 1.2075000E-01  0.0000000E+00
 1.3225001E-01  0.0000000E+00
 1.4375001E-01  0.0000000E+00
 1.5525001E-01  0.0000000E+00
 1.6675001E-01  0.0000000E+00
 1.7825001E-01  0.0000000E+00
 1.8975002E-01  0.0000000E+00
 2.0125002E-01  0.0000000E+00
 2.1275002E-01  0.0000000E+00
 2.2425000E-01  0.0000000E+00
 2.3575000E-01  0.0000000E+00
 2.4725001E-01  0.0000000E+00
 2.5875002E-01  0.0000000E+00
 2.7025002E-01  0.0000000E+00
 2.8175002E-01  0.0000000E+00
 2.9325002E-01  0.0000000E+00
 3.0475003E-01  0.0000000E+00
 3.1625003E-01  0.0000000E+00
 3.2775003E-01  0.0000000E+00
 3.3925003E-01  0.0000000E+00
 3.5075003E-01  0.0000000E+00
 3.6225003E-01  0.0000000E+00
 3.7375003E-01  0.0000000E+00
 3.8525003E-01  0.0000000E+00
 3.9675003E-01  0.0000000E+00
 4.0825003E-01  0.0000000E+00
 4.1975003E-01  0.0000000E+00
 4.3125004E-01  0.0000000E+00
 4.4275001E-01  0.0000000E+00
 4.5425001E-01  0.0000000E+00
 4.6575001E-01  0.0000000E+00
 4.7725001E-01  0.0000000E+00
 4.8875001E-01  0.0000000E+00
 5.0025004E-01  0.0000000E+00
 5.1175004E-01  0.0000000E+00
 5.2325004E-01  0.0000000E+00
 5.3475004E-01  0.0000000E+00
 5.4625005E-01  0.0000000E+00
 5.5775005E-01  0.0000000E+00
 5.6925005E-01  0.0000000E+00
 5.8075005E-01  0.0000000E+00
 5.9225005E-01  0.0000000E+00
 6.0375005E-01  0.0000000E+00
 6.1525005E-01  0.0000000E+00
 6.2675005E-01  0.0000000E+00
 6.3825005E-01  0.0000000E+00
 6.4975005E-01  0.0000000E+00
 6.6125005E-01  0.0000000E+00
 6.7275006E-01  0.0000000E+00
 6.8425006E-01  0.0000000E+00
 6.9575006E-01  0.0000000E+00
 7.0725006E-01  0.0000000E+00
 7.1875006E-01  0.0000000E+00
 7.3025006E-01  0.0000000E+00
 7.4175006E-01  0.0000000E+00
 7.5325006E-01  0.0000000E+00
 7.6475006E-01  0.0000000E+00
 7.7625006E-01  0.0000000E+00
 7.8775007E-01  0.0000000E+00
 7.9925007E-01  0.0000000E+00
 8.1075007E-01  0.0000000E+00
 8.2225007E-01  0.0000000E+00
 8.3375007E-01  0.0000000E+00
 8.4525007E-01  0.0000000E+00
 8.5675007E-01  0.0000000E+00
 8.6825007E-01  0.0000000E+00
 8.7975001E-01  0.0000000E+00
 8.9125001E-01  0.0000000E+00
 9.0275002E-01  0.0000000E+00
 9.1425002E-01  0.0000000E+00
 9.2575002E-01  0.0000000E+00
 9.3725002E-01  0.0000000E+00
 9.4875002E-01  0.0000000E+00
 9.6025002E-01  0.0000000E+00
 9.7175002E-01  0.0000000E+00
 9.8325002E-01  0.0000000E+00
 9.9475002E-01  0.0000000E+00
 1.0062500E+00  0.0000000E+00
 1.0177500E+00  0.0000000E+00
 1.0292500E+00  0.0000000E+00
 1.0407500E+00  0.0000000E+00
 1.0522500E+00  0.0000000E+00
 1.0637500E+00  0.0000000E+00
 1.0752500E+00  0.0000000E+00
 1.0867500E+00  0.0000000E+00
 1.0982500E+00  0.0000000E+00
 1.1097500E+00  0.0000000E+00
 1.1212500E+00  0.0000000E+00
 1.1327500E+00  0.0000000E+00
 1.1442500E+00  0.0000000E+00
 1.1557500E+00  0.0000000E+00
 1.1672500E+00  0.0000000E+00
 1.1787500E+00  0.0000000E+00
 1.1902500E+00  0.0000000E+00
 1.2017500E+00  0.0000000E+00
 1.2132500E+00  0.0000000E+00
 1.2247500E+00  0.0000000E+00
 1.2362500E+00  0.0000000E+00
 1.2477500E+00  0.0000000E+00
 1.2592500E+00  0.0000000E+00
 1.2707500E+00  0.0000000E+00
 1.2822500E+00  0.0000000E+00
 1.2937500E+00  0.0000000E+00
 1.3052500E+00  0.0000000E+00
 1.3167500E+00  0.0000000E+00
 1.3282501E+00  0.0000000E+00
 1.3397501E+00  0.0000000E+00
 1.3512501E+00  0.0000000E+00
 1.3627501E+00  0.0000000E+00
 1.3742501E+00  0.0000000E+00
 1.3857501E+00  0.0000000E+00
 1.3972501E+00  0.0000000E+00
 1.4087501E+00  0.0000000E+00
 1.4202501E+00  0.0000000E+00
 1.4317501E+00  0.0000000E+00
 1.4432501E+00  0.0000000E+00
 1.4547501E+00  0.0000000E+00
 1.4662501E+00  0.0000000E+00
 1.4777501E+00  0.0000000E+00
 1.4892501E+00  0.0000000E+00
 1.5007501E+00  0.0000000E+00
 1.5122501E+00  0.0000000E+00
 1.5237501E+00  0.0000000E+00
 1.5352501E+00  0.0000000E+00
 1.5467501E+00  0.0000000E+00
 1.5582501E+00  0.0000000E+00
 1.5697501E+00  0.0000000E+00
 1.5812501E+00  0.0000000E+00
 1.5927501E+00  0.0000000E+00
 1.6042501E+00  0.0000000E+00
 1.6157501E+00  0.0000000E+00
 1.6272501E+00  0.0000000E+00
 1.6387501E+00  0.0000000E+00
 1.6502501E+00  0.0000000E+00
 1.6617501E+00  0.0000000E+00
 1.6732501E+00  0.0000000E+00
 1.6847501E+00  0.0000000E+00
 1.6962501E+00  0.0000000E+00
 1.7077501E+00  0.0000000E+00
 1.7192501E+00  0.0000000E+00
 1.7307501E+00  0.0000000E+00
 1.7422501E+00  0.0000000E+00
 1.7537501E+00  0.0000000E+00
 1.7652501E+00  0.0000000E+00
 1.7767501E+00  0.0000000E+00
 1.7882501E+00  0.0000000E+00
 1.7997501E+00  0.0000000E+00
 1.8112501E+00  0.0000000E+00
 1.8227501E+00  0.0000000E+00
 1.8342501E+00  0.0000000E+00
 1.8457501E+00  0.0000000E+00
 1.8572501E+00  0.0000000E+00
 1.8687501E+00  0.0000000E+00
 1.8802501E+00  0.0000000E+00
 1.8917501E+00  0.0000000E+00
 1.9032501E+00  0.0000000E+00
 1.9147501E+00  0.0000000E+00
 1.9262501E+00  0.0000000E+00
 1.9377501E+00  0.0000000E+00
 1.9492501E+00  0.0000000E+00
 1.9607501E+00  0.0000000E+00
 1.9722501E+00  0.0000000E+00
 1.9837501E+00  0.0000000E+00
 1.9952501E+00  0.0000000E+00
 2.0067501E+00  0.0000000E+00
 2.0182500E+00  0.0000000E+00
 2.0297501E+00  0.0000000E+00
 2.0412500E+00  0.0000000E+00
 2.0527501E+00  0.0000000E+00
 2.0642500E+00  0.0000000E+00
 2.0757501E+00  0.0000000E+00
 2.0872500E+00  0.0000000E+00
 2.0987501E+00  0.0000000E+00
 2.1102500E+00  0.0000000E+00
 2.1217501E+00  0.0000000E+00
 2.1332500E+00  0.0000000E+00
 2.1447501E+00  0.0000000E+00
 2.1562500E+00  0.0000000E+00
 2.1677501E+00  0.0000000E+00
 2.1792500E+00  0.0000000E+00
 2.1907501E+00  0.0000000E+00
 2.2022500E+00  0.0000000E+00
 2.2137501E+00  0.0000000E+00
 2.2252500E+00  0.0000000E+00
 2.2367501E+00  0.0000000E+00
 2.2482500E+00  0.0000000E+00
 2.2597501E+00  0.0000000E+00
 2.2712500E+00  0.0000000E+00
 2.2827501E+00  0.0000000E+00
 2.2942500E+00  0.0000000E+00
 2.3057501E+00  0.0000000E+00
 2.3172500E+00  0.0000000E+00
 2.3287501E+00  0.0000000E+00
 2.3402500E+00  0.0000000E+00
 2.3517501E+00  0.0000000E+00
 2.3632500E+00  0.0000000E+00
 2.3747501E+00  0.0000000E+00
 2.3862500E+00  0.0000000E+00
 2.3977501E+00  0.0000000E+00
 2.4092500E+00  0.0000000E+00
 2.4207501E+00  0.0000000E+00
 2.4322500E+00  0.0000000E+00
 2.4437501E+00  0.0000000E+00
 2.4552500E+00  0.0000000E+00
 2.4667501E+00  0.0000000E+00
 2.4782500E+00  0.0000000E+00
 2.4897501E+00  0.0000000E+00
 2.5012500E+00  0.0000000E+00
 2.5127501E+00  0.0000000E+00
 2.5242500E+00  0.0000000E+00
 2.5357502E+00  0.0000000E+00
 2.5472500E+00  0.0000000E+00
 2.5587502E+00  0.0000000E+00
 2.5702500E+00  0.0000000E+00
 2.5817502E+00  0.0000000E+00
 2.5932500E+00  0.0000000E+00
 2.6047502E+00  0.0000000E+00
 2.6162500E+00  0.0000000E+00
 2.6277502E+00  0.0000000E+00
 2.6392500E+00  0.0000000E+00
 2.6507502E+00  0.0000000E+00
 2.6622500E+00  0.0000000E+00
 2.6737502E+00  0.0000000E+00
 2.6852500E+00  0.0000000E+00
 2.6967502E+00  0.0000000E+00
 2.7082500E+00  0.0000000E+00
 2.7197502E+00  0.0000000E+00
 2.7312500E+00  0.0000000E+00
 2.7427502E+00  0.0000000E+00
 2.7542500E+00  0.0000000E+00
 2.7657502E+00  0.0000000E+00
 2.7772501E+00  0.0000000E+00
 2.7887502E+00  0.0000000E+00
 2.8002501E+00  0.0000000E+00
 2.8117502E+00  0.0000000E+00
 2.8232501E+00  2.8946918E+01
 2.8347502E+00  3.1351646E+01
 2.8462501E+00  3.2123974E+01
 2.8577502E+00  3.2878700E+01
 2.8692501E+00  3.3121132E+01
 2.8807502E+00  3.3424473E+01
 2.8922501E+00  3.3956490E+01
 2.9037502E+00  3.4461170E+01
 2.9152501E+00  3.5193481E+01
 2.9267502E+00  3.5409721E+01
 2.9382501E+00  3.5794426E+01
 2.9497502E+00  3.5977608E+01
 2.9612501E+00  3.5559620E+01
 2.9727502E+00  3.5176785E+01
 2.9842501E+00  3.4790482E+01
 2.9957502E+00  3.4870029E+01
 3.0072501E+00  3.5157383E+01
 3.0187502E+00  3.5695202E+01
 3.0302501E+00  3.6273708E+01
 3.0417502E+00  3.6587002E+01
 3.0532501E+00  3.6491810E+01
 3.0647502E+00  3.6101353E+01
 3.0762501E+00  3.6160336E+01
 3.0877502E+00  3.6207005E+01
 3.0992501E+00  3.6321766E+01
 3.1107502E+00  3.5917992E+01
 3.1222501E+00  3.5596176E+01
 3.1337502E+00  3.5170719E+01
 3.1452501E+00  3.5162193E+01
 3.1567502E+00  3.4971619E+01
 3.1682501E+00  3.5183449E+01
 3.1797502E+00  3.5104527E+01
 3.1912501E+00  3.5040703E+01
 3.2027502E+00  3.4976448E+01
 3.2142501E+00  3.4996964E+01
 3.2257502E+00  3.4933495E+01
 3.2372501E+00  3.4830322E+01
 3.2487502E+00  3.4863380E+01
 3.2602501E+00  3.4872635E+01
 3.2717502E+00  3.4685959E+01
 3.2832501E+00  3.4377167E+01
 3.2947502E+00  3.4256779E+01
 3.3062501E+00  3.4121319E+01
 3.3177502E+00  3.4150928E+01
 3.3292501E+00  3.4168499E+01
 3.3407502E+00  3.4230625E+01
 3.3522501E+00  3.4306808E+01
 3.3637502E+00  3.4458443E+01
 3.3752501E+00  3.4612926E+01
 3.3867502E+00  3.4526432E+01
 3.3982501E+00  3.4330555E+01
 3.4097502E+00  3.4090347E+01
 3.4212501E+00  3.3877926E+01
 3.4327502E+00  3.3739384E+01
 3.4442501E+00  3.3697998E+01
 3.4557502E+00  3.3929825E+01
 3.4672501E+00  3.4082386E+01
 3.4787502E+00  3.3933964E+01
 3.4902501E+00  3.3878361E+01
 3.5017502E+00  3.3601871E+01
 3.5132501E+00  3.3608982E+01
 3.5247502E+00  3.3489525E+01
 3.5362501E+00  3.3361225E+01
 3.5477502E+00  3.3298008E+01
 3.5592501E+00  3.3032738E+01
 3.5707502E+00  3.2881657E+01
 3.5822501E+00  3.2711857E+01
 3.5937502E+00  3.2635345E+01
 3.6052501E+00  3.2452621E+01
 3.6167502E+00  3.2634380E+01
 3.6282501E+00  3.2562157E+01
 3.6397502E+00  3.2508919E+01
 3.6512501E+00  3.2530384E+01
 3.6627502E+00  3.2460873E+01
 3.6742501E+00  3.2556530E+01
 3.6857502E+00  3.2599705E+01
 3.6972501E+00  3.2488365E+01
 3.7087502E+00  3.2632439E+01
 3.7202501E+00  3.2570492E+01
 3.7317502E+00  3.2760300E+01
 3.7432501E+00  3.2859711E+01
 3.7547503E+00  3.2811321E+01
 3.7662501E+00  3.2945137E+01
 3.7777503E+00  3.3024239E+01
 3.7892501E+00  3.2869759E+01
 3.8007503E+00  3.2707485E+01
 3.8122501E+00  3.2671638E+01
 3.8237503E+00  3.2510742E+01
 3.8352501E+00  3.2493473E+01
 3.8467503E+00  3.2256954E+01
 3.8582501E+00  3.2478100E+01
 3.8697503E+00  3.2543793E+01
 3.8812501E+00  3.2496819E+01
 3.8927503E+00  3.2288383E+01
 3.9042501E+00  3.2135941E+01
 3.9157503E+00  3.1965738E+01
 3.9272501E+00  3.2107456E+01
 3.9387503E+00  3.2097412E+01
 3.9502501E+00  3.2327766E+01
 3.9617503E+00  3.2488136E+01
 3.9732502E+00  3.2693436E+01
 3.9847503E+00  3.2542839E+01
 3.9962502E+00  3.2533470E+01
 4.0077500E+00  3.2404480E+01
 4.0192504E+00  3.2291370E+01
 4.0307503E+00  3.2240604E+01
 4.0422502E+00  3.2198814E+01
 4.0537500E+00  3.2230530E+01
 4.0652504E+00  3.2316357E+01
 4.0767503E+00  3.2247963E+01
 4.0882502E+00  3.2449268E+01
 4.0997500E+00  3.2410763E+01
 4.1112504E+00  3.2384907E+01
 4.1227503E+00  3.2312134E+01
 4.1342502E+00  3.2305561E+01
 4.1457500E+00  3.2330170E+01
 4.1572504E+00  3.2232540E+01
 4.1687503E+00  3.2103725E+01
 4.1802502E+00  3.1841295E+01
 4.1917500E+00  3.1941425E+01
 4.2032504E+00  3.1912626E+01
 4.2147503E+00  3.2091824E+01
 4.2262502E+00  3.2134682E+01
 4.2377501E+00  3.2167793E+01
 4.2492504E+00  3.2081326E+01
 4.2607503E+00  3.2056671E+01
 4.2722502E+00  3.1991940E+01
 4.2837501E+00  3.2254890E+01
 4.2952504E+00  3.2244247E+01
 4.3067503E+00  3.2391430E+01
 4.3182502E+00  3.2280464E+01
 4.3297501E+00  3.2292728E+01
 4.3412504E+00  3.2387421E+01
 4.3527503E+00  3.2417339E+01
 4.3642502E+00  3.2433491E+01
 4.3757501E+00  3.2327335E+01
 4.3872504E+00  3.2294159E+01
 4.3987503E+00  3.2207111E+01
 4.4102502E+00  3.2397175E+01
 4.4217501E+00  3.2496998E+01
 4.4332504E+00  3.2580540E+01
 4.4447503E+00  3.2464237E+01
 4.4562502E+00  3.2326260E+01
 4.4677501E+00  3.2314777E+01
 4.4792504E+00  3.2345085E+01
 4.4907503E+00  3.2271408E+01
 4.5022502E+00  3.2366695E+01
 4.5137501E+00  3.2378746E+01
 4.5252504E+00  3.2506886E+01
 4.5367503E+00  3.2501850E+01
 4.5482502E+00  3.2433826E+01
 4.5597501E+00  3.2360451E+01
 4.5712504E+00  3.2362934E+01
 4.5827503E+00  3.2340439E+01
 4.5942502E+00  3.2412926E+01
 4.6057501E+00  3.2351543E+01
 4.6172504E+00  3.2415409E+01
 4.6287503E+00  3.2249470E+01
 4.6402502E+00  3.2418636E+01
 4.6517501E+00  3.2554737E+01
 4.6632504E+00  3.2695156E+01
 4.6747503E+00  3.2645416E+01
 4.6862502E+00  3.2517265E+01
 4.6977501E+00  3.2612263E+01
 4.7092505E+00  3.2722050E+01
 4.7207503E+00  3.2798622E+01
 4.7322502E+00  3.2640392E+01
 4.7437501E+00  3.2618217E+01
 4.7552505E+00  3.2567101E+01
 4.7667503E+00  3.2629536E+01
 4.7782502E+00  3.2478382E+01
 4.7897501E+00  3.2424110E+01
 4.8012505E+00  3.2239094E+01
 4.8127503E+00  3.2229328E+01
 4.8242502E+00  3.2246796E+01
 4.8357501E+00  3.2467857E+01
 4.8472505E+00  3.2547943E+01
 4.8587503E+00  3.2656422E+01
 4.8702502E+00  3.2558636E+01
 4.8817501E+00  3.2586514E+01
 4.8932505E+00  3.2547977E+01
 4.9047503E+00  3.2541145E+01
 4.9162502E+00  3.2539722E+01
 4.9277501E+00  3.2496624E+01
 4.9392505E+00  3.2537010E+01
 4.9507504E+00  3.2487278E+01
 4.9622502E+00  3.2400517E+01
 4.9737501E+00  3.2433022E+01
 4.9852505E+00  3.2529556E+01
 4.9967504E+00  3.2727390E+01
 5.0082502E+00  3.2825005E+01
 5.0197501E+00  3.2899017E+01
 5.0312505E+00  3.3005985E+01
 5.0427504E+00  3.3117138E+01
 5.0542502E+00  3.3114994E+01
 5.0657501E+00  3.3122841E+01
 5.0772505E+00  3.3163651E+01
 5.0887504E+00  3.3262886E+01
 5.1002502E+00  3.3325054E+01
 5.1117501E+00  3.3308365E+01
 5.1232505E+00  3.3274158E+01
 5.1347504E+00  3.3393555E+01
 5.1462502E+00  3.3411129E+01
 5.1577501E+00  3.3528263E+01
 5.1692505E+00  3.3640598E+01
 5.1807504E+00  3.3733139E+01
 5.1922503E+00  3.3882030E+01
 5.2037501E+00  3.3826458E+01
 5.2152505E+00  3.3788441E+01
 5.2267504E+00  3.3831196E+01
 5.2382503E+00  3.3841274E+01
 5.2497501E+00  3.3834476E+01
 5.2612505E+00  3.3817848E+01
 5.2727504E+00  3.3811157E+01
 5.2842503E+00  3.3938068E+01
 5.2957501E+00  3.3951668E+01
 5.3072500E+00  3.3864288E+01
 5.3187504E+00  3.3887104E+01
 5.3302503E+00  3.4020084E+01
 5.3417501E+00  3.4248039E+01
 5.3532500E+00  3.4356937E+01
 5.3647504E+00  3.4498573E+01
 5.3762503E+00  3.4579533E+01
 5.3877501E+00  3.4615883E+01
 5.3992500E+00  3.4435898E+01
 5.4107504E+00  3.4358383E+01
 5.4222503E+00  3.4338066E+01
 5.4337502E+00  3.4355713E+01
 5.4452500E+00  3.4504688E+01
 5.4567504E+00  3.4565849E+01
 5.4682503E+00  3.4746147E+01
 5.4797502E+00  3.4710342E+01
 5.4912500E+00  3.4750343E+01
 5.5027504E+00  3.4707180E+01
 5.5142503E+00  3.4740047E+01
 5.5257502E+00  3.4751060E+01
 5.5372500E+00  3.4741932E+01
 5.5487504E+00  3.4792610E+01
 5.5602503E+00  3.4842442E+01
 5.5717502E+00  3.4984322E+01
 5.5832500E+00  3.5035442E+01
 5.5947504E+00  3.5104721E+01
 5.6062503E+00  3.5189556E+01
 5.6177502E+00  3.5168095E+01
 5.6292500E+00  3.5143688E+01
 5.6407504E+00  3.5151821E+01
 5.6522503E+00  3.5209435E+01
 5.6637502E+00  3.5416100E+01
 5.6752501E+00  3.5504677E+01
 5.6867504E+00  3.5604191E+01
 5.6982503E+00  3.5585293E+01
 5.7097502E+00  3.5621803E+01
 5.7212501E+00  3.5686523E+01
 5.7327504E+00  3.5668694E+01
 5.7442503E+00  3.5670727E+01
 5.7557502E+00  3.5638546E+01
 5.7672501E+00  3.5714054E+01
 5.7787504E+00  3.5778034E+01
 5.7902503E+00  3.5913845E+01
 5.8017502E+00  3.6000664E+01
 5.8132501E+00  3.6194901E+01
 5.8247504E+00  3.6307308E+01
 5.8362503E+00  3.6471409E+01
 5.8477502E+00  3.6540092E+01
 5.8592501E+00  3.6491211E+01
 5.8707504E+00  3.6691860E+01
 5.8822503E+00  3.6824123E+01
 5.8937502E+00  3.7358814E+01
 5.9052501E+00  3.8635090E+01
 5.9167504E+00  3.9383587E+01
 5.9282503E+00  4.2080227E+01
 5.9397502E+00  4.5554443E+01
 5.9512501E+00  4.7520702E+01
 5.9627504E+00  5.4447750E+01
 5.9742503E+00  5.5593365E+01
 5.9857502E+00  5.7308849E+01
 5.9972501E+00  5.7097324E+01
 6.0087504E+00  5.4350700E+01
 6.0202503E+00  5.1497799E+01
 6.0317502E+00  4.5475780E+01
 6.0432501E+00  4.1746025E+01
 6.0547504E+00  4.0408298E+01
 6.0662503E+00  3.8365047E+01
 6.0777502E+00  3.7661304E+01
 6.0892501E+00  3.7339344E+01
 6.1007504E+00  3.7259315E+01
 6.1122503E+00  3.7262905E+01
 6.1237502E+00  3.7292881E+01
 6.1352501E+00  3.7179516E+01
 6.1467505E+00  3.7018433E+01
 6.1582503E+00  3.6935291E+01
 6.1697502E+00  3.6796528E+01
 6.1812501E+00  3.6854122E+01
 6.1927505E+00  3.6750076E+01
 6.2042503E+00  3.6839531E+01
 6.2157502E+00  3.6991661E+01
 6.2272501E+00  3.7175365E+01
 6.2387505E+00  3.7316368E+01
 6.2502503E+00  3.7463554E+01
 6.2617502E+00  3.7543388E+01
 6.2732501E+00  3.7567596E+01
 6.2847505E+00  3.7462318E+01
 6.2962503E+00  3.7343464E+01
 6.3077502E+00  3.7388699E+01
 6.3192501E+00  3.7365120E+01
 6.3307505E+00  3.7414608E+01
 6.3422503E+00  3.7395432E+01
 6.3537502E+00  3.7528645E+01
 6.3652501E+00  3.7649048E+01
 6.3767505E+00  3.7818020E+01
 6.3882504E+00  3.8001503E+01
 6.3997502E+00  3.8182949E+01
 6.4112501E+00  3.8284657E+01
 6.4227505E+00  3.8330429E+01
 6.4342504E+00  3.8474670E+01
 6.4457502E+00  3.8602398E+01
 6.4572501E+00  3.8656471E+01
 6.4687505E+00  3.8764393E+01
 6.4802504E+00  3.8729652E+01
 6.4917502E+00  3.8812065E+01
 6.5032501E+00  3.8828709E+01
 6.5147505E+00  3.8941029E+01
 6.5262504E+00  3.9038952E+01
 6.5377502E+00  3.9172142E+01
 6.5492501E+00  3.9290604E+01
 6.5607505E+00  3.9431171E+01
 6.5722504E+00  3.9459820E+01
 6.5837502E+00  3.9454811E+01
 6.5952501E+00  3.9400612E+01
 6.6067505E+00  3.9374866E+01
 6.6182504E+00  3.9420490E+01
 6.6297503E+00  3.9479359E+01
 6.6412501E+00  3.9515903E+01
 6.6527505E+00  3.9574261E+01
 6.6642504E+00  3.9712612E+01
 6.6757503E+00  3.9808487E+01
 6.6872501E+00  3.9855560E+01
 6.6987505E+00  3.9913776E+01
 6.7102504E+00  4.0051811E+01
 6.7217503E+00  4.0196484E+01
 6.7332501E+00  4.0315613E+01
 6.7447505E+00  4.0367458E+01
 6.7562504E+00  4.0411762E+01
 6.7677503E+00  4.0521889E+01
 6.7792501E+00  4.0664688E+01
 6.7907505E+00  4.0882355E+01
 6.8022504E+00  4.1007858E+01
 6.8137503E+00  4.1140659E+01
 6.8252501E+00  4.1263535E+01
 6.8367505E+00  4.1306293E+01
 6.8482504E+00  4.1360512E+01
 6.8597503E+00  4.1396461E+01
 6.8712502E+00  4.1402760E+01
 6.8827505E+00  4.1595421E+01
 6.8942504E+00  4.1738667E+01
 6.9057503E+00  4.2002205E+01
 6.9172502E+00  4.2094456E+01
 6.9287505E+00  4.2062462E+01
 6.9402504E+00  4.2112980E+01
 6.9517503E+00  4.1977795E+01
 6.9632502E+00  4.1977234E+01
 6.9747505E+00  4.1889378E+01
 6.9862504E+00  4.1999886E+01
 6.9977503E+00  4.1961178E+01
 7.0092502E+00  4.2057716E+01
 7.0207505E+00  4.2079689E+01
 7.0322504E+00  4.2236462E+01
 7.0437503E+00  4.2384861E+01
 7.0552502E+00  4.2494926E+01
 7.0667505E+00  4.2608971E+01
 7.0782504E+00  4.2615265E+01
 7.0897503E+00  4.2629108E+01
 7.1012502E+00  4.2604046E+01
 7.1127505E+00  4.2729107E+01
 7.1242504E+00  4.2774647E+01
 7.1357503E+00  4.2928093E+01
 7.1472502E+00  4.3023178E+01
 7.1587505E+00  4.3168533E+01
 7.1702504E+00  4.3324005E+01
 7.1817503E+00  4.3331909E+01
 7.1932502E+00  4.3354656E+01
 7.2047505E+00  4.3392052E+01
 7.2162504E+00  4.3378029E+01
 7.2277503E+00  4.3454739E+01
 7.2392502E+00  4.3495850E+01
 7.2507505E+00  4.3655254E+01
 7.2622504E+00  4.3632664E+01
 7.2737503E+00  4.3614891E+01
 7.2852502E+00  4.3601982E+01
 7.2967505E+00  4.3611019E+01
 7.3082504E+00  4.3567825E+01
 7.3197503E+00  4.3593849E+01
 7.3312502E+00  4.3663929E+01
 7.3427505E+00  4.3816475E+01
 7.3542504E+00  4.3917873E+01
 7.3657503E+00  4.4044434E+01
 7.3772502E+00  4.4059444E+01
 7.3887506E+00  4.4041344E+01
 7.4002504E+00  4.4102085E+01
 7.4117503E+00  4.4210499E+01
 7.4232502E+00  4.4266636E+01
 7.4347506E+00  4.4269119E+01
 7.4462504E+00  4.4278454E+01
 7.4577503E+00  4.4348164E+01
 7.4692502E+00  4.4300976E+01
 7.4807506E+00  4.4331612E+01
 7.4922504E+00  4.4296112E+01
 7.5037503E+00  4.4337990E+01
 7.5152502E+00  4.4299553E+01
 7.5267506E+00  4.4349422E+01
 7.5382504E+00  4.4309406E+01
 7.5497503E+00  4.4351341E+01
 7.5612502E+00  4.4416279E+01
 7.5727506E+00  4.4440434E+01
 7.5842505E+00  4.4492027E+01
 7.5957503E+00  4.4379086E+01
 7.6072502E+00  4.4387897E+01
 7.6187506E+00  4.4372372E+01
 7.6302505E+00  4.4420036E+01
 7.6417503E+00  4.4393909E+01
 7.6532502E+00  4.4383614E+01
 7.6647506E+00  4.4249527E+01
 7.6762505E+00  4.4170540E+01
 7.6877503E+00  4.3995594E+01
 7.6992502E+00  4.4010311E+01
 7.7107506E+00  4.3961727E+01
 7.7222505E+00  4.4034988E+01
 7.7337503E+00  4.3953232E+01
 7.7452502E+00  4.3916981E+01
 7.7567506E+00  4.3854332E+01
 7.7682505E+00  4.3838264E+01
 7.7797503E+00  4.3862358E+01
 7.7912502E+00  4.3877014E+01
 7.8027506E+00  4.3835495E+01
 7.8142505E+00  4.3858276E+01
 7.8257504E+00  4.3797035E+01
 7.8372502E+00  4.3799789E+01
 7.8487506E+00  4.3784172E+01
 7.8602505E+00  4.3785896E+01
 7.8717504E+00  4.3738758E+01
 7.8832502E+00  4.3589298E+01
 7.8947506E+00  4.3520027E+01
 7.9062505E+00  4.3469173E+01
 7.9177504E+00  4.3497292E+01
 7.9292502E+00  4.3376457E+01
 7.9407506E+00  4.3354141E+01
 7.9522505E+00  4.3362213E+01
 7.9637504E+00  4.3413525E+01
 7.9752502E+00  4.3372433E+01
 7.9867506E+00  4.3287071E+01
 7.9982505E+00  4.3231953E+01
 8.0097504E+00  4.3094341E+01
 8.0212507E+00  4.2967648E+01
 8.0327501E+00  4.2841839E+01
 8.0442505E+00  4.2900181E+01
 8.0557508E+00  4.2935055E+01
 8.0672503E+00  4.2886391E+01
 8.0787506E+00  4.2811348E+01
 8.0902500E+00  4.2746964E+01
 8.1017504E+00  4.2663528E+01
 8.1132507E+00  4.2591709E+01
 8.1247501E+00  4.2457596E+01
 8.1362505E+00  4.2405643E+01
 8.1477509E+00  4.2244381E+01
 8.1592503E+00  4.2101650E+01
 8.1707506E+00  4.2059925E+01
 8.1822500E+00  4.1978569E+01
 8.1937504E+00  4.1944729E+01
 8.2052507E+00  4.1719795E+01
 8.2167501E+00  4.1557255E+01
 8.2282505E+00  4.1379925E+01
 8.2397509E+00  4.1176712E+01
 8.2512503E+00  4.1084602E+01
 8.2627506E+00  4.1020481E+01
 8.2742500E+00  4.1004932E+01
 8.2857504E+00  4.0907104E+01
 8.2972507E+00  4.0742146E+01
 8.3087502E+00  4.0616005E+01
 8.3202505E+00  4.0434742E+01
 8.3317509E+00  4.0287655E+01
 8.3432503E+00  4.0133595E+01
 8.3547506E+00  4.0011856E+01
 8.3662500E+00  3.9950504E+01
 8.3777504E+00  3.9818329E+01
 8.3892508E+00  3.9713776E+01
 8.4007502E+00  3.9596638E+01
 8.4122505E+00  3.9479412E+01
 8.4237509E+00  3.9298527E+01
 8.4352503E+00  3.9035568E+01
 8.4467506E+00  3.8749317E+01
 8.4582500E+00  3.8519249E+01
 8.4697504E+00  3.8322094E+01
 8.4812508E+00  3.8211945E+01
 8.4927502E+00  3.8115395E+01
 8.5042505E+00  3.7963108E+01
 8.5157509E+00  3.7822315E+01
 8.5272503E+00  3.7596695E+01
 8.5387506E+00  3.7311752E+01
 8.5502501E+00  3.7002441E+01
 8.5617504E+00  3.6670418E+01
 8.5732508E+00  3.6545883E+01
 8.5847502E+00  3.6338165E+01
 8.5962505E+00  3.6185909E+01
 8.6077509E+00  3.6025555E+01
 8.6192503E+00  3.5933887E+01
 8.6307507E+00  3.5786884E+01
 8.6422501E+00  3.5593876E+01
 8.6537504E+00  3.5369781E+01
 8.6652508E+00  3.5311729E+01
 8.6767502E+00  3.5161301E+01
 8.6882505E+00  3.5062870E+01
 8.6997509E+00  3.4919132E+01
 8.7112503E+00  3.4770157E+01
 8.7227507E+00  3.4566830E+01
 8.7342501E+00  3.4339436E+01
 8.7457504E+00  3.4059780E+01
 8.7572508E+00  3.3883968E+01
 8.7687502E+00  3.3580811E+01
 8.7802505E+00  3.3366199E+01
 8.7917500E+00  3.3143200E+01
 8.8032503E+00  3.2958763E+01
 8.8147507E+00  3.2799397E+01
 8.8262501E+00  3.2653286E+01
 8.8377504E+00  3.2605194E+01
 8.8492508E+00  3.2501537E+01
 8.8607502E+00  3.2400967E+01
 8.8722506E+00  3.2258080E+01
 8.8837500E+00  3.2066113E+01
 8.8952503E+00  3.1908228E+01
 8.9067507E+00  3.1731533E+01
 8.9182501E+00  3.1658484E+01
 8.9297504E+00  3.1566103E+01
 8.9412508E+00  3.1429068E+01
 8.9527502E+00  3.1313021E+01
 8.9642506E+00  3.1197950E+01
 8.9757500E+00  3.1112173E+01
 8.9872503E+00  3.0993818E+01
 8.9987507E+00  3.0802881E+01
 9.0102501E+00  3.0536146E+01
 9.0217505E+00  3.0362808E+01
 9.0332508E+00  3.0247614E+01
 9.0447502E+00  3.0173742E+01
 9.0562506E+00  3.0041603E+01
 9.0677500E+00  2.9926962E+01
 9.0792503E+00  2.9792105E+01
 9.0907507E+00  2.9671871E+01
 9.1022501E+00  2.9518337E+01
 9.1137505E+00  2.9445768E+01
 9.1252508E+00  2.9303934E+01
 9.1367502E+00  2.9205320E+01
 9.1482506E+00  2.9085121E+01
 9.1597500E+00  2.9019728E+01
 9.1712503E+00  2.8871443E+01
 9.1827507E+00  2.8797165E+01
 9.1942501E+00  2.8667749E+01
 9.2057505E+00  2.8576672E+01
 9.2172508E+00  2.8484667E+01
 9.2287502E+00  2.8336174E+01
 9.2402506E+00  2.8205072E+01
 9.2517500E+00  2.8003464E+01
 9.2632504E+00  2.7937714E+01
 9.2747507E+00  2.7815014E+01
 9.2862501E+00  2.7725252E+01
 9.2977505E+00  2.7679003E+01
 9.3092508E+00  2.7635759E+01
 9.3207502E+00  2.7573277E+01
 9.3322506E+00  2.7531496E+01
 9.3437500E+00  2.7400129E+01
 9.3552504E+00  2.7364355E+01
 9.3667507E+00  2.7219923E+01
 9.3782501E+00  2.7235519E+01
 9.3897505E+00  2.7148891E+01
 9.4012508E+00  2.7090462E+01
 9.4127502E+00  2.6923412E+01
 9.4242506E+00  2.6762245E+01
 9.4357500E+00  2.6633924E+01
 9.4472504E+00  2.6531424E+01
 9.4587507E+00  2.6460424E+01
 9.4702501E+00  2.6415005E+01
 9.4817505E+00  2.6409700E+01
 9.4932508E+00  2.6435867E+01
 9.5047503E+00  2.6407631E+01
 9.5162506E+00  2.6411518E+01
 9.5277500E+00  2.6396507E+01
 9.5392504E+00  2.6302555E+01
 9.5507507E+00  2.6176596E+01
 9.5622501E+00  2.5992365E+01
 9.5737505E+00  2.5861170E+01
 9.5852509E+00  2.5791412E+01
 9.5967503E+00  2.5780668E+01
 9.6082506E+00  2.5841635E+01
 9.6197500E+00  2.5844500E+01
 9.6312504E+00  2.5837299E+01
 9.6427507E+00  2.5740568E+01
 9.6542501E+00  2.5656534E+01
 9.6657505E+00  2.5568237E+01
 9.6772509E+00  2.5447702E+01
 9.6887503E+00  2.5335930E+01
 9.7002506E+00  2.5228285E+01
 9.7117500E+00  2.5147654E+01
 9.7232504E+00  2.5156612E+01
 9.7347507E+00  2.5102324E+01
 9.7462502E+00  2.5137445E+01
 9.7577505E+00  2.5055933E+01
 9.7692509E+00  2.5114622E+01
 9.7807503E+00  2.5077896E+01
 9.7922506E+00  2.5025377E+01
 9.8037500E+00  2.4951797E+01
 9.8152504E+00  2.4847239E+01
 9.8267508E+00  2.4823395E+01
 9.8382502E+00  2.4747427E+01
 9.8497505E+00  2.4736532E+01
 9.8612509E+00  2.4715944E+01
 9.8727503E+00  2.4730097E+01
 9.8842506E+00  2.4698063E+01
 9.8957500E+00  2.4637730E+01
 9.9072504E+00  2.4550167E+01
 9.9187508E+00  2.4530081E+01
 9.9302502E+00  2.4532381E+01
 9.9417505E+00  2.4491982E+01
 9.9532509E+00  2.4447662E+01
 9.9647503E+00  2.4410870E+01
 9.9762506E+00  2.4344011E+01
 9.9877501E+00  2.4286573E+01
 9.9992504E+00  2.4241831E+01
 1.0010751E+01  2.4178919E+01
 1.0022250E+01  2.4143873E+01
 1.0033751E+01  2.4095863E+01
 1.0045251E+01  2.4075281E+01
 1.0056750E+01  2.4062239E+01
 1.0068251E+01  2.4024693E+01
 1.0079750E+01  2.4013102E+01
 1.0091250E+01  2.3960579E+01
 1.0102751E+01  2.3881851E+01
 1.0114250E+01  2.3862972E+01
 1.0125751E+01  2.3920107E+01
 1.0137251E+01  2.3946449E+01
 1.0148750E+01  2.3997618E+01
 1.0160251E+01  2.3941458E+01
 1.0171750E+01  2.3928337E+01
 1.0183250E+01  2.3860674E+01
 1.0194751E+01  2.3802349E+01
 1.0206250E+01  2.3727896E+01
 1.0217751E+01  2.3659981E+01
 1.0229251E+01  2.3668188E+01
 1.0240750E+01  2.3652937E+01
 1.0252251E+01  2.3608414E+01
 1.0263750E+01  2.3554024E+01
 1.0275250E+01  2.3532265E+01
 1.0286751E+01  2.3516001E+01
 1.0298250E+01  2.3498541E+01
 1.0309751E+01  2.3477468E+01
 1.0321251E+01  2.3422098E+01
 1.0332750E+01  2.3379728E+01
 1.0344251E+01  2.3384596E+01
 1.0355750E+01  2.3428743E+01
 1.0367250E+01  2.3391649E+01
 1.0378751E+01  2.3390713E+01
 1.0390250E+01  2.3440979E+01
 1.0401751E+01  2.3538921E+01
 1.0413251E+01  2.3552149E+01
 1.0424750E+01  2.3505402E+01
 1.0436251E+01  2.3452133E+01
 1.0447750E+01  2.3389000E+01
 1.0459250E+01  2.3394918E+01
 1.0470751E+01  2.3367783E+01
 1.0482250E+01  2.3371988E+01
 1.0493751E+01  2.3400032E+01
 1.0505251E+01  2.3445930E+01
 1.0516750E+01  2.3437771E+01
 1.0528251E+01  2.3333881E+01
 1.0539750E+01  2.3192387E+01
 1.0551250E+01  2.3120699E+01
 1.0562751E+01  2.3106955E+01
 1.0574250E+01  2.3136620E+01
 1.0585751E+01  2.3158821E+01
 1.0597251E+01  2.3134203E+01
 1.0608750E+01  2.3197035E+01
 1.0620251E+01  2.3155991E+01
 1.0631750E+01  2.3149914E+01
 1.0643250E+01  2.3099075E+01
 1.0654751E+01  2.3167742E+01
 1.0666250E+01  2.3192518E+01
 1.0677751E+01  2.3208736E+01
 1.0689251E+01  2.3189028E+01
 1.0700750E+01  2.3199306E+01
 1.0712251E+01  2.3148024E+01
 1.0723750E+01  2.3069895E+01
 1.0735250E+01  2.2954296E+01
 1.0746751E+01  2.2904057E+01
 1.0758250E+01  2.2856390E+01
 1.0769751E+01  2.2890533E+01
 1.0781251E+01  2.2867481E+01
 1.0792750E+01  2.2865597E+01
 1.0804251E+01  2.2811560E+01
 1.0815750E+01  2.2815325E+01
 1.0827250E+01  2.2831631E+01
 1.0838751E+01  2.2870501E+01
 1.0850250E+01  2.2893177E+01
 1.0861751E+01  2.2848318E+01
 1.0873251E+01  2.2835535E+01
 1.0884750E+01  2.2758741E+01
 1.0896251E+01  2.2781454E+01
 1.0907750E+01  2.2817554E+01
 1.0919250E+01  2.2863930E+01
 1.0930751E+01  2.2885231E+01
 1.0942250E+01  2.2840479E+01
 1.0953751E+01  2.2787291E+01
 1.0965251E+01  2.2704525E+01
 1.0976750E+01  2.2666109E+01
 1.0988251E+01  2.2621122E+01
 1.0999750E+01  2.2647820E+01
 1.1011250E+01  2.2611773E+01
 1.1022751E+01  2.2634613E+01
 1.1034250E+01  2.2608944E+01
 1.1045751E+01  2.2598524E+01
 1.1057251E+01  2.2525032E+01
 1.1068750E+01  2.2543201E+01
 1.1080251E+01  2.2559017E+01
 1.1091750E+01  2.2627226E+01
 1.1103251E+01  2.2639997E+01
 1.1114751E+01  2.2941938E+01
 1.1126250E+01  2.3066269E+01
 1.1137751E+01  2.3042376E+01
 1.1149251E+01  2.2833263E+01
 1.1160750E+01  2.2684971E+01
 1.1172251E+01  2.2645647E+01
 1.1183750E+01  2.2546991E+01
 1.1195251E+01  2.2511847E+01
 1.1206751E+01  2.2452923E+01
 1.1218250E+01  2.2404238E+01
 1.1229751E+01  2.2377764E+01
 1.1241251E+01  2.2381565E+01
 1.1252750E+01  2.2371082E+01
 1.1264251E+01  2.2345039E+01
 1.1275750E+01  2.2322960E+01
 1.1287251E+01  2.2347092E+01
 1.1298751E+01  2.2438004E+01
 1.1310250E+01  2.2552103E+01
 1.1321751E+01  2.2598351E+01
 1.1333251E+01  2.2608524E+01
 1.1344750E+01  2.2586843E+01
 1.1356251E+01  2.2608887E+01
 1.1367750E+01  2.2681330E+01
 1.1379251E+01  2.2743452E+01
 1.1390751E+01  2.2828842E+01
 1.1402250E+01  2.3045555E+01
 1.1413751E+01  2.3120720E+01
 1.1425251E+01  2.3099874E+01
 1.1436750E+01  2.2975952E+01
 1.1448251E+01  2.2896271E+01
 1.1459750E+01  2.2893343E+01
 1.1471251E+01  2.2850569E+01
 1.1482751E+01  2.2873388E+01
 1.1494250E+01  2.2950628E+01
 1.1505751E+01  2.3139847E+01
 1.1517251E+01  2.3418028E+01
 1.1528750E+01  2.4241701E+01
 1.1540251E+01  2.4896374E+01
 1.1551750E+01  2.6660179E+01
 1.1563251E+01  2.7593796E+01
 1.1574751E+01  2.9441462E+01
 1.1586250E+01  2.9826605E+01
 1.1597751E+01  3.0470509E+01
 1.1609251E+01  2.9138603E+01
 1.1620750E+01  2.8143473E+01
 1.1632251E+01  2.6319773E+01
 1.1643750E+01  2.5374645E+01
 1.1655251E+01  2.4262665E+01
 1.1666751E+01  2.3713856E+01
 1.1678250E+01  2.3317064E+01
 1.1689751E+01  2.3020329E+01
 1.1701251E+01  2.2859465E+01
 1.1712750E+01  2.2772249E+01
 1.1724251E+01  2.2692768E+01
 1.1735750E+01  2.2634537E+01
 1.1747251E+01  2.2611761E+01
 1.1758751E+01  2.2555735E+01
 1.1770250E+01  2.2539562E+01
 1.1781751E+01  2.2500006E+01
 1.1793251E+01  2.2512159E+01
 1.1804750E+01  2.2573565E+01
 1.1816251E+01  2.2614277E+01
 1.1827750E+01  2.2657999E+01
 1.1839251E+01  2.2654696E+01
 1.1850751E+01  2.2643068E+01
 1.1862250E+01  2.2635496E+01
 1.1873751E+01  2.2621450E+01
 1.1885251E+01  2.2587477E+01
 1.1896750E+01  2.2595531E+01
 1.1908251E+01  2.2662174E+01
 1.1919750E+01  2.2710289E+01
 1.1931251E+01  2.2977480E+01
 1.1942751E+01  2.3145592E+01
 1.1954250E+01  2.3511501E+01
 1.1965751E+01  2.4105192E+01
 1.1977251E+01  2.4410347E+01
 1.1988750E+01  2.4670828E+01
 1.2000251E+01  2.4567787E+01
 1.2011750E+01  2.4509258E+01
 1.2023251E+01  2.4481520E+01
 1.2034751E+01  2.4197245E+01
 1.2046250E+01  2.4410686E+01
 1.2057751E+01  2.4577366E+01
 1.2069251E+01  2.5269691E+01
 1.2080750E+01  2.5635740E+01
 1.2092251E+01  2.6515545E+01
 1.2103750E+01  2.6292387E+01
 1.2115251E+01  2.6531391E+01
 1.2126751E+01  2.5642857E+01
 1.2138250E+01  2.5278917E+01
 1.2149751E+01  2.4349890E+01
 1.2161251E+01  2.3787388E+01
 1.2172750E+01  2.3333418E+01
 1.2184251E+01  2.3050426E+01
 1.2195750E+01  2.2865940E+01
 1.2207251E+01  2.2791780E+01
 1.2218751E+01  2.2683567E+01
 1.2230250E+01  2.2676434E+01
 1.2241751E+01  2.2634144E+01
 1.2253251E+01  2.2650768E+01
 1.2264750E+01  2.2654169E+01
 1.2276251E+01  2.2624453E+01
 1.2287750E+01  2.2689987E+01
 1.2299251E+01  2.2653349E+01
 1.2310751E+01  2.2715170E+01
 1.2322250E+01  2.2647184E+01
 1.2333751E+01  2.2656870E+01
 1.2345250E+01  2.2644037E+01
 1.2356750E+01  2.2708637E+01
 1.2368251E+01  2.2770290E+01
 1.2379750E+01  2.2754038E+01
 1.2391251E+01  2.2705423E+01
 1.2402751E+01  2.2689985E+01
 1.2414250E+01  2.2710045E+01
 1.2425751E+01  2.2699232E+01
 1.2437250E+01  2.2728102E+01
 1.2448750E+01  2.2723316E+01
 1.2460251E+01  2.2761845E+01
 1.2471750E+01  2.2771791E+01
 1.2483251E+01  2.2801661E+01
 1.2494751E+01  2.2777264E+01
 1.2506250E+01  2.2668644E+01
 1.2517751E+01  2.2598154E+01
 1.2529250E+01  2.2624207E+01
 1.2540751E+01  2.2738111E+01
 1.2552251E+01  2.2865223E+01
 1.2563750E+01  2.2873405E+01
 1.2575251E+01  2.2869322E+01
 1.2586751E+01  2.2871897E+01
 1.2598250E+01  2.2907860E+01
 1.2609751E+01  2.2911602E+01
 1.2621250E+01  2.2896414E+01
 1.2632751E+01  2.2931160E+01
 1.2644251E+01  2.2893698E+01
 1.2655750E+01  2.2881184E+01
 1.2667251E+01  2.2829338E+01
 1.2678751E+01  2.2846762E+01
 1.2690250E+01  2.2819506E+01
 1.2701751E+01  2.2819763E+01
 1.2713250E+01  2.2877377E+01
 1.2724751E+01  2.2889765E+01
 1.2736251E+01  2.2942856E+01
 1.2747750E+01  2.2951715E+01
 1.2759251E+01  2.3045624E+01
 1.2770751E+01  2.3020605E+01
 1.2782250E+01  2.3073324E+01
 1.2793751E+01  2.3048735E+01
 1.2805250E+01  2.3121288E+01
 1.2816751E+01  2.3131622E+01
 1.2828251E+01  2.3202160E+01
 1.2839750E+01  2.3250219E+01
 1.2851251E+01  2.3256609E+01
 1.2862751E+01  2.3303679E+01
 1.2874250E+01  2.3353771E+01
 1.2885751E+01  2.3442461E+01
 1.2897250E+01  2.3445375E+01
 1.2908751E+01  2.3511059E+01
 1.2920251E+01  2.3544041E+01
 1.2931750E+01  2.3656727E+01
 1.2943251E+01  2.3644161E+01
 1.2954751E+01  2.3662813E+01
 1.2966250E+01  2.3754780E+01
 1.2977751E+01  2.3866293E+01
 1.2989250E+01  2.3922588E+01
 1.3000751E+01  2.3879946E+01
 1.3012251E+01  2.3911510E+01
 1.3023750E+01  2.3949224E+01
 1.3035251E+01  2.4038773E+01
 1.3046751E+01  2.4127932E+01
 1.3058250E+01  2.4266546E+01
 1.3069751E+01  2.4330223E+01
 1.3081250E+01  2.4416937E+01
 1.3092751E+01  2.4563015E+01
 1.3104251E+01  2.4769094E+01
 1.3115750E+01  2.4928411E+01
 1.3127251E+01  2.5027700E+01
 1.3138751E+01  2.5063435E+01
 1.3150250E+01  2.5115492E+01
 1.3161751E+01  2.5165993E+01
 1.3173250E+01  2.5264093E+01
 1.3184751E+01  2.5391111E+01
 1.3196251E+01  2.5574417E+01
 1.3207750E+01  2.5768318E+01
 1.3219251E+01  2.5913618E+01
 1.3230751E+01  2.6027264E+01
 1.3242250E+01  2.6129696E+01
 1.3253751E+01  2.6254980E+01
 1.3265250E+01  2.6427670E+01
 1.3276751E+01  2.6638550E+01
 1.3288251E+01  2.6841019E+01
 1.3299750E+01  2.6985237E+01
 1.3311251E+01  2.7093603E+01
 1.3322751E+01  2.7233734E+01
 1.3334250E+01  2.7398190E+01
 1.3345751E+01  2.7521582E+01
 1.3357250E+01  2.7666058E+01
 1.3368751E+01  2.7733994E+01
 1.3380251E+01  2.7911049E+01
 1.3391750E+01  2.8038351E+01
 1.3403251E+01  2.8216082E+01
 1.3414751E+01  2.8298063E+01
 1.3426250E+01  2.8386995E+01
 1.3437751E+01  2.8515734E+01
 1.3449250E+01  2.8580263E+01
 1.3460751E+01  2.8710876E+01
 1.3472251E+01  2.8800100E+01
 1.3483750E+01  2.9020124E+01
 1.3495251E+01  2.9154894E+01
 1.3506751E+01  2.9259346E+01
 1.3518250E+01  2.9282082E+01
 1.3529751E+01  2.9282730E+01
 1.3541250E+01  2.9300182E+01
 1.3552751E+01  2.9406458E+01
 1.3564251E+01  2.9526371E+01
 1.3575750E+01  2.9659224E+01
 1.3587251E+01  2.9740679E+01
 1.3598751E+01  2.9817472E+01
 1.3610250E+01  2.9881372E+01
 1.3621751E+01  2.9879494E+01
 1.3633250E+01  2.9907450E+01
 1.3644751E+01  2.9915001E+01
 1.3656251E+01  2.9934010E+01
 1.3667750E+01  2.9950285E+01
 1.3679251E+01  2.9938910E+01
 1.3690751E+01  2.9911043E+01
 1.3702250E+01  2.9797440E+01
 1.3713751E+01  2.9736380E+01
 1.3725250E+01  2.9632830E+01
 1.3736751E+01  2.9649418E+01
 1.3748251E+01  2.9613420E+01
 1.3759750E+01  2.9677795E+01
 1.3771251E+01  2.9596945E+01
 1.3782751E+01  2.9613045E+01
 1.3794250E+01  2.9568506E+01
 1.3805751E+01  2.9610554E+01
 1.3817250E+01  2.9615961E+01
 1.3828751E+01  2.9676668E+01
 1.3840251E+01  2.9769772E+01
 1.3851750E+01  3.0002829E+01
 1.3863251E+01  3.0436777E+01
 1.3874751E+01  3.0968660E+01
 1.3886250E+01  3.2564194E+01
 1.3897751E+01  3.3969711E+01
 1.3909250E+01  3.7848045E+01
 1.3920751E+01  3.9734699E+01
 1.3932251E+01  4.3833008E+01
 1.3943750E+01  4.3889805E+01
 1.3955251E+01  4.5095318E+01
 1.3966751E+01  4.2554977E+01
 1.3978251E+01  4.1120373E+01
 1.3989751E+01  3.7591663E+01
 1.4001250E+01  3.5518570E+01
 1.4012751E+01  3.2647919E+01
 1.4024251E+01  3.1252884E+01
 1.4035750E+01  2.9901928E+01
 1.4047251E+01  2.9194698E+01
 1.4058751E+01  2.8726023E+01
 1.4070251E+01  2.8389431E+01
 1.4081751E+01  2.8204912E+01
 1.4093250E+01  2.8052004E+01
 1.4104751E+01  2.7991613E+01
 1.4116251E+01  2.7828678E+01
 1.4127750E+01  2.7740749E+01
 1.4139251E+01  2.7512012E+01
 1.4150751E+01  2.7391287E+01
 1.4162251E+01  2.7179710E+01
 1.4173751E+01  2.7104443E+01
 1.4185250E+01  2.7036346E+01
 1.4196751E+01  2.7016079E+01
 1.4208251E+01  2.6990776E+01
 1.4219750E+01  2.6919809E+01
 1.4231251E+01  2.6817945E+01
 1.4242751E+01  2.6715544E+01
 1.4254251E+01  2.6625904E+01
 1.4265751E+01  2.6620188E+01
 1.4277250E+01  2.6497187E+01
 1.4288751E+01  2.6489973E+01
 1.4300251E+01  2.6398722E+01
 1.4311750E+01  2.6383844E+01
 1.4323251E+01  2.6294016E+01
 1.4334751E+01  2.6259817E+01
 1.4346251E+01  2.6238628E+01
 1.4357751E+01  2.6202906E+01
 1.4369250E+01  2.6147461E+01
 1.4380751E+01  2.6133383E+01
 1.4392251E+01  2.6102015E+01
 1.4403750E+01  2.6091400E+01
 1.4415251E+01  2.6009773E+01
 1.4426751E+01  2.5941509E+01
 1.4438251E+01  2.5861553E+01
 1.4449751E+01  2.5784914E+01
 1.4461250E+01  2.5643227E+01
 1.4472751E+01  2.5602354E+01
 1.4484251E+01  2.5612320E+01
 1.4495750E+01  2.5641462E+01
 1.4507251E+01  2.5633783E+01
 1.4518751E+01  2.5593643E+01
 1.4530251E+01  2.5635685E+01
 1.4541751E+01  2.5596268E+01
 1.4553250E+01  2.5652300E+01
 1.4564751E+01  2.5582132E+01
 1.4576251E+01  2.5530342E+01
 1.4587750E+01  2.5414206E+01
 1.4599251E+01  2.5373272E+01
 1.4610751E+01  2.5304266E+01
 1.4622251E+01  2.5297131E+01
 1.4633751E+01  2.5271709E+01
 1.4645250E+01  2.5300844E+01
 1.4656751E+01  2.5268320E+01
 1.4668251E+01  2.5238729E+01
 1.4679750E+01  2.5242239E+01
 1.4691251E+01  2.5256096E+01
 1.4702751E+01  2.5283815E+01
 1.4714251E+01  2.5268137E+01
 1.4725751E+01  2.5191139E+01
 1.4737250E+01  2.5117352E+01
 1.4748751E+01  2.5006245E+01
 1.4760251E+01  2.4944603E+01
 1.4771750E+01  2.4952599E+01
 1.4783251E+01  2.4943716E+01
 1.4794751E+01  2.4973736E+01
 1.4806251E+01  2.4967253E+01
 1.4817751E+01  2.4985043E+01
 1.4829250E+01  2.5028080E+01
 1.4840751E+01  2.5037228E+01
 1.4852251E+01  2.5052540E+01
 1.4863750E+01  2.4970537E+01
 1.4875251E+01  2.4930082E+01
 1.4886751E+01  2.4919296E+01
 1.4898251E+01  2.4931538E+01
 1.4909751E+01  2.4954082E+01
 1.4921250E+01  2.4953014E+01
 1.4932751E+01  2.4973703E+01
 1.4944251E+01  2.4928120E+01
 1.4955750E+01  2.4883615E+01
 1.4967251E+01  2.4800600E+01
 1.4978751E+01  2.4766466E+01
 1.4990251E+01  2.4688225E+01
 1.5001751E+01  2.4668203E+01
 1.5013250E+01  2.4704317E+01
 1.5024751E+01  2.4829967E+01
 1.5036251E+01  2.4911551E+01
 1.5047750E+01  2.4940203E+01
 1.5059251E+01  2.4966982E+01
 1.5070751E+01  2.4985041E+01
 1.5082251E+01  2.5041254E+01
 1.5093751E+01  2.5107800E+01
 1.5105250E+01  2.5226313E+01
 1.5116751E+01  2.5343868E+01
 1.5128251E+01  2.5492380E+01
 1.5139750E+01  2.5816378E+01
 1.5151251E+01  2.6275373E+01
 1.5162751E+01  2.6847593E+01
 1.5174251E+01  2.7602890E+01
 1.5185751E+01  2.8175196E+01
 1.5197250E+01  2.8624626E+01
 1.5208751E+01  2.8687382E+01
 1.5220251E+01  2.8319799E+01
 1.5231750E+01  2.7634212E+01
 1.5243251E+01  2.6780153E+01
 1.5254751E+01  2.6173687E+01
 1.5266251E+01  2.5605463E+01
 1.5277751E+01  2.5325073E+01
 1.5289250E+01  2.5157701E+01
 1.5300751E+01  2.5031677E+01
 1.5312251E+01  2.4973886E+01
 1.5323750E+01  2.4894194E+01
 1.5335251E+01  2.4837200E+01
 1.5346751E+01  2.4725111E+01
 1.5358251E+01  2.4655556E+01
 1.5369751E+01  2.4603050E+01
 1.5381250E+01  2.4574371E+01
 1.5392751E+01  2.4560638E+01
 1.5404251E+01  2.4591570E+01
 1.5415751E+01  2.4550140E+01
 1.5427251E+01  2.4555798E+01
 1.5438751E+01  2.4503344E+01
 1.5450251E+01  2.4497129E+01
 1.5461751E+01  2.4490650E+01
 1.5473250E+01  2.4490421E+01
 1.5484751E+01  2.4510155E+01
 1.5496251E+01  2.4525539E+01
 1.5507751E+01  2.4557032E+01
 1.5519251E+01  2.4557438E+01
 1.5530751E+01  2.4522995E+01
 1.5542251E+01  2.4520578E+01
 1.5553751E+01  2.4493113E+01
 1.5565250E+01  2.4505358E+01
 1.5576751E+01  2.4521179E+01
 1.5588251E+01  2.4548927E+01
 1.5599751E+01  2.4529959E+01
 1.5611251E+01  2.4490051E+01
 1.5622751E+01  2.4487123E+01
 1.5634251E+01  2.4492128E+01
 1.5645751E+01  2.4566208E+01
 1.5657250E+01  2.4618214E+01
 1.5668751E+01  2.4653524E+01
 1.5680251E+01  2.4717371E+01
 1.5691751E+01  2.4770586E+01
 1.5703251E+01  2.4812880E+01
 1.5714751E+01  2.4749815E+01
 1.5726251E+01  2.4724461E+01
 1.5737751E+01  2.4665594E+01
 1.5749250E+01  2.4646832E+01
 1.5760751E+01  2.4615381E+01
 1.5772251E+01  2.4631432E+01
 1.5783751E+01  2.4563112E+01
 1.5795251E+01  2.4561464E+01
 1.5806751E+01  2.4540743E+01
 1.5818251E+01  2.4575581E+01
 1.5829751E+01  2.4562777E+01
 1.5841250E+01  2.4526485E+01
 1.5852751E+01  2.4546106E+01
 1.5864251E+01  2.4512625E+01
 1.5875751E+01  2.4581036E+01
 1.5887251E+01  2.4631138E+01
 1.5898750E+01  2.4719114E+01
 1.5910251E+01  2.4761532E+01
 1.5921751E+01  2.4959360E+01
 1.5933250E+01  2.4938114E+01
 1.5944751E+01  2.4816042E+01
 1.5956251E+01  2.4604105E+01
 1.5967751E+01  2.4584192E+01
 1.5979251E+01  2.4611078E+01
 1.5990750E+01  2.4630484E+01
 1.6002251E+01  2.4680046E+01
 1.6013750E+01  2.4739063E+01
 1.6025251E+01  2.4733288E+01
 1.6036751E+01  2.4716816E+01
 1.6048250E+01  2.4680758E+01
 1.6059752E+01  2.4638790E+01
 1.6071251E+01  2.4556543E+01
 1.6082750E+01  2.4540392E+01
 1.6094252E+01  2.4558683E+01
 1.6105751E+01  2.4646944E+01
 1.6117250E+01  2.4709730E+01
 1.6128750E+01  2.4658396E+01
 1.6140251E+01  2.4609406E+01
 1.6151751E+01  2.4535376E+01
 1.6163250E+01  2.4656937E+01
 1.6174751E+01  2.4678875E+01
 1.6186251E+01  2.4842001E+01
 1.6197750E+01  2.4796227E+01
 1.6209251E+01  2.5033674E+01
 1.6220751E+01  2.5047916E+01
 1.6232250E+01  2.5311882E+01
 1.6243752E+01  2.5414825E+01
 1.6255251E+01  2.5685894E+01
 1.6266750E+01  2.5884094E+01
 1.6278252E+01  2.5778440E+01
 1.6289751E+01  2.5821636E+01
 1.6301250E+01  2.5386154E+01
 1.6312750E+01  2.5416468E+01
 1.6324251E+01  2.5066008E+01
 1.6335751E+01  2.5098522E+01
 1.6347250E+01  2.4893280E+01
 1.6358751E+01  2.4830111E+01
 1.6370251E+01  2.4734467E+01
 1.6381750E+01  2.4763344E+01
 1.6393251E+01  2.4836842E+01
 1.6404751E+01  2.4895990E+01
 1.6416250E+01  2.4918808E+01
 1.6427752E+01  2.4875706E+01
 1.6439251E+01  2.4836298E+01
 1.6450750E+01  2.4728256E+01
 1.6462252E+01  2.4688473E+01
 1.6473751E+01  2.4613396E+01
 1.6485250E+01  2.4676243E+01
 1.6496750E+01  2.4705360E+01
 1.6508251E+01  2.4780714E+01
 1.6519751E+01  2.4736881E+01
 1.6531250E+01  2.4745718E+01
 1.6542751E+01  2.4735016E+01
 1.6554251E+01  2.4707714E+01
 1.6565750E+01  2.4687119E+01
 1.6577251E+01  2.4650169E+01
 1.6588751E+01  2.4658993E+01
 1.6600250E+01  2.4662973E+01
 1.6611752E+01  2.4670473E+01
 1.6623251E+01  2.4583323E+01
 1.6634750E+01  2.4554007E+01
 1.6646252E+01  2.4537943E+01
 1.6657751E+01  2.4566181E+01
 1.6669250E+01  2.4567373E+01
 1.6680750E+01  2.4526613E+01
 1.6692251E+01  2.4550400E+01
 1.6703751E+01  2.4549229E+01
 1.6715250E+01  2.4641335E+01
 1.6726751E+01  2.4640345E+01
 1.6738251E+01  2.4649275E+01
 1.6749750E+01  2.4625183E+01
 1.6761251E+01  2.4599966E+01
 1.6772751E+01  2.4540442E+01
 1.6784250E+01  2.4498878E+01
 1.6795752E+01  2.4415228E+01
 1.6807251E+01  2.4392525E+01
 1.6818750E+01  2.4409391E+01
 1.6830252E+01  2.4471043E+01
 1.6841751E+01  2.4482550E+01
 1.6853251E+01  2.4415564E+01
 1.6864750E+01  2.4393005E+01
 1.6876251E+01  2.4394091E+01
 1.6887751E+01  2.4412191E+01
 1.6899250E+01  2.4401739E+01
 1.6910751E+01  2.4430590E+01
 1.6922251E+01  2.4452263E+01
 1.6933750E+01  2.4430058E+01
 1.6945251E+01  2.4402208E+01
 1.6956751E+01  2.4386948E+01
 1.6968250E+01  2.4359907E+01
 1.6979752E+01  2.4376923E+01
 1.6991251E+01  2.4364773E+01
 1.7002750E+01  2.4312931E+01
 1.7014252E+01  2.4232010E+01
 1.7025751E+01  2.4209183E+01
 1.7037251E+01  2.4224192E+01
 1.7048750E+01  2.4187748E+01
 1.7060251E+01  2.4187365E+01
 1.7071751E+01  2.4236362E+01
 1.7083250E+01  2.4274626E+01
 1.7094751E+01  2.4314192E+01
 1.7106251E+01  2.4246748E+01
 1.7117750E+01  2.4171432E+01
 1.7129251E+01  2.4152805E+01
 1.7140751E+01  2.4144999E+01
 1.7152250E+01  2.4198566E+01
 1.7163752E+01  2.4194735E+01
 1.7175251E+01  2.4222553E+01
 1.7186750E+01  2.4262012E+01
 1.7198252E+01  2.4269127E+01
 1.7209751E+01  2.4232983E+01
 1.7221251E+01  2.4104340E+01
 1.7232750E+01  2.4022076E+01
 1.7244251E+01  2.3956497E+01
 1.7255751E+01  2.3948709E+01
 1.7267250E+01  2.3955191E+01
 1.7278751E+01  2.4018385E+01
 1.7290251E+01  2.4052969E+01
 1.7301750E+01  2.4096678E+01
 1.7313251E+01  2.4066092E+01
 1.7324751E+01  2.4042513E+01
 1.7336250E+01  2.4021893E+01
 1.7347752E+01  2.4041847E+01
 1.7359251E+01  2.4064831E+01
 1.7370750E+01  2.4060331E+01
 1.7382252E+01  2.4082851E+01
 1.7393751E+01  2.4046032E+01
 1.7405251E+01  2.3984081E+01
 1.7416750E+01  2.3931637E+01
 1.7428251E+01  2.3929701E+01
 1.7439751E+01  2.3939180E+01
 1.7451250E+01  2.3895855E+01
 1.7462751E+01  2.3881021E+01
 1.7474251E+01  2.3902466E+01
 1.7485750E+01  2.3942207E+01
 1.7497252E+01  2.3905163E+01
 1.7508751E+01  2.3893419E+01
 1.7520250E+01  2.3906828E+01
 1.7531752E+01  2.3916876E+01
 1.7543251E+01  2.3915756E+01
 1.7554750E+01  2.3870079E+01
 1.7566252E+01  2.3842581E+01
 1.7577751E+01  2.3794760E+01
 1.7589251E+01  2.3796825E+01
 1.7600750E+01  2.3834721E+01
 1.7612251E+01  2.3863708E+01
 1.7623751E+01  2.3878984E+01
 1.7635250E+01  2.3845306E+01
 1.7646751E+01  2.3831738E+01
 1.7658251E+01  2.3840214E+01
 1.7669750E+01  2.3879421E+01
 1.7681252E+01  2.3897408E+01
 1.7692751E+01  2.3867384E+01
 1.7704250E+01  2.3869396E+01
 1.7715752E+01  2.3856142E+01
 1.7727251E+01  2.3865746E+01
 1.7738750E+01  2.3828800E+01
 1.7750252E+01  2.3815289E+01
 1.7761751E+01  2.3817867E+01
 1.7773251E+01  2.3774456E+01
 1.7784750E+01  2.3706348E+01
 1.7796251E+01  2.3679731E+01
 1.7807751E+01  2.3683878E+01
 1.7819250E+01  2.3738335E+01
 1.7830751E+01  2.3751125E+01
 1.7842251E+01  2.3798653E+01
 1.7853750E+01  2.3818300E+01
 1.7865252E+01  2.3765612E+01
 1.7876751E+01  2.3779814E+01
 1.7888250E+01  2.3797592E+01
 1.7899752E+01  2.3867992E+01
 1.7911251E+01  2.3890236E+01
 1.7922750E+01  2.3875763E+01
 1.7934252E+01  2.3820833E+01
 1.7945751E+01  2.3772587E+01
 1.7957251E+01  2.3760214E+01
 1.7968750E+01  2.3767353E+01
 1.7980251E+01  2.3824459E+01
 1.7991751E+01  2.3952805E+01
 1.8003250E+01  2.4079552E+01
 1.8014751E+01  2.4160044E+01
 1.8026251E+01  2.4237581E+01
 1.8037750E+01  2.4360369E+01
 1.8049252E+01  2.4492970E+01
 1.8060751E+01  2.4672363E+01
 1.8072250E+01  2.4807432E+01
 1.8083752E+01  2.5052179E+01
 1.8095251E+01  2.5180292E+01
 1.8106750E+01  2.5253225E+01
 1.8118252E+01  2.5154251E+01
 1.8129751E+01  2.5015169E+01
 1.8141251E+01  2.4739960E+01
 1.8152750E+01  2.4463497E+01
 1.8164251E+01  2.4249910E+01
 1.8175751E+01  2.4114073E+01
 1.8187250E+01  2.3981586E+01
 1.8198751E+01  2.3924374E+01
 1.8210251E+01  2.3906582E+01
 1.8221750E+01  2.3884396E+01
 1.8233252E+01  2.3823179E+01
 1.8244751E+01  2.3790634E+01
 1.8256250E+01  2.3731096E+01
 1.8267752E+01  2.3703604E+01
 1.8279251E+01  2.3686663E+01
 1.8290751E+01  2.3726381E+01
 1.8302252E+01  2.3736927E+01
 1.8313751E+01  2.3673185E+01
 1.8325251E+01  2.3603945E+01
 1.8336750E+01  2.3543186E+01
 1.8348251E+01  2.3585293E+01
 1.8359751E+01  2.3620106E+01
 1.8371250E+01  2.3641027E+01
 1.8382751E+01  2.3643757E+01
 1.8394251E+01  2.3685396E+01
 1.8405750E+01  2.3725710E+01
 1.8417252E+01  2.3712496E+01
 1.8428751E+01  2.3660507E+01
 1.8440250E+01  2.3592859E+01
 1.8451752E+01  2.3574369E+01
 1.8463251E+01  2.3601717E+01
 1.8474751E+01  2.3631102E+01
 1.8486252E+01  2.3642551E+01
 1.8497751E+01  2.3653440E+01
 1.8509251E+01  2.3661825E+01
 1.8520750E+01  2.3649281E+01
 1.8532251E+01  2.3612663E+01
 1.8543751E+01  2.3544683E+01
 1.8555250E+01  2.3552170E+01
 1.8566751E+01  2.3537472E+01
 1.8578251E+01  2.3561304E+01
 1.8589750E+01  2.3585106E+01
 1.8601252E+01  2.3608484E+01
 1.8612751E+01  2.3598421E+01
 1.8624250E+01  2.3515755E+01
 1.8635752E+01  2.3549995E+01
 1.8647251E+01  2.3501392E+01
 1.8658751E+01  2.3525461E+01
 1.8670252E+01  2.3539507E+01
 1.8681751E+01  2.3627413E+01
 1.8693251E+01  2.3665766E+01
 1.8704750E+01  2.3670235E+01
 1.8716251E+01  2.3633013E+01
 1.8727751E+01  2.3637392E+01
 1.8739250E+01  2.3609911E+01
 1.8750751E+01  2.3581341E+01
 1.8762251E+01  2.3560522E+01
 1.8773750E+01  2.3579399E+01
 1.8785252E+01  2.3613653E+01
 1.8796751E+01  2.3610353E+01
 1.8808250E+01  2.3566519E+01
 1.8819752E+01  2.3550367E+01
 1.8831251E+01  2.3502136E+01
 1.8842751E+01  2.3531868E+01
 1.8854252E+01  2.3501463E+01
 1.8865751E+01  2.3512999E+01
 1.8877251E+01  2.3500639E+01
 1.8888750E+01  2.3529757E+01
 1.8900251E+01  2.3590195E+01
 1.8911751E+01  2.3626266E+01
 1.8923250E+01  2.3679873E+01
 1.8934752E+01  2.3709431E+01
 1.8946251E+01  2.3730955E+01
 1.8957750E+01  2.3716305E+01
 1.8969252E+01  2.3628521E+01
 1.8980751E+01  2.3578753E+01
 1.8992250E+01  2.3523184E+01
 1.9003752E+01  2.3535297E+01
 1.9015251E+01  2.3540266E+01
 1.9026751E+01  2.3538822E+01
 1.9038252E+01  2.3569092E+01
 1.9049751E+01  2.3594021E+01
 1.9061251E+01  2.3577423E+01
 1.9072750E+01  2.3570070E+01
 1.9084251E+01  2.3549524E+01
 1.9095751E+01  2.3567165E+01
 1.9107250E+01  2.3522913E+01
 1.9118752E+01  2.3482615E+01
 1.9130251E+01  2.3461489E+01
 1.9141750E+01  2.3465630E+01
 1.9153252E+01  2.3471561E+01
 1.9164751E+01  2.3490944E+01
 1.9176250E+01  2.3475466E+01
 1.9187752E+01  2.3514448E+01
 1.9199251E+01  2.3529610E+01
 1.9210751E+01  2.3542213E+01
 1.9222252E+01  2.3538729E+01
 1.9233751E+01  2.3516163E+01
 1.9245251E+01  2.3521135E+01
 1.9256750E+01  2.3530508E+01
 1.9268251E+01  2.3563549E+01
 1.9279751E+01  2.3563200E+01
 1.9291250E+01  2.3584185E+01
 1.9302752E+01  2.3636557E+01
 1.9314251E+01  2.3634441E+01
 1.9325750E+01  2.3639374E+01
 1.9337252E+01  2.3613617E+01
 1.9348751E+01  2.3558359E+01
 1.9360250E+01  2.3549753E+01
 1.9371752E+01  2.3619476E+01
 1.9383251E+01  2.3674509E+01
 1.9394751E+01  2.3732641E+01
 1.9406250E+01  2.3748505E+01
 1.9417751E+01  2.3793709E+01
 1.9429251E+01  2.3817104E+01
 1.9440750E+01  2.3829559E+01
 1.9452251E+01  2.3849621E+01
 1.9463751E+01  2.3815363E+01
 1.9475250E+01  2.3806765E+01
 1.9486752E+01  2.3795244E+01
 1.9498251E+01  2.3830168E+01
 1.9509750E+01  2.3838320E+01
 1.9521252E+01  2.3878941E+01
 1.9532751E+01  2.3869175E+01
 1.9544250E+01  2.3881001E+01
 1.9555752E+01  2.3911411E+01
 1.9567251E+01  2.3998684E+01
 1.9578751E+01  2.4055210E+01
 1.9590250E+01  2.4117039E+01
 1.9601751E+01  2.4238232E+01
 1.9613251E+01  2.4440344E+01
 1.9624750E+01  2.4642159E+01
 1.9636251E+01  2.5046211E+01
 1.9647751E+01  2.5391140E+01
 1.9659250E+01  2.6188375E+01
 1.9670752E+01  2.7349464E+01
 1.9682251E+01  2.8431889E+01
 1.9693750E+01  2.9548513E+01
 1.9705252E+01  2.9702129E+01
 1.9716751E+01  2.9644236E+01
 1.9728251E+01  2.8608795E+01
 1.9739752E+01  2.7697525E+01
 1.9751251E+01  2.6689783E+01
 1.9762751E+01  2.5983408E+01
 1.9774250E+01  2.5584112E+01
 1.9785751E+01  2.5357128E+01
 1.9797251E+01  2.5358854E+01
 1.9808750E+01  2.5499428E+01
 1.9820251E+01  2.5812958E+01
 1.9831751E+01  2.6472139E+01
 1.9843250E+01  2.6969378E+01
 1.9854752E+01  2.7913618E+01
 1.9866251E+01  2.8200745E+01
 1.9877750E+01  2.8835917E+01
 1.9889252E+01  2.8239716E+01
 1.9900751E+01  2.7866190E+01
 1.9912251E+01  2.6788374E+01
 1.9923752E+01  2.5848925E+01
 1.9935251E+01  2.5130928E+01
 1.9946751E+01  2.4554104E+01
 1.9958250E+01  2.4357822E+01
 1.9969751E+01  2.4212292E+01
 1.9981251E+01  2.4122532E+01
 1.9992750E+01  2.4035227E+01
 2.0004251E+01  2.3953053E+01
 2.0015751E+01  2.3909264E+01
 2.0027250E+01  2.3872955E+01
 2.0038752E+01  2.3889896E+01
 2.0050251E+01  2.3889372E+01
 2.0061750E+01  2.3861101E+01
 2.0073252E+01  2.3823633E+01
 2.0084751E+01  2.3829727E+01
 2.0096251E+01  2.3861790E+01
 2.0107752E+01  2.3843092E+01
 2.0119251E+01  2.3862423E+01
 2.0130751E+01  2.3832457E+01
 2.0142250E+01  2.3822361E+01
 2.0153751E+01  2.3790010E+01
 2.0165251E+01  2.3791859E+01
 2.0176750E+01  2.3802940E+01
 2.0188251E+01  2.3798389E+01
 2.0199751E+01  2.3772123E+01
 2.0211250E+01  2.3795151E+01
 2.0222752E+01  2.3800358E+01
 2.0234251E+01  2.3794024E+01
 2.0245750E+01  2.3784668E+01
 2.0257252E+01  2.3758995E+01
 2.0268751E+01  2.3723877E+01
 2.0280251E+01  2.3706175E+01
 2.0291752E+01  2.3729549E+01
 2.0303251E+01  2.3712555E+01
 2.0314751E+01  2.3697321E+01
 2.0326250E+01  2.3670223E+01
 2.0337751E+01  2.3714231E+01
 2.0349251E+01  2.3754461E+01
 2.0360750E+01  2.3817663E+01
 2.0372252E+01  2.3801226E+01
 2.0383751E+01  2.3773119E+01
 2.0395250E+01  2.3753469E+01
 2.0406752E+01  2.3751389E+01
 2.0418251E+01  2.3786825E+01
 2.0429750E+01  2.3844543E+01
 2.0441252E+01  2.3904909E+01
 2.0452751E+01  2.3902334E+01
 2.0464251E+01  2.3893259E+01
 2.0475752E+01  2.3932426E+01
 2.0487251E+01  2.3984209E+01
 2.0498751E+01  2.4025536E+01
 2.0510250E+01  2.3962364E+01
 2.0521751E+01  2.3884787E+01
 2.0533251E+01  2.3797415E+01
 2.0544750E+01  2.3805292E+01
 2.0556252E+01  2.3880018E+01
 2.0567751E+01  2.3911667E+01
 2.0579250E+01  2.3891193E+01
 2.0590752E+01  2.3909254E+01
 2.0602251E+01  2.3981298E+01
 2.0613750E+01  2.4029974E+01
 2.0625252E+01  2.4082455E+01
 2.0636751E+01  2.4140245E+01
 2.0648251E+01  2.4172575E+01
 2.0659752E+01  2.4242928E+01
 2.0671251E+01  2.4348431E+01
 2.0682751E+01  2.4618999E+01
 2.0694250E+01  2.4978464E+01
 2.0705751E+01  2.5483267E+01
 2.0717251E+01  2.6555698E+01
 2.0728750E+01  2.7278828E+01
 2.0740252E+01  2.8024073E+01
 2.0751751E+01  2.8052013E+01
 2.0763250E+01  2.8217514E+01
 2.0774752E+01  2.7663557E+01
 2.0786251E+01  2.7092945E+01
 2.0797750E+01  2.6509495E+01
 2.0809252E+01  2.5864239E+01
 2.0820751E+01  2.5386030E+01
 2.0832251E+01  2.4929646E+01
 2.0843752E+01  2.4654818E+01
 2.0855251E+01  2.4411638E+01
 2.0866751E+01  2.4255278E+01
 2.0878250E+01  2.4191240E+01
 2.0889751E+01  2.4190117E+01
 2.0901251E+01  2.4231565E+01
 2.0912750E+01  2.4207916E+01
 2.0924252E+01  2.4214375E+01
 2.0935751E+01  2.4180037E+01
 2.0947250E+01  2.4144173E+01
 2.0958752E+01  2.4040291E+01
 2.0970251E+01  2.4019587E+01
 2.0981750E+01  2.4021713E+01
 2.0993252E+01  2.4040634E+01
 2.1004751E+01  2.4049940E+01
 2.1016251E+01  2.4023340E+01
 2.1027752E+01  2.4000069E+01
 2.1039251E+01  2.3958025E+01
 2.1050751E+01  2.3953699E+01
 2.1062250E+01  2.3990572E+01
 2.1073751E+01  2.4044447E+01
 2.1085251E+01  2.4057096E+01
 2.1096750E+01  2.4010944E+01
 2.1108252E+01  2.4006338E+01
 2.1119751E+01  2.4020884E+01
 2.1131250E+01  2.4025963E+01
 2.1142752E+01  2.4009453E+01
 2.1154251E+01  2.3944561E+01
 2.1165751E+01  2.3914400E+01
 2.1177252E+01  2.3903395E+01
 2.1188751E+01  2.3901014E+01
 2.1200251E+01  2.3897799E+01
 2.1211752E+01  2.3879732E+01
 2.1223251E+01  2.3880835E+01
 2.1234751E+01  2.3873903E+01
 2.1246250E+01  2.3950895E+01
 2.1257751E+01  2.4011387E+01
 2.1269251E+01  2.4015856E+01
 2.1280750E+01  2.3959808E+01
 2.1292252E+01  2.3939945E+01
 2.1303751E+01  2.3912706E+01
 2.1315250E+01  2.3893803E+01
 2.1326752E+01  2.3870998E+01
 2.1338251E+01  2.3890539E+01
 2.1349751E+01  2.3932835E+01
 2.1361252E+01  2.3959581E+01
 2.1372751E+01  2.3990412E+01
 2.1384251E+01  2.3943321E+01
 2.1395752E+01  2.3950178E+01
 2.1407251E+01  2.3919405E+01
 2.1418751E+01  2.3932936E+01
 2.1430250E+01  2.3942287E+01
 2.1441751E+01  2.3951775E+01
 2.1453251E+01  2.3979891E+01
 2.1464750E+01  2.3979485E+01
 2.1476252E+01  2.3974913E+01
 2.1487751E+01  2.4010921E+01
 2.1499250E+01  2.4018661E+01
 2.1510752E+01  2.4031332E+01
 2.1522251E+01  2.4030069E+01
 2.1533751E+01  2.4066505E+01
 2.1545252E+01  2.4084181E+01
 2.1556751E+01  2.4051758E+01
 2.1568251E+01  2.4038830E+01
 2.1579752E+01  2.4054268E+01
 2.1591251E+01  2.4059971E+01
 2.1602751E+01  2.4056999E+01
 2.1614250E+01  2.4043093E+01
 2.1625751E+01  2.4053923E+01
 2.1637251E+01  2.4080833E+01
 2.1648750E+01  2.4102381E+01
 2.1660252E+01  2.4137451E+01
 2.1671751E+01  2.4186443E+01
 2.1683250E+01  2.4215540E+01
 2.1694752E+01  2.4205080E+01
 2.1706251E+01  2.4189865E+01
 2.1717751E+01  2.4152702E+01
 2.1729252E+01  2.4089764E+01
 2.1740751E+01  2.4078751E+01
 2.1752251E+01  2.4079479E+01
 2.1763752E+01  2.4116060E+01
 2.1775251E+01  2.4141932E+01
 2.1786751E+01  2.4217171E+01
 2.1798250E+01  2.4222340E+01
 2.1809752E+01  2.4252760E+01
 2.1821251E+01  2.4275129E+01
 2.1832750E+01  2.4249302E+01
 2.1844252E+01  2.4206310E+01
 2.1855751E+01  2.4173983E+01
 2.1867250E+01  2.4176474E+01
 2.1878752E+01  2.4192780E+01
 2.1890251E+01  2.4203547E+01
 2.1901751E+01  2.4267666E+01
 2.1913252E+01  2.4257677E+01
 2.1924751E+01  2.4249868E+01
 2.1936251E+01  2.4222925E+01
 2.1947752E+01  2.4238169E+01
 2.1959251E+01  2.4261078E+01
 2.1970751E+01  2.4247843E+01
 2.1982250E+01  2.4248077E+01
 2.1993752E+01  2.4231838E+01
 2.2005251E+01  2.4205347E+01
 2.2016750E+01  2.4172899E+01
 2.2028252E+01  2.4189966E+01
 2.2039751E+01  2.4209311E+01
 2.2051250E+01  2.4272488E+01
 2.2062752E+01  2.4259050E+01
 2.2074251E+01  2.4236584E+01
 2.2085751E+01  2.4248728E+01
 2.2097252E+01  2.4266455E+01
 2.2108751E+01  2.4312449E+01
 2.2120251E+01  2.4349865E+01
 2.2131752E+01  2.4343184E+01
 2.2143251E+01  2.4341295E+01
 2.2154751E+01  2.4290222E+01
 2.2166250E+01  2.4316578E+01
 2.2177752E+01  2.4311445E+01
 2.2189251E+01  2.4325857E+01
 2.2200750E+01  2.4304596E+01
 2.2212252E+01  2.4333563E+01
 2.2223751E+01  2.4381102E+01
 2.2235250E+01  2.4449123E+01
 2.2246752E+01  2.4448645E+01
 2.2258251E+01  2.4415876E+01
 2.2269751E+01  2.4410967E+01
 2.2281252E+01  2.4417021E+01
 2.2292751E+01  2.4468256E+01
 2.2304251E+01  2.4496773E+01
 2.2315752E+01  2.4558199E+01
 2.2327251E+01  2.4568495E+01
 2.2338751E+01  2.4590082E+01
 2.2350250E+01  2.4589773E+01
 2.2361752E+01  2.4574183E+01
 2.2373251E+01  2.4570929E+01
 2.2384750E+01  2.4549011E+01
 2.2396252E+01  2.4572189E+01
 2.2407751E+01  2.4570219E+01
 2.2419250E+01  2.4597904E+01
 2.2430752E+01  2.4647335E+01
 2.2442251E+01  2.4662220E+01
 2.2453751E+01  2.4667370E+01
 2.2465252E+01  2.4680342E+01
 2.2476751E+01  2.4676380E+01
 2.2488251E+01  2.4694162E+01
 2.2499752E+01  2.4730648E+01
 2.2511251E+01  2.4808382E+01
 2.2522751E+01  2.4920330E+01
 2.2534250E+01  2.5005785E+01
 2.2545752E+01  2.5101727E+01
 2.2557251E+01  2.5140160E+01
 2.2568750E+01  2.5140657E+01
 2.2580252E+01  2.5051996E+01
 2.2591751E+01  2.4945875E+01
 2.2603251E+01  2.4946444E+01
 2.2614752E+01  2.4978636E+01
 2.2626251E+01  2.4997232E+01
 2.2637751E+01  2.4956734E+01
 2.2649252E+01  2.4916418E+01
 2.2660751E+01  2.4941124E+01
 2.2672251E+01  2.4996675E+01
 2.2683752E+01  2.5031240E+01
 2.2695251E+01  2.5095171E+01
 2.2706751E+01  2.5105740E+01
 2.2718250E+01  2.5123369E+01
 2.2729752E+01  2.5111448E+01
 2.2741251E+01  2.5131012E+01
 2.2752750E+01  2.5194132E+01
 2.2764252E+01  2.5257620E+01
 2.2775751E+01  2.5291889E+01
 2.2787251E+01  2.5258478E+01
 2.2798752E+01  2.5331751E+01
 2.2810251E+01  2.5431154E+01
 2.2821751E+01  2.5503824E+01
 2.2833252E+01  2.5558239E+01
 2.2844751E+01  2.5588461E+01
 2.2856251E+01  2.5584394E+01
 2.2867750E+01  2.5593166E+01
 2.2879251E+01  2.5667177E+01
 2.2890751E+01  2.5790691E+01
 2.2902250E+01  2.5875996E+01
 2.2913752E+01  2.6008368E+01
 2.2925251E+01  2.6135311E+01
 2.2936750E+01  2.6236126E+01
 2.2948252E+01  2.6315058E+01
 2.2959751E+01  2.6367802E+01
 2.2971251E+01  2.6530745E+01
 2.2982752E+01  2.6673878E+01
 2.2994251E+01  2.6807070E+01
