F:\20151113_APS_34IDE\\Brian\Particle1\OCV\Data_0041.tif
2-Theta Angle (Degrees)
Intensity
       2000
 5.7500005E-03  0.0000000E+00
 1.7250001E-02  0.0000000E+00
 2.8750001E-02  0.0000000E+00
 4.0250003E-02  0.0000000E+00
 5.1750004E-02  0.0000000E+00
 6.3250005E-02  0.0000000E+00
 7.4750006E-02  0.0000000E+00
 8.6250007E-02  0.0000000E+00
 9.7750008E-02  0.0000000E+00
 1.0925001E-01  0.0000000E+00
 1.2075000E-01  0.0000000E+00
 1.3225001E-01  0.0000000E+00
 1.4375001E-01  0.0000000E+00
 1.5525001E-01  0.0000000E+00
 1.6675001E-01  0.0000000E+00
 1.7825001E-01  0.0000000E+00
 1.8975002E-01  0.0000000E+00
 2.0125002E-01  0.0000000E+00
 2.1275002E-01  0.0000000E+00
 2.2425000E-01  0.0000000E+00
 2.3575000E-01  0.0000000E+00
 2.4725001E-01  0.0000000E+00
 2.5875002E-01  0.0000000E+00
 2.7025002E-01  0.0000000E+00
 2.8175002E-01  0.0000000E+00
 2.9325002E-01  0.0000000E+00
 3.0475003E-01  0.0000000E+00
 3.1625003E-01  0.0000000E+00
 3.2775003E-01  0.0000000E+00
 3.3925003E-01  0.0000000E+00
 3.5075003E-01  0.0000000E+00
 3.6225003E-01  0.0000000E+00
 3.7375003E-01  0.0000000E+00
 3.8525003E-01  0.0000000E+00
 3.9675003E-01  0.0000000E+00
 4.0825003E-01  0.0000000E+00
 4.1975003E-01  0.0000000E+00
 4.3125004E-01  0.0000000E+00
 4.4275001E-01  0.0000000E+00
 4.5425001E-01  0.0000000E+00
 4.6575001E-01  0.0000000E+00
 4.7725001E-01  0.0000000E+00
 4.8875001E-01  0.0000000E+00
 5.0025004E-01  0.0000000E+00
 5.1175004E-01  0.0000000E+00
 5.2325004E-01  0.0000000E+00
 5.3475004E-01  0.0000000E+00
 5.4625005E-01  0.0000000E+00
 5.5775005E-01  0.0000000E+00
 5.6925005E-01  0.0000000E+00
 5.8075005E-01  0.0000000E+00
 5.9225005E-01  0.0000000E+00
 6.0375005E-01  0.0000000E+00
 6.1525005E-01  0.0000000E+00
 6.2675005E-01  0.0000000E+00
 6.3825005E-01  0.0000000E+00
 6.4975005E-01  0.0000000E+00
 6.6125005E-01  0.0000000E+00
 6.7275006E-01  0.0000000E+00
 6.8425006E-01  0.0000000E+00
 6.9575006E-01  0.0000000E+00
 7.0725006E-01  0.0000000E+00
 7.1875006E-01  0.0000000E+00
 7.3025006E-01  0.0000000E+00
 7.4175006E-01  0.0000000E+00
 7.5325006E-01  0.0000000E+00
 7.6475006E-01  0.0000000E+00
 7.7625006E-01  0.0000000E+00
 7.8775007E-01  0.0000000E+00
 7.9925007E-01  0.0000000E+00
 8.1075007E-01  0.0000000E+00
 8.2225007E-01  0.0000000E+00
 8.3375007E-01  0.0000000E+00
 8.4525007E-01  0.0000000E+00
 8.5675007E-01  0.0000000E+00
 8.6825007E-01  0.0000000E+00
 8.7975001E-01  0.0000000E+00
 8.9125001E-01  0.0000000E+00
 9.0275002E-01  0.0000000E+00
 9.1425002E-01  0.0000000E+00
 9.2575002E-01  0.0000000E+00
 9.3725002E-01  0.0000000E+00
 9.4875002E-01  0.0000000E+00
 9.6025002E-01  0.0000000E+00
 9.7175002E-01  0.0000000E+00
 9.8325002E-01  0.0000000E+00
 9.9475002E-01  0.0000000E+00
 1.0062500E+00  0.0000000E+00
 1.0177500E+00  0.0000000E+00
 1.0292500E+00  0.0000000E+00
 1.0407500E+00  0.0000000E+00
 1.0522500E+00  0.0000000E+00
 1.0637500E+00  0.0000000E+00
 1.0752500E+00  0.0000000E+00
 1.0867500E+00  0.0000000E+00
 1.0982500E+00  0.0000000E+00
 1.1097500E+00  0.0000000E+00
 1.1212500E+00  0.0000000E+00
 1.1327500E+00  0.0000000E+00
 1.1442500E+00  0.0000000E+00
 1.1557500E+00  0.0000000E+00
 1.1672500E+00  0.0000000E+00
 1.1787500E+00  0.0000000E+00
 1.1902500E+00  0.0000000E+00
 1.2017500E+00  0.0000000E+00
 1.2132500E+00  0.0000000E+00
 1.2247500E+00  0.0000000E+00
 1.2362500E+00  0.0000000E+00
 1.2477500E+00  0.0000000E+00
 1.2592500E+00  0.0000000E+00
 1.2707500E+00  0.0000000E+00
 1.2822500E+00  0.0000000E+00
 1.2937500E+00  0.0000000E+00
 1.3052500E+00  0.0000000E+00
 1.3167500E+00  0.0000000E+00
 1.3282501E+00  0.0000000E+00
 1.3397501E+00  0.0000000E+00
 1.3512501E+00  0.0000000E+00
 1.3627501E+00  0.0000000E+00
 1.3742501E+00  0.0000000E+00
 1.3857501E+00  0.0000000E+00
 1.3972501E+00  0.0000000E+00
 1.4087501E+00  0.0000000E+00
 1.4202501E+00  0.0000000E+00
 1.4317501E+00  0.0000000E+00
 1.4432501E+00  0.0000000E+00
 1.4547501E+00  0.0000000E+00
 1.4662501E+00  0.0000000E+00
 1.4777501E+00  0.0000000E+00
 1.4892501E+00  0.0000000E+00
 1.5007501E+00  0.0000000E+00
 1.5122501E+00  0.0000000E+00
 1.5237501E+00  0.0000000E+00
 1.5352501E+00  0.0000000E+00
 1.5467501E+00  0.0000000E+00
 1.5582501E+00  0.0000000E+00
 1.5697501E+00  0.0000000E+00
 1.5812501E+00  0.0000000E+00
 1.5927501E+00  0.0000000E+00
 1.6042501E+00  0.0000000E+00
 1.6157501E+00  0.0000000E+00
 1.6272501E+00  0.0000000E+00
 1.6387501E+00  0.0000000E+00
 1.6502501E+00  0.0000000E+00
 1.6617501E+00  0.0000000E+00
 1.6732501E+00  0.0000000E+00
 1.6847501E+00  0.0000000E+00
 1.6962501E+00  0.0000000E+00
 1.7077501E+00  0.0000000E+00
 1.7192501E+00  0.0000000E+00
 1.7307501E+00  0.0000000E+00
 1.7422501E+00  0.0000000E+00
 1.7537501E+00  0.0000000E+00
 1.7652501E+00  0.0000000E+00
 1.7767501E+00  0.0000000E+00
 1.7882501E+00  0.0000000E+00
 1.7997501E+00  0.0000000E+00
 1.8112501E+00  0.0000000E+00
 1.8227501E+00  0.0000000E+00
 1.8342501E+00  0.0000000E+00
 1.8457501E+00  0.0000000E+00
 1.8572501E+00  0.0000000E+00
 1.8687501E+00  0.0000000E+00
 1.8802501E+00  0.0000000E+00
 1.8917501E+00  0.0000000E+00
 1.9032501E+00  0.0000000E+00
 1.9147501E+00  0.0000000E+00
 1.9262501E+00  0.0000000E+00
 1.9377501E+00  0.0000000E+00
 1.9492501E+00  0.0000000E+00
 1.9607501E+00  0.0000000E+00
 1.9722501E+00  0.0000000E+00
 1.9837501E+00  0.0000000E+00
 1.9952501E+00  0.0000000E+00
 2.0067501E+00  0.0000000E+00
 2.0182500E+00  0.0000000E+00
 2.0297501E+00  0.0000000E+00
 2.0412500E+00  0.0000000E+00
 2.0527501E+00  0.0000000E+00
 2.0642500E+00  0.0000000E+00
 2.0757501E+00  0.0000000E+00
 2.0872500E+00  0.0000000E+00
 2.0987501E+00  0.0000000E+00
 2.1102500E+00  0.0000000E+00
 2.1217501E+00  0.0000000E+00
 2.1332500E+00  0.0000000E+00
 2.1447501E+00  0.0000000E+00
 2.1562500E+00  0.0000000E+00
 2.1677501E+00  0.0000000E+00
 2.1792500E+00  0.0000000E+00
 2.1907501E+00  0.0000000E+00
 2.2022500E+00  0.0000000E+00
 2.2137501E+00  0.0000000E+00
 2.2252500E+00  0.0000000E+00
 2.2367501E+00  0.0000000E+00
 2.2482500E+00  0.0000000E+00
 2.2597501E+00  0.0000000E+00
 2.2712500E+00  0.0000000E+00
 2.2827501E+00  0.0000000E+00
 2.2942500E+00  0.0000000E+00
 2.3057501E+00  0.0000000E+00
 2.3172500E+00  0.0000000E+00
 2.3287501E+00  0.0000000E+00
 2.3402500E+00  0.0000000E+00
 2.3517501E+00  0.0000000E+00
 2.3632500E+00  0.0000000E+00
 2.3747501E+00  0.0000000E+00
 2.3862500E+00  0.0000000E+00
 2.3977501E+00  0.0000000E+00
 2.4092500E+00  0.0000000E+00
 2.4207501E+00  0.0000000E+00
 2.4322500E+00  0.0000000E+00
 2.4437501E+00  0.0000000E+00
 2.4552500E+00  0.0000000E+00
 2.4667501E+00  0.0000000E+00
 2.4782500E+00  0.0000000E+00
 2.4897501E+00  0.0000000E+00
 2.5012500E+00  0.0000000E+00
 2.5127501E+00  0.0000000E+00
 2.5242500E+00  0.0000000E+00
 2.5357502E+00  0.0000000E+00
 2.5472500E+00  0.0000000E+00
 2.5587502E+00  0.0000000E+00
 2.5702500E+00  0.0000000E+00
 2.5817502E+00  0.0000000E+00
 2.5932500E+00  0.0000000E+00
 2.6047502E+00  0.0000000E+00
 2.6162500E+00  0.0000000E+00
 2.6277502E+00  0.0000000E+00
 2.6392500E+00  0.0000000E+00
 2.6507502E+00  0.0000000E+00
 2.6622500E+00  0.0000000E+00
 2.6737502E+00  0.0000000E+00
 2.6852500E+00  0.0000000E+00
 2.6967502E+00  0.0000000E+00
 2.7082500E+00  0.0000000E+00
 2.7197502E+00  0.0000000E+00
 2.7312500E+00  0.0000000E+00
 2.7427502E+00  0.0000000E+00
 2.7542500E+00  0.0000000E+00
 2.7657502E+00  0.0000000E+00
 2.7772501E+00  0.0000000E+00
 2.7887502E+00  0.0000000E+00
 2.8002501E+00  0.0000000E+00
 2.8117502E+00  0.0000000E+00
 2.8232501E+00  3.1981812E+01
 2.8347502E+00  3.2593304E+01
 2.8462501E+00  3.2901470E+01
 2.8577502E+00  3.3178406E+01
 2.8692501E+00  3.3562283E+01
 2.8807502E+00  3.3916008E+01
 2.8922501E+00  3.4463936E+01
 2.9037502E+00  3.4603775E+01
 2.9152501E+00  3.4778168E+01
 2.9267502E+00  3.5162144E+01
 2.9382501E+00  3.5283844E+01
 2.9497502E+00  3.5728260E+01
 2.9612501E+00  3.5419197E+01
 2.9727502E+00  3.5178448E+01
 2.9842501E+00  3.4888313E+01
 2.9957502E+00  3.4991241E+01
 3.0072501E+00  3.5551903E+01
 3.0187502E+00  3.6081219E+01
 3.0302501E+00  3.6536514E+01
 3.0417502E+00  3.6962486E+01
 3.0532501E+00  3.7097607E+01
 3.0647502E+00  3.6960773E+01
 3.0762501E+00  3.6786125E+01
 3.0877502E+00  3.6324707E+01
 3.0992501E+00  3.6207329E+01
 3.1107502E+00  3.5980816E+01
 3.1222501E+00  3.6101936E+01
 3.1337502E+00  3.5939545E+01
 3.1452501E+00  3.5966957E+01
 3.1567502E+00  3.5901970E+01
 3.1682501E+00  3.5995823E+01
 3.1797502E+00  3.6252914E+01
 3.1912501E+00  3.6186661E+01
 3.2027502E+00  3.6130577E+01
 3.2142501E+00  3.5747528E+01
 3.2257502E+00  3.5455502E+01
 3.2372501E+00  3.5090519E+01
 3.2487502E+00  3.4683514E+01
 3.2602501E+00  3.4678963E+01
 3.2717502E+00  3.4799393E+01
 3.2832501E+00  3.4609127E+01
 3.2947502E+00  3.4525421E+01
 3.3062501E+00  3.4281521E+01
 3.3177502E+00  3.4564598E+01
 3.3292501E+00  3.4740673E+01
 3.3407502E+00  3.5236828E+01
 3.3522501E+00  3.5240479E+01
 3.3637502E+00  3.5359726E+01
 3.3752501E+00  3.5436035E+01
 3.3867502E+00  3.5277637E+01
 3.3982501E+00  3.5171612E+01
 3.4097502E+00  3.4745018E+01
 3.4212501E+00  3.4657154E+01
 3.4327502E+00  3.4291908E+01
 3.4442501E+00  3.4315819E+01
 3.4557502E+00  3.4459396E+01
 3.4672501E+00  3.4728542E+01
 3.4787502E+00  3.4596172E+01
 3.4902501E+00  3.4544891E+01
 3.5017502E+00  3.4071526E+01
 3.5132501E+00  3.4076637E+01
 3.5247502E+00  3.3936405E+01
 3.5362501E+00  3.4211716E+01
 3.5477502E+00  3.4386120E+01
 3.5592501E+00  3.4533730E+01
 3.5707502E+00  3.4401077E+01
 3.5822501E+00  3.4029457E+01
 3.5937502E+00  3.3594872E+01
 3.6052501E+00  3.3534756E+01
 3.6167502E+00  3.3501133E+01
 3.6282501E+00  3.3474140E+01
 3.6397502E+00  3.3359215E+01
 3.6512501E+00  3.3288883E+01
 3.6627502E+00  3.3159168E+01
 3.6742501E+00  3.2992508E+01
 3.6857502E+00  3.3058811E+01
 3.6972501E+00  3.3359222E+01
 3.7087502E+00  3.3398735E+01
 3.7202501E+00  3.3465595E+01
 3.7317502E+00  3.3447968E+01
 3.7432501E+00  3.3479557E+01
 3.7547503E+00  3.3369408E+01
 3.7662501E+00  3.3277386E+01
 3.7777503E+00  3.3202522E+01
 3.7892501E+00  3.2957672E+01
 3.8007503E+00  3.2538929E+01
 3.8122501E+00  3.2400330E+01
 3.8237503E+00  3.2171574E+01
 3.8352501E+00  3.2164742E+01
 3.8467503E+00  3.2057476E+01
 3.8582501E+00  3.2151566E+01
 3.8697503E+00  3.2385265E+01
 3.8812501E+00  3.2525963E+01
 3.8927503E+00  3.2629253E+01
 3.9042501E+00  3.2579868E+01
 3.9157503E+00  3.2388027E+01
 3.9272501E+00  3.2280605E+01
 3.9387503E+00  3.2162609E+01
 3.9502501E+00  3.2111023E+01
 3.9617503E+00  3.2058617E+01
 3.9732502E+00  3.2185841E+01
 3.9847503E+00  3.2144932E+01
 3.9962502E+00  3.2254971E+01
 4.0077500E+00  3.2198532E+01
 4.0192504E+00  3.2201500E+01
 4.0307503E+00  3.2318195E+01
 4.0422502E+00  3.2378811E+01
 4.0537500E+00  3.2581059E+01
 4.0652504E+00  3.2720638E+01
 4.0767503E+00  3.2626823E+01
 4.0882502E+00  3.2575871E+01
 4.0997500E+00  3.2398079E+01
 4.1112504E+00  3.2396721E+01
 4.1227503E+00  3.2323200E+01
 4.1342502E+00  3.2451218E+01
 4.1457500E+00  3.2610180E+01
 4.1572504E+00  3.2619331E+01
 4.1687503E+00  3.2450008E+01
 4.1802502E+00  3.2109097E+01
 4.1917500E+00  3.1907738E+01
 4.2032504E+00  3.1896238E+01
 4.2147503E+00  3.2019119E+01
 4.2262502E+00  3.2226124E+01
 4.2377501E+00  3.2450951E+01
 4.2492504E+00  3.2462822E+01
 4.2607503E+00  3.2521286E+01
 4.2722502E+00  3.2327705E+01
 4.2837501E+00  3.2347034E+01
 4.2952504E+00  3.2240643E+01
 4.3067503E+00  3.2196354E+01
 4.3182502E+00  3.2117771E+01
 4.3297501E+00  3.2102825E+01
 4.3412504E+00  3.2086411E+01
 4.3527503E+00  3.1999266E+01
 4.3642502E+00  3.1945749E+01
 4.3757501E+00  3.1996138E+01
 4.3872504E+00  3.2014580E+01
 4.3987503E+00  3.2049431E+01
 4.4102502E+00  3.2167622E+01
 4.4217501E+00  3.2317749E+01
 4.4332504E+00  3.2384914E+01
 4.4447503E+00  3.2458824E+01
 4.4562502E+00  3.2411922E+01
 4.4677501E+00  3.2569294E+01
 4.4792504E+00  3.2430046E+01
 4.4907503E+00  3.2488564E+01
 4.5022502E+00  3.2500553E+01
 4.5137501E+00  3.2564095E+01
 4.5252504E+00  3.2570911E+01
 4.5367503E+00  3.2510906E+01
 4.5482502E+00  3.2555653E+01
 4.5597501E+00  3.2571095E+01
 4.5712504E+00  3.2690685E+01
 4.5827503E+00  3.2660076E+01
 4.5942502E+00  3.2816948E+01
 4.6057501E+00  3.2881115E+01
 4.6172504E+00  3.2950325E+01
 4.6287503E+00  3.3009586E+01
 4.6402502E+00  3.3070290E+01
 4.6517501E+00  3.3087215E+01
 4.6632504E+00  3.3144928E+01
 4.6747503E+00  3.3149242E+01
 4.6862502E+00  3.3145035E+01
 4.6977501E+00  3.3136845E+01
 4.7092505E+00  3.2995522E+01
 4.7207503E+00  3.3047276E+01
 4.7322502E+00  3.2980305E+01
 4.7437501E+00  3.2940712E+01
 4.7552505E+00  3.2834003E+01
 4.7667503E+00  3.2801128E+01
 4.7782502E+00  3.2600739E+01
 4.7897501E+00  3.2594654E+01
 4.8012505E+00  3.2470470E+01
 4.8127503E+00  3.2580265E+01
 4.8242502E+00  3.2630276E+01
 4.8357501E+00  3.2746555E+01
 4.8472505E+00  3.2879402E+01
 4.8587503E+00  3.3026657E+01
 4.8702502E+00  3.2993481E+01
 4.8817501E+00  3.2982880E+01
 4.8932505E+00  3.2872131E+01
 4.9047503E+00  3.2838791E+01
 4.9162502E+00  3.2938164E+01
 4.9277501E+00  3.2931889E+01
 4.9392505E+00  3.3128822E+01
 4.9507504E+00  3.3192478E+01
 4.9622502E+00  3.3295387E+01
 4.9737501E+00  3.3392982E+01
 4.9852505E+00  3.3344616E+01
 4.9967504E+00  3.3303089E+01
 5.0082502E+00  3.3365040E+01
 5.0197501E+00  3.3324299E+01
 5.0312505E+00  3.3535755E+01
 5.0427504E+00  3.3507774E+01
 5.0542502E+00  3.3647816E+01
 5.0657501E+00  3.3706482E+01
 5.0772505E+00  3.3835129E+01
 5.0887504E+00  3.3966480E+01
 5.1002502E+00  3.4074577E+01
 5.1117501E+00  3.4060246E+01
 5.1232505E+00  3.3988781E+01
 5.1347504E+00  3.4041203E+01
 5.1462502E+00  3.4017368E+01
 5.1577501E+00  3.4077961E+01
 5.1692505E+00  3.4003265E+01
 5.1807504E+00  3.3996887E+01
 5.1922503E+00  3.4006691E+01
 5.2037501E+00  3.4002403E+01
 5.2152505E+00  3.4003277E+01
 5.2267504E+00  3.3921413E+01
 5.2382503E+00  3.3937729E+01
 5.2497501E+00  3.3894852E+01
 5.2612505E+00  3.3958374E+01
 5.2727504E+00  3.3959778E+01
 5.2842503E+00  3.4130833E+01
 5.2957501E+00  3.4290222E+01
 5.3072500E+00  3.4285156E+01
 5.3187504E+00  3.4286919E+01
 5.3302503E+00  3.4295925E+01
 5.3417501E+00  3.4472790E+01
 5.3532500E+00  3.4551117E+01
 5.3647504E+00  3.4609509E+01
 5.3762503E+00  3.4646156E+01
 5.3877501E+00  3.4723660E+01
 5.3992500E+00  3.4694946E+01
 5.4107504E+00  3.4662262E+01
 5.4222503E+00  3.4586086E+01
 5.4337502E+00  3.4523323E+01
 5.4452500E+00  3.4456459E+01
 5.4567504E+00  3.4508663E+01
 5.4682503E+00  3.4611618E+01
 5.4797502E+00  3.4715874E+01
 5.4912500E+00  3.4784775E+01
 5.5027504E+00  3.4839958E+01
 5.5142503E+00  3.4915245E+01
 5.5257502E+00  3.4950996E+01
 5.5372500E+00  3.4932854E+01
 5.5487504E+00  3.4998951E+01
 5.5602503E+00  3.4962105E+01
 5.5717502E+00  3.5141579E+01
 5.5832500E+00  3.5084660E+01
 5.5947504E+00  3.5208466E+01
 5.6062503E+00  3.5206997E+01
 5.6177502E+00  3.5267391E+01
 5.6292500E+00  3.5289055E+01
 5.6407504E+00  3.5203655E+01
 5.6522503E+00  3.5214706E+01
 5.6637502E+00  3.5240276E+01
 5.6752501E+00  3.5247364E+01
 5.6867504E+00  3.5221783E+01
 5.6982503E+00  3.5198666E+01
 5.7097502E+00  3.5239231E+01
 5.7212501E+00  3.5326260E+01
 5.7327504E+00  3.5484299E+01
 5.7442503E+00  3.5594917E+01
 5.7557502E+00  3.5757294E+01
 5.7672501E+00  3.5827412E+01
 5.7787504E+00  3.6029659E+01
 5.7902503E+00  3.6121265E+01
 5.8017502E+00  3.6127316E+01
 5.8132501E+00  3.6164482E+01
 5.8247504E+00  3.6235264E+01
 5.8362503E+00  3.6321632E+01
 5.8477502E+00  3.6296482E+01
 5.8592501E+00  3.6235691E+01
 5.8707504E+00  3.6325058E+01
 5.8822503E+00  3.6501667E+01
 5.8937502E+00  3.6834991E+01
 5.9052501E+00  3.7489635E+01
 5.9167504E+00  3.7990585E+01
 5.9282503E+00  3.9502186E+01
 5.9397502E+00  4.1955544E+01
 5.9512501E+00  4.4700954E+01
 5.9627504E+00  4.9443054E+01
 5.9742503E+00  5.2333092E+01
 5.9857502E+00  5.4094460E+01
 5.9972501E+00  5.4425121E+01
 6.0087504E+00  5.1431152E+01
 6.0202503E+00  4.8152489E+01
 6.0317502E+00  4.3346882E+01
 6.0432501E+00  4.0836826E+01
 6.0547504E+00  3.9318497E+01
 6.0662503E+00  3.8299034E+01
 6.0777502E+00  3.7775429E+01
 6.0892501E+00  3.7497337E+01
 6.1007504E+00  3.7261868E+01
 6.1122503E+00  3.7085686E+01
 6.1237502E+00  3.7047558E+01
 6.1352501E+00  3.7009727E+01
 6.1467505E+00  3.6975658E+01
 6.1582503E+00  3.7006500E+01
 6.1697502E+00  3.7011467E+01
 6.1812501E+00  3.7003521E+01
 6.1927505E+00  3.6969643E+01
 6.2042503E+00  3.6991928E+01
 6.2157502E+00  3.7041779E+01
 6.2272501E+00  3.7238590E+01
 6.2387505E+00  3.7324318E+01
 6.2502503E+00  3.7567196E+01
 6.2617502E+00  3.7667042E+01
 6.2732501E+00  3.7867584E+01
 6.2847505E+00  3.7961300E+01
 6.2962503E+00  3.7917721E+01
 6.3077502E+00  3.7838188E+01
 6.3192501E+00  3.7744179E+01
 6.3307505E+00  3.7806515E+01
 6.3422503E+00  3.7903439E+01
 6.3537502E+00  3.8023693E+01
 6.3652501E+00  3.8088337E+01
 6.3767505E+00  3.8117676E+01
 6.3882504E+00  3.8154446E+01
 6.3997502E+00  3.8183907E+01
 6.4112501E+00  3.8231392E+01
 6.4227505E+00  3.8328316E+01
 6.4342504E+00  3.8369061E+01
 6.4457502E+00  3.8593647E+01
 6.4572501E+00  3.8730549E+01
 6.4687505E+00  3.8871227E+01
 6.4802504E+00  3.8850418E+01
 6.4917502E+00  3.8915367E+01
 6.5032501E+00  3.8948414E+01
 6.5147505E+00  3.9051529E+01
 6.5262504E+00  3.8995056E+01
 6.5377502E+00  3.9053978E+01
 6.5492501E+00  3.9138771E+01
 6.5607505E+00  3.9273266E+01
 6.5722504E+00  3.9458473E+01
 6.5837502E+00  3.9602467E+01
 6.5952501E+00  3.9715908E+01
 6.6067505E+00  3.9819923E+01
 6.6182504E+00  3.9822590E+01
 6.6297503E+00  3.9779491E+01
 6.6412501E+00  3.9750420E+01
 6.6527505E+00  3.9723911E+01
 6.6642504E+00  3.9771294E+01
 6.6757503E+00  3.9799255E+01
 6.6872501E+00  3.9874203E+01
 6.6987505E+00  3.9939011E+01
 6.7102504E+00  4.0030979E+01
 6.7217503E+00  4.0110153E+01
 6.7332501E+00  4.0304771E+01
 6.7447505E+00  4.0403717E+01
 6.7562504E+00  4.0613514E+01
 6.7677503E+00  4.0810890E+01
 6.7792501E+00  4.0917587E+01
 6.7907505E+00  4.0949585E+01
 6.8022504E+00  4.0922958E+01
 6.8137503E+00  4.1037457E+01
 6.8252501E+00  4.1164669E+01
 6.8367505E+00  4.1236259E+01
 6.8482504E+00  4.1489719E+01
 6.8597503E+00  4.1561279E+01
 6.8712502E+00  4.1762878E+01
 6.8827505E+00  4.1671299E+01
 6.8942504E+00  4.1835484E+01
 6.9057503E+00  4.1820896E+01
 6.9172502E+00  4.1962467E+01
 6.9287505E+00  4.1873478E+01
 6.9402504E+00  4.1982285E+01
 6.9517503E+00  4.1927750E+01
 6.9632502E+00  4.2076519E+01
 6.9747505E+00  4.2085457E+01
 6.9862504E+00  4.2074276E+01
 6.9977503E+00  4.2051441E+01
 7.0092502E+00  4.2056187E+01
 7.0207505E+00  4.2224129E+01
 7.0322504E+00  4.2264950E+01
 7.0437503E+00  4.2294910E+01
 7.0552502E+00  4.2261093E+01
 7.0667505E+00  4.2366554E+01
 7.0782504E+00  4.2406891E+01
 7.0897503E+00  4.2445431E+01
 7.1012502E+00  4.2539520E+01
 7.1127505E+00  4.2702564E+01
 7.1242504E+00  4.2845039E+01
 7.1357503E+00  4.2916771E+01
 7.1472502E+00  4.3013062E+01
 7.1587505E+00  4.3136314E+01
 7.1702504E+00  4.3245716E+01
 7.1817503E+00  4.3276630E+01
 7.1932502E+00  4.3318863E+01
 7.2047505E+00  4.3322308E+01
 7.2162504E+00  4.3341728E+01
 7.2277503E+00  4.3508286E+01
 7.2392502E+00  4.3616886E+01
 7.2507505E+00  4.3671970E+01
 7.2622504E+00  4.3676220E+01
 7.2737503E+00  4.3678223E+01
 7.2852502E+00  4.3746727E+01
 7.2967505E+00  4.3696407E+01
 7.3082504E+00  4.3677605E+01
 7.3197503E+00  4.3715008E+01
 7.3312502E+00  4.3727989E+01
 7.3427505E+00  4.3735836E+01
 7.3542504E+00  4.3716854E+01
 7.3657503E+00  4.3750725E+01
 7.3772502E+00  4.3805416E+01
 7.3887506E+00  4.3892651E+01
 7.4002504E+00  4.4058342E+01
 7.4117503E+00  4.4150517E+01
 7.4232502E+00  4.4135700E+01
 7.4347506E+00  4.4128365E+01
 7.4462504E+00  4.4151730E+01
 7.4577503E+00  4.4289116E+01
 7.4692502E+00  4.4298302E+01
 7.4807506E+00  4.4298260E+01
 7.4922504E+00  4.4278629E+01
 7.5037503E+00  4.4261360E+01
 7.5152502E+00  4.4274872E+01
 7.5267506E+00  4.4348480E+01
 7.5382504E+00  4.4366890E+01
 7.5497503E+00  4.4528416E+01
 7.5612502E+00  4.4545341E+01
 7.5727506E+00  4.4559376E+01
 7.5842505E+00  4.4470524E+01
 7.5957503E+00  4.4354214E+01
 7.6072502E+00  4.4298660E+01
 7.6187506E+00  4.4129349E+01
 7.6302505E+00  4.3954613E+01
 7.6417503E+00  4.3952950E+01
 7.6532502E+00  4.4082001E+01
 7.6647506E+00  4.4217548E+01
 7.6762505E+00  4.4261082E+01
 7.6877503E+00  4.4260483E+01
 7.6992502E+00  4.4333408E+01
 7.7107506E+00  4.4342510E+01
 7.7222505E+00  4.4230679E+01
 7.7337503E+00  4.4193645E+01
 7.7452502E+00  4.4202724E+01
 7.7567506E+00  4.4279652E+01
 7.7682505E+00  4.4328068E+01
 7.7797503E+00  4.4252773E+01
 7.7912502E+00  4.4130646E+01
 7.8027506E+00  4.4013748E+01
 7.8142505E+00  4.3933556E+01
 7.8257504E+00  4.3936745E+01
 7.8372502E+00  4.3935093E+01
 7.8487506E+00  4.3970997E+01
 7.8602505E+00  4.3956844E+01
 7.8717504E+00  4.3841629E+01
 7.8832502E+00  4.3695957E+01
 7.8947506E+00  4.3620361E+01
 7.9062505E+00  4.3598804E+01
 7.9177504E+00  4.3684078E+01
 7.9292502E+00  4.3735580E+01
 7.9407506E+00  4.3784576E+01
 7.9522505E+00  4.3788258E+01
 7.9637504E+00  4.3683418E+01
 7.9752502E+00  4.3644287E+01
 7.9867506E+00  4.3573612E+01
 7.9982505E+00  4.3492550E+01
 8.0097504E+00  4.3358047E+01
 8.0212507E+00  4.3205917E+01
 8.0327501E+00  4.3099781E+01
 8.0442505E+00  4.2990578E+01
 8.0557508E+00  4.2855263E+01
 8.0672503E+00  4.2772160E+01
 8.0787506E+00  4.2657131E+01
 8.0902500E+00  4.2580620E+01
 8.1017504E+00  4.2494537E+01
 8.1132507E+00  4.2429775E+01
 8.1247501E+00  4.2253654E+01
 8.1362505E+00  4.2117889E+01
 8.1477509E+00  4.2017269E+01
 8.1592503E+00  4.1918068E+01
 8.1707506E+00  4.1795097E+01
 8.1822500E+00  4.1674118E+01
 8.1937504E+00  4.1582680E+01
 8.2052507E+00  4.1605865E+01
 8.2167501E+00  4.1532879E+01
 8.2282505E+00  4.1502480E+01
 8.2397509E+00  4.1389156E+01
 8.2512503E+00  4.1322605E+01
 8.2627506E+00  4.1130547E+01
 8.2742500E+00  4.0984203E+01
 8.2857504E+00  4.0706554E+01
 8.2972507E+00  4.0629265E+01
 8.3087502E+00  4.0459457E+01
 8.3202505E+00  4.0538364E+01
 8.3317509E+00  4.0413273E+01
 8.3432503E+00  4.0368732E+01
 8.3547506E+00  4.0114754E+01
 8.3662500E+00  3.9949314E+01
 8.3777504E+00  3.9685711E+01
 8.3892508E+00  3.9508865E+01
 8.4007502E+00  3.9313076E+01
 8.4122505E+00  3.9142887E+01
 8.4237509E+00  3.8887959E+01
 8.4352503E+00  3.8699394E+01
 8.4467506E+00  3.8511719E+01
 8.4582500E+00  3.8411060E+01
 8.4697504E+00  3.8324116E+01
 8.4812508E+00  3.8106739E+01
 8.4927502E+00  3.7956985E+01
 8.5042505E+00  3.7798088E+01
 8.5157509E+00  3.7743088E+01
 8.5272503E+00  3.7611816E+01
 8.5387506E+00  3.7448803E+01
 8.5502501E+00  3.7137978E+01
 8.5617504E+00  3.7006031E+01
 8.5732508E+00  3.6793613E+01
 8.5847502E+00  3.6672127E+01
 8.5962505E+00  3.6512577E+01
 8.6077509E+00  3.6260258E+01
 8.6192503E+00  3.6141338E+01
 8.6307507E+00  3.5965374E+01
 8.6422501E+00  3.5851204E+01
 8.6537504E+00  3.5689766E+01
 8.6652508E+00  3.5415981E+01
 8.6767502E+00  3.5234310E+01
 8.6882505E+00  3.5051754E+01
 8.6997509E+00  3.4879524E+01
 8.7112503E+00  3.4701836E+01
 8.7227507E+00  3.4487354E+01
 8.7342501E+00  3.4357292E+01
 8.7457504E+00  3.4219109E+01
 8.7572508E+00  3.4092121E+01
 8.7687502E+00  3.3973778E+01
 8.7802505E+00  3.3736702E+01
 8.7917500E+00  3.3522377E+01
 8.8032503E+00  3.3294136E+01
 8.8147507E+00  3.3167370E+01
 8.8262501E+00  3.3064014E+01
 8.8377504E+00  3.2844082E+01
 8.8492508E+00  3.2634628E+01
 8.8607502E+00  3.2404686E+01
 8.8722506E+00  3.2274361E+01
 8.8837500E+00  3.2121243E+01
 8.8952503E+00  3.2033119E+01
 8.9067507E+00  3.1933811E+01
 8.9182501E+00  3.1874811E+01
 8.9297504E+00  3.1691856E+01
 8.9412508E+00  3.1551603E+01
 8.9527502E+00  3.1373970E+01
 8.9642506E+00  3.1300127E+01
 8.9757500E+00  3.1176991E+01
 8.9872503E+00  3.1122431E+01
 8.9987507E+00  3.0947906E+01
 9.0102501E+00  3.0843655E+01
 9.0217505E+00  3.0649511E+01
 9.0332508E+00  3.0576057E+01
 9.0447502E+00  3.0411081E+01
 9.0562506E+00  3.0262104E+01
 9.0677500E+00  3.0151257E+01
 9.0792503E+00  3.0053333E+01
 9.0907507E+00  2.9950977E+01
 9.1022501E+00  2.9847681E+01
 9.1137505E+00  2.9776678E+01
 9.1252508E+00  2.9711817E+01
 9.1367502E+00  2.9571964E+01
 9.1482506E+00  2.9471233E+01
 9.1597500E+00  2.9342348E+01
 9.1712503E+00  2.9239275E+01
 9.1827507E+00  2.9075262E+01
 9.1942501E+00  2.8915110E+01
 9.2057505E+00  2.8765690E+01
 9.2172508E+00  2.8605303E+01
 9.2287502E+00  2.8458519E+01
 9.2402506E+00  2.8340870E+01
 9.2517500E+00  2.8182261E+01
 9.2632504E+00  2.8144558E+01
 9.2747507E+00  2.8121355E+01
 9.2862501E+00  2.8138691E+01
 9.2977505E+00  2.8104063E+01
 9.3092508E+00  2.7959614E+01
 9.3207502E+00  2.7893847E+01
 9.3322506E+00  2.7789465E+01
 9.3437500E+00  2.7647547E+01
 9.3552504E+00  2.7480532E+01
 9.3667507E+00  2.7320415E+01
 9.3782501E+00  2.7252457E+01
 9.3897505E+00  2.7220541E+01
 9.4012508E+00  2.7200277E+01
 9.4127502E+00  2.7185734E+01
 9.4242506E+00  2.7101358E+01
 9.4357500E+00  2.7004505E+01
 9.4472504E+00  2.6967625E+01
 9.4587507E+00  2.6869883E+01
 9.4702501E+00  2.6812031E+01
 9.4817505E+00  2.6699610E+01
 9.4932508E+00  2.6675259E+01
 9.5047503E+00  2.6616282E+01
 9.5162506E+00  2.6554708E+01
 9.5277500E+00  2.6457407E+01
 9.5392504E+00  2.6392990E+01
 9.5507507E+00  2.6267765E+01
 9.5622501E+00  2.6213333E+01
 9.5737505E+00  2.6113770E+01
 9.5852509E+00  2.6030331E+01
 9.5967503E+00  2.6008121E+01
 9.6082506E+00  2.5964462E+01
 9.6197500E+00  2.6001369E+01
 9.6312504E+00  2.5939043E+01
 9.6427507E+00  2.5852859E+01
 9.6542501E+00  2.5756172E+01
 9.6657505E+00  2.5633307E+01
 9.6772509E+00  2.5513187E+01
 9.6887503E+00  2.5440409E+01
 9.7002506E+00  2.5429823E+01
 9.7117500E+00  2.5439474E+01
 9.7232504E+00  2.5392946E+01
 9.7347507E+00  2.5371212E+01
 9.7462502E+00  2.5425390E+01
 9.7577505E+00  2.5398785E+01
 9.7692509E+00  2.5390635E+01
 9.7807503E+00  2.5281504E+01
 9.7922506E+00  2.5245750E+01
 9.8037500E+00  2.5143988E+01
 9.8152504E+00  2.4988279E+01
 9.8267508E+00  2.4886759E+01
 9.8382502E+00  2.4783945E+01
 9.8497505E+00  2.4761538E+01
 9.8612509E+00  2.4701145E+01
 9.8727503E+00  2.4703371E+01
 9.8842506E+00  2.4672113E+01
 9.8957500E+00  2.4635704E+01
 9.9072504E+00  2.4591389E+01
 9.9187508E+00  2.4545858E+01
 9.9302502E+00  2.4555346E+01
 9.9417505E+00  2.4522659E+01
 9.9532509E+00  2.4518370E+01
 9.9647503E+00  2.4527096E+01
 9.9762506E+00  2.4509369E+01
 9.9877501E+00  2.4500746E+01
 9.9992504E+00  2.4424263E+01
 1.0010751E+01  2.4410007E+01
 1.0022250E+01  2.4332258E+01
 1.0033751E+01  2.4344294E+01
 1.0045251E+01  2.4245199E+01
 1.0056750E+01  2.4260288E+01
 1.0068251E+01  2.4222006E+01
 1.0079750E+01  2.4193058E+01
 1.0091250E+01  2.4135563E+01
 1.0102751E+01  2.4048706E+01
 1.0114250E+01  2.3985510E+01
 1.0125751E+01  2.3972494E+01
 1.0137251E+01  2.3942360E+01
 1.0148750E+01  2.3941500E+01
 1.0160251E+01  2.3903593E+01
 1.0171750E+01  2.3832981E+01
 1.0183250E+01  2.3806332E+01
 1.0194751E+01  2.3778215E+01
 1.0206250E+01  2.3802893E+01
 1.0217751E+01  2.3812643E+01
 1.0229251E+01  2.3821644E+01
 1.0240750E+01  2.3825211E+01
 1.0252251E+01  2.3786583E+01
 1.0263750E+01  2.3753691E+01
 1.0275250E+01  2.3765774E+01
 1.0286751E+01  2.3738386E+01
 1.0298250E+01  2.3740973E+01
 1.0309751E+01  2.3695341E+01
 1.0321251E+01  2.3639244E+01
 1.0332750E+01  2.3611399E+01
 1.0344251E+01  2.3623903E+01
 1.0355750E+01  2.3695599E+01
 1.0367250E+01  2.3677404E+01
 1.0378751E+01  2.3702774E+01
 1.0390250E+01  2.3718679E+01
 1.0401751E+01  2.3682606E+01
 1.0413251E+01  2.3572514E+01
 1.0424750E+01  2.3472275E+01
 1.0436251E+01  2.3419600E+01
 1.0447750E+01  2.3369993E+01
 1.0459250E+01  2.3353893E+01
 1.0470751E+01  2.3317802E+01
 1.0482250E+01  2.3327169E+01
 1.0493751E+01  2.3272152E+01
 1.0505251E+01  2.3246538E+01
 1.0516750E+01  2.3217669E+01
 1.0528251E+01  2.3204477E+01
 1.0539750E+01  2.3266417E+01
 1.0551250E+01  2.3296095E+01
 1.0562751E+01  2.3363401E+01
 1.0574250E+01  2.3279301E+01
 1.0585751E+01  2.3210772E+01
 1.0597251E+01  2.3134979E+01
 1.0608750E+01  2.3108427E+01
 1.0620251E+01  2.3088015E+01
 1.0631750E+01  2.3108421E+01
 1.0643250E+01  2.3103786E+01
 1.0654751E+01  2.3096546E+01
 1.0666250E+01  2.3067545E+01
 1.0677751E+01  2.3036110E+01
 1.0689251E+01  2.3014376E+01
 1.0700750E+01  2.2983772E+01
 1.0712251E+01  2.3019711E+01
 1.0723750E+01  2.3070147E+01
 1.0735250E+01  2.3046696E+01
 1.0746751E+01  2.3083790E+01
 1.0758250E+01  2.3097754E+01
 1.0769751E+01  2.3096636E+01
 1.0781251E+01  2.3046707E+01
 1.0792750E+01  2.2894175E+01
 1.0804251E+01  2.2799288E+01
 1.0815750E+01  2.2707825E+01
 1.0827250E+01  2.2709318E+01
 1.0838751E+01  2.2713907E+01
 1.0850250E+01  2.2736170E+01
 1.0861751E+01  2.2757139E+01
 1.0873251E+01  2.2796009E+01
 1.0884750E+01  2.2741817E+01
 1.0896251E+01  2.2743866E+01
 1.0907750E+01  2.2733479E+01
 1.0919250E+01  2.2824303E+01
 1.0930751E+01  2.2807558E+01
 1.0942250E+01  2.2805803E+01
 1.0953751E+01  2.2777393E+01
 1.0965251E+01  2.2728790E+01
 1.0976750E+01  2.2768661E+01
 1.0988251E+01  2.2709225E+01
 1.0999750E+01  2.2690144E+01
 1.1011250E+01  2.2612509E+01
 1.1022751E+01  2.2609753E+01
 1.1034250E+01  2.2607372E+01
 1.1045751E+01  2.2586725E+01
 1.1057251E+01  2.2597044E+01
 1.1068750E+01  2.2619200E+01
 1.1080251E+01  2.2591927E+01
 1.1091750E+01  2.2622322E+01
 1.1103251E+01  2.2636538E+01
 1.1114751E+01  2.2676394E+01
 1.1126250E+01  2.2672716E+01
 1.1137751E+01  2.2687424E+01
 1.1149251E+01  2.2776060E+01
 1.1160750E+01  2.2799427E+01
 1.1172251E+01  2.2811113E+01
 1.1183750E+01  2.2781130E+01
 1.1195251E+01  2.2762772E+01
 1.1206751E+01  2.2758507E+01
 1.1218250E+01  2.2716122E+01
 1.1229751E+01  2.2621916E+01
 1.1241251E+01  2.2572660E+01
 1.1252750E+01  2.2555094E+01
 1.1264251E+01  2.2550869E+01
 1.1275750E+01  2.2582041E+01
 1.1287251E+01  2.2585735E+01
 1.1298751E+01  2.2642878E+01
 1.1310250E+01  2.2650625E+01
 1.1321751E+01  2.2656364E+01
 1.1333251E+01  2.2664734E+01
 1.1344750E+01  2.2727804E+01
 1.1356251E+01  2.2735983E+01
 1.1367750E+01  2.2859465E+01
 1.1379251E+01  2.2848755E+01
 1.1390751E+01  2.2923401E+01
 1.1402250E+01  2.3035912E+01
 1.1413751E+01  2.3015556E+01
 1.1425251E+01  2.2971512E+01
 1.1436750E+01  2.2830919E+01
 1.1448251E+01  2.2823439E+01
 1.1459750E+01  2.2902842E+01
 1.1471251E+01  2.2932564E+01
 1.1482751E+01  2.3044827E+01
 1.1494250E+01  2.3158503E+01
 1.1505751E+01  2.3409489E+01
 1.1517251E+01  2.3780794E+01
 1.1528750E+01  2.4604776E+01
 1.1540251E+01  2.5521429E+01
 1.1551750E+01  2.7325569E+01
 1.1563251E+01  2.8673359E+01
 1.1574751E+01  3.0155575E+01
 1.1586250E+01  3.0592215E+01
 1.1597751E+01  3.0201345E+01
 1.1609251E+01  2.8895855E+01
 1.1620750E+01  2.7419811E+01
 1.1632251E+01  2.6059601E+01
 1.1643750E+01  2.5037979E+01
 1.1655251E+01  2.4088852E+01
 1.1666751E+01  2.3583221E+01
 1.1678250E+01  2.3259506E+01
 1.1689751E+01  2.3062689E+01
 1.1701251E+01  2.2975674E+01
 1.1712750E+01  2.2930759E+01
 1.1724251E+01  2.2856030E+01
 1.1735750E+01  2.2866468E+01
 1.1747251E+01  2.2854237E+01
 1.1758751E+01  2.2828215E+01
 1.1770250E+01  2.2755013E+01
 1.1781751E+01  2.2689728E+01
 1.1793251E+01  2.2654940E+01
 1.1804750E+01  2.2671318E+01
 1.1816251E+01  2.2688473E+01
 1.1827750E+01  2.2698996E+01
 1.1839251E+01  2.2688570E+01
 1.1850751E+01  2.2631090E+01
 1.1862250E+01  2.2677790E+01
 1.1873751E+01  2.2644354E+01
 1.1885251E+01  2.2665604E+01
 1.1896750E+01  2.2657459E+01
 1.1908251E+01  2.2749603E+01
 1.1919750E+01  2.2929005E+01
 1.1931251E+01  2.3181797E+01
 1.1942751E+01  2.3439707E+01
 1.1954250E+01  2.4098997E+01
 1.1965751E+01  2.4415325E+01
 1.1977251E+01  2.4850328E+01
 1.1988750E+01  2.5673586E+01
 1.2000251E+01  2.5697657E+01
 1.2011750E+01  2.5895641E+01
 1.2023251E+01  2.5291779E+01
 1.2034751E+01  2.5474617E+01
 1.2046250E+01  2.5532097E+01
 1.2057751E+01  2.5852074E+01
 1.2069251E+01  2.8169683E+01
 1.2080750E+01  2.8391466E+01
 1.2092251E+01  2.9135141E+01
 1.2103750E+01  2.8194500E+01
 1.2115251E+01  2.7749720E+01
 1.2126751E+01  2.6413836E+01
 1.2138250E+01  2.4977600E+01
 1.2149751E+01  2.4380152E+01
 1.2161251E+01  2.3792213E+01
 1.2172750E+01  2.3276829E+01
 1.2184251E+01  2.3185362E+01
 1.2195750E+01  2.3035311E+01
 1.2207251E+01  2.2905199E+01
 1.2218751E+01  2.2811396E+01
 1.2230250E+01  2.2769659E+01
 1.2241751E+01  2.2745674E+01
 1.2253251E+01  2.2738775E+01
 1.2264750E+01  2.2714485E+01
 1.2276251E+01  2.2672457E+01
 1.2287750E+01  2.2648937E+01
 1.2299251E+01  2.2553812E+01
 1.2310751E+01  2.2542261E+01
 1.2322250E+01  2.2551495E+01
 1.2333751E+01  2.2609976E+01
 1.2345250E+01  2.2662537E+01
 1.2356750E+01  2.2672739E+01
 1.2368251E+01  2.2667114E+01
 1.2379750E+01  2.2631859E+01
 1.2391251E+01  2.2592463E+01
 1.2402751E+01  2.2584234E+01
 1.2414250E+01  2.2573936E+01
 1.2425751E+01  2.2557718E+01
 1.2437250E+01  2.2607384E+01
 1.2448750E+01  2.2578196E+01
 1.2460251E+01  2.2646406E+01
 1.2471750E+01  2.2654184E+01
 1.2483251E+01  2.2694599E+01
 1.2494751E+01  2.2683781E+01
 1.2506250E+01  2.2615410E+01
 1.2517751E+01  2.2630497E+01
 1.2529250E+01  2.2682287E+01
 1.2540751E+01  2.2773598E+01
 1.2552251E+01  2.2845617E+01
 1.2563750E+01  2.2854506E+01
 1.2575251E+01  2.2903784E+01
 1.2586751E+01  2.2893332E+01
 1.2598250E+01  2.2870380E+01
 1.2609751E+01  2.2866812E+01
 1.2621250E+01  2.2888184E+01
 1.2632751E+01  2.2962696E+01
 1.2644251E+01  2.2920456E+01
 1.2655750E+01  2.2936281E+01
 1.2667251E+01  2.2890219E+01
 1.2678751E+01  2.2873875E+01
 1.2690250E+01  2.2817228E+01
 1.2701751E+01  2.2846750E+01
 1.2713250E+01  2.2915030E+01
 1.2724751E+01  2.2902231E+01
 1.2736251E+01  2.2903284E+01
 1.2747750E+01  2.2961540E+01
 1.2759251E+01  2.3087368E+01
 1.2770751E+01  2.3179491E+01
 1.2782250E+01  2.3284525E+01
 1.2793751E+01  2.3294386E+01
 1.2805250E+01  2.3334208E+01
 1.2816751E+01  2.3348763E+01
 1.2828251E+01  2.3456362E+01
 1.2839750E+01  2.3461679E+01
 1.2851251E+01  2.3462164E+01
 1.2862751E+01  2.3425419E+01
 1.2874250E+01  2.3455044E+01
 1.2885751E+01  2.3434067E+01
 1.2897250E+01  2.3414043E+01
 1.2908751E+01  2.3414089E+01
 1.2920251E+01  2.3433575E+01
 1.2931750E+01  2.3568493E+01
 1.2943251E+01  2.3662886E+01
 1.2954751E+01  2.3804874E+01
 1.2966250E+01  2.3883614E+01
 1.2977751E+01  2.3970839E+01
 1.2989250E+01  2.3971985E+01
 1.3000751E+01  2.4026207E+01
 1.3012251E+01  2.4066097E+01
 1.3023750E+01  2.4165026E+01
 1.3035251E+01  2.4215061E+01
 1.3046751E+01  2.4256411E+01
 1.3058250E+01  2.4318407E+01
 1.3069751E+01  2.4342453E+01
 1.3081250E+01  2.4415791E+01
 1.3092751E+01  2.4538418E+01
 1.3104251E+01  2.4735126E+01
 1.3115750E+01  2.4946943E+01
 1.3127251E+01  2.5040483E+01
 1.3138751E+01  2.5060501E+01
 1.3150250E+01  2.5115919E+01
 1.3161751E+01  2.5147406E+01
 1.3173250E+01  2.5304575E+01
 1.3184751E+01  2.5395708E+01
 1.3196251E+01  2.5582193E+01
 1.3207750E+01  2.5720308E+01
 1.3219251E+01  2.5897602E+01
 1.3230751E+01  2.6103136E+01
 1.3242250E+01  2.6247744E+01
 1.3253751E+01  2.6389170E+01
 1.3265250E+01  2.6493172E+01
 1.3276751E+01  2.6643473E+01
 1.3288251E+01  2.6817127E+01
 1.3299750E+01  2.7017107E+01
 1.3311251E+01  2.7142864E+01
 1.3322751E+01  2.7289696E+01
 1.3334250E+01  2.7430273E+01
 1.3345751E+01  2.7579964E+01
 1.3357250E+01  2.7718479E+01
 1.3368751E+01  2.7835484E+01
 1.3380251E+01  2.7962646E+01
 1.3391750E+01  2.8069214E+01
 1.3403251E+01  2.8190443E+01
 1.3414751E+01  2.8313803E+01
 1.3426250E+01  2.8388151E+01
 1.3437751E+01  2.8539219E+01
 1.3449250E+01  2.8658659E+01
 1.3460751E+01  2.8805899E+01
 1.3472251E+01  2.8949606E+01
 1.3483750E+01  2.9093864E+01
 1.3495251E+01  2.9255634E+01
 1.3506751E+01  2.9382221E+01
 1.3518250E+01  2.9535954E+01
 1.3529751E+01  2.9547029E+01
 1.3541250E+01  2.9555325E+01
 1.3552751E+01  2.9549385E+01
 1.3564251E+01  2.9613356E+01
 1.3575750E+01  2.9695690E+01
 1.3587251E+01  2.9747511E+01
 1.3598751E+01  2.9763687E+01
 1.3610250E+01  2.9726255E+01
 1.3621751E+01  2.9645773E+01
 1.3633250E+01  2.9660328E+01
 1.3644751E+01  2.9655336E+01
 1.3656251E+01  2.9759886E+01
 1.3667750E+01  2.9843065E+01
 1.3679251E+01  2.9913048E+01
 1.3690751E+01  2.9861485E+01
 1.3702250E+01  2.9816957E+01
 1.3713751E+01  2.9786568E+01
 1.3725250E+01  2.9809269E+01
 1.3736751E+01  2.9753994E+01
 1.3748251E+01  2.9670097E+01
 1.3759750E+01  2.9630941E+01
 1.3771251E+01  2.9602390E+01
 1.3782751E+01  2.9677608E+01
 1.3794250E+01  2.9677469E+01
 1.3805751E+01  2.9707104E+01
 1.3817250E+01  2.9675781E+01
 1.3828751E+01  2.9720388E+01
 1.3840251E+01  2.9742445E+01
 1.3851750E+01  2.9891451E+01
 1.3863251E+01  3.0132755E+01
 1.3874751E+01  3.0649954E+01
 1.3886250E+01  3.1405767E+01
 1.3897751E+01  3.2891975E+01
 1.3909250E+01  3.4720699E+01
 1.3920751E+01  3.6766502E+01
 1.3932251E+01  3.9296597E+01
 1.3943750E+01  4.1105938E+01
 1.3955251E+01  4.2001827E+01
 1.3966751E+01  4.1261982E+01
 1.3978251E+01  3.9675129E+01
 1.3989751E+01  3.7363571E+01
 1.4001250E+01  3.4944359E+01
 1.4012751E+01  3.2741680E+01
 1.4024251E+01  3.1175995E+01
 1.4035750E+01  2.9940865E+01
 1.4047251E+01  2.9125996E+01
 1.4058751E+01  2.8623182E+01
 1.4070251E+01  2.8295265E+01
 1.4081751E+01  2.8039049E+01
 1.4093250E+01  2.7872019E+01
 1.4104751E+01  2.7731222E+01
 1.4116251E+01  2.7586889E+01
 1.4127750E+01  2.7486179E+01
 1.4139251E+01  2.7347748E+01
 1.4150751E+01  2.7302111E+01
 1.4162251E+01  2.7257139E+01
 1.4173751E+01  2.7155859E+01
 1.4185250E+01  2.6971834E+01
 1.4196751E+01  2.6814873E+01
 1.4208251E+01  2.6691751E+01
 1.4219750E+01  2.6606823E+01
 1.4231251E+01  2.6516895E+01
 1.4242751E+01  2.6511576E+01
 1.4254251E+01  2.6492546E+01
 1.4265751E+01  2.6497288E+01
 1.4277250E+01  2.6431309E+01
 1.4288751E+01  2.6451529E+01
 1.4300251E+01  2.6378317E+01
 1.4311750E+01  2.6363806E+01
 1.4323251E+01  2.6280933E+01
 1.4334751E+01  2.6269020E+01
 1.4346251E+01  2.6258387E+01
 1.4357751E+01  2.6262247E+01
 1.4369250E+01  2.6217339E+01
 1.4380751E+01  2.6177406E+01
 1.4392251E+01  2.6093605E+01
 1.4403750E+01  2.6058731E+01
 1.4415251E+01  2.5998743E+01
 1.4426751E+01  2.5981813E+01
 1.4438251E+01  2.5951279E+01
 1.4449751E+01  2.5948870E+01
 1.4461250E+01  2.5935177E+01
 1.4472751E+01  2.5922960E+01
 1.4484251E+01  2.5870863E+01
 1.4495750E+01  2.5858839E+01
 1.4507251E+01  2.5823101E+01
 1.4518751E+01  2.5769552E+01
 1.4530251E+01  2.5663877E+01
 1.4541751E+01  2.5567545E+01
 1.4553250E+01  2.5538708E+01
 1.4564751E+01  2.5515890E+01
 1.4576251E+01  2.5485298E+01
 1.4587750E+01  2.5421412E+01
 1.4599251E+01  2.5371243E+01
 1.4610751E+01  2.5403181E+01
 1.4622251E+01  2.5412626E+01
 1.4633751E+01  2.5397543E+01
 1.4645250E+01  2.5321218E+01
 1.4656751E+01  2.5294783E+01
 1.4668251E+01  2.5275476E+01
 1.4679750E+01  2.5302153E+01
 1.4691251E+01  2.5321234E+01
 1.4702751E+01  2.5352314E+01
 1.4714251E+01  2.5260456E+01
 1.4725751E+01  2.5167074E+01
 1.4737250E+01  2.5059912E+01
 1.4748751E+01  2.5030790E+01
 1.4760251E+01  2.5056099E+01
 1.4771750E+01  2.5066650E+01
 1.4783251E+01  2.5074049E+01
 1.4794751E+01  2.5004732E+01
 1.4806251E+01  2.4963673E+01
 1.4817751E+01  2.4937246E+01
 1.4829250E+01  2.4957367E+01
 1.4840751E+01  2.4990261E+01
 1.4852251E+01  2.5048941E+01
 1.4863750E+01  2.5056965E+01
 1.4875251E+01  2.5070339E+01
 1.4886751E+01  2.4986895E+01
 1.4898251E+01  2.4981331E+01
 1.4909751E+01  2.4938709E+01
 1.4921250E+01  2.4916035E+01
 1.4932751E+01  2.4886883E+01
 1.4944251E+01  2.4876884E+01
 1.4955750E+01  2.4919758E+01
 1.4967251E+01  2.4910391E+01
 1.4978751E+01  2.4935444E+01
 1.4990251E+01  2.4941982E+01
 1.5001751E+01  2.4989050E+01
 1.5013250E+01  2.5041277E+01
 1.5024751E+01  2.5101570E+01
 1.5036251E+01  2.5087723E+01
 1.5047750E+01  2.5046751E+01
 1.5059251E+01  2.4979748E+01
 1.5070751E+01  2.4962948E+01
 1.5082251E+01  2.4921232E+01
 1.5093751E+01  2.4929035E+01
 1.5105250E+01  2.4974434E+01
 1.5116751E+01  2.5114386E+01
 1.5128251E+01  2.5327553E+01
 1.5139750E+01  2.5640333E+01
 1.5151251E+01  2.6054018E+01
 1.5162751E+01  2.6449842E+01
 1.5174251E+01  2.7042492E+01
 1.5185751E+01  2.7581055E+01
 1.5197250E+01  2.7623095E+01
 1.5208751E+01  2.8090633E+01
 1.5220251E+01  2.7733292E+01
 1.5231750E+01  2.7512449E+01
 1.5243251E+01  2.6664942E+01
 1.5254751E+01  2.6189825E+01
 1.5266251E+01  2.5696148E+01
 1.5277751E+01  2.5138641E+01
 1.5289250E+01  2.5044516E+01
 1.5300751E+01  2.4924807E+01
 1.5312251E+01  2.4843275E+01
 1.5323750E+01  2.4779203E+01
 1.5335251E+01  2.4754450E+01
 1.5346751E+01  2.4708611E+01
 1.5358251E+01  2.4711945E+01
 1.5369751E+01  2.4667849E+01
 1.5381250E+01  2.4670992E+01
 1.5392751E+01  2.4642937E+01
 1.5404251E+01  2.4629276E+01
 1.5415751E+01  2.4612906E+01
 1.5427251E+01  2.4603409E+01
 1.5438751E+01  2.4597559E+01
 1.5450251E+01  2.4569138E+01
 1.5461751E+01  2.4561392E+01
 1.5473250E+01  2.4618635E+01
 1.5484751E+01  2.4643517E+01
 1.5496251E+01  2.4670427E+01
 1.5507751E+01  2.4574821E+01
 1.5519251E+01  2.4542494E+01
 1.5530751E+01  2.4515661E+01
 1.5542251E+01  2.4535645E+01
 1.5553751E+01  2.4555771E+01
 1.5565250E+01  2.4604528E+01
 1.5576751E+01  2.4643177E+01
 1.5588251E+01  2.4664740E+01
 1.5599751E+01  2.4640518E+01
 1.5611251E+01  2.4583275E+01
 1.5622751E+01  2.4586979E+01
 1.5634251E+01  2.4586256E+01
 1.5645751E+01  2.4621910E+01
 1.5657250E+01  2.4586369E+01
 1.5668751E+01  2.4631048E+01
 1.5680251E+01  2.4600718E+01
 1.5691751E+01  2.4587738E+01
 1.5703251E+01  2.4589682E+01
 1.5714751E+01  2.4612059E+01
 1.5726251E+01  2.4658411E+01
 1.5737751E+01  2.4638420E+01
 1.5749250E+01  2.4623920E+01
 1.5760751E+01  2.4634598E+01
 1.5772251E+01  2.4636602E+01
 1.5783751E+01  2.4590946E+01
 1.5795251E+01  2.4525366E+01
 1.5806751E+01  2.4528538E+01
 1.5818251E+01  2.4564150E+01
 1.5829751E+01  2.4565493E+01
 1.5841250E+01  2.4576115E+01
 1.5852751E+01  2.4644964E+01
 1.5864251E+01  2.4688786E+01
 1.5875751E+01  2.4700872E+01
 1.5887251E+01  2.4660877E+01
 1.5898750E+01  2.4623945E+01
 1.5910251E+01  2.4649944E+01
 1.5921751E+01  2.4629761E+01
 1.5933250E+01  2.4648218E+01
 1.5944751E+01  2.4614080E+01
 1.5956251E+01  2.4691753E+01
 1.5967751E+01  2.4740829E+01
 1.5979251E+01  2.4754965E+01
 1.5990750E+01  2.4774414E+01
 1.6002251E+01  2.4744886E+01
 1.6013750E+01  2.4733322E+01
 1.6025251E+01  2.4695175E+01
 1.6036751E+01  2.4704834E+01
 1.6048250E+01  2.4723440E+01
 1.6059752E+01  2.4701368E+01
 1.6071251E+01  2.4658014E+01
 1.6082750E+01  2.4666304E+01
 1.6094252E+01  2.4723047E+01
 1.6105751E+01  2.4829950E+01
 1.6117250E+01  2.4864050E+01
 1.6128750E+01  2.4895203E+01
 1.6140251E+01  2.4940542E+01
 1.6151751E+01  2.4961254E+01
 1.6163250E+01  2.5001589E+01
 1.6174751E+01  2.4980452E+01
 1.6186251E+01  2.5038591E+01
 1.6197750E+01  2.4984516E+01
 1.6209251E+01  2.5150024E+01
 1.6220751E+01  2.5107107E+01
 1.6232250E+01  2.5268372E+01
 1.6243752E+01  2.5287117E+01
 1.6255251E+01  2.5454851E+01
 1.6266750E+01  2.5594084E+01
 1.6278252E+01  2.5472260E+01
 1.6289751E+01  2.5558460E+01
 1.6301250E+01  2.5190973E+01
 1.6312750E+01  2.5251150E+01
 1.6324251E+01  2.4947788E+01
 1.6335751E+01  2.5001661E+01
 1.6347250E+01  2.4849377E+01
 1.6358751E+01  2.4770741E+01
 1.6370251E+01  2.4662502E+01
 1.6381750E+01  2.4612083E+01
 1.6393251E+01  2.4659441E+01
 1.6404751E+01  2.4712515E+01
 1.6416250E+01  2.4821766E+01
 1.6427752E+01  2.4816042E+01
 1.6439251E+01  2.4819050E+01
 1.6450750E+01  2.4742044E+01
 1.6462252E+01  2.4691126E+01
 1.6473751E+01  2.4576227E+01
 1.6485250E+01  2.4583382E+01
 1.6496750E+01  2.4613821E+01
 1.6508251E+01  2.4649019E+01
 1.6519751E+01  2.4682308E+01
 1.6531250E+01  2.4703632E+01
 1.6542751E+01  2.4748604E+01
 1.6554251E+01  2.4694977E+01
 1.6565750E+01  2.4683411E+01
 1.6577251E+01  2.4641052E+01
 1.6588751E+01  2.4665609E+01
 1.6600250E+01  2.4659424E+01
 1.6611752E+01  2.4665827E+01
 1.6623251E+01  2.4630241E+01
 1.6634750E+01  2.4706398E+01
 1.6646252E+01  2.4700821E+01
 1.6657751E+01  2.4779755E+01
 1.6669250E+01  2.4772821E+01
 1.6680750E+01  2.4753313E+01
 1.6692251E+01  2.4686922E+01
 1.6703751E+01  2.4617836E+01
 1.6715250E+01  2.4562904E+01
 1.6726751E+01  2.4444246E+01
 1.6738251E+01  2.4423084E+01
 1.6749750E+01  2.4449190E+01
 1.6761251E+01  2.4444778E+01
 1.6772751E+01  2.4389275E+01
 1.6784250E+01  2.4349417E+01
 1.6795752E+01  2.4341269E+01
 1.6807251E+01  2.4397387E+01
 1.6818750E+01  2.4414270E+01
 1.6830252E+01  2.4463068E+01
 1.6841751E+01  2.4449503E+01
 1.6853251E+01  2.4448505E+01
 1.6864750E+01  2.4400337E+01
 1.6876251E+01  2.4421318E+01
 1.6887751E+01  2.4418943E+01
 1.6899250E+01  2.4411240E+01
 1.6910751E+01  2.4371140E+01
 1.6922251E+01  2.4379681E+01
 1.6933750E+01  2.4390734E+01
 1.6945251E+01  2.4414444E+01
 1.6956751E+01  2.4410540E+01
 1.6968250E+01  2.4355883E+01
 1.6979752E+01  2.4297878E+01
 1.6991251E+01  2.4260355E+01
 1.7002750E+01  2.4258110E+01
 1.7014252E+01  2.4246735E+01
 1.7025751E+01  2.4239206E+01
 1.7037251E+01  2.4227695E+01
 1.7048750E+01  2.4200241E+01
 1.7060251E+01  2.4171103E+01
 1.7071751E+01  2.4190449E+01
 1.7083250E+01  2.4241465E+01
 1.7094751E+01  2.4268415E+01
 1.7106251E+01  2.4272303E+01
 1.7117750E+01  2.4278677E+01
 1.7129251E+01  2.4317150E+01
 1.7140751E+01  2.4354853E+01
 1.7152250E+01  2.4328180E+01
 1.7163752E+01  2.4316711E+01
 1.7175251E+01  2.4316015E+01
 1.7186750E+01  2.4321766E+01
 1.7198252E+01  2.4265194E+01
 1.7209751E+01  2.4228794E+01
 1.7221251E+01  2.4200531E+01
 1.7232750E+01  2.4210394E+01
 1.7244251E+01  2.4182798E+01
 1.7255751E+01  2.4138168E+01
 1.7267250E+01  2.4109859E+01
 1.7278751E+01  2.4087416E+01
 1.7290251E+01  2.4094189E+01
 1.7301750E+01  2.4129673E+01
 1.7313251E+01  2.4089895E+01
 1.7324751E+01  2.4091557E+01
 1.7336250E+01  2.4045218E+01
 1.7347752E+01  2.4049566E+01
 1.7359251E+01  2.4045124E+01
 1.7370750E+01  2.4041803E+01
 1.7382252E+01  2.4035904E+01
 1.7393751E+01  2.4063278E+01
 1.7405251E+01  2.4071880E+01
 1.7416750E+01  2.4104479E+01
 1.7428251E+01  2.4060261E+01
 1.7439751E+01  2.4127361E+01
 1.7451250E+01  2.4119719E+01
 1.7462751E+01  2.4171467E+01
 1.7474251E+01  2.4130207E+01
 1.7485750E+01  2.4142256E+01
 1.7497252E+01  2.4060919E+01
 1.7508751E+01  2.3993525E+01
 1.7520250E+01  2.3904026E+01
 1.7531752E+01  2.3843287E+01
 1.7543251E+01  2.3852655E+01
 1.7554750E+01  2.3842978E+01
 1.7566252E+01  2.3850819E+01
 1.7577751E+01  2.3833439E+01
 1.7589251E+01  2.3821568E+01
 1.7600750E+01  2.3842485E+01
 1.7612251E+01  2.3864803E+01
 1.7623751E+01  2.3902008E+01
 1.7635250E+01  2.3882603E+01
 1.7646751E+01  2.3841093E+01
 1.7658251E+01  2.3822649E+01
 1.7669750E+01  2.3798939E+01
 1.7681252E+01  2.3809587E+01
 1.7692751E+01  2.3848558E+01
 1.7704250E+01  2.3890530E+01
 1.7715752E+01  2.3836315E+01
 1.7727251E+01  2.3726866E+01
 1.7738750E+01  2.3697285E+01
 1.7750252E+01  2.3746941E+01
 1.7761751E+01  2.3777899E+01
 1.7773251E+01  2.3772247E+01
 1.7784750E+01  2.3767933E+01
 1.7796251E+01  2.3796179E+01
 1.7807751E+01  2.3819284E+01
 1.7819250E+01  2.3863504E+01
 1.7830751E+01  2.3867361E+01
 1.7842251E+01  2.3853035E+01
 1.7853750E+01  2.3805811E+01
 1.7865252E+01  2.3822132E+01
 1.7876751E+01  2.3777672E+01
 1.7888250E+01  2.3766792E+01
 1.7899752E+01  2.3763758E+01
 1.7911251E+01  2.3871737E+01
 1.7922750E+01  2.3960760E+01
 1.7934252E+01  2.4004641E+01
 1.7945751E+01  2.4169712E+01
 1.7957251E+01  2.4203259E+01
 1.7968750E+01  2.4578836E+01
 1.7980251E+01  2.4640368E+01
 1.7991751E+01  2.4981951E+01
 1.8003250E+01  2.5014706E+01
 1.8014751E+01  2.4968903E+01
 1.8026251E+01  2.4917233E+01
 1.8037750E+01  2.4697474E+01
 1.8049252E+01  2.4776283E+01
 1.8060751E+01  2.4738338E+01
 1.8072250E+01  2.4829824E+01
 1.8083752E+01  2.4928297E+01
 1.8095251E+01  2.5028265E+01
 1.8106750E+01  2.5097496E+01
 1.8118252E+01  2.5072935E+01
 1.8129751E+01  2.5014618E+01
 1.8141251E+01  2.4858719E+01
 1.8152750E+01  2.4616201E+01
 1.8164251E+01  2.4403126E+01
 1.8175751E+01  2.4160416E+01
 1.8187250E+01  2.3976057E+01
 1.8198751E+01  2.3869638E+01
 1.8210251E+01  2.3892513E+01
 1.8221750E+01  2.3891447E+01
 1.8233252E+01  2.3861988E+01
 1.8244751E+01  2.3833605E+01
 1.8256250E+01  2.3823742E+01
 1.8267752E+01  2.3785776E+01
 1.8279251E+01  2.3788412E+01
 1.8290751E+01  2.3796852E+01
 1.8302252E+01  2.3810854E+01
 1.8313751E+01  2.3726730E+01
 1.8325251E+01  2.3648470E+01
 1.8336750E+01  2.3586739E+01
 1.8348251E+01  2.3616091E+01
 1.8359751E+01  2.3658915E+01
 1.8371250E+01  2.3691267E+01
 1.8382751E+01  2.3708408E+01
 1.8394251E+01  2.3758747E+01
 1.8405750E+01  2.3759008E+01
 1.8417252E+01  2.3722906E+01
 1.8428751E+01  2.3631214E+01
 1.8440250E+01  2.3617348E+01
 1.8451752E+01  2.3551655E+01
 1.8463251E+01  2.3556503E+01
 1.8474751E+01  2.3576918E+01
 1.8486252E+01  2.3629560E+01
 1.8497751E+01  2.3654905E+01
 1.8509251E+01  2.3671190E+01
 1.8520750E+01  2.3696350E+01
 1.8532251E+01  2.3709698E+01
 1.8543751E+01  2.3691339E+01
 1.8555250E+01  2.3677261E+01
 1.8566751E+01  2.3703550E+01
 1.8578251E+01  2.3705582E+01
 1.8589750E+01  2.3689842E+01
 1.8601252E+01  2.3645382E+01
 1.8612751E+01  2.3628942E+01
 1.8624250E+01  2.3620354E+01
 1.8635752E+01  2.3616940E+01
 1.8647251E+01  2.3586796E+01
 1.8658751E+01  2.3541662E+01
 1.8670252E+01  2.3555347E+01
 1.8681751E+01  2.3569679E+01
 1.8693251E+01  2.3591923E+01
 1.8704750E+01  2.3566732E+01
 1.8716251E+01  2.3559183E+01
 1.8727751E+01  2.3545610E+01
 1.8739250E+01  2.3532524E+01
 1.8750751E+01  2.3531677E+01
 1.8762251E+01  2.3537714E+01
 1.8773750E+01  2.3455294E+01
 1.8785252E+01  2.3436001E+01
 1.8796751E+01  2.3407686E+01
 1.8808250E+01  2.3399256E+01
 1.8819752E+01  2.3365557E+01
 1.8831251E+01  2.3357357E+01
 1.8842751E+01  2.3409359E+01
 1.8854252E+01  2.3458652E+01
 1.8865751E+01  2.3476776E+01
 1.8877251E+01  2.3498787E+01
 1.8888750E+01  2.3460022E+01
 1.8900251E+01  2.3494467E+01
 1.8911751E+01  2.3499537E+01
 1.8923250E+01  2.3551661E+01
 1.8934752E+01  2.3598289E+01
 1.8946251E+01  2.3662062E+01
 1.8957750E+01  2.3708284E+01
 1.8969252E+01  2.3620434E+01
 1.8980751E+01  2.3556158E+01
 1.8992250E+01  2.3463327E+01
 1.9003752E+01  2.3433018E+01
 1.9015251E+01  2.3415354E+01
 1.9026751E+01  2.3493719E+01
 1.9038252E+01  2.3499357E+01
 1.9049751E+01  2.3527697E+01
 1.9061251E+01  2.3570215E+01
 1.9072750E+01  2.3625938E+01
 1.9084251E+01  2.3636129E+01
 1.9095751E+01  2.3620356E+01
 1.9107250E+01  2.3607904E+01
 1.9118752E+01  2.3604948E+01
 1.9130251E+01  2.3626854E+01
 1.9141750E+01  2.3596533E+01
 1.9153252E+01  2.3552923E+01
 1.9164751E+01  2.3526522E+01
 1.9176250E+01  2.3556187E+01
 1.9187752E+01  2.3626139E+01
 1.9199251E+01  2.3668140E+01
 1.9210751E+01  2.3681496E+01
 1.9222252E+01  2.3615715E+01
 1.9233751E+01  2.3609751E+01
 1.9245251E+01  2.3625525E+01
 1.9256750E+01  2.3682652E+01
 1.9268251E+01  2.3678823E+01
 1.9279751E+01  2.3690416E+01
 1.9291250E+01  2.3696030E+01
 1.9302752E+01  2.3729675E+01
 1.9314251E+01  2.3728743E+01
 1.9325750E+01  2.3737669E+01
 1.9337252E+01  2.3689045E+01
 1.9348751E+01  2.3643309E+01
 1.9360250E+01  2.3574751E+01
 1.9371752E+01  2.3602726E+01
 1.9383251E+01  2.3603764E+01
 1.9394751E+01  2.3646963E+01
 1.9406250E+01  2.3636509E+01
 1.9417751E+01  2.3675158E+01
 1.9429251E+01  2.3682972E+01
 1.9440750E+01  2.3685997E+01
 1.9452251E+01  2.3701181E+01
 1.9463751E+01  2.3713947E+01
 1.9475250E+01  2.3719135E+01
 1.9486752E+01  2.3720316E+01
 1.9498251E+01  2.3729576E+01
 1.9509750E+01  2.3762899E+01
 1.9521252E+01  2.3828043E+01
 1.9532751E+01  2.3866692E+01
 1.9544250E+01  2.3860779E+01
 1.9555752E+01  2.3860798E+01
 1.9567251E+01  2.3866041E+01
 1.9578751E+01  2.3938824E+01
 1.9590250E+01  2.4014788E+01
 1.9601751E+01  2.4080847E+01
 1.9613251E+01  2.4158213E+01
 1.9624750E+01  2.4286760E+01
 1.9636251E+01  2.4506212E+01
 1.9647751E+01  2.4715260E+01
 1.9659250E+01  2.5165068E+01
 1.9670752E+01  2.5738438E+01
 1.9682251E+01  2.6308252E+01
 1.9693750E+01  2.7055027E+01
 1.9705252E+01  2.7352568E+01
 1.9716751E+01  2.7695240E+01
 1.9728251E+01  2.7443619E+01
 1.9739752E+01  2.7049625E+01
 1.9751251E+01  2.6536270E+01
 1.9762751E+01  2.6033016E+01
 1.9774250E+01  2.5765631E+01
 1.9785751E+01  2.5548201E+01
 1.9797251E+01  2.5509638E+01
 1.9808750E+01  2.5794073E+01
 1.9820251E+01  2.6175102E+01
 1.9831751E+01  2.7240936E+01
 1.9843250E+01  2.8117937E+01
 1.9854752E+01  2.8887266E+01
 1.9866251E+01  2.9207327E+01
 1.9877750E+01  2.8782845E+01
 1.9889252E+01  2.8057039E+01
 1.9900751E+01  2.6944563E+01
 1.9912251E+01  2.6133690E+01
 1.9923752E+01  2.5266928E+01
 1.9935251E+01  2.4786407E+01
 1.9946751E+01  2.4461727E+01
 1.9958250E+01  2.4236382E+01
 1.9969751E+01  2.4152039E+01
 1.9981251E+01  2.4088039E+01
 1.9992750E+01  2.4094547E+01
 2.0004251E+01  2.4034805E+01
 2.0015751E+01  2.3940485E+01
 2.0027250E+01  2.3889843E+01
 2.0038752E+01  2.3890139E+01
 2.0050251E+01  2.3907587E+01
 2.0061750E+01  2.3849949E+01
 2.0073252E+01  2.3837040E+01
 2.0084751E+01  2.3796076E+01
 2.0096251E+01  2.3819790E+01
 2.0107752E+01  2.3793234E+01
 2.0119251E+01  2.3777441E+01
 2.0130751E+01  2.3710562E+01
 2.0142250E+01  2.3726553E+01
 2.0153751E+01  2.3741674E+01
 2.0165251E+01  2.3761343E+01
 2.0176750E+01  2.3739244E+01
 2.0188251E+01  2.3706787E+01
 2.0199751E+01  2.3662189E+01
 2.0211250E+01  2.3707876E+01
 2.0222752E+01  2.3749432E+01
 2.0234251E+01  2.3788073E+01
 2.0245750E+01  2.3764614E+01
 2.0257252E+01  2.3788010E+01
 2.0268751E+01  2.3762672E+01
 2.0280251E+01  2.3742474E+01
 2.0291752E+01  2.3680275E+01
 2.0303251E+01  2.3654175E+01
 2.0314751E+01  2.3644192E+01
 2.0326250E+01  2.3669498E+01
 2.0337751E+01  2.3714409E+01
 2.0349251E+01  2.3747513E+01
 2.0360750E+01  2.3750874E+01
 2.0372252E+01  2.3719305E+01
 2.0383751E+01  2.3709091E+01
 2.0395250E+01  2.3784410E+01
 2.0406752E+01  2.3828299E+01
 2.0418251E+01  2.3928282E+01
 2.0429750E+01  2.3921408E+01
 2.0441252E+01  2.3896666E+01
 2.0452751E+01  2.3860628E+01
 2.0464251E+01  2.3849699E+01
 2.0475752E+01  2.3853111E+01
 2.0487251E+01  2.3807444E+01
 2.0498751E+01  2.3790430E+01
 2.0510250E+01  2.3753281E+01
 2.0521751E+01  2.3756548E+01
 2.0533251E+01  2.3762768E+01
 2.0544750E+01  2.3771305E+01
 2.0556252E+01  2.3837502E+01
 2.0567751E+01  2.3838762E+01
 2.0579250E+01  2.3823837E+01
 2.0590752E+01  2.3849720E+01
 2.0602251E+01  2.3906399E+01
 2.0613750E+01  2.3973007E+01
 2.0625252E+01  2.3947615E+01
 2.0636751E+01  2.3918249E+01
 2.0648251E+01  2.3900457E+01
 2.0659752E+01  2.3961821E+01
 2.0671251E+01  2.4070227E+01
 2.0682751E+01  2.4203588E+01
 2.0694250E+01  2.4430777E+01
 2.0705751E+01  2.4667101E+01
 2.0717251E+01  2.4896893E+01
 2.0728750E+01  2.5106169E+01
 2.0740252E+01  2.5261246E+01
 2.0751751E+01  2.5412493E+01
 2.0763250E+01  2.5505810E+01
 2.0774752E+01  2.5484678E+01
 2.0786251E+01  2.5388109E+01
 2.0797750E+01  2.5200926E+01
 2.0809252E+01  2.4920290E+01
 2.0820751E+01  2.4648537E+01
 2.0832251E+01  2.4410067E+01
 2.0843752E+01  2.4274422E+01
 2.0855251E+01  2.4181704E+01
 2.0866751E+01  2.4095232E+01
 2.0878250E+01  2.4045218E+01
 2.0889751E+01  2.4018116E+01
 2.0901251E+01  2.4047108E+01
 2.0912750E+01  2.4046700E+01
 2.0924252E+01  2.3985209E+01
 2.0935751E+01  2.3964363E+01
 2.0947250E+01  2.3955536E+01
 2.0958752E+01  2.3972486E+01
 2.0970251E+01  2.4018085E+01
 2.0981750E+01  2.4057508E+01
 2.0993252E+01  2.4120230E+01
 2.1004751E+01  2.4148685E+01
 2.1016251E+01  2.4090384E+01
 2.1027752E+01  2.4085058E+01
 2.1039251E+01  2.4050964E+01
 2.1050751E+01  2.4011013E+01
 2.1062250E+01  2.3950975E+01
 2.1073751E+01  2.3946753E+01
 2.1085251E+01  2.3931576E+01
 2.1096750E+01  2.3914600E+01
 2.1108252E+01  2.3931408E+01
 2.1119751E+01  2.3953487E+01
 2.1131250E+01  2.3919182E+01
 2.1142752E+01  2.3893454E+01
 2.1154251E+01  2.3859661E+01
 2.1165751E+01  2.3879114E+01
 2.1177252E+01  2.3917408E+01
 2.1188751E+01  2.3948843E+01
 2.1200251E+01  2.3949688E+01
 2.1211752E+01  2.3958778E+01
 2.1223251E+01  2.3947344E+01
 2.1234751E+01  2.3942570E+01
 2.1246250E+01  2.3947519E+01
 2.1257751E+01  2.3975260E+01
 2.1269251E+01  2.3953257E+01
 2.1280750E+01  2.3934229E+01
 2.1292252E+01  2.3925331E+01
 2.1303751E+01  2.3924545E+01
 2.1315250E+01  2.3889826E+01
 2.1326752E+01  2.3895187E+01
 2.1338251E+01  2.3912992E+01
 2.1349751E+01  2.3931662E+01
 2.1361252E+01  2.3961573E+01
 2.1372751E+01  2.4028507E+01
 2.1384251E+01  2.4021175E+01
 2.1395752E+01  2.4004614E+01
 2.1407251E+01  2.3965992E+01
 2.1418751E+01  2.3938604E+01
 2.1430250E+01  2.3917290E+01
 2.1441751E+01  2.3857397E+01
 2.1453251E+01  2.3857229E+01
 2.1464750E+01  2.3825514E+01
 2.1476252E+01  2.3840160E+01
 2.1487751E+01  2.3906687E+01
 2.1499250E+01  2.3987768E+01
 2.1510752E+01  2.4034191E+01
 2.1522251E+01  2.4040970E+01
 2.1533751E+01  2.4067188E+01
 2.1545252E+01  2.4078409E+01
 2.1556751E+01  2.4039688E+01
 2.1568251E+01  2.4007030E+01
 2.1579752E+01  2.4021288E+01
 2.1591251E+01  2.4052839E+01
 2.1602751E+01  2.4077583E+01
 2.1614250E+01  2.4107830E+01
 2.1625751E+01  2.4109840E+01
 2.1637251E+01  2.4108637E+01
 2.1648750E+01  2.4098188E+01
 2.1660252E+01  2.4111013E+01
 2.1671751E+01  2.4161631E+01
 2.1683250E+01  2.4155708E+01
 2.1694752E+01  2.4149712E+01
 2.1706251E+01  2.4108477E+01
 2.1717751E+01  2.4071562E+01
 2.1729252E+01  2.4050278E+01
 2.1740751E+01  2.4054323E+01
 2.1752251E+01  2.4050030E+01
 2.1763752E+01  2.4031221E+01
 2.1775251E+01  2.4044264E+01
 2.1786751E+01  2.4071169E+01
 2.1798250E+01  2.4124779E+01
 2.1809752E+01  2.4127752E+01
 2.1821251E+01  2.4159218E+01
 2.1832750E+01  2.4175308E+01
 2.1844252E+01  2.4181494E+01
 2.1855751E+01  2.4228003E+01
 2.1867250E+01  2.4239130E+01
 2.1878752E+01  2.4227592E+01
 2.1890251E+01  2.4204605E+01
 2.1901751E+01  2.4247747E+01
 2.1913252E+01  2.4275431E+01
 2.1924751E+01  2.4250376E+01
 2.1936251E+01  2.4199818E+01
 2.1947752E+01  2.4183336E+01
 2.1959251E+01  2.4186066E+01
 2.1970751E+01  2.4159859E+01
 2.1982250E+01  2.4162451E+01
 2.1993752E+01  2.4189980E+01
 2.2005251E+01  2.4251944E+01
 2.2016750E+01  2.4262863E+01
 2.2028252E+01  2.4244747E+01
 2.2039751E+01  2.4254250E+01
 2.2051250E+01  2.4307703E+01
 2.2062752E+01  2.4315123E+01
 2.2074251E+01  2.4343069E+01
 2.2085751E+01  2.4357473E+01
 2.2097252E+01  2.4353731E+01
 2.2108751E+01  2.4373539E+01
 2.2120251E+01  2.4434412E+01
 2.2131752E+01  2.4481066E+01
 2.2143251E+01  2.4458868E+01
 2.2154751E+01  2.4412336E+01
 2.2166250E+01  2.4376562E+01
 2.2177752E+01  2.4347673E+01
 2.2189251E+01  2.4357124E+01
 2.2200750E+01  2.4351076E+01
 2.2212252E+01  2.4329023E+01
 2.2223751E+01  2.4312927E+01
 2.2235250E+01  2.4337189E+01
 2.2246752E+01  2.4370420E+01
 2.2258251E+01  2.4443081E+01
 2.2269751E+01  2.4485842E+01
 2.2281252E+01  2.4508497E+01
 2.2292751E+01  2.4470549E+01
 2.2304251E+01  2.4508762E+01
 2.2315752E+01  2.4553726E+01
 2.2327251E+01  2.4574057E+01
 2.2338751E+01  2.4553455E+01
 2.2350250E+01  2.4579203E+01
 2.2361752E+01  2.4550552E+01
 2.2373251E+01  2.4537031E+01
 2.2384750E+01  2.4488079E+01
 2.2396252E+01  2.4514027E+01
 2.2407751E+01  2.4518465E+01
 2.2419250E+01  2.4525326E+01
 2.2430752E+01  2.4583685E+01
 2.2442251E+01  2.4654919E+01
 2.2453751E+01  2.4739697E+01
 2.2465252E+01  2.4802574E+01
 2.2476751E+01  2.4786995E+01
 2.2488251E+01  2.4706081E+01
 2.2499752E+01  2.4678007E+01
 2.2511251E+01  2.4688759E+01
 2.2522751E+01  2.4722389E+01
 2.2534250E+01  2.4776791E+01
 2.2545752E+01  2.4840219E+01
 2.2557251E+01  2.4874878E+01
 2.2568750E+01  2.4866114E+01
 2.2580252E+01  2.4859369E+01
 2.2591751E+01  2.4858871E+01
 2.2603251E+01  2.4883760E+01
 2.2614752E+01  2.4969610E+01
 2.2626251E+01  2.5021215E+01
 2.2637751E+01  2.5014666E+01
 2.2649252E+01  2.4953680E+01
 2.2660751E+01  2.4938122E+01
 2.2672251E+01  2.4981184E+01
 2.2683752E+01  2.5039824E+01
 2.2695251E+01  2.5107895E+01
 2.2706751E+01  2.5085739E+01
 2.2718250E+01  2.5143318E+01
 2.2729752E+01  2.5175945E+01
 2.2741251E+01  2.5239246E+01
 2.2752750E+01  2.5213263E+01
 2.2764252E+01  2.5196032E+01
 2.2775751E+01  2.5155680E+01
 2.2787251E+01  2.5177410E+01
 2.2798752E+01  2.5268049E+01
 2.2810251E+01  2.5414932E+01
 2.2821751E+01  2.5515350E+01
 2.2833252E+01  2.5634039E+01
 2.2844751E+01  2.5630295E+01
 2.2856251E+01  2.5634708E+01
 2.2867750E+01  2.5691265E+01
 2.2879251E+01  2.5715155E+01
 2.2890751E+01  2.5732637E+01
 2.2902250E+01  2.5780991E+01
 2.2913752E+01  2.5895035E+01
 2.2925251E+01  2.6014585E+01
 2.2936750E+01  2.6128294E+01
 2.2948252E+01  2.6210808E+01
 2.2959751E+01  2.6260128E+01
 2.2971251E+01  2.6420086E+01
 2.2982752E+01  2.6543272E+01
 2.2994251E+01  2.6666113E+01
