F:\20151113_APS_34IDE\\Brian\Particle1\OCV\Data_0082.tif
2-Theta Angle (Degrees)
Intensity
       2000
 5.7500005E-03  0.0000000E+00
 1.7250001E-02  0.0000000E+00
 2.8750001E-02  0.0000000E+00
 4.0250003E-02  0.0000000E+00
 5.1750004E-02  0.0000000E+00
 6.3250005E-02  0.0000000E+00
 7.4750006E-02  0.0000000E+00
 8.6250007E-02  0.0000000E+00
 9.7750008E-02  0.0000000E+00
 1.0925001E-01  0.0000000E+00
 1.2075000E-01  0.0000000E+00
 1.3225001E-01  0.0000000E+00
 1.4375001E-01  0.0000000E+00
 1.5525001E-01  0.0000000E+00
 1.6675001E-01  0.0000000E+00
 1.7825001E-01  0.0000000E+00
 1.8975002E-01  0.0000000E+00
 2.0125002E-01  0.0000000E+00
 2.1275002E-01  0.0000000E+00
 2.2425000E-01  0.0000000E+00
 2.3575000E-01  0.0000000E+00
 2.4725001E-01  0.0000000E+00
 2.5875002E-01  0.0000000E+00
 2.7025002E-01  0.0000000E+00
 2.8175002E-01  0.0000000E+00
 2.9325002E-01  0.0000000E+00
 3.0475003E-01  0.0000000E+00
 3.1625003E-01  0.0000000E+00
 3.2775003E-01  0.0000000E+00
 3.3925003E-01  0.0000000E+00
 3.5075003E-01  0.0000000E+00
 3.6225003E-01  0.0000000E+00
 3.7375003E-01  0.0000000E+00
 3.8525003E-01  0.0000000E+00
 3.9675003E-01  0.0000000E+00
 4.0825003E-01  0.0000000E+00
 4.1975003E-01  0.0000000E+00
 4.3125004E-01  0.0000000E+00
 4.4275001E-01  0.0000000E+00
 4.5425001E-01  0.0000000E+00
 4.6575001E-01  0.0000000E+00
 4.7725001E-01  0.0000000E+00
 4.8875001E-01  0.0000000E+00
 5.0025004E-01  0.0000000E+00
 5.1175004E-01  0.0000000E+00
 5.2325004E-01  0.0000000E+00
 5.3475004E-01  0.0000000E+00
 5.4625005E-01  0.0000000E+00
 5.5775005E-01  0.0000000E+00
 5.6925005E-01  0.0000000E+00
 5.8075005E-01  0.0000000E+00
 5.9225005E-01  0.0000000E+00
 6.0375005E-01  0.0000000E+00
 6.1525005E-01  0.0000000E+00
 6.2675005E-01  0.0000000E+00
 6.3825005E-01  0.0000000E+00
 6.4975005E-01  0.0000000E+00
 6.6125005E-01  0.0000000E+00
 6.7275006E-01  0.0000000E+00
 6.8425006E-01  0.0000000E+00
 6.9575006E-01  0.0000000E+00
 7.0725006E-01  0.0000000E+00
 7.1875006E-01  0.0000000E+00
 7.3025006E-01  0.0000000E+00
 7.4175006E-01  0.0000000E+00
 7.5325006E-01  0.0000000E+00
 7.6475006E-01  0.0000000E+00
 7.7625006E-01  0.0000000E+00
 7.8775007E-01  0.0000000E+00
 7.9925007E-01  0.0000000E+00
 8.1075007E-01  0.0000000E+00
 8.2225007E-01  0.0000000E+00
 8.3375007E-01  0.0000000E+00
 8.4525007E-01  0.0000000E+00
 8.5675007E-01  0.0000000E+00
 8.6825007E-01  0.0000000E+00
 8.7975001E-01  0.0000000E+00
 8.9125001E-01  0.0000000E+00
 9.0275002E-01  0.0000000E+00
 9.1425002E-01  0.0000000E+00
 9.2575002E-01  0.0000000E+00
 9.3725002E-01  0.0000000E+00
 9.4875002E-01  0.0000000E+00
 9.6025002E-01  0.0000000E+00
 9.7175002E-01  0.0000000E+00
 9.8325002E-01  0.0000000E+00
 9.9475002E-01  0.0000000E+00
 1.0062500E+00  0.0000000E+00
 1.0177500E+00  0.0000000E+00
 1.0292500E+00  0.0000000E+00
 1.0407500E+00  0.0000000E+00
 1.0522500E+00  0.0000000E+00
 1.0637500E+00  0.0000000E+00
 1.0752500E+00  0.0000000E+00
 1.0867500E+00  0.0000000E+00
 1.0982500E+00  0.0000000E+00
 1.1097500E+00  0.0000000E+00
 1.1212500E+00  0.0000000E+00
 1.1327500E+00  0.0000000E+00
 1.1442500E+00  0.0000000E+00
 1.1557500E+00  0.0000000E+00
 1.1672500E+00  0.0000000E+00
 1.1787500E+00  0.0000000E+00
 1.1902500E+00  0.0000000E+00
 1.2017500E+00  0.0000000E+00
 1.2132500E+00  0.0000000E+00
 1.2247500E+00  0.0000000E+00
 1.2362500E+00  0.0000000E+00
 1.2477500E+00  0.0000000E+00
 1.2592500E+00  0.0000000E+00
 1.2707500E+00  0.0000000E+00
 1.2822500E+00  0.0000000E+00
 1.2937500E+00  0.0000000E+00
 1.3052500E+00  0.0000000E+00
 1.3167500E+00  0.0000000E+00
 1.3282501E+00  0.0000000E+00
 1.3397501E+00  0.0000000E+00
 1.3512501E+00  0.0000000E+00
 1.3627501E+00  0.0000000E+00
 1.3742501E+00  0.0000000E+00
 1.3857501E+00  0.0000000E+00
 1.3972501E+00  0.0000000E+00
 1.4087501E+00  0.0000000E+00
 1.4202501E+00  0.0000000E+00
 1.4317501E+00  0.0000000E+00
 1.4432501E+00  0.0000000E+00
 1.4547501E+00  0.0000000E+00
 1.4662501E+00  0.0000000E+00
 1.4777501E+00  0.0000000E+00
 1.4892501E+00  0.0000000E+00
 1.5007501E+00  0.0000000E+00
 1.5122501E+00  0.0000000E+00
 1.5237501E+00  0.0000000E+00
 1.5352501E+00  0.0000000E+00
 1.5467501E+00  0.0000000E+00
 1.5582501E+00  0.0000000E+00
 1.5697501E+00  0.0000000E+00
 1.5812501E+00  0.0000000E+00
 1.5927501E+00  0.0000000E+00
 1.6042501E+00  0.0000000E+00
 1.6157501E+00  0.0000000E+00
 1.6272501E+00  0.0000000E+00
 1.6387501E+00  0.0000000E+00
 1.6502501E+00  0.0000000E+00
 1.6617501E+00  0.0000000E+00
 1.6732501E+00  0.0000000E+00
 1.6847501E+00  0.0000000E+00
 1.6962501E+00  0.0000000E+00
 1.7077501E+00  0.0000000E+00
 1.7192501E+00  0.0000000E+00
 1.7307501E+00  0.0000000E+00
 1.7422501E+00  0.0000000E+00
 1.7537501E+00  0.0000000E+00
 1.7652501E+00  0.0000000E+00
 1.7767501E+00  0.0000000E+00
 1.7882501E+00  0.0000000E+00
 1.7997501E+00  0.0000000E+00
 1.8112501E+00  0.0000000E+00
 1.8227501E+00  0.0000000E+00
 1.8342501E+00  0.0000000E+00
 1.8457501E+00  0.0000000E+00
 1.8572501E+00  0.0000000E+00
 1.8687501E+00  0.0000000E+00
 1.8802501E+00  0.0000000E+00
 1.8917501E+00  0.0000000E+00
 1.9032501E+00  0.0000000E+00
 1.9147501E+00  0.0000000E+00
 1.9262501E+00  0.0000000E+00
 1.9377501E+00  0.0000000E+00
 1.9492501E+00  0.0000000E+00
 1.9607501E+00  0.0000000E+00
 1.9722501E+00  0.0000000E+00
 1.9837501E+00  0.0000000E+00
 1.9952501E+00  0.0000000E+00
 2.0067501E+00  0.0000000E+00
 2.0182500E+00  0.0000000E+00
 2.0297501E+00  0.0000000E+00
 2.0412500E+00  0.0000000E+00
 2.0527501E+00  0.0000000E+00
 2.0642500E+00  0.0000000E+00
 2.0757501E+00  0.0000000E+00
 2.0872500E+00  0.0000000E+00
 2.0987501E+00  0.0000000E+00
 2.1102500E+00  0.0000000E+00
 2.1217501E+00  0.0000000E+00
 2.1332500E+00  0.0000000E+00
 2.1447501E+00  0.0000000E+00
 2.1562500E+00  0.0000000E+00
 2.1677501E+00  0.0000000E+00
 2.1792500E+00  0.0000000E+00
 2.1907501E+00  0.0000000E+00
 2.2022500E+00  0.0000000E+00
 2.2137501E+00  0.0000000E+00
 2.2252500E+00  0.0000000E+00
 2.2367501E+00  0.0000000E+00
 2.2482500E+00  0.0000000E+00
 2.2597501E+00  0.0000000E+00
 2.2712500E+00  0.0000000E+00
 2.2827501E+00  0.0000000E+00
 2.2942500E+00  0.0000000E+00
 2.3057501E+00  0.0000000E+00
 2.3172500E+00  0.0000000E+00
 2.3287501E+00  0.0000000E+00
 2.3402500E+00  0.0000000E+00
 2.3517501E+00  0.0000000E+00
 2.3632500E+00  0.0000000E+00
 2.3747501E+00  0.0000000E+00
 2.3862500E+00  0.0000000E+00
 2.3977501E+00  0.0000000E+00
 2.4092500E+00  0.0000000E+00
 2.4207501E+00  0.0000000E+00
 2.4322500E+00  0.0000000E+00
 2.4437501E+00  0.0000000E+00
 2.4552500E+00  0.0000000E+00
 2.4667501E+00  0.0000000E+00
 2.4782500E+00  0.0000000E+00
 2.4897501E+00  0.0000000E+00
 2.5012500E+00  0.0000000E+00
 2.5127501E+00  0.0000000E+00
 2.5242500E+00  0.0000000E+00
 2.5357502E+00  0.0000000E+00
 2.5472500E+00  0.0000000E+00
 2.5587502E+00  0.0000000E+00
 2.5702500E+00  0.0000000E+00
 2.5817502E+00  0.0000000E+00
 2.5932500E+00  0.0000000E+00
 2.6047502E+00  0.0000000E+00
 2.6162500E+00  0.0000000E+00
 2.6277502E+00  0.0000000E+00
 2.6392500E+00  0.0000000E+00
 2.6507502E+00  0.0000000E+00
 2.6622500E+00  0.0000000E+00
 2.6737502E+00  0.0000000E+00
 2.6852500E+00  0.0000000E+00
 2.6967502E+00  0.0000000E+00
 2.7082500E+00  0.0000000E+00
 2.7197502E+00  0.0000000E+00
 2.7312500E+00  0.0000000E+00
 2.7427502E+00  0.0000000E+00
 2.7542500E+00  0.0000000E+00
 2.7657502E+00  0.0000000E+00
 2.7772501E+00  0.0000000E+00
 2.7887502E+00  0.0000000E+00
 2.8002501E+00  0.0000000E+00
 2.8117502E+00  0.0000000E+00
 2.8232501E+00  3.4154785E+01
 2.8347502E+00  3.5241806E+01
 2.8462501E+00  3.5163525E+01
 2.8577502E+00  3.4967220E+01
 2.8692501E+00  3.5382927E+01
 2.8807502E+00  3.5692501E+01
 2.8922501E+00  3.5584568E+01
 2.9037502E+00  3.5383705E+01
 2.9152501E+00  3.5225163E+01
 2.9267502E+00  3.5408691E+01
 2.9382501E+00  3.5687790E+01
 2.9497502E+00  3.5913479E+01
 2.9612501E+00  3.5733315E+01
 2.9727502E+00  3.5629021E+01
 2.9842501E+00  3.5229996E+01
 2.9957502E+00  3.5785812E+01
 3.0072501E+00  3.6080326E+01
 3.0187502E+00  3.5975266E+01
 3.0302501E+00  3.6003624E+01
 3.0417502E+00  3.5866936E+01
 3.0532501E+00  3.5998741E+01
 3.0647502E+00  3.6088947E+01
 3.0762501E+00  3.6023056E+01
 3.0877502E+00  3.6039833E+01
 3.0992501E+00  3.5784538E+01
 3.1107502E+00  3.5498642E+01
 3.1222501E+00  3.5500996E+01
 3.1337502E+00  3.5414268E+01
 3.1452501E+00  3.5383770E+01
 3.1567502E+00  3.5122749E+01
 3.1682501E+00  3.5307117E+01
 3.1797502E+00  3.5309875E+01
 3.1912501E+00  3.5461571E+01
 3.2027502E+00  3.5509014E+01
 3.2142501E+00  3.5843624E+01
 3.2257502E+00  3.5983486E+01
 3.2372501E+00  3.5875214E+01
 3.2487502E+00  3.5590046E+01
 3.2602501E+00  3.5338219E+01
 3.2717502E+00  3.4883877E+01
 3.2832501E+00  3.4674412E+01
 3.2947502E+00  3.4363190E+01
 3.3062501E+00  3.4149387E+01
 3.3177502E+00  3.3833530E+01
 3.3292501E+00  3.4065041E+01
 3.3407502E+00  3.4470089E+01
 3.3522501E+00  3.4531116E+01
 3.3637502E+00  3.4610985E+01
 3.3752501E+00  3.4620190E+01
 3.3867502E+00  3.4767281E+01
 3.3982501E+00  3.4393787E+01
 3.4097502E+00  3.4286362E+01
 3.4212501E+00  3.4148952E+01
 3.4327502E+00  3.4339771E+01
 3.4442501E+00  3.4459415E+01
 3.4557502E+00  3.4700897E+01
 3.4672501E+00  3.4881252E+01
 3.4787502E+00  3.4583153E+01
 3.4902501E+00  3.4278198E+01
 3.5017502E+00  3.3656658E+01
 3.5132501E+00  3.3390728E+01
 3.5247502E+00  3.3020279E+01
 3.5362501E+00  3.3130714E+01
 3.5477502E+00  3.2976761E+01
 3.5592501E+00  3.2963207E+01
 3.5707502E+00  3.2694153E+01
 3.5822501E+00  3.2805546E+01
 3.5937502E+00  3.2932648E+01
 3.6052501E+00  3.3084614E+01
 3.6167502E+00  3.3162399E+01
 3.6282501E+00  3.3410709E+01
 3.6397502E+00  3.3358833E+01
 3.6512501E+00  3.3590233E+01
 3.6627502E+00  3.3481518E+01
 3.6742501E+00  3.3456108E+01
 3.6857502E+00  3.3382843E+01
 3.6972501E+00  3.3259846E+01
 3.7087502E+00  3.3126163E+01
 3.7202501E+00  3.3061111E+01
 3.7317502E+00  3.2939987E+01
 3.7432501E+00  3.3179333E+01
 3.7547503E+00  3.3075600E+01
 3.7662501E+00  3.3145195E+01
 3.7777503E+00  3.2896343E+01
 3.7892501E+00  3.2783054E+01
 3.8007503E+00  3.2474491E+01
 3.8122501E+00  3.2702534E+01
 3.8237503E+00  3.2619934E+01
 3.8352501E+00  3.2880760E+01
 3.8467503E+00  3.2838577E+01
 3.8582501E+00  3.2918018E+01
 3.8697503E+00  3.2929928E+01
 3.8812501E+00  3.2767548E+01
 3.8927503E+00  3.2560196E+01
 3.9042501E+00  3.2475998E+01
 3.9157503E+00  3.2433022E+01
 3.9272501E+00  3.2515682E+01
 3.9387503E+00  3.2625782E+01
 3.9502501E+00  3.2689068E+01
 3.9617503E+00  3.3055187E+01
 3.9732502E+00  3.3158646E+01
 3.9847503E+00  3.2963120E+01
 3.9962502E+00  3.2875034E+01
 4.0077500E+00  3.2736164E+01
 4.0192504E+00  3.2687016E+01
 4.0307503E+00  3.2523663E+01
 4.0422502E+00  3.2464684E+01
 4.0537500E+00  3.2608418E+01
 4.0652504E+00  3.2596153E+01
 4.0767503E+00  3.2368210E+01
 4.0882502E+00  3.2346931E+01
 4.0997500E+00  3.2093109E+01
 4.1112504E+00  3.2135166E+01
 4.1227503E+00  3.2075275E+01
 4.1342502E+00  3.2315826E+01
 4.1457500E+00  3.2554916E+01
 4.1572504E+00  3.2588234E+01
 4.1687503E+00  3.2652039E+01
 4.1802502E+00  3.2504986E+01
 4.1917500E+00  3.2575977E+01
 4.2032504E+00  3.2314743E+01
 4.2147503E+00  3.2297550E+01
 4.2262502E+00  3.2108135E+01
 4.2377501E+00  3.2147568E+01
 4.2492504E+00  3.2148647E+01
 4.2607503E+00  3.2201180E+01
 4.2722502E+00  3.2212936E+01
 4.2837501E+00  3.2251751E+01
 4.2952504E+00  3.2164246E+01
 4.3067503E+00  3.2169834E+01
 4.3182502E+00  3.2172260E+01
 4.3297501E+00  3.2156723E+01
 4.3412504E+00  3.2149151E+01
 4.3527503E+00  3.2029095E+01
 4.3642502E+00  3.1913465E+01
 4.3757501E+00  3.1975542E+01
 4.3872504E+00  3.1904606E+01
 4.3987503E+00  3.2120216E+01
 4.4102502E+00  3.2091824E+01
 4.4217501E+00  3.2240917E+01
 4.4332504E+00  3.2267853E+01
 4.4447503E+00  3.2269920E+01
 4.4562502E+00  3.2343143E+01
 4.4677501E+00  3.2348877E+01
 4.4792504E+00  3.2499992E+01
 4.4907503E+00  3.2469364E+01
 4.5022502E+00  3.2547474E+01
 4.5137501E+00  3.2442287E+01
 4.5252504E+00  3.2592766E+01
 4.5367503E+00  3.2572613E+01
 4.5482502E+00  3.2650784E+01
 4.5597501E+00  3.2714531E+01
 4.5712504E+00  3.2625076E+01
 4.5827503E+00  3.2508839E+01
 4.5942502E+00  3.2467239E+01
 4.6057501E+00  3.2488991E+01
 4.6172504E+00  3.2479416E+01
 4.6287503E+00  3.2317127E+01
 4.6402502E+00  3.2309647E+01
 4.6517501E+00  3.2326065E+01
 4.6632504E+00  3.2308216E+01
 4.6747503E+00  3.2350418E+01
 4.6862502E+00  3.2510159E+01
 4.6977501E+00  3.2657787E+01
 4.7092505E+00  3.2661030E+01
 4.7207503E+00  3.2684292E+01
 4.7322502E+00  3.2698677E+01
 4.7437501E+00  3.2689575E+01
 4.7552505E+00  3.2633801E+01
 4.7667503E+00  3.2580910E+01
 4.7782502E+00  3.2544743E+01
 4.7897501E+00  3.2534023E+01
 4.8012505E+00  3.2508625E+01
 4.8127503E+00  3.2500229E+01
 4.8242502E+00  3.2422359E+01
 4.8357501E+00  3.2363461E+01
 4.8472505E+00  3.2412292E+01
 4.8587503E+00  3.2608330E+01
 4.8702502E+00  3.2761856E+01
 4.8817501E+00  3.2981327E+01
 4.8932505E+00  3.3050644E+01
 4.9047503E+00  3.3195755E+01
 4.9162502E+00  3.3191124E+01
 4.9277501E+00  3.3086693E+01
 4.9392505E+00  3.2983963E+01
 4.9507504E+00  3.2891304E+01
 4.9622502E+00  3.2868336E+01
 4.9737501E+00  3.2949184E+01
 4.9852505E+00  3.3068752E+01
 4.9967504E+00  3.3127850E+01
 5.0082502E+00  3.3222237E+01
 5.0197501E+00  3.3090981E+01
 5.0312505E+00  3.3142303E+01
 5.0427504E+00  3.3156891E+01
 5.0542502E+00  3.3270325E+01
 5.0657501E+00  3.3407810E+01
 5.0772505E+00  3.3393391E+01
 5.0887504E+00  3.3463467E+01
 5.1002502E+00  3.3529243E+01
 5.1117501E+00  3.3559109E+01
 5.1232505E+00  3.3680767E+01
 5.1347504E+00  3.3626213E+01
 5.1462502E+00  3.3728207E+01
 5.1577501E+00  3.3626057E+01
 5.1692505E+00  3.3673466E+01
 5.1807504E+00  3.3631264E+01
 5.1922503E+00  3.3676014E+01
 5.2037501E+00  3.3725258E+01
 5.2152505E+00  3.3733196E+01
 5.2267504E+00  3.3791607E+01
 5.2382503E+00  3.3802189E+01
 5.2497501E+00  3.3742992E+01
 5.2612505E+00  3.3739853E+01
 5.2727504E+00  3.3814320E+01
 5.2842503E+00  3.3962318E+01
 5.2957501E+00  3.4158878E+01
 5.3072500E+00  3.4265522E+01
 5.3187504E+00  3.4425320E+01
 5.3302503E+00  3.4494133E+01
 5.3417501E+00  3.4536266E+01
 5.3532500E+00  3.4504444E+01
 5.3647504E+00  3.4471756E+01
 5.3762503E+00  3.4427719E+01
 5.3877501E+00  3.4435909E+01
 5.3992500E+00  3.4437157E+01
 5.4107504E+00  3.4449688E+01
 5.4222503E+00  3.4454697E+01
 5.4337502E+00  3.4434177E+01
 5.4452500E+00  3.4508556E+01
 5.4567504E+00  3.4569283E+01
 5.4682503E+00  3.4655025E+01
 5.4797502E+00  3.4655373E+01
 5.4912500E+00  3.4613571E+01
 5.5027504E+00  3.4657944E+01
 5.5142503E+00  3.4816177E+01
 5.5257502E+00  3.4982224E+01
 5.5372500E+00  3.4996929E+01
 5.5487504E+00  3.5035511E+01
 5.5602503E+00  3.5063068E+01
 5.5717502E+00  3.5130043E+01
 5.5832500E+00  3.5074020E+01
 5.5947504E+00  3.5097488E+01
 5.6062503E+00  3.5189392E+01
 5.6177502E+00  3.5258209E+01
 5.6292500E+00  3.5309086E+01
 5.6407504E+00  3.5357956E+01
 5.6522503E+00  3.5359745E+01
 5.6637502E+00  3.5382309E+01
 5.6752501E+00  3.5284805E+01
 5.6867504E+00  3.5358032E+01
 5.6982503E+00  3.5296860E+01
 5.7097502E+00  3.5454468E+01
 5.7212501E+00  3.5427143E+01
 5.7327504E+00  3.5488823E+01
 5.7442503E+00  3.5507542E+01
 5.7557502E+00  3.5600407E+01
 5.7672501E+00  3.5658653E+01
 5.7787504E+00  3.5744362E+01
 5.7902503E+00  3.5788887E+01
 5.8017502E+00  3.5930389E+01
 5.8132501E+00  3.6005096E+01
 5.8247504E+00  3.6133934E+01
 5.8362503E+00  3.6324512E+01
 5.8477502E+00  3.6429344E+01
 5.8592501E+00  3.6548611E+01
 5.8707504E+00  3.6821457E+01
 5.8822503E+00  3.7160934E+01
 5.8937502E+00  3.8103184E+01
 5.9052501E+00  3.9210831E+01
 5.9167504E+00  4.1439121E+01
 5.9282503E+00  4.4284821E+01
 5.9397502E+00  5.2198055E+01
 5.9512501E+00  5.8870216E+01
 5.9627504E+00  6.4368996E+01
 5.9742503E+00  6.8976509E+01
 5.9857502E+00  6.8846146E+01
 5.9972501E+00  6.6820595E+01
 6.0087504E+00  5.9639290E+01
 6.0202503E+00  5.3085365E+01
 6.0317502E+00  4.8124809E+01
 6.0432501E+00  4.3622311E+01
 6.0547504E+00  4.0981346E+01
 6.0662503E+00  3.9475578E+01
 6.0777502E+00  3.8399845E+01
 6.0892501E+00  3.7888668E+01
 6.1007504E+00  3.7616089E+01
 6.1122503E+00  3.7527908E+01
 6.1237502E+00  3.7445038E+01
 6.1352501E+00  3.7283634E+01
 6.1467505E+00  3.7130974E+01
 6.1582503E+00  3.7132145E+01
 6.1697502E+00  3.7112984E+01
 6.1812501E+00  3.7234631E+01
 6.1927505E+00  3.7270763E+01
 6.2042503E+00  3.7347496E+01
 6.2157502E+00  3.7353447E+01
 6.2272501E+00  3.7388271E+01
 6.2387505E+00  3.7358509E+01
 6.2502503E+00  3.7459339E+01
 6.2617502E+00  3.7527870E+01
 6.2732501E+00  3.7739841E+01
 6.2847505E+00  3.7879387E+01
 6.2962503E+00  3.7816284E+01
 6.3077502E+00  3.7766487E+01
 6.3192501E+00  3.7671520E+01
 6.3307505E+00  3.7740597E+01
 6.3422503E+00  3.7816380E+01
 6.3537502E+00  3.7922932E+01
 6.3652501E+00  3.7988846E+01
 6.3767505E+00  3.8070248E+01
 6.3882504E+00  3.8221161E+01
 6.3997502E+00  3.8190948E+01
 6.4112501E+00  3.8226204E+01
 6.4227505E+00  3.8149273E+01
 6.4342504E+00  3.8197800E+01
 6.4457502E+00  3.8286976E+01
 6.4572501E+00  3.8296772E+01
 6.4687505E+00  3.8444973E+01
 6.4802504E+00  3.8479919E+01
 6.4917502E+00  3.8580059E+01
 6.5032501E+00  3.8670536E+01
 6.5147505E+00  3.8776749E+01
 6.5262504E+00  3.8919853E+01
 6.5377502E+00  3.9082779E+01
 6.5492501E+00  3.9113300E+01
 6.5607505E+00  3.9195290E+01
 6.5722504E+00  3.9156258E+01
 6.5837502E+00  3.9255505E+01
 6.5952501E+00  3.9356258E+01
 6.6067505E+00  3.9504429E+01
 6.6182504E+00  3.9672607E+01
 6.6297503E+00  3.9848270E+01
 6.6412501E+00  3.9929714E+01
 6.6527505E+00  4.0055367E+01
 6.6642504E+00  4.0165455E+01
 6.6757503E+00  4.0186455E+01
 6.6872501E+00  4.0212120E+01
 6.6987505E+00  4.0174191E+01
 6.7102504E+00  4.0335545E+01
 6.7217503E+00  4.0467999E+01
 6.7332501E+00  4.0549717E+01
 6.7447505E+00  4.0667664E+01
 6.7562504E+00  4.0809097E+01
 6.7677503E+00  4.0946735E+01
 6.7792501E+00  4.1009640E+01
 6.7907505E+00  4.0996048E+01
 6.8022504E+00  4.1061085E+01
 6.8137503E+00  4.1157780E+01
 6.8252501E+00  4.1265675E+01
 6.8367505E+00  4.1290527E+01
 6.8482504E+00  4.1297909E+01
 6.8597503E+00  4.1266762E+01
 6.8712502E+00  4.1371193E+01
 6.8827505E+00  4.1385033E+01
 6.8942504E+00  4.1452888E+01
 6.9057503E+00  4.1394062E+01
 6.9172502E+00  4.1494720E+01
 6.9287505E+00  4.1580605E+01
 6.9402504E+00  4.1727631E+01
 6.9517503E+00  4.1901077E+01
 6.9632502E+00  4.2043434E+01
 6.9747505E+00  4.2163460E+01
 6.9862504E+00  4.2216343E+01
 6.9977503E+00  4.2231003E+01
 7.0092502E+00  4.2261868E+01
 7.0207505E+00  4.2238884E+01
 7.0322504E+00  4.2306477E+01
 7.0437503E+00  4.2359421E+01
 7.0552502E+00  4.2432503E+01
 7.0667505E+00  4.2415440E+01
 7.0782504E+00  4.2419113E+01
 7.0897503E+00  4.2489258E+01
 7.1012502E+00  4.2534626E+01
 7.1127505E+00  4.2507561E+01
 7.1242504E+00  4.2483517E+01
 7.1357503E+00  4.2461555E+01
 7.1472502E+00  4.2572491E+01
 7.1587505E+00  4.2679958E+01
 7.1702504E+00  4.2862942E+01
 7.1817503E+00  4.2948627E+01
 7.1932502E+00  4.3038906E+01
 7.2047505E+00  4.3047302E+01
 7.2162504E+00  4.3070976E+01
 7.2277503E+00  4.3048901E+01
 7.2392502E+00  4.3102581E+01
 7.2507505E+00  4.3159367E+01
 7.2622504E+00  4.3166039E+01
 7.2737503E+00  4.3174950E+01
 7.2852502E+00  4.3117111E+01
 7.2967505E+00  4.3105366E+01
 7.3082504E+00  4.3152340E+01
 7.3197503E+00  4.3266167E+01
 7.3312502E+00  4.3457214E+01
 7.3427505E+00  4.3461517E+01
 7.3542504E+00  4.3516098E+01
 7.3657503E+00  4.3488739E+01
 7.3772502E+00  4.3499657E+01
 7.3887506E+00  4.3593571E+01
 7.4002504E+00  4.3670845E+01
 7.4117503E+00  4.3803642E+01
 7.4232502E+00  4.3861187E+01
 7.4347506E+00  4.3903751E+01
 7.4462504E+00  4.3923916E+01
 7.4577503E+00  4.3984364E+01
 7.4692502E+00  4.3920387E+01
 7.4807506E+00  4.3946152E+01
 7.4922504E+00  4.3911537E+01
 7.5037503E+00  4.3942123E+01
 7.5152502E+00  4.3996582E+01
 7.5267506E+00  4.3860855E+01
 7.5382504E+00  4.3953453E+01
 7.5497503E+00  4.3889626E+01
 7.5612502E+00  4.4019089E+01
 7.5727506E+00  4.3994465E+01
 7.5842505E+00  4.4082169E+01
 7.5957503E+00  4.4131954E+01
 7.6072502E+00  4.4202465E+01
 7.6187506E+00  4.4184063E+01
 7.6302505E+00  4.4160362E+01
 7.6417503E+00  4.4104885E+01
 7.6532502E+00  4.4026165E+01
 7.6647506E+00  4.3894341E+01
 7.6762505E+00  4.3853577E+01
 7.6877503E+00  4.3829998E+01
 7.6992502E+00  4.3933357E+01
 7.7107506E+00  4.4038433E+01
 7.7222505E+00  4.4124176E+01
 7.7337503E+00  4.4224972E+01
 7.7452502E+00  4.4139076E+01
 7.7567506E+00  4.4194031E+01
 7.7682505E+00  4.4131813E+01
 7.7797503E+00  4.4109081E+01
 7.7912502E+00  4.4097904E+01
 7.8027506E+00  4.4024334E+01
 7.8142505E+00  4.3940266E+01
 7.8257504E+00  4.3764679E+01
 7.8372502E+00  4.3735939E+01
 7.8487506E+00  4.3755756E+01
 7.8602505E+00  4.3673985E+01
 7.8717504E+00  4.3641289E+01
 7.8832502E+00  4.3547363E+01
 7.8947506E+00  4.3529797E+01
 7.9062505E+00  4.3405708E+01
 7.9177504E+00  4.3325947E+01
 7.9292502E+00  4.3334583E+01
 7.9407506E+00  4.3303303E+01
 7.9522505E+00  4.3359768E+01
 7.9637504E+00  4.3231998E+01
 7.9752502E+00  4.3203365E+01
 7.9867506E+00  4.3086685E+01
 7.9982505E+00  4.3203392E+01
 8.0097504E+00  4.3141506E+01
 8.0212507E+00  4.3090336E+01
 8.0327501E+00  4.3012280E+01
 8.0442505E+00  4.3022320E+01
 8.0557508E+00  4.3033566E+01
 8.0672503E+00  4.2941154E+01
 8.0787506E+00  4.2803959E+01
 8.0902500E+00  4.2715027E+01
 8.1017504E+00  4.2639690E+01
 8.1132507E+00  4.2499126E+01
 8.1247501E+00  4.2298473E+01
 8.1362505E+00  4.2100349E+01
 8.1477509E+00  4.1958385E+01
 8.1592503E+00  4.1905861E+01
 8.1707506E+00  4.1824001E+01
 8.1822500E+00  4.1718105E+01
 8.1937504E+00  4.1702950E+01
 8.2052507E+00  4.1582718E+01
 8.2167501E+00  4.1539791E+01
 8.2282505E+00  4.1372471E+01
 8.2397509E+00  4.1207993E+01
 8.2512503E+00  4.1032887E+01
 8.2627506E+00  4.0882679E+01
 8.2742500E+00  4.0878704E+01
 8.2857504E+00  4.0760906E+01
 8.2972507E+00  4.0703739E+01
 8.3087502E+00  4.0526001E+01
 8.3202505E+00  4.0490910E+01
 8.3317509E+00  4.0351162E+01
 8.3432503E+00  4.0193100E+01
 8.3547506E+00  3.9908798E+01
 8.3662500E+00  3.9700012E+01
 8.3777504E+00  3.9446594E+01
 8.3892508E+00  3.9341221E+01
 8.4007502E+00  3.9157726E+01
 8.4122505E+00  3.9075829E+01
 8.4237509E+00  3.8969570E+01
 8.4352503E+00  3.8733021E+01
 8.4467506E+00  3.8502293E+01
 8.4582500E+00  3.8212276E+01
 8.4697504E+00  3.8040028E+01
 8.4812508E+00  3.7877087E+01
 8.4927502E+00  3.7718391E+01
 8.5042505E+00  3.7634380E+01
 8.5157509E+00  3.7532902E+01
 8.5272503E+00  3.7450436E+01
 8.5387506E+00  3.7295918E+01
 8.5502501E+00  3.7094673E+01
 8.5617504E+00  3.6880547E+01
 8.5732508E+00  3.6713631E+01
 8.5847502E+00  3.6489956E+01
 8.5962505E+00  3.6301369E+01
 8.6077509E+00  3.6141533E+01
 8.6192503E+00  3.6063793E+01
 8.6307507E+00  3.6036766E+01
 8.6422501E+00  3.5935917E+01
 8.6537504E+00  3.5755665E+01
 8.6652508E+00  3.5539375E+01
 8.6767502E+00  3.5279491E+01
 8.6882505E+00  3.5050735E+01
 8.6997509E+00  3.4853924E+01
 8.7112503E+00  3.4673203E+01
 8.7227507E+00  3.4519287E+01
 8.7342501E+00  3.4299255E+01
 8.7457504E+00  3.4134361E+01
 8.7572508E+00  3.4033627E+01
 8.7687502E+00  3.3940781E+01
 8.7802505E+00  3.3868237E+01
 8.7917500E+00  3.3647289E+01
 8.8032503E+00  3.3434753E+01
 8.8147507E+00  3.3153618E+01
 8.8262501E+00  3.2983551E+01
 8.8377504E+00  3.2769070E+01
 8.8492508E+00  3.2577881E+01
 8.8607502E+00  3.2397705E+01
 8.8722506E+00  3.2285542E+01
 8.8837500E+00  3.2082031E+01
 8.8952503E+00  3.1974075E+01
 8.9067507E+00  3.1845890E+01
 8.9182501E+00  3.1742455E+01
 8.9297504E+00  3.1603241E+01
 8.9412508E+00  3.1422779E+01
 8.9527502E+00  3.1289072E+01
 8.9642506E+00  3.1102160E+01
 8.9757500E+00  3.0943638E+01
 8.9872503E+00  3.0812090E+01
 8.9987507E+00  3.0610559E+01
 9.0102501E+00  3.0445572E+01
 9.0217505E+00  3.0237169E+01
 9.0332508E+00  3.0163555E+01
 9.0447502E+00  2.9998812E+01
 9.0562506E+00  2.9853037E+01
 9.0677500E+00  2.9726538E+01
 9.0792503E+00  2.9644478E+01
 9.0907507E+00  2.9577488E+01
 9.1022501E+00  2.9490602E+01
 9.1137505E+00  2.9424997E+01
 9.1252508E+00  2.9389835E+01
 9.1367502E+00  2.9277502E+01
 9.1482506E+00  2.9172724E+01
 9.1597500E+00  2.8951036E+01
 9.1712503E+00  2.8763899E+01
 9.1827507E+00  2.8598907E+01
 9.1942501E+00  2.8486126E+01
 9.2057505E+00  2.8370787E+01
 9.2172508E+00  2.8227976E+01
 9.2287502E+00  2.8063532E+01
 9.2402506E+00  2.7937508E+01
 9.2517500E+00  2.7870125E+01
 9.2632504E+00  2.7807945E+01
 9.2747507E+00  2.7757967E+01
 9.2862501E+00  2.7703047E+01
 9.2977505E+00  2.7647404E+01
 9.3092508E+00  2.7567329E+01
 9.3207502E+00  2.7485954E+01
 9.3322506E+00  2.7451332E+01
 9.3437500E+00  2.7404329E+01
 9.3552504E+00  2.7345989E+01
 9.3667507E+00  2.7294100E+01
 9.3782501E+00  2.7296064E+01
 9.3897505E+00  2.7177717E+01
 9.4012508E+00  2.7107037E+01
 9.4127502E+00  2.6976347E+01
 9.4242506E+00  2.6894535E+01
 9.4357500E+00  2.6750355E+01
 9.4472504E+00  2.6662760E+01
 9.4587507E+00  2.6589056E+01
 9.4702501E+00  2.6540085E+01
 9.4817505E+00  2.6514025E+01
 9.4932508E+00  2.6455034E+01
 9.5047503E+00  2.6439783E+01
 9.5162506E+00  2.6353920E+01
 9.5277500E+00  2.6301340E+01
 9.5392504E+00  2.6193607E+01
 9.5507507E+00  2.6134132E+01
 9.5622501E+00  2.6064777E+01
 9.5737505E+00  2.5995556E+01
 9.5852509E+00  2.5877693E+01
 9.5967503E+00  2.5861088E+01
 9.6082506E+00  2.5833622E+01
 9.6197500E+00  2.5816889E+01
 9.6312504E+00  2.5710060E+01
 9.6427507E+00  2.5645483E+01
 9.6542501E+00  2.5541595E+01
 9.6657505E+00  2.5495335E+01
 9.6772509E+00  2.5398148E+01
 9.6887503E+00  2.5343266E+01
 9.7002506E+00  2.5335791E+01
 9.7117500E+00  2.5387087E+01
 9.7232504E+00  2.5417261E+01
 9.7347507E+00  2.5343403E+01
 9.7462502E+00  2.5269205E+01
 9.7577505E+00  2.5132889E+01
 9.7692509E+00  2.5038643E+01
 9.7807503E+00  2.4912497E+01
 9.7922506E+00  2.4912880E+01
 9.8037500E+00  2.4938583E+01
 9.8152504E+00  2.4951637E+01
 9.8267508E+00  2.4984463E+01
 9.8382502E+00  2.4896900E+01
 9.8497505E+00  2.4856176E+01
 9.8612509E+00  2.4746647E+01
 9.8727503E+00  2.4667448E+01
 9.8842506E+00  2.4620611E+01
 9.8957500E+00  2.4573931E+01
 9.9072504E+00  2.4558723E+01
 9.9187508E+00  2.4515791E+01
 9.9302502E+00  2.4471922E+01
 9.9417505E+00  2.4486851E+01
 9.9532509E+00  2.4452559E+01
 9.9647503E+00  2.4459328E+01
 9.9762506E+00  2.4388346E+01
 9.9877501E+00  2.4335123E+01
 9.9992504E+00  2.4254620E+01
 1.0010751E+01  2.4262585E+01
 1.0022250E+01  2.4242683E+01
 1.0033751E+01  2.4256521E+01
 1.0045251E+01  2.4233107E+01
 1.0056750E+01  2.4214548E+01
 1.0068251E+01  2.4193031E+01
 1.0079750E+01  2.4088373E+01
 1.0091250E+01  2.4041656E+01
 1.0102751E+01  2.3923412E+01
 1.0114250E+01  2.3914280E+01
 1.0125751E+01  2.3885958E+01
 1.0137251E+01  2.3931376E+01
 1.0148750E+01  2.3965433E+01
 1.0160251E+01  2.3967731E+01
 1.0171750E+01  2.3940678E+01
 1.0183250E+01  2.3872456E+01
 1.0194751E+01  2.3837809E+01
 1.0206250E+01  2.3805195E+01
 1.0217751E+01  2.3777340E+01
 1.0229251E+01  2.3757881E+01
 1.0240750E+01  2.3715633E+01
 1.0252251E+01  2.3660643E+01
 1.0263750E+01  2.3585346E+01
 1.0275250E+01  2.3580578E+01
 1.0286751E+01  2.3653185E+01
 1.0298250E+01  2.3689274E+01
 1.0309751E+01  2.3696947E+01
 1.0321251E+01  2.3651165E+01
 1.0332750E+01  2.3652916E+01
 1.0344251E+01  2.3611271E+01
 1.0355750E+01  2.3588663E+01
 1.0367250E+01  2.3528685E+01
 1.0378751E+01  2.3503012E+01
 1.0390250E+01  2.3484152E+01
 1.0401751E+01  2.3501135E+01
 1.0413251E+01  2.3495363E+01
 1.0424750E+01  2.3391182E+01
 1.0436251E+01  2.3342718E+01
 1.0447750E+01  2.3256735E+01
 1.0459250E+01  2.3301680E+01
 1.0470751E+01  2.3265032E+01
 1.0482250E+01  2.3294443E+01
 1.0493751E+01  2.3323748E+01
 1.0505251E+01  2.3294010E+01
 1.0516750E+01  2.3273378E+01
 1.0528251E+01  2.3164675E+01
 1.0539750E+01  2.3152567E+01
 1.0551250E+01  2.3138939E+01
 1.0562751E+01  2.3179396E+01
 1.0574250E+01  2.3193470E+01
 1.0585751E+01  2.3174393E+01
 1.0597251E+01  2.3197376E+01
 1.0608750E+01  2.3224710E+01
 1.0620251E+01  2.3236361E+01
 1.0631750E+01  2.3219704E+01
 1.0643250E+01  2.3096731E+01
 1.0654751E+01  2.3091921E+01
 1.0666250E+01  2.3055975E+01
 1.0677751E+01  2.3044844E+01
 1.0689251E+01  2.3008581E+01
 1.0700750E+01  2.2968857E+01
 1.0712251E+01  2.2971180E+01
 1.0723750E+01  2.2987606E+01
 1.0735250E+01  2.2919535E+01
 1.0746751E+01  2.2917227E+01
 1.0758250E+01  2.2880232E+01
 1.0769751E+01  2.2939035E+01
 1.0781251E+01  2.2954708E+01
 1.0792750E+01  2.2963036E+01
 1.0804251E+01  2.2921789E+01
 1.0815750E+01  2.2867163E+01
 1.0827250E+01  2.2791969E+01
 1.0838751E+01  2.2757198E+01
 1.0850250E+01  2.2794670E+01
 1.0861751E+01  2.2817806E+01
 1.0873251E+01  2.2854034E+01
 1.0884750E+01  2.2863205E+01
 1.0896251E+01  2.2839272E+01
 1.0907750E+01  2.2779261E+01
 1.0919250E+01  2.2667953E+01
 1.0930751E+01  2.2606136E+01
 1.0942250E+01  2.2585045E+01
 1.0953751E+01  2.2572046E+01
 1.0965251E+01  2.2591558E+01
 1.0976750E+01  2.2596075E+01
 1.0988251E+01  2.2604609E+01
 1.0999750E+01  2.2615427E+01
 1.1011250E+01  2.2629490E+01
 1.1022751E+01  2.2693777E+01
 1.1034250E+01  2.2689394E+01
 1.1045751E+01  2.2631277E+01
 1.1057251E+01  2.2567190E+01
 1.1068750E+01  2.2562050E+01
 1.1080251E+01  2.2608248E+01
 1.1091750E+01  2.2646032E+01
 1.1103251E+01  2.2660885E+01
 1.1114751E+01  2.2661686E+01
 1.1126250E+01  2.2615505E+01
 1.1137751E+01  2.2570395E+01
 1.1149251E+01  2.2578163E+01
 1.1160750E+01  2.2580482E+01
 1.1172251E+01  2.2574013E+01
 1.1183750E+01  2.2506531E+01
 1.1195251E+01  2.2457655E+01
 1.1206751E+01  2.2416901E+01
 1.1218250E+01  2.2427420E+01
 1.1229751E+01  2.2470680E+01
 1.1241251E+01  2.2514347E+01
 1.1252750E+01  2.2562801E+01
 1.1264251E+01  2.2576214E+01
 1.1275750E+01  2.2586582E+01
 1.1287251E+01  2.2537392E+01
 1.1298751E+01  2.2564339E+01
 1.1310250E+01  2.2616369E+01
 1.1321751E+01  2.2667419E+01
 1.1333251E+01  2.2673801E+01
 1.1344750E+01  2.2645502E+01
 1.1356251E+01  2.2665125E+01
 1.1367750E+01  2.2673100E+01
 1.1379251E+01  2.2709448E+01
 1.1390751E+01  2.2744558E+01
 1.1402250E+01  2.2899887E+01
 1.1413751E+01  2.2888535E+01
 1.1425251E+01  2.2878960E+01
 1.1436750E+01  2.2813606E+01
 1.1448251E+01  2.2855631E+01
 1.1459750E+01  2.2921240E+01
 1.1471251E+01  2.2933460E+01
 1.1482751E+01  2.2974718E+01
 1.1494250E+01  2.3033331E+01
 1.1505751E+01  2.3164425E+01
 1.1517251E+01  2.3506395E+01
 1.1528750E+01  2.4023613E+01
 1.1540251E+01  2.5115330E+01
 1.1551750E+01  2.6535627E+01
 1.1563251E+01  2.7928198E+01
 1.1574751E+01  3.0472698E+01
 1.1586250E+01  3.1964436E+01
 1.1597751E+01  3.3336872E+01
 1.1609251E+01  3.3627132E+01
 1.1620750E+01  3.2569256E+01
 1.1632251E+01  3.0979856E+01
 1.1643750E+01  2.8060188E+01
 1.1655251E+01  2.6518879E+01
 1.1666751E+01  2.5094551E+01
 1.1678250E+01  2.4103664E+01
 1.1689751E+01  2.3548548E+01
 1.1701251E+01  2.3180420E+01
 1.1712750E+01  2.3022224E+01
 1.1724251E+01  2.2857244E+01
 1.1735750E+01  2.2796961E+01
 1.1747251E+01  2.2709963E+01
 1.1758751E+01  2.2673130E+01
 1.1770250E+01  2.2627977E+01
 1.1781751E+01  2.2630449E+01
 1.1793251E+01  2.2694267E+01
 1.1804750E+01  2.2692991E+01
 1.1816251E+01  2.2740438E+01
 1.1827750E+01  2.2684504E+01
 1.1839251E+01  2.2715042E+01
 1.1850751E+01  2.2614492E+01
 1.1862250E+01  2.2605597E+01
 1.1873751E+01  2.2581856E+01
 1.1885251E+01  2.2605345E+01
 1.1896750E+01  2.2710867E+01
 1.1908251E+01  2.2799246E+01
 1.1919750E+01  2.2948698E+01
 1.1931251E+01  2.3095730E+01
 1.1942751E+01  2.3254122E+01
 1.1954250E+01  2.3525227E+01
 1.1965751E+01  2.3786860E+01
 1.1977251E+01  2.4128147E+01
 1.1988750E+01  2.4405876E+01
 1.2000251E+01  2.4525970E+01
 1.2011750E+01  2.4435726E+01
 1.2023251E+01  2.4189724E+01
 1.2034751E+01  2.4027388E+01
 1.2046250E+01  2.4014122E+01
 1.2057751E+01  2.4118208E+01
 1.2069251E+01  2.4891596E+01
 1.2080750E+01  2.5433981E+01
 1.2092251E+01  2.6047640E+01
 1.2103750E+01  2.6550043E+01
 1.2115251E+01  2.6546818E+01
 1.2126751E+01  2.6238937E+01
 1.2138250E+01  2.5128576E+01
 1.2149751E+01  2.4532890E+01
 1.2161251E+01  2.3946262E+01
 1.2172750E+01  2.3538769E+01
 1.2184251E+01  2.3254635E+01
 1.2195750E+01  2.3103338E+01
 1.2207251E+01  2.2948364E+01
 1.2218751E+01  2.2826347E+01
 1.2230250E+01  2.2768740E+01
 1.2241751E+01  2.2692472E+01
 1.2253251E+01  2.2697336E+01
 1.2264750E+01  2.2670113E+01
 1.2276251E+01  2.2649759E+01
 1.2287750E+01  2.2653372E+01
 1.2299251E+01  2.2645533E+01
 1.2310751E+01  2.2715572E+01
 1.2322250E+01  2.2708450E+01
 1.2333751E+01  2.2762135E+01
 1.2345250E+01  2.2750246E+01
 1.2356750E+01  2.2777132E+01
 1.2368251E+01  2.2740925E+01
 1.2379750E+01  2.2704945E+01
 1.2391251E+01  2.2634680E+01
 1.2402751E+01  2.2579845E+01
 1.2414250E+01  2.2588421E+01
 1.2425751E+01  2.2609840E+01
 1.2437250E+01  2.2611223E+01
 1.2448750E+01  2.2604723E+01
 1.2460251E+01  2.2579117E+01
 1.2471750E+01  2.2591688E+01
 1.2483251E+01  2.2606773E+01
 1.2494751E+01  2.2619055E+01
 1.2506250E+01  2.2642563E+01
 1.2517751E+01  2.2660454E+01
 1.2529250E+01  2.2727076E+01
 1.2540751E+01  2.2749376E+01
 1.2552251E+01  2.2791971E+01
 1.2563750E+01  2.2817085E+01
 1.2575251E+01  2.2812618E+01
 1.2586751E+01  2.2835238E+01
 1.2598250E+01  2.2834814E+01
 1.2609751E+01  2.2919004E+01
 1.2621250E+01  2.2925102E+01
 1.2632751E+01  2.2988251E+01
 1.2644251E+01  2.2960686E+01
 1.2655750E+01  2.2971565E+01
 1.2667251E+01  2.2888296E+01
 1.2678751E+01  2.2877407E+01
 1.2690250E+01  2.2862015E+01
 1.2701751E+01  2.2898834E+01
 1.2713250E+01  2.2959389E+01
 1.2724751E+01  2.2998697E+01
 1.2736251E+01  2.3014711E+01
 1.2747750E+01  2.2987616E+01
 1.2759251E+01  2.3028072E+01
 1.2770751E+01  2.3099108E+01
 1.2782250E+01  2.3210732E+01
 1.2793751E+01  2.3212761E+01
 1.2805250E+01  2.3257816E+01
 1.2816751E+01  2.3250378E+01
 1.2828251E+01  2.3315880E+01
 1.2839750E+01  2.3338375E+01
 1.2851251E+01  2.3376381E+01
 1.2862751E+01  2.3371649E+01
 1.2874250E+01  2.3376034E+01
 1.2885751E+01  2.3404009E+01
 1.2897250E+01  2.3441900E+01
 1.2908751E+01  2.3519569E+01
 1.2920251E+01  2.3530846E+01
 1.2931750E+01  2.3598289E+01
 1.2943251E+01  2.3611237E+01
 1.2954751E+01  2.3703255E+01
 1.2966250E+01  2.3750010E+01
 1.2977751E+01  2.3842899E+01
 1.2989250E+01  2.3874378E+01
 1.3000751E+01  2.3975899E+01
 1.3012251E+01  2.4020588E+01
 1.3023750E+01  2.4126419E+01
 1.3035251E+01  2.4231407E+01
 1.3046751E+01  2.4324667E+01
 1.3058250E+01  2.4428751E+01
 1.3069751E+01  2.4503033E+01
 1.3081250E+01  2.4590195E+01
 1.3092751E+01  2.4624586E+01
 1.3104251E+01  2.4700199E+01
 1.3115750E+01  2.4832510E+01
 1.3127251E+01  2.4976152E+01
 1.3138751E+01  2.5086863E+01
 1.3150250E+01  2.5176207E+01
 1.3161751E+01  2.5292200E+01
 1.3173250E+01  2.5459261E+01
 1.3184751E+01  2.5538584E+01
 1.3196251E+01  2.5648605E+01
 1.3207750E+01  2.5732077E+01
 1.3219251E+01  2.5929506E+01
 1.3230751E+01  2.6122034E+01
 1.3242250E+01  2.6287901E+01
 1.3253751E+01  2.6417227E+01
 1.3265250E+01  2.6509474E+01
 1.3276751E+01  2.6601521E+01
 1.3288251E+01  2.6742992E+01
 1.3299750E+01  2.6919340E+01
 1.3311251E+01  2.7055386E+01
 1.3322751E+01  2.7211226E+01
 1.3334250E+01  2.7357649E+01
 1.3345751E+01  2.7508598E+01
 1.3357250E+01  2.7690645E+01
 1.3368751E+01  2.7837233E+01
 1.3380251E+01  2.7984213E+01
 1.3391750E+01  2.8032883E+01
 1.3403251E+01  2.8113667E+01
 1.3414751E+01  2.8206024E+01
 1.3426250E+01  2.8297091E+01
 1.3437751E+01  2.8454826E+01
 1.3449250E+01  2.8596972E+01
 1.3460751E+01  2.8720667E+01
 1.3472251E+01  2.8804581E+01
 1.3483750E+01  2.8954309E+01
 1.3495251E+01  2.9082834E+01
 1.3506751E+01  2.9225929E+01
 1.3518250E+01  2.9294758E+01
 1.3529751E+01  2.9385614E+01
 1.3541250E+01  2.9479767E+01
 1.3552751E+01  2.9592152E+01
 1.3564251E+01  2.9725168E+01
 1.3575750E+01  2.9802570E+01
 1.3587251E+01  2.9912683E+01
 1.3598751E+01  2.9928162E+01
 1.3610250E+01  2.9906359E+01
 1.3621751E+01  2.9851116E+01
 1.3633250E+01  2.9813450E+01
 1.3644751E+01  2.9814762E+01
 1.3656251E+01  2.9839266E+01
 1.3667750E+01  2.9891161E+01
 1.3679251E+01  2.9930841E+01
 1.3690751E+01  2.9931162E+01
 1.3702250E+01  2.9900358E+01
 1.3713751E+01  2.9855419E+01
 1.3725250E+01  2.9848400E+01
 1.3736751E+01  2.9878971E+01
 1.3748251E+01  2.9894751E+01
 1.3759750E+01  2.9905985E+01
 1.3771251E+01  2.9923304E+01
 1.3782751E+01  2.9986742E+01
 1.3794250E+01  3.0033567E+01
 1.3805751E+01  3.0058046E+01
 1.3817250E+01  3.0124079E+01
 1.3828751E+01  3.0241243E+01
 1.3840251E+01  3.0496752E+01
 1.3851750E+01  3.0904076E+01
 1.3863251E+01  3.1655281E+01
 1.3874751E+01  3.3143303E+01
 1.3886250E+01  3.5057198E+01
 1.3897751E+01  3.9056984E+01
 1.3909250E+01  4.2864777E+01
 1.3920751E+01  4.8786945E+01
 1.3932251E+01  5.2111038E+01
 1.3943750E+01  5.5951088E+01
 1.3955251E+01  5.4997524E+01
 1.3966751E+01  5.4083855E+01
 1.3978251E+01  4.9141556E+01
 1.3989751E+01  4.5136051E+01
 1.4001250E+01  3.9779221E+01
 1.4012751E+01  3.6341358E+01
 1.4024251E+01  3.3146168E+01
 1.4035750E+01  3.1311354E+01
 1.4047251E+01  2.9970364E+01
 1.4058751E+01  2.9229752E+01
 1.4070251E+01  2.8855001E+01
 1.4081751E+01  2.8530344E+01
 1.4093250E+01  2.8303066E+01
 1.4104751E+01  2.8052586E+01
 1.4116251E+01  2.7884758E+01
 1.4127750E+01  2.7713005E+01
 1.4139251E+01  2.7581177E+01
 1.4150751E+01  2.7466185E+01
 1.4162251E+01  2.7456787E+01
 1.4173751E+01  2.7372099E+01
 1.4185250E+01  2.7310431E+01
 1.4196751E+01  2.7181452E+01
 1.4208251E+01  2.7101585E+01
 1.4219750E+01  2.6949202E+01
 1.4231251E+01  2.6840870E+01
 1.4242751E+01  2.6804569E+01
 1.4254251E+01  2.6722748E+01
 1.4265751E+01  2.6708426E+01
 1.4277250E+01  2.6586281E+01
 1.4288751E+01  2.6575411E+01
 1.4300251E+01  2.6509354E+01
 1.4311750E+01  2.6495611E+01
 1.4323251E+01  2.6417639E+01
 1.4334751E+01  2.6359371E+01
 1.4346251E+01  2.6280546E+01
 1.4357751E+01  2.6280687E+01
 1.4369250E+01  2.6249393E+01
 1.4380751E+01  2.6224096E+01
 1.4392251E+01  2.6195326E+01
 1.4403750E+01  2.6127586E+01
 1.4415251E+01  2.6113434E+01
 1.4426751E+01  2.6058634E+01
 1.4438251E+01  2.6028210E+01
 1.4449751E+01  2.5946917E+01
 1.4461250E+01  2.5850431E+01
 1.4472751E+01  2.5760141E+01
 1.4484251E+01  2.5692856E+01
 1.4495750E+01  2.5635532E+01
 1.4507251E+01  2.5681276E+01
 1.4518751E+01  2.5714537E+01
 1.4530251E+01  2.5830225E+01
 1.4541751E+01  2.5749311E+01
 1.4553250E+01  2.5710901E+01
 1.4564751E+01  2.5585228E+01
 1.4576251E+01  2.5543922E+01
 1.4587750E+01  2.5510448E+01
 1.4599251E+01  2.5481583E+01
 1.4610751E+01  2.5504549E+01
 1.4622251E+01  2.5490841E+01
 1.4633751E+01  2.5491230E+01
 1.4645250E+01  2.5449936E+01
 1.4656751E+01  2.5390636E+01
 1.4668251E+01  2.5319763E+01
 1.4679750E+01  2.5226601E+01
 1.4691251E+01  2.5191809E+01
 1.4702751E+01  2.5191719E+01
 1.4714251E+01  2.5182814E+01
 1.4725751E+01  2.5195126E+01
 1.4737250E+01  2.5164549E+01
 1.4748751E+01  2.5165060E+01
 1.4760251E+01  2.5157602E+01
 1.4771750E+01  2.5144501E+01
 1.4783251E+01  2.5094095E+01
 1.4794751E+01  2.5070852E+01
 1.4806251E+01  2.5054098E+01
 1.4817751E+01  2.5038691E+01
 1.4829250E+01  2.5040052E+01
 1.4840751E+01  2.5080626E+01
 1.4852251E+01  2.5145426E+01
 1.4863750E+01  2.5105196E+01
 1.4875251E+01  2.5075493E+01
 1.4886751E+01  2.5039024E+01
 1.4898251E+01  2.5061014E+01
 1.4909751E+01  2.5055758E+01
 1.4921250E+01  2.5029636E+01
 1.4932751E+01  2.4997118E+01
 1.4944251E+01  2.4956732E+01
 1.4955750E+01  2.4913181E+01
 1.4967251E+01  2.4869568E+01
 1.4978751E+01  2.4850138E+01
 1.4990251E+01  2.4870876E+01
 1.5001751E+01  2.4911575E+01
 1.5013250E+01  2.4950781E+01
 1.5024751E+01  2.4977194E+01
 1.5036251E+01  2.4958891E+01
 1.5047750E+01  2.4979420E+01
 1.5059251E+01  2.4988411E+01
 1.5070751E+01  2.5022554E+01
 1.5082251E+01  2.4989048E+01
 1.5093751E+01  2.5036734E+01
 1.5105250E+01  2.5125399E+01
 1.5116751E+01  2.5318239E+01
 1.5128251E+01  2.5582773E+01
 1.5139750E+01  2.6115160E+01
 1.5151251E+01  2.6976812E+01
 1.5162751E+01  2.7805729E+01
 1.5174251E+01  2.8983400E+01
 1.5185751E+01  2.9564884E+01
 1.5197250E+01  2.9916039E+01
 1.5208751E+01  2.9621948E+01
 1.5220251E+01  2.9020725E+01
 1.5231750E+01  2.8208971E+01
 1.5243251E+01  2.7149492E+01
 1.5254751E+01  2.6439543E+01
 1.5266251E+01  2.5700020E+01
 1.5277751E+01  2.5253710E+01
 1.5289250E+01  2.4988976E+01
 1.5300751E+01  2.4845459E+01
 1.5312251E+01  2.4790958E+01
 1.5323750E+01  2.4739944E+01
 1.5335251E+01  2.4744116E+01
 1.5346751E+01  2.4736572E+01
 1.5358251E+01  2.4735172E+01
 1.5369751E+01  2.4676321E+01
 1.5381250E+01  2.4645052E+01
 1.5392751E+01  2.4608011E+01
 1.5404251E+01  2.4607939E+01
 1.5415751E+01  2.4499569E+01
 1.5427251E+01  2.4478302E+01
 1.5438751E+01  2.4464397E+01
 1.5450251E+01  2.4501381E+01
 1.5461751E+01  2.4471491E+01
 1.5473250E+01  2.4436953E+01
 1.5484751E+01  2.4461977E+01
 1.5496251E+01  2.4514122E+01
 1.5507751E+01  2.4556137E+01
 1.5519251E+01  2.4574127E+01
 1.5530751E+01  2.4581879E+01
 1.5542251E+01  2.4589544E+01
 1.5553751E+01  2.4573435E+01
 1.5565250E+01  2.4577721E+01
 1.5576751E+01  2.4538786E+01
 1.5588251E+01  2.4515482E+01
 1.5599751E+01  2.4477676E+01
 1.5611251E+01  2.4478580E+01
 1.5622751E+01  2.4449892E+01
 1.5634251E+01  2.4486872E+01
 1.5645751E+01  2.4520241E+01
 1.5657250E+01  2.4578104E+01
 1.5668751E+01  2.4591398E+01
 1.5680251E+01  2.4612011E+01
 1.5691751E+01  2.4556423E+01
 1.5703251E+01  2.4552896E+01
 1.5714751E+01  2.4554659E+01
 1.5726251E+01  2.4594795E+01
 1.5737751E+01  2.4580214E+01
 1.5749250E+01  2.4585054E+01
 1.5760751E+01  2.4584618E+01
 1.5772251E+01  2.4603571E+01
 1.5783751E+01  2.4622671E+01
 1.5795251E+01  2.4689957E+01
 1.5806751E+01  2.4737383E+01
 1.5818251E+01  2.4738245E+01
 1.5829751E+01  2.4715883E+01
 1.5841250E+01  2.4681931E+01
 1.5852751E+01  2.4685902E+01
 1.5864251E+01  2.4682516E+01
 1.5875751E+01  2.4738373E+01
 1.5887251E+01  2.4790575E+01
 1.5898750E+01  2.4829866E+01
 1.5910251E+01  2.4839855E+01
 1.5921751E+01  2.4818628E+01
 1.5933250E+01  2.4810888E+01
 1.5944751E+01  2.4799377E+01
 1.5956251E+01  2.4891600E+01
 1.5967751E+01  2.4905224E+01
 1.5979251E+01  2.4919418E+01
 1.5990750E+01  2.4862556E+01
 1.6002251E+01  2.4833347E+01
 1.6013750E+01  2.4800392E+01
 1.6025251E+01  2.4744932E+01
 1.6036751E+01  2.4729235E+01
 1.6048250E+01  2.4729164E+01
 1.6059752E+01  2.4752012E+01
 1.6071251E+01  2.4710752E+01
 1.6082750E+01  2.4711002E+01
 1.6094252E+01  2.4701706E+01
 1.6105751E+01  2.4771263E+01
 1.6117250E+01  2.4780914E+01
 1.6128750E+01  2.4757593E+01
 1.6140251E+01  2.4801683E+01
 1.6151751E+01  2.4812458E+01
 1.6163250E+01  2.4918228E+01
 1.6174751E+01  2.4946768E+01
 1.6186251E+01  2.5174702E+01
 1.6197750E+01  2.5167540E+01
 1.6209251E+01  2.5489771E+01
 1.6220751E+01  2.5474682E+01
 1.6232250E+01  2.5839991E+01
 1.6243752E+01  2.5899218E+01
 1.6255251E+01  2.6119461E+01
 1.6266750E+01  2.6249565E+01
 1.6278252E+01  2.6013239E+01
 1.6289751E+01  2.6045851E+01
 1.6301250E+01  2.5459740E+01
 1.6312750E+01  2.5519346E+01
 1.6324251E+01  2.5076115E+01
 1.6335751E+01  2.5079670E+01
 1.6347250E+01  2.4840219E+01
 1.6358751E+01  2.4825102E+01
 1.6370251E+01  2.4786974E+01
 1.6381750E+01  2.4732349E+01
 1.6393251E+01  2.4767750E+01
 1.6404751E+01  2.4740641E+01
 1.6416250E+01  2.4744036E+01
 1.6427752E+01  2.4680378E+01
 1.6439251E+01  2.4653732E+01
 1.6450750E+01  2.4660307E+01
 1.6462252E+01  2.4650579E+01
 1.6473751E+01  2.4640963E+01
 1.6485250E+01  2.4625809E+01
 1.6496750E+01  2.4617567E+01
 1.6508251E+01  2.4651117E+01
 1.6519751E+01  2.4621035E+01
 1.6531250E+01  2.4685404E+01
 1.6542751E+01  2.4729170E+01
 1.6554251E+01  2.4727119E+01
 1.6565750E+01  2.4688858E+01
 1.6577251E+01  2.4610577E+01
 1.6588751E+01  2.4603470E+01
 1.6600250E+01  2.4598881E+01
 1.6611752E+01  2.4640356E+01
 1.6623251E+01  2.4622780E+01
 1.6634750E+01  2.4618418E+01
 1.6646252E+01  2.4572510E+01
 1.6657751E+01  2.4599688E+01
 1.6669250E+01  2.4600794E+01
 1.6680750E+01  2.4619467E+01
 1.6692251E+01  2.4619560E+01
 1.6703751E+01  2.4574181E+01
 1.6715250E+01  2.4555094E+01
 1.6726751E+01  2.4496330E+01
 1.6738251E+01  2.4414831E+01
 1.6749750E+01  2.4373436E+01
 1.6761251E+01  2.4331413E+01
 1.6772751E+01  2.4420019E+01
 1.6784250E+01  2.4441313E+01
 1.6795752E+01  2.4536167E+01
 1.6807251E+01  2.4553324E+01
 1.6818750E+01  2.4557035E+01
 1.6830252E+01  2.4531235E+01
 1.6841751E+01  2.4526550E+01
 1.6853251E+01  2.4564238E+01
 1.6864750E+01  2.4533564E+01
 1.6876251E+01  2.4498878E+01
 1.6887751E+01  2.4442440E+01
 1.6899250E+01  2.4460712E+01
 1.6910751E+01  2.4440771E+01
 1.6922251E+01  2.4427483E+01
 1.6933750E+01  2.4361641E+01
 1.6945251E+01  2.4329592E+01
 1.6956751E+01  2.4300489E+01
 1.6968250E+01  2.4330729E+01
 1.6979752E+01  2.4374191E+01
 1.6991251E+01  2.4389906E+01
 1.7002750E+01  2.4371723E+01
 1.7014252E+01  2.4364216E+01
 1.7025751E+01  2.4318928E+01
 1.7037251E+01  2.4298773E+01
 1.7048750E+01  2.4249117E+01
 1.7060251E+01  2.4276081E+01
 1.7071751E+01  2.4263344E+01
 1.7083250E+01  2.4260492E+01
 1.7094751E+01  2.4229284E+01
 1.7106251E+01  2.4179886E+01
 1.7117750E+01  2.4156404E+01
 1.7129251E+01  2.4156818E+01
 1.7140751E+01  2.4184118E+01
 1.7152250E+01  2.4176687E+01
 1.7163752E+01  2.4167498E+01
 1.7175251E+01  2.4179300E+01
 1.7186750E+01  2.4160324E+01
 1.7198252E+01  2.4189682E+01
 1.7209751E+01  2.4220766E+01
 1.7221251E+01  2.4285652E+01
 1.7232750E+01  2.4289248E+01
 1.7244251E+01  2.4264269E+01
 1.7255751E+01  2.4229017E+01
 1.7267250E+01  2.4220789E+01
 1.7278751E+01  2.4228262E+01
 1.7290251E+01  2.4199873E+01
 1.7301750E+01  2.4172211E+01
 1.7313251E+01  2.4149632E+01
 1.7324751E+01  2.4188210E+01
 1.7336250E+01  2.4219435E+01
 1.7347752E+01  2.4212107E+01
 1.7359251E+01  2.4193808E+01
 1.7370750E+01  2.4133018E+01
 1.7382252E+01  2.4083712E+01
 1.7393751E+01  2.4015163E+01
 1.7405251E+01  2.3974010E+01
 1.7416750E+01  2.3927141E+01
 1.7428251E+01  2.3896309E+01
 1.7439751E+01  2.3923889E+01
 1.7451250E+01  2.3970097E+01
 1.7462751E+01  2.4029268E+01
 1.7474251E+01  2.4087315E+01
 1.7485750E+01  2.4160652E+01
 1.7497252E+01  2.4125599E+01
 1.7508751E+01  2.4076820E+01
 1.7520250E+01  2.4045835E+01
 1.7531752E+01  2.4089966E+01
 1.7543251E+01  2.4106359E+01
 1.7554750E+01  2.4065472E+01
 1.7566252E+01  2.3951763E+01
 1.7577751E+01  2.3886965E+01
 1.7589251E+01  2.3883924E+01
 1.7600750E+01  2.3932848E+01
 1.7612251E+01  2.3957966E+01
 1.7623751E+01  2.3996742E+01
 1.7635250E+01  2.3984161E+01
 1.7646751E+01  2.3986294E+01
 1.7658251E+01  2.3994680E+01
 1.7669750E+01  2.4054821E+01
 1.7681252E+01  2.4044392E+01
 1.7692751E+01  2.4025068E+01
 1.7704250E+01  2.3970018E+01
 1.7715752E+01  2.3964262E+01
 1.7727251E+01  2.3895422E+01
 1.7738750E+01  2.3914112E+01
 1.7750252E+01  2.3908953E+01
 1.7761751E+01  2.3929399E+01
 1.7773251E+01  2.3914881E+01
 1.7784750E+01  2.3941784E+01
 1.7796251E+01  2.3989124E+01
 1.7807751E+01  2.3938763E+01
 1.7819250E+01  2.3884609E+01
 1.7830751E+01  2.3849728E+01
 1.7842251E+01  2.3860573E+01
 1.7853750E+01  2.3908319E+01
 1.7865252E+01  2.3945314E+01
 1.7876751E+01  2.4025648E+01
 1.7888250E+01  2.3987909E+01
 1.7899752E+01  2.4007530E+01
 1.7911251E+01  2.4035011E+01
 1.7922750E+01  2.4135916E+01
 1.7934252E+01  2.4149807E+01
 1.7945751E+01  2.4167707E+01
 1.7957251E+01  2.4357075E+01
 1.7968750E+01  2.4389126E+01
 1.7980251E+01  2.4941473E+01
 1.7991751E+01  2.4960190E+01
 1.8003250E+01  2.5530210E+01
 1.8014751E+01  2.5489641E+01
 1.8026251E+01  2.5627226E+01
 1.8037750E+01  2.5612980E+01
 1.8049252E+01  2.5616493E+01
 1.8060751E+01  2.5957899E+01
 1.8072250E+01  2.6144316E+01
 1.8083752E+01  2.7029354E+01
 1.8095251E+01  2.7477720E+01
 1.8106750E+01  2.7979317E+01
 1.8118252E+01  2.7711042E+01
 1.8129751E+01  2.7640432E+01
 1.8141251E+01  2.7155760E+01
 1.8152750E+01  2.6592693E+01
 1.8164251E+01  2.5960224E+01
 1.8175751E+01  2.5321993E+01
 1.8187250E+01  2.4829021E+01
 1.8198751E+01  2.4449507E+01
 1.8210251E+01  2.4192705E+01
 1.8221750E+01  2.4044676E+01
 1.8233252E+01  2.3941248E+01
 1.8244751E+01  2.3868568E+01
 1.8256250E+01  2.3834135E+01
 1.8267752E+01  2.3835426E+01
 1.8279251E+01  2.3893038E+01
 1.8290751E+01  2.3913158E+01
 1.8302252E+01  2.3882336E+01
 1.8313751E+01  2.3815308E+01
 1.8325251E+01  2.3765358E+01
 1.8336750E+01  2.3705681E+01
 1.8348251E+01  2.3693169E+01
 1.8359751E+01  2.3728226E+01
 1.8371250E+01  2.3761417E+01
 1.8382751E+01  2.3788698E+01
 1.8394251E+01  2.3830685E+01
 1.8405750E+01  2.3865189E+01
 1.8417252E+01  2.3831018E+01
 1.8428751E+01  2.3757215E+01
 1.8440250E+01  2.3719213E+01
 1.8451752E+01  2.3674505E+01
 1.8463251E+01  2.3669476E+01
 1.8474751E+01  2.3650581E+01
 1.8486252E+01  2.3633329E+01
 1.8497751E+01  2.3616476E+01
 1.8509251E+01  2.3649208E+01
 1.8520750E+01  2.3653103E+01
 1.8532251E+01  2.3671267E+01
 1.8543751E+01  2.3638035E+01
 1.8555250E+01  2.3689402E+01
 1.8566751E+01  2.3692038E+01
 1.8578251E+01  2.3726246E+01
 1.8589750E+01  2.3747572E+01
 1.8601252E+01  2.3745182E+01
 1.8612751E+01  2.3721407E+01
 1.8624250E+01  2.3617313E+01
 1.8635752E+01  2.3621027E+01
 1.8647251E+01  2.3590910E+01
 1.8658751E+01  2.3642103E+01
 1.8670252E+01  2.3660324E+01
 1.8681751E+01  2.3698511E+01
 1.8693251E+01  2.3646833E+01
 1.8704750E+01  2.3623276E+01
 1.8716251E+01  2.3609037E+01
 1.8727751E+01  2.3612492E+01
 1.8739250E+01  2.3590162E+01
 1.8750751E+01  2.3557478E+01
 1.8762251E+01  2.3546474E+01
 1.8773750E+01  2.3548660E+01
 1.8785252E+01  2.3609688E+01
 1.8796751E+01  2.3635191E+01
 1.8808250E+01  2.3649012E+01
 1.8819752E+01  2.3644243E+01
 1.8831251E+01  2.3643288E+01
 1.8842751E+01  2.3635450E+01
 1.8854252E+01  2.3578583E+01
 1.8865751E+01  2.3543230E+01
 1.8877251E+01  2.3530947E+01
 1.8888750E+01  2.3561340E+01
 1.8900251E+01  2.3565130E+01
 1.8911751E+01  2.3625645E+01
 1.8923250E+01  2.3677723E+01
 1.8934752E+01  2.3709076E+01
 1.8946251E+01  2.3731401E+01
 1.8957750E+01  2.3720610E+01
 1.8969252E+01  2.3726871E+01
 1.8980751E+01  2.3743616E+01
 1.8992250E+01  2.3759777E+01
 1.9003752E+01  2.3670677E+01
 1.9015251E+01  2.3597765E+01
 1.9026751E+01  2.3598251E+01
 1.9038252E+01  2.3607140E+01
 1.9049751E+01  2.3621048E+01
 1.9061251E+01  2.3677099E+01
 1.9072750E+01  2.3715204E+01
 1.9084251E+01  2.3731806E+01
 1.9095751E+01  2.3690207E+01
 1.9107250E+01  2.3667299E+01
 1.9118752E+01  2.3625051E+01
 1.9130251E+01  2.3689951E+01
 1.9141750E+01  2.3749416E+01
 1.9153252E+01  2.3785847E+01
 1.9164751E+01  2.3722609E+01
 1.9176250E+01  2.3693590E+01
 1.9187752E+01  2.3681957E+01
 1.9199251E+01  2.3671995E+01
 1.9210751E+01  2.3664370E+01
 1.9222252E+01  2.3650093E+01
 1.9233751E+01  2.3640963E+01
 1.9245251E+01  2.3598595E+01
 1.9256750E+01  2.3568720E+01
 1.9268251E+01  2.3570652E+01
 1.9279751E+01  2.3513636E+01
 1.9291250E+01  2.3507874E+01
 1.9302752E+01  2.3512386E+01
 1.9314251E+01  2.3560925E+01
 1.9325750E+01  2.3591822E+01
 1.9337252E+01  2.3640942E+01
 1.9348751E+01  2.3706970E+01
 1.9360250E+01  2.3716375E+01
 1.9371752E+01  2.3788124E+01
 1.9383251E+01  2.3773613E+01
 1.9394751E+01  2.3819870E+01
 1.9406250E+01  2.3783907E+01
 1.9417751E+01  2.3769163E+01
 1.9429251E+01  2.3735918E+01
 1.9440750E+01  2.3708582E+01
 1.9452251E+01  2.3715370E+01
 1.9463751E+01  2.3705809E+01
 1.9475250E+01  2.3705965E+01
 1.9486752E+01  2.3718340E+01
 1.9498251E+01  2.3738342E+01
 1.9509750E+01  2.3778971E+01
 1.9521252E+01  2.3826214E+01
 1.9532751E+01  2.3851791E+01
 1.9544250E+01  2.3846724E+01
 1.9555752E+01  2.3806160E+01
 1.9567251E+01  2.3788429E+01
 1.9578751E+01  2.3862562E+01
 1.9590250E+01  2.3916298E+01
 1.9601751E+01  2.3968569E+01
 1.9613251E+01  2.3986980E+01
 1.9624750E+01  2.4118086E+01
 1.9636251E+01  2.4319561E+01
 1.9647751E+01  2.4505600E+01
 1.9659250E+01  2.4942202E+01
 1.9670752E+01  2.5306465E+01
 1.9682251E+01  2.5809692E+01
 1.9693750E+01  2.6396961E+01
 1.9705252E+01  2.6887699E+01
 1.9716751E+01  2.7377485E+01
 1.9728251E+01  2.7307600E+01
 1.9739752E+01  2.7255070E+01
 1.9751251E+01  2.6664497E+01
 1.9762751E+01  2.6244497E+01
 1.9774250E+01  2.5796280E+01
 1.9785751E+01  2.5531456E+01
 1.9797251E+01  2.5626472E+01
 1.9808750E+01  2.5869236E+01
 1.9820251E+01  2.6361221E+01
 1.9831751E+01  2.7313223E+01
 1.9843250E+01  2.7726555E+01
 1.9854752E+01  2.8603745E+01
 1.9866251E+01  2.8321619E+01
 1.9877750E+01  2.8075073E+01
 1.9889252E+01  2.6841732E+01
 1.9900751E+01  2.6278358E+01
 1.9912251E+01  2.5665800E+01
 1.9923752E+01  2.4951998E+01
 1.9935251E+01  2.4644737E+01
 1.9946751E+01  2.4299061E+01
 1.9958250E+01  2.4152504E+01
 1.9969751E+01  2.4079184E+01
 1.9981251E+01  2.3956823E+01
 1.9992750E+01  2.3980574E+01
 2.0004251E+01  2.3993347E+01
 2.0015751E+01  2.3978445E+01
 2.0027250E+01  2.3921909E+01
 2.0038752E+01  2.3852129E+01
 2.0050251E+01  2.3863991E+01
 2.0061750E+01  2.3812454E+01
 2.0073252E+01  2.3823502E+01
 2.0084751E+01  2.3798962E+01
 2.0096251E+01  2.3840380E+01
 2.0107752E+01  2.3847433E+01
 2.0119251E+01  2.3889385E+01
 2.0130751E+01  2.3897858E+01
 2.0142250E+01  2.3905447E+01
 2.0153751E+01  2.3924339E+01
 2.0165251E+01  2.3960144E+01
 2.0176750E+01  2.3981018E+01
 2.0188251E+01  2.3935774E+01
 2.0199751E+01  2.3884363E+01
 2.0211250E+01  2.3872349E+01
 2.0222752E+01  2.3918144E+01
 2.0234251E+01  2.3919836E+01
 2.0245750E+01  2.3902271E+01
 2.0257252E+01  2.3863211E+01
 2.0268751E+01  2.3816776E+01
 2.0280251E+01  2.3800552E+01
 2.0291752E+01  2.3786247E+01
 2.0303251E+01  2.3755554E+01
 2.0314751E+01  2.3733149E+01
 2.0326250E+01  2.3780554E+01
 2.0337751E+01  2.3824944E+01
 2.0349251E+01  2.3850868E+01
 2.0360750E+01  2.3851593E+01
 2.0372252E+01  2.3864536E+01
 2.0383751E+01  2.3864374E+01
 2.0395250E+01  2.3888353E+01
 2.0406752E+01  2.3883617E+01
 2.0418251E+01  2.3909431E+01
 2.0429750E+01  2.3889519E+01
 2.0441252E+01  2.3868649E+01
 2.0452751E+01  2.3833422E+01
 2.0464251E+01  2.3821234E+01
 2.0475752E+01  2.3786659E+01
 2.0487251E+01  2.3752192E+01
 2.0498751E+01  2.3798037E+01
 2.0510250E+01  2.3794849E+01
 2.0521751E+01  2.3803005E+01
 2.0533251E+01  2.3799013E+01
 2.0544750E+01  2.3840458E+01
 2.0556252E+01  2.3917419E+01
 2.0567751E+01  2.3933081E+01
 2.0579250E+01  2.3967918E+01
 2.0590752E+01  2.3984545E+01
 2.0602251E+01  2.3997606E+01
 2.0613750E+01  2.3965628E+01
 2.0625252E+01  2.3981230E+01
 2.0636751E+01  2.4020403E+01
 2.0648251E+01  2.4063662E+01
 2.0659752E+01  2.4180754E+01
 2.0671251E+01  2.4314552E+01
 2.0682751E+01  2.4442705E+01
 2.0694250E+01  2.4605013E+01
 2.0705751E+01  2.4821888E+01
 2.0717251E+01  2.5113846E+01
 2.0728750E+01  2.5465450E+01
 2.0740252E+01  2.5789385E+01
 2.0751751E+01  2.6139994E+01
 2.0763250E+01  2.6304104E+01
 2.0774752E+01  2.6273010E+01
 2.0786251E+01  2.6044369E+01
 2.0797750E+01  2.5736309E+01
 2.0809252E+01  2.5392340E+01
 2.0820751E+01  2.4993835E+01
 2.0832251E+01  2.4690975E+01
 2.0843752E+01  2.4439919E+01
 2.0855251E+01  2.4271540E+01
 2.0866751E+01  2.4149574E+01
 2.0878250E+01  2.4069550E+01
 2.0889751E+01  2.4026995E+01
 2.0901251E+01  2.4027115E+01
 2.0912750E+01  2.4095812E+01
 2.0924252E+01  2.4154455E+01
 2.0935751E+01  2.4181913E+01
 2.0947250E+01  2.4141710E+01
 2.0958752E+01  2.4072382E+01
 2.0970251E+01  2.4073839E+01
 2.0981750E+01  2.4037836E+01
 2.0993252E+01  2.4005201E+01
 2.1004751E+01  2.3951927E+01
 2.1016251E+01  2.3924065E+01
 2.1027752E+01  2.3933718E+01
 2.1039251E+01  2.3961908E+01
 2.1050751E+01  2.4024664E+01
 2.1062250E+01  2.4030848E+01
 2.1073751E+01  2.4058500E+01
 2.1085251E+01  2.4017721E+01
 2.1096750E+01  2.3996262E+01
 2.1108252E+01  2.3982206E+01
 2.1119751E+01  2.4012766E+01
 2.1131250E+01  2.3982754E+01
 2.1142752E+01  2.3934135E+01
 2.1154251E+01  2.3896029E+01
 2.1165751E+01  2.3935171E+01
 2.1177252E+01  2.3992981E+01
 2.1188751E+01  2.4055878E+01
 2.1200251E+01  2.4049915E+01
 2.1211752E+01  2.4013332E+01
 2.1223251E+01  2.3955755E+01
 2.1234751E+01  2.3985954E+01
 2.1246250E+01  2.4028011E+01
 2.1257751E+01  2.4060499E+01
 2.1269251E+01  2.4090651E+01
 2.1280750E+01  2.4079508E+01
 2.1292252E+01  2.4058220E+01
 2.1303751E+01  2.4000237E+01
 2.1315250E+01  2.3976740E+01
 2.1326752E+01  2.3964384E+01
 2.1338251E+01  2.3968374E+01
 2.1349751E+01  2.4004734E+01
 2.1361252E+01  2.4029627E+01
 2.1372751E+01  2.4079830E+01
 2.1384251E+01  2.4061859E+01
 2.1395752E+01  2.4046885E+01
 2.1407251E+01  2.4004757E+01
 2.1418751E+01  2.3995321E+01
 2.1430250E+01  2.3968182E+01
 2.1441751E+01  2.3930641E+01
 2.1453251E+01  2.3912052E+01
 2.1464750E+01  2.3968889E+01
 2.1476252E+01  2.4019619E+01
 2.1487751E+01  2.4113136E+01
 2.1499250E+01  2.4124083E+01
 2.1510752E+01  2.4150196E+01
 2.1522251E+01  2.4117552E+01
 2.1533751E+01  2.4077303E+01
 2.1545252E+01  2.4016777E+01
 2.1556751E+01  2.4041122E+01
 2.1568251E+01  2.4093540E+01
 2.1579752E+01  2.4163605E+01
 2.1591251E+01  2.4217371E+01
 2.1602751E+01  2.4234713E+01
 2.1614250E+01  2.4221647E+01
 2.1625751E+01  2.4193726E+01
 2.1637251E+01  2.4172600E+01
 2.1648750E+01  2.4153925E+01
 2.1660252E+01  2.4215281E+01
 2.1671751E+01  2.4230001E+01
 2.1683250E+01  2.4272938E+01
 2.1694752E+01  2.4218550E+01
 2.1706251E+01  2.4182272E+01
 2.1717751E+01  2.4150114E+01
 2.1729252E+01  2.4200394E+01
 2.1740751E+01  2.4262228E+01
 2.1752251E+01  2.4258299E+01
 2.1763752E+01  2.4242308E+01
 2.1775251E+01  2.4205420E+01
 2.1786751E+01  2.4181437E+01
 2.1798250E+01  2.4184711E+01
 2.1809752E+01  2.4201967E+01
 2.1821251E+01  2.4175510E+01
 2.1832750E+01  2.4151129E+01
 2.1844252E+01  2.4119455E+01
 2.1855751E+01  2.4163078E+01
 2.1867250E+01  2.4210848E+01
 2.1878752E+01  2.4311632E+01
 2.1890251E+01  2.4297846E+01
 2.1901751E+01  2.4350422E+01
 2.1913252E+01  2.4415161E+01
 2.1924751E+01  2.4490746E+01
 2.1936251E+01  2.4455341E+01
 2.1947752E+01  2.4386633E+01
 2.1959251E+01  2.4346123E+01
 2.1970751E+01  2.4344635E+01
 2.1982250E+01  2.4377157E+01
 2.1993752E+01  2.4359055E+01
 2.2005251E+01  2.4341829E+01
 2.2016750E+01  2.4344770E+01
 2.2028252E+01  2.4338375E+01
 2.2039751E+01  2.4362831E+01
 2.2051250E+01  2.4404484E+01
 2.2062752E+01  2.4393827E+01
 2.2074251E+01  2.4380045E+01
 2.2085751E+01  2.4338610E+01
 2.2097252E+01  2.4346371E+01
 2.2108751E+01  2.4359230E+01
 2.2120251E+01  2.4443447E+01
 2.2131752E+01  2.4444422E+01
 2.2143251E+01  2.4456532E+01
 2.2154751E+01  2.4442541E+01
 2.2166250E+01  2.4469507E+01
 2.2177752E+01  2.4452869E+01
 2.2189251E+01  2.4358334E+01
 2.2200750E+01  2.4296846E+01
 2.2212252E+01  2.4260065E+01
 2.2223751E+01  2.4311329E+01
 2.2235250E+01  2.4373743E+01
 2.2246752E+01  2.4461485E+01
 2.2258251E+01  2.4513283E+01
 2.2269751E+01  2.4547039E+01
 2.2281252E+01  2.4556961E+01
 2.2292751E+01  2.4590033E+01
 2.2304251E+01  2.4617825E+01
 2.2315752E+01  2.4640783E+01
 2.2327251E+01  2.4643507E+01
 2.2338751E+01  2.4652468E+01
 2.2350250E+01  2.4684658E+01
 2.2361752E+01  2.4683256E+01
 2.2373251E+01  2.4659803E+01
 2.2384750E+01  2.4664780E+01
 2.2396252E+01  2.4683506E+01
 2.2407751E+01  2.4660603E+01
 2.2419250E+01  2.4669056E+01
 2.2430752E+01  2.4690775E+01
 2.2442251E+01  2.4736441E+01
 2.2453751E+01  2.4754469E+01
 2.2465252E+01  2.4754398E+01
 2.2476751E+01  2.4714548E+01
 2.2488251E+01  2.4703459E+01
 2.2499752E+01  2.4740540E+01
 2.2511251E+01  2.4770121E+01
 2.2522751E+01  2.4793884E+01
 2.2534250E+01  2.4801701E+01
 2.2545752E+01  2.4877771E+01
 2.2557251E+01  2.4910307E+01
 2.2568750E+01  2.4978790E+01
 2.2580252E+01  2.4978270E+01
 2.2591751E+01  2.4969952E+01
 2.2603251E+01  2.4924070E+01
 2.2614752E+01  2.4937441E+01
 2.2626251E+01  2.4950008E+01
 2.2637751E+01  2.4957148E+01
 2.2649252E+01  2.4957573E+01
 2.2660751E+01  2.4978544E+01
 2.2672251E+01  2.5000357E+01
 2.2683752E+01  2.5093231E+01
 2.2695251E+01  2.5223917E+01
 2.2706751E+01  2.5278242E+01
 2.2718250E+01  2.5346714E+01
 2.2729752E+01  2.5347013E+01
 2.2741251E+01  2.5360113E+01
 2.2752750E+01  2.5353613E+01
 2.2764252E+01  2.5366182E+01
 2.2775751E+01  2.5360207E+01
 2.2787251E+01  2.5361658E+01
 2.2798752E+01  2.5450422E+01
 2.2810251E+01  2.5557444E+01
 2.2821751E+01  2.5609383E+01
 2.2833252E+01  2.5635960E+01
 2.2844751E+01  2.5675875E+01
 2.2856251E+01  2.5720013E+01
 2.2867750E+01  2.5752361E+01
 2.2879251E+01  2.5758833E+01
 2.2890751E+01  2.5854553E+01
 2.2902250E+01  2.5888395E+01
 2.2913752E+01  2.5939665E+01
 2.2925251E+01  2.5948185E+01
 2.2936750E+01  2.6002668E+01
 2.2948252E+01  2.6058434E+01
 2.2959751E+01  2.6074600E+01
 2.2971251E+01  2.6187363E+01
 2.2982752E+01  2.6342741E+01
 2.2994251E+01  2.6503374E+01
