F:\20151113_APS_34IDE\\Brian\Particle1\OCV\Data_0057.tif
2-Theta Angle (Degrees)
Intensity
       2000
 5.7500005E-03  0.0000000E+00
 1.7250001E-02  0.0000000E+00
 2.8750001E-02  0.0000000E+00
 4.0250003E-02  0.0000000E+00
 5.1750004E-02  0.0000000E+00
 6.3250005E-02  0.0000000E+00
 7.4750006E-02  0.0000000E+00
 8.6250007E-02  0.0000000E+00
 9.7750008E-02  0.0000000E+00
 1.0925001E-01  0.0000000E+00
 1.2075000E-01  0.0000000E+00
 1.3225001E-01  0.0000000E+00
 1.4375001E-01  0.0000000E+00
 1.5525001E-01  0.0000000E+00
 1.6675001E-01  0.0000000E+00
 1.7825001E-01  0.0000000E+00
 1.8975002E-01  0.0000000E+00
 2.0125002E-01  0.0000000E+00
 2.1275002E-01  0.0000000E+00
 2.2425000E-01  0.0000000E+00
 2.3575000E-01  0.0000000E+00
 2.4725001E-01  0.0000000E+00
 2.5875002E-01  0.0000000E+00
 2.7025002E-01  0.0000000E+00
 2.8175002E-01  0.0000000E+00
 2.9325002E-01  0.0000000E+00
 3.0475003E-01  0.0000000E+00
 3.1625003E-01  0.0000000E+00
 3.2775003E-01  0.0000000E+00
 3.3925003E-01  0.0000000E+00
 3.5075003E-01  0.0000000E+00
 3.6225003E-01  0.0000000E+00
 3.7375003E-01  0.0000000E+00
 3.8525003E-01  0.0000000E+00
 3.9675003E-01  0.0000000E+00
 4.0825003E-01  0.0000000E+00
 4.1975003E-01  0.0000000E+00
 4.3125004E-01  0.0000000E+00
 4.4275001E-01  0.0000000E+00
 4.5425001E-01  0.0000000E+00
 4.6575001E-01  0.0000000E+00
 4.7725001E-01  0.0000000E+00
 4.8875001E-01  0.0000000E+00
 5.0025004E-01  0.0000000E+00
 5.1175004E-01  0.0000000E+00
 5.2325004E-01  0.0000000E+00
 5.3475004E-01  0.0000000E+00
 5.4625005E-01  0.0000000E+00
 5.5775005E-01  0.0000000E+00
 5.6925005E-01  0.0000000E+00
 5.8075005E-01  0.0000000E+00
 5.9225005E-01  0.0000000E+00
 6.0375005E-01  0.0000000E+00
 6.1525005E-01  0.0000000E+00
 6.2675005E-01  0.0000000E+00
 6.3825005E-01  0.0000000E+00
 6.4975005E-01  0.0000000E+00
 6.6125005E-01  0.0000000E+00
 6.7275006E-01  0.0000000E+00
 6.8425006E-01  0.0000000E+00
 6.9575006E-01  0.0000000E+00
 7.0725006E-01  0.0000000E+00
 7.1875006E-01  0.0000000E+00
 7.3025006E-01  0.0000000E+00
 7.4175006E-01  0.0000000E+00
 7.5325006E-01  0.0000000E+00
 7.6475006E-01  0.0000000E+00
 7.7625006E-01  0.0000000E+00
 7.8775007E-01  0.0000000E+00
 7.9925007E-01  0.0000000E+00
 8.1075007E-01  0.0000000E+00
 8.2225007E-01  0.0000000E+00
 8.3375007E-01  0.0000000E+00
 8.4525007E-01  0.0000000E+00
 8.5675007E-01  0.0000000E+00
 8.6825007E-01  0.0000000E+00
 8.7975001E-01  0.0000000E+00
 8.9125001E-01  0.0000000E+00
 9.0275002E-01  0.0000000E+00
 9.1425002E-01  0.0000000E+00
 9.2575002E-01  0.0000000E+00
 9.3725002E-01  0.0000000E+00
 9.4875002E-01  0.0000000E+00
 9.6025002E-01  0.0000000E+00
 9.7175002E-01  0.0000000E+00
 9.8325002E-01  0.0000000E+00
 9.9475002E-01  0.0000000E+00
 1.0062500E+00  0.0000000E+00
 1.0177500E+00  0.0000000E+00
 1.0292500E+00  0.0000000E+00
 1.0407500E+00  0.0000000E+00
 1.0522500E+00  0.0000000E+00
 1.0637500E+00  0.0000000E+00
 1.0752500E+00  0.0000000E+00
 1.0867500E+00  0.0000000E+00
 1.0982500E+00  0.0000000E+00
 1.1097500E+00  0.0000000E+00
 1.1212500E+00  0.0000000E+00
 1.1327500E+00  0.0000000E+00
 1.1442500E+00  0.0000000E+00
 1.1557500E+00  0.0000000E+00
 1.1672500E+00  0.0000000E+00
 1.1787500E+00  0.0000000E+00
 1.1902500E+00  0.0000000E+00
 1.2017500E+00  0.0000000E+00
 1.2132500E+00  0.0000000E+00
 1.2247500E+00  0.0000000E+00
 1.2362500E+00  0.0000000E+00
 1.2477500E+00  0.0000000E+00
 1.2592500E+00  0.0000000E+00
 1.2707500E+00  0.0000000E+00
 1.2822500E+00  0.0000000E+00
 1.2937500E+00  0.0000000E+00
 1.3052500E+00  0.0000000E+00
 1.3167500E+00  0.0000000E+00
 1.3282501E+00  0.0000000E+00
 1.3397501E+00  0.0000000E+00
 1.3512501E+00  0.0000000E+00
 1.3627501E+00  0.0000000E+00
 1.3742501E+00  0.0000000E+00
 1.3857501E+00  0.0000000E+00
 1.3972501E+00  0.0000000E+00
 1.4087501E+00  0.0000000E+00
 1.4202501E+00  0.0000000E+00
 1.4317501E+00  0.0000000E+00
 1.4432501E+00  0.0000000E+00
 1.4547501E+00  0.0000000E+00
 1.4662501E+00  0.0000000E+00
 1.4777501E+00  0.0000000E+00
 1.4892501E+00  0.0000000E+00
 1.5007501E+00  0.0000000E+00
 1.5122501E+00  0.0000000E+00
 1.5237501E+00  0.0000000E+00
 1.5352501E+00  0.0000000E+00
 1.5467501E+00  0.0000000E+00
 1.5582501E+00  0.0000000E+00
 1.5697501E+00  0.0000000E+00
 1.5812501E+00  0.0000000E+00
 1.5927501E+00  0.0000000E+00
 1.6042501E+00  0.0000000E+00
 1.6157501E+00  0.0000000E+00
 1.6272501E+00  0.0000000E+00
 1.6387501E+00  0.0000000E+00
 1.6502501E+00  0.0000000E+00
 1.6617501E+00  0.0000000E+00
 1.6732501E+00  0.0000000E+00
 1.6847501E+00  0.0000000E+00
 1.6962501E+00  0.0000000E+00
 1.7077501E+00  0.0000000E+00
 1.7192501E+00  0.0000000E+00
 1.7307501E+00  0.0000000E+00
 1.7422501E+00  0.0000000E+00
 1.7537501E+00  0.0000000E+00
 1.7652501E+00  0.0000000E+00
 1.7767501E+00  0.0000000E+00
 1.7882501E+00  0.0000000E+00
 1.7997501E+00  0.0000000E+00
 1.8112501E+00  0.0000000E+00
 1.8227501E+00  0.0000000E+00
 1.8342501E+00  0.0000000E+00
 1.8457501E+00  0.0000000E+00
 1.8572501E+00  0.0000000E+00
 1.8687501E+00  0.0000000E+00
 1.8802501E+00  0.0000000E+00
 1.8917501E+00  0.0000000E+00
 1.9032501E+00  0.0000000E+00
 1.9147501E+00  0.0000000E+00
 1.9262501E+00  0.0000000E+00
 1.9377501E+00  0.0000000E+00
 1.9492501E+00  0.0000000E+00
 1.9607501E+00  0.0000000E+00
 1.9722501E+00  0.0000000E+00
 1.9837501E+00  0.0000000E+00
 1.9952501E+00  0.0000000E+00
 2.0067501E+00  0.0000000E+00
 2.0182500E+00  0.0000000E+00
 2.0297501E+00  0.0000000E+00
 2.0412500E+00  0.0000000E+00
 2.0527501E+00  0.0000000E+00
 2.0642500E+00  0.0000000E+00
 2.0757501E+00  0.0000000E+00
 2.0872500E+00  0.0000000E+00
 2.0987501E+00  0.0000000E+00
 2.1102500E+00  0.0000000E+00
 2.1217501E+00  0.0000000E+00
 2.1332500E+00  0.0000000E+00
 2.1447501E+00  0.0000000E+00
 2.1562500E+00  0.0000000E+00
 2.1677501E+00  0.0000000E+00
 2.1792500E+00  0.0000000E+00
 2.1907501E+00  0.0000000E+00
 2.2022500E+00  0.0000000E+00
 2.2137501E+00  0.0000000E+00
 2.2252500E+00  0.0000000E+00
 2.2367501E+00  0.0000000E+00
 2.2482500E+00  0.0000000E+00
 2.2597501E+00  0.0000000E+00
 2.2712500E+00  0.0000000E+00
 2.2827501E+00  0.0000000E+00
 2.2942500E+00  0.0000000E+00
 2.3057501E+00  0.0000000E+00
 2.3172500E+00  0.0000000E+00
 2.3287501E+00  0.0000000E+00
 2.3402500E+00  0.0000000E+00
 2.3517501E+00  0.0000000E+00
 2.3632500E+00  0.0000000E+00
 2.3747501E+00  0.0000000E+00
 2.3862500E+00  0.0000000E+00
 2.3977501E+00  0.0000000E+00
 2.4092500E+00  0.0000000E+00
 2.4207501E+00  0.0000000E+00
 2.4322500E+00  0.0000000E+00
 2.4437501E+00  0.0000000E+00
 2.4552500E+00  0.0000000E+00
 2.4667501E+00  0.0000000E+00
 2.4782500E+00  0.0000000E+00
 2.4897501E+00  0.0000000E+00
 2.5012500E+00  0.0000000E+00
 2.5127501E+00  0.0000000E+00
 2.5242500E+00  0.0000000E+00
 2.5357502E+00  0.0000000E+00
 2.5472500E+00  0.0000000E+00
 2.5587502E+00  0.0000000E+00
 2.5702500E+00  0.0000000E+00
 2.5817502E+00  0.0000000E+00
 2.5932500E+00  0.0000000E+00
 2.6047502E+00  0.0000000E+00
 2.6162500E+00  0.0000000E+00
 2.6277502E+00  0.0000000E+00
 2.6392500E+00  0.0000000E+00
 2.6507502E+00  0.0000000E+00
 2.6622500E+00  0.0000000E+00
 2.6737502E+00  0.0000000E+00
 2.6852500E+00  0.0000000E+00
 2.6967502E+00  0.0000000E+00
 2.7082500E+00  0.0000000E+00
 2.7197502E+00  0.0000000E+00
 2.7312500E+00  0.0000000E+00
 2.7427502E+00  0.0000000E+00
 2.7542500E+00  0.0000000E+00
 2.7657502E+00  0.0000000E+00
 2.7772501E+00  0.0000000E+00
 2.7887502E+00  0.0000000E+00
 2.8002501E+00  0.0000000E+00
 2.8117502E+00  0.0000000E+00
 2.8232501E+00  3.5356144E+01
 2.8347502E+00  3.4619926E+01
 2.8462501E+00  3.4200569E+01
 2.8577502E+00  3.3697411E+01
 2.8692501E+00  3.3446793E+01
 2.8807502E+00  3.4307129E+01
 2.8922501E+00  3.4626034E+01
 2.9037502E+00  3.5336693E+01
 2.9152501E+00  3.5126396E+01
 2.9267502E+00  3.5330467E+01
 2.9382501E+00  3.5172764E+01
 2.9497502E+00  3.4819332E+01
 2.9612501E+00  3.4500664E+01
 2.9727502E+00  3.4718819E+01
 2.9842501E+00  3.5036671E+01
 2.9957502E+00  3.5443245E+01
 3.0072501E+00  3.5556770E+01
 3.0187502E+00  3.5577175E+01
 3.0302501E+00  3.5580902E+01
 3.0417502E+00  3.5761200E+01
 3.0532501E+00  3.5729794E+01
 3.0647502E+00  3.6025429E+01
 3.0762501E+00  3.5846695E+01
 3.0877502E+00  3.6083054E+01
 3.0992501E+00  3.6114624E+01
 3.1107502E+00  3.5572964E+01
 3.1222501E+00  3.5514687E+01
 3.1337502E+00  3.4939705E+01
 3.1452501E+00  3.4919537E+01
 3.1567502E+00  3.4905231E+01
 3.1682501E+00  3.5022629E+01
 3.1797502E+00  3.5581455E+01
 3.1912501E+00  3.5661144E+01
 3.2027502E+00  3.5890610E+01
 3.2142501E+00  3.5754158E+01
 3.2257502E+00  3.5589199E+01
 3.2372501E+00  3.5093987E+01
 3.2487502E+00  3.5007832E+01
 3.2602501E+00  3.4892895E+01
 3.2717502E+00  3.4775925E+01
 3.2832501E+00  3.4495510E+01
 3.2947502E+00  3.4381298E+01
 3.3062501E+00  3.4118587E+01
 3.3177502E+00  3.4127861E+01
 3.3292501E+00  3.4092754E+01
 3.3407502E+00  3.4395214E+01
 3.3522501E+00  3.4640785E+01
 3.3637502E+00  3.4771111E+01
 3.3752501E+00  3.5029831E+01
 3.3867502E+00  3.4926338E+01
 3.3982501E+00  3.4608543E+01
 3.4097502E+00  3.4032951E+01
 3.4212501E+00  3.3858315E+01
 3.4327502E+00  3.3556767E+01
 3.4442501E+00  3.3779957E+01
 3.4557502E+00  3.3685032E+01
 3.4672501E+00  3.3619446E+01
 3.4787502E+00  3.3557953E+01
 3.4902501E+00  3.3382347E+01
 3.5017502E+00  3.3580681E+01
 3.5132501E+00  3.3649021E+01
 3.5247502E+00  3.3618782E+01
 3.5362501E+00  3.3924076E+01
 3.5477502E+00  3.3747837E+01
 3.5592501E+00  3.3832699E+01
 3.5707502E+00  3.3722527E+01
 3.5822501E+00  3.3509995E+01
 3.5937502E+00  3.3401024E+01
 3.6052501E+00  3.3300259E+01
 3.6167502E+00  3.3318993E+01
 3.6282501E+00  3.3405182E+01
 3.6397502E+00  3.3551800E+01
 3.6512501E+00  3.3567959E+01
 3.6627502E+00  3.3648537E+01
 3.6742501E+00  3.3367348E+01
 3.6857502E+00  3.3313259E+01
 3.6972501E+00  3.3056889E+01
 3.7087502E+00  3.2972309E+01
 3.7202501E+00  3.3070156E+01
 3.7317502E+00  3.3360489E+01
 3.7432501E+00  3.3452473E+01
 3.7547503E+00  3.3493801E+01
 3.7662501E+00  3.3460396E+01
 3.7777503E+00  3.3263142E+01
 3.7892501E+00  3.2913136E+01
 3.8007503E+00  3.2488140E+01
 3.8122501E+00  3.2506218E+01
 3.8237503E+00  3.2371574E+01
 3.8352501E+00  3.2394398E+01
 3.8467503E+00  3.2436947E+01
 3.8582501E+00  3.2414326E+01
 3.8697503E+00  3.2593555E+01
 3.8812501E+00  3.2617157E+01
 3.8927503E+00  3.2589046E+01
 3.9042501E+00  3.2613842E+01
 3.9157503E+00  3.2446259E+01
 3.9272501E+00  3.2608124E+01
 3.9387503E+00  3.2661415E+01
 3.9502501E+00  3.2863663E+01
 3.9617503E+00  3.3117542E+01
 3.9732502E+00  3.3189827E+01
 3.9847503E+00  3.3272556E+01
 3.9962502E+00  3.3279732E+01
 4.0077500E+00  3.3116077E+01
 4.0192504E+00  3.2859375E+01
 4.0307503E+00  3.2474403E+01
 4.0422502E+00  3.2381042E+01
 4.0537500E+00  3.2352604E+01
 4.0652504E+00  3.2423836E+01
 4.0767503E+00  3.2462540E+01
 4.0882502E+00  3.2318344E+01
 4.0997500E+00  3.2232330E+01
 4.1112504E+00  3.2071297E+01
 4.1227503E+00  3.1978743E+01
 4.1342502E+00  3.2111343E+01
 4.1457500E+00  3.2307377E+01
 4.1572504E+00  3.2477608E+01
 4.1687503E+00  3.2385185E+01
 4.1802502E+00  3.2206516E+01
 4.1917500E+00  3.2280102E+01
 4.2032504E+00  3.2420811E+01
 4.2147503E+00  3.2586895E+01
 4.2262502E+00  3.2693069E+01
 4.2377501E+00  3.2664406E+01
 4.2492504E+00  3.2614182E+01
 4.2607503E+00  3.2585907E+01
 4.2722502E+00  3.2447002E+01
 4.2837501E+00  3.2463821E+01
 4.2952504E+00  3.2307980E+01
 4.3067503E+00  3.2399445E+01
 4.3182502E+00  3.2305492E+01
 4.3297501E+00  3.2305187E+01
 4.3412504E+00  3.2284245E+01
 4.3527503E+00  3.2334286E+01
 4.3642502E+00  3.2455540E+01
 4.3757501E+00  3.2527699E+01
 4.3872504E+00  3.2517628E+01
 4.3987503E+00  3.2436039E+01
 4.4102502E+00  3.2371571E+01
 4.4217501E+00  3.2233177E+01
 4.4332504E+00  3.2175316E+01
 4.4447503E+00  3.2048023E+01
 4.4562502E+00  3.1892002E+01
 4.4677501E+00  3.1879490E+01
 4.4792504E+00  3.2031727E+01
 4.4907503E+00  3.2017288E+01
 4.5022502E+00  3.2235413E+01
 4.5137501E+00  3.2220562E+01
 4.5252504E+00  3.2389286E+01
 4.5367503E+00  3.2363419E+01
 4.5482502E+00  3.2468449E+01
 4.5597501E+00  3.2643383E+01
 4.5712504E+00  3.2778130E+01
 4.5827503E+00  3.2816750E+01
 4.5942502E+00  3.2842915E+01
 4.6057501E+00  3.2802979E+01
 4.6172504E+00  3.2722698E+01
 4.6287503E+00  3.2668125E+01
 4.6402502E+00  3.2662216E+01
 4.6517501E+00  3.2700691E+01
 4.6632504E+00  3.2741085E+01
 4.6747503E+00  3.2741657E+01
 4.6862502E+00  3.2783890E+01
 4.6977501E+00  3.2922138E+01
 4.7092505E+00  3.2996719E+01
 4.7207503E+00  3.3078823E+01
 4.7322502E+00  3.2967216E+01
 4.7437501E+00  3.2922218E+01
 4.7552505E+00  3.2789131E+01
 4.7667503E+00  3.2708969E+01
 4.7782502E+00  3.2621361E+01
 4.7897501E+00  3.2668842E+01
 4.8012505E+00  3.2647316E+01
 4.8127503E+00  3.2644314E+01
 4.8242502E+00  3.2713444E+01
 4.8357501E+00  3.2750668E+01
 4.8472505E+00  3.2837852E+01
 4.8587503E+00  3.2847694E+01
 4.8702502E+00  3.2933598E+01
 4.8817501E+00  3.2866898E+01
 4.8932505E+00  3.2818451E+01
 4.9047503E+00  3.2676723E+01
 4.9162502E+00  3.2788136E+01
 4.9277501E+00  3.2848835E+01
 4.9392505E+00  3.2940647E+01
 4.9507504E+00  3.2912437E+01
 4.9622502E+00  3.2941319E+01
 4.9737501E+00  3.3062283E+01
 4.9852505E+00  3.3096611E+01
 4.9967504E+00  3.3067215E+01
 5.0082502E+00  3.3057076E+01
 5.0197501E+00  3.3027576E+01
 5.0312505E+00  3.3080135E+01
 5.0427504E+00  3.3147015E+01
 5.0542502E+00  3.3250858E+01
 5.0657501E+00  3.3320442E+01
 5.0772505E+00  3.3373306E+01
 5.0887504E+00  3.3347759E+01
 5.1002502E+00  3.3474262E+01
 5.1117501E+00  3.3405209E+01
 5.1232505E+00  3.3374493E+01
 5.1347504E+00  3.3337990E+01
 5.1462502E+00  3.3442333E+01
 5.1577501E+00  3.3619987E+01
 5.1692505E+00  3.3762722E+01
 5.1807504E+00  3.3821091E+01
 5.1922503E+00  3.3962788E+01
 5.2037501E+00  3.3955009E+01
 5.2152505E+00  3.4063972E+01
 5.2267504E+00  3.4134132E+01
 5.2382503E+00  3.4217316E+01
 5.2497501E+00  3.4221386E+01
 5.2612505E+00  3.4249756E+01
 5.2727504E+00  3.4187191E+01
 5.2842503E+00  3.4178310E+01
 5.2957501E+00  3.4105278E+01
 5.3072500E+00  3.4173157E+01
 5.3187504E+00  3.4200661E+01
 5.3302503E+00  3.4192429E+01
 5.3417501E+00  3.4253181E+01
 5.3532500E+00  3.4238804E+01
 5.3647504E+00  3.4253445E+01
 5.3762503E+00  3.4212795E+01
 5.3877501E+00  3.4207569E+01
 5.3992500E+00  3.4251408E+01
 5.4107504E+00  3.4226723E+01
 5.4222503E+00  3.4279343E+01
 5.4337502E+00  3.4289566E+01
 5.4452500E+00  3.4455360E+01
 5.4567504E+00  3.4459496E+01
 5.4682503E+00  3.4533707E+01
 5.4797502E+00  3.4559418E+01
 5.4912500E+00  3.4655724E+01
 5.5027504E+00  3.4785469E+01
 5.5142503E+00  3.4761913E+01
 5.5257502E+00  3.4798058E+01
 5.5372500E+00  3.4818855E+01
 5.5487504E+00  3.4943764E+01
 5.5602503E+00  3.5093788E+01
 5.5717502E+00  3.5182350E+01
 5.5832500E+00  3.5240997E+01
 5.5947504E+00  3.5323822E+01
 5.6062503E+00  3.5409805E+01
 5.6177502E+00  3.5450237E+01
 5.6292500E+00  3.5477623E+01
 5.6407504E+00  3.5492699E+01
 5.6522503E+00  3.5474636E+01
 5.6637502E+00  3.5536011E+01
 5.6752501E+00  3.5691311E+01
 5.6867504E+00  3.5756920E+01
 5.6982503E+00  3.5719494E+01
 5.7097502E+00  3.5659950E+01
 5.7212501E+00  3.5873837E+01
 5.7327504E+00  3.6046101E+01
 5.7442503E+00  3.6164204E+01
 5.7557502E+00  3.6305012E+01
 5.7672501E+00  3.6553490E+01
 5.7787504E+00  3.6774155E+01
 5.7902503E+00  3.7097752E+01
 5.8017502E+00  3.7215771E+01
 5.8132501E+00  3.7334759E+01
 5.8247504E+00  3.7495754E+01
 5.8362503E+00  3.7635517E+01
 5.8477502E+00  3.7861618E+01
 5.8592501E+00  3.8013649E+01
 5.8707504E+00  3.8431381E+01
 5.8822503E+00  3.9354107E+01
 5.8937502E+00  4.0492783E+01
 5.9052501E+00  4.4389481E+01
 5.9167504E+00  5.0020447E+01
 5.9282503E+00  5.5246403E+01
 5.9397502E+00  7.6197716E+01
 5.9512501E+00  9.2373512E+01
 5.9627504E+00  1.0279457E+02
 5.9742503E+00  1.2048830E+02
 5.9857502E+00  1.1707043E+02
 5.9972501E+00  1.1303848E+02
 6.0087504E+00  9.1234848E+01
 6.0202503E+00  7.2308372E+01
 6.0317502E+00  6.4236580E+01
 6.0432501E+00  4.9550419E+01
 6.0547504E+00  4.5622410E+01
 6.0662503E+00  4.2986286E+01
 6.0777502E+00  4.0330959E+01
 6.0892501E+00  3.9494446E+01
 6.1007504E+00  3.8971771E+01
 6.1122503E+00  3.8564640E+01
 6.1237502E+00  3.8377354E+01
 6.1352501E+00  3.8231655E+01
 6.1467505E+00  3.8004463E+01
 6.1582503E+00  3.7872829E+01
 6.1697502E+00  3.7723339E+01
 6.1812501E+00  3.7708492E+01
 6.1927505E+00  3.7671894E+01
 6.2042503E+00  3.7614124E+01
 6.2157502E+00  3.7536209E+01
 6.2272501E+00  3.7534691E+01
 6.2387505E+00  3.7462875E+01
 6.2502503E+00  3.7401226E+01
 6.2617502E+00  3.7396137E+01
 6.2732501E+00  3.7481689E+01
 6.2847505E+00  3.7584412E+01
 6.2962503E+00  3.7579216E+01
 6.3077502E+00  3.7642208E+01
 6.3192501E+00  3.7774216E+01
 6.3307505E+00  3.8022430E+01
 6.3422503E+00  3.8110298E+01
 6.3537502E+00  3.8115459E+01
 6.3652501E+00  3.8126198E+01
 6.3767505E+00  3.8210327E+01
 6.3882504E+00  3.8260151E+01
 6.3997502E+00  3.8318344E+01
 6.4112501E+00  3.8376026E+01
 6.4227505E+00  3.8470097E+01
 6.4342504E+00  3.8677917E+01
 6.4457502E+00  3.8786339E+01
 6.4572501E+00  3.8924980E+01
 6.4687505E+00  3.8908691E+01
 6.4802504E+00  3.8892845E+01
 6.4917502E+00  3.8907509E+01
 6.5032501E+00  3.8966347E+01
 6.5147505E+00  3.9121967E+01
 6.5262504E+00  3.9257690E+01
 6.5377502E+00  3.9381126E+01
 6.5492501E+00  3.9465542E+01
 6.5607505E+00  3.9579975E+01
 6.5722504E+00  3.9711895E+01
 6.5837502E+00  3.9851585E+01
 6.5952501E+00  4.0026451E+01
 6.6067505E+00  4.0073326E+01
 6.6182504E+00  4.0067799E+01
 6.6297503E+00  4.0055294E+01
 6.6412501E+00  4.0060829E+01
 6.6527505E+00  4.0020813E+01
 6.6642504E+00  4.0073814E+01
 6.6757503E+00  4.0009663E+01
 6.6872501E+00  4.0056995E+01
 6.6987505E+00  4.0171490E+01
 6.7102504E+00  4.0418983E+01
 6.7217503E+00  4.0642284E+01
 6.7332501E+00  4.0751633E+01
 6.7447505E+00  4.0839718E+01
 6.7562504E+00  4.0917290E+01
 6.7677503E+00  4.1039539E+01
 6.7792501E+00  4.1096439E+01
 6.7907505E+00  4.1203228E+01
 6.8022504E+00  4.1208656E+01
 6.8137503E+00  4.1314590E+01
 6.8252501E+00  4.1363468E+01
 6.8367505E+00  4.1458572E+01
 6.8482504E+00  4.1553600E+01
 6.8597503E+00  4.1731064E+01
 6.8712502E+00  4.1815987E+01
 6.8827505E+00  4.1814453E+01
 6.8942504E+00  4.1816620E+01
 6.9057503E+00  4.1753319E+01
 6.9172502E+00  4.1751060E+01
 6.9287505E+00  4.1652287E+01
 6.9402504E+00  4.1738041E+01
 6.9517503E+00  4.1852959E+01
 6.9632502E+00  4.1857338E+01
 6.9747505E+00  4.1889072E+01
 6.9862504E+00  4.1891918E+01
 6.9977503E+00  4.1973724E+01
 7.0092502E+00  4.1996559E+01
 7.0207505E+00  4.2045265E+01
 7.0322504E+00  4.2207905E+01
 7.0437503E+00  4.2363770E+01
 7.0552502E+00  4.2554131E+01
 7.0667505E+00  4.2708786E+01
 7.0782504E+00  4.2765583E+01
 7.0897503E+00  4.2813530E+01
 7.1012502E+00  4.2861958E+01
 7.1127505E+00  4.2878746E+01
 7.1242504E+00  4.2861374E+01
 7.1357503E+00  4.2748203E+01
 7.1472502E+00  4.2716412E+01
 7.1587505E+00  4.2777386E+01
 7.1702504E+00  4.2856251E+01
 7.1817503E+00  4.3023785E+01
 7.1932502E+00  4.3117634E+01
 7.2047505E+00  4.3120773E+01
 7.2162504E+00  4.3220711E+01
 7.2277503E+00  4.3240021E+01
 7.2392502E+00  4.3294964E+01
 7.2507505E+00  4.3299274E+01
 7.2622504E+00  4.3227062E+01
 7.2737503E+00  4.3337601E+01
 7.2852502E+00  4.3302628E+01
 7.2967505E+00  4.3301746E+01
 7.3082504E+00  4.3365841E+01
 7.3197503E+00  4.3485374E+01
 7.3312502E+00  4.3702408E+01
 7.3427505E+00  4.3743896E+01
 7.3542504E+00  4.3849010E+01
 7.3657503E+00  4.3964748E+01
 7.3772502E+00  4.4009178E+01
 7.3887506E+00  4.4080204E+01
 7.4002504E+00  4.4075275E+01
 7.4117503E+00  4.4184978E+01
 7.4232502E+00  4.4210548E+01
 7.4347506E+00  4.4178558E+01
 7.4462504E+00  4.4162766E+01
 7.4577503E+00  4.4088051E+01
 7.4692502E+00  4.4095833E+01
 7.4807506E+00  4.4149078E+01
 7.4922504E+00  4.4297436E+01
 7.5037503E+00  4.4277687E+01
 7.5152502E+00  4.4267567E+01
 7.5267506E+00  4.4180431E+01
 7.5382504E+00  4.4225311E+01
 7.5497503E+00  4.4154522E+01
 7.5612502E+00  4.4156563E+01
 7.5727506E+00  4.4092022E+01
 7.5842505E+00  4.4094440E+01
 7.5957503E+00  4.4001179E+01
 7.6072502E+00  4.4033253E+01
 7.6187506E+00  4.4064507E+01
 7.6302505E+00  4.4148430E+01
 7.6417503E+00  4.4130356E+01
 7.6532502E+00  4.4126961E+01
 7.6647506E+00  4.4076401E+01
 7.6762505E+00  4.4177898E+01
 7.6877503E+00  4.4129009E+01
 7.6992502E+00  4.4164726E+01
 7.7107506E+00  4.4107224E+01
 7.7222505E+00  4.4158424E+01
 7.7337503E+00  4.4202404E+01
 7.7452502E+00  4.4180187E+01
 7.7567506E+00  4.4155880E+01
 7.7682505E+00  4.4117886E+01
 7.7797503E+00  4.4128044E+01
 7.7912502E+00  4.4283844E+01
 7.8027506E+00  4.4301125E+01
 7.8142505E+00  4.4346436E+01
 7.8257504E+00  4.4214214E+01
 7.8372502E+00  4.4134079E+01
 7.8487506E+00  4.3969242E+01
 7.8602505E+00  4.3912582E+01
 7.8717504E+00  4.3742893E+01
 7.8832502E+00  4.3639297E+01
 7.8947506E+00  4.3497108E+01
 7.9062505E+00  4.3488049E+01
 7.9177504E+00  4.3584129E+01
 7.9292502E+00  4.3655151E+01
 7.9407506E+00  4.3675652E+01
 7.9522505E+00  4.3553898E+01
 7.9637504E+00  4.3478241E+01
 7.9752502E+00  4.3350731E+01
 7.9867506E+00  4.3233665E+01
 7.9982505E+00  4.3094643E+01
 8.0097504E+00  4.3048218E+01
 8.0212507E+00  4.3026222E+01
 8.0327501E+00  4.3075741E+01
 8.0442505E+00  4.3075157E+01
 8.0557508E+00  4.3060867E+01
 8.0672503E+00  4.2899872E+01
 8.0787506E+00  4.2752975E+01
 8.0902500E+00  4.2652081E+01
 8.1017504E+00  4.2632683E+01
 8.1132507E+00  4.2545212E+01
 8.1247501E+00  4.2454605E+01
 8.1362505E+00  4.2346130E+01
 8.1477509E+00  4.2211319E+01
 8.1592503E+00  4.2074448E+01
 8.1707506E+00  4.1864407E+01
 8.1822500E+00  4.1743343E+01
 8.1937504E+00  4.1593910E+01
 8.2052507E+00  4.1529312E+01
 8.2167501E+00  4.1533741E+01
 8.2282505E+00  4.1448391E+01
 8.2397509E+00  4.1455952E+01
 8.2512503E+00  4.1278275E+01
 8.2627506E+00  4.1206306E+01
 8.2742500E+00  4.1037270E+01
 8.2857504E+00  4.0870392E+01
 8.2972507E+00  4.0706726E+01
 8.3087502E+00  4.0532604E+01
 8.3202505E+00  4.0409172E+01
 8.3317509E+00  4.0214848E+01
 8.3432503E+00  4.0000751E+01
 8.3547506E+00  3.9812191E+01
 8.3662500E+00  3.9705948E+01
 8.3777504E+00  3.9582020E+01
 8.3892508E+00  3.9444042E+01
 8.4007502E+00  3.9306728E+01
 8.4122505E+00  3.9120930E+01
 8.4237509E+00  3.8972305E+01
 8.4352503E+00  3.8702431E+01
 8.4467506E+00  3.8544537E+01
 8.4582500E+00  3.8307465E+01
 8.4697504E+00  3.8189915E+01
 8.4812508E+00  3.8090916E+01
 8.4927502E+00  3.7890453E+01
 8.5042505E+00  3.7795521E+01
 8.5157509E+00  3.7620506E+01
 8.5272503E+00  3.7493362E+01
 8.5387506E+00  3.7262115E+01
 8.5502501E+00  3.7053219E+01
 8.5617504E+00  3.6917370E+01
 8.5732508E+00  3.6860989E+01
 8.5847502E+00  3.6703621E+01
 8.5962505E+00  3.6616512E+01
 8.6077509E+00  3.6431068E+01
 8.6192503E+00  3.6353027E+01
 8.6307507E+00  3.6141300E+01
 8.6422501E+00  3.5993179E+01
 8.6537504E+00  3.5622581E+01
 8.6652508E+00  3.5389271E+01
 8.6767502E+00  3.5039768E+01
 8.6882505E+00  3.4926739E+01
 8.6997509E+00  3.4755245E+01
 8.7112503E+00  3.4638363E+01
 8.7227507E+00  3.4492764E+01
 8.7342501E+00  3.4358540E+01
 8.7457504E+00  3.4224213E+01
 8.7572508E+00  3.4028500E+01
 8.7687502E+00  3.3867203E+01
 8.7802505E+00  3.3689655E+01
 8.7917500E+00  3.3545235E+01
 8.8032503E+00  3.3370903E+01
 8.8147507E+00  3.3230331E+01
 8.8262501E+00  3.3073051E+01
 8.8377504E+00  3.2923176E+01
 8.8492508E+00  3.2694553E+01
 8.8607502E+00  3.2543427E+01
 8.8722506E+00  3.2302841E+01
 8.8837500E+00  3.2166512E+01
 8.8952503E+00  3.2020966E+01
 8.9067507E+00  3.1931391E+01
 8.9182501E+00  3.1791092E+01
 8.9297504E+00  3.1598526E+01
 8.9412508E+00  3.1335777E+01
 8.9527502E+00  3.1156269E+01
 8.9642506E+00  3.1024942E+01
 8.9757500E+00  3.0987915E+01
 8.9872503E+00  3.0890020E+01
 8.9987507E+00  3.0652233E+01
 9.0102501E+00  3.0478642E+01
 9.0217505E+00  3.0278908E+01
 9.0332508E+00  3.0191771E+01
 9.0447502E+00  3.0048346E+01
 9.0562506E+00  2.9971601E+01
 9.0677500E+00  2.9952803E+01
 9.0792503E+00  2.9881172E+01
 9.0907507E+00  2.9830896E+01
 9.1022501E+00  2.9652550E+01
 9.1137505E+00  2.9452356E+01
 9.1252508E+00  2.9267626E+01
 9.1367502E+00  2.9173079E+01
 9.1482506E+00  2.9101709E+01
 9.1597500E+00  2.9000368E+01
 9.1712503E+00  2.8920059E+01
 9.1827507E+00  2.8830667E+01
 9.1942501E+00  2.8762705E+01
 9.2057505E+00  2.8562529E+01
 9.2172508E+00  2.8511509E+01
 9.2287502E+00  2.8335924E+01
 9.2402506E+00  2.8344837E+01
 9.2517500E+00  2.8301888E+01
 9.2632504E+00  2.8282381E+01
 9.2747507E+00  2.8153309E+01
 9.2862501E+00  2.8043190E+01
 9.2977505E+00  2.7917768E+01
 9.3092508E+00  2.7807356E+01
 9.3207502E+00  2.7599882E+01
 9.3322506E+00  2.7464617E+01
 9.3437500E+00  2.7287687E+01
 9.3552504E+00  2.7170780E+01
 9.3667507E+00  2.7025311E+01
 9.3782501E+00  2.6940899E+01
 9.3897505E+00  2.6840996E+01
 9.4012508E+00  2.6834723E+01
 9.4127502E+00  2.6811335E+01
 9.4242506E+00  2.6759203E+01
 9.4357500E+00  2.6678410E+01
 9.4472504E+00  2.6579433E+01
 9.4587507E+00  2.6532635E+01
 9.4702501E+00  2.6552999E+01
 9.4817505E+00  2.6538681E+01
 9.4932508E+00  2.6495205E+01
 9.5047503E+00  2.6379622E+01
 9.5162506E+00  2.6265717E+01
 9.5277500E+00  2.6216343E+01
 9.5392504E+00  2.6148975E+01
 9.5507507E+00  2.6100307E+01
 9.5622501E+00  2.6092075E+01
 9.5737505E+00  2.6007919E+01
 9.5852509E+00  2.5941656E+01
 9.5967503E+00  2.5823584E+01
 9.6082506E+00  2.5731899E+01
 9.6197500E+00  2.5660477E+01
 9.6312504E+00  2.5526924E+01
 9.6427507E+00  2.5466614E+01
 9.6542501E+00  2.5374409E+01
 9.6657505E+00  2.5334053E+01
 9.6772509E+00  2.5261072E+01
 9.6887503E+00  2.5199524E+01
 9.7002506E+00  2.5148714E+01
 9.7117500E+00  2.5103537E+01
 9.7232504E+00  2.5088537E+01
 9.7347507E+00  2.5093756E+01
 9.7462502E+00  2.5114695E+01
 9.7577505E+00  2.5085558E+01
 9.7692509E+00  2.5089376E+01
 9.7807503E+00  2.5048027E+01
 9.7922506E+00  2.5052483E+01
 9.8037500E+00  2.4980923E+01
 9.8152504E+00  2.4953821E+01
 9.8267508E+00  2.4929310E+01
 9.8382502E+00  2.4911392E+01
 9.8497505E+00  2.4872026E+01
 9.8612509E+00  2.4820709E+01
 9.8727503E+00  2.4765287E+01
 9.8842506E+00  2.4724142E+01
 9.8957500E+00  2.4692759E+01
 9.9072504E+00  2.4615004E+01
 9.9187508E+00  2.4583693E+01
 9.9302502E+00  2.4468946E+01
 9.9417505E+00  2.4464851E+01
 9.9532509E+00  2.4398958E+01
 9.9647503E+00  2.4414158E+01
 9.9762506E+00  2.4372396E+01
 9.9877501E+00  2.4395956E+01
 9.9992504E+00  2.4347706E+01
 1.0010751E+01  2.4286798E+01
 1.0022250E+01  2.4216764E+01
 1.0033751E+01  2.4211435E+01
 1.0045251E+01  2.4211145E+01
 1.0056750E+01  2.4169010E+01
 1.0068251E+01  2.4102552E+01
 1.0079750E+01  2.4074896E+01
 1.0091250E+01  2.4035629E+01
 1.0102751E+01  2.4015846E+01
 1.0114250E+01  2.3994726E+01
 1.0125751E+01  2.3960781E+01
 1.0137251E+01  2.3867769E+01
 1.0148750E+01  2.3804117E+01
 1.0160251E+01  2.3779911E+01
 1.0171750E+01  2.3772570E+01
 1.0183250E+01  2.3761213E+01
 1.0194751E+01  2.3744064E+01
 1.0206250E+01  2.3773607E+01
 1.0217751E+01  2.3773001E+01
 1.0229251E+01  2.3799654E+01
 1.0240750E+01  2.3808382E+01
 1.0252251E+01  2.3787558E+01
 1.0263750E+01  2.3743315E+01
 1.0275250E+01  2.3678204E+01
 1.0286751E+01  2.3618435E+01
 1.0298250E+01  2.3610126E+01
 1.0309751E+01  2.3576744E+01
 1.0321251E+01  2.3556644E+01
 1.0332750E+01  2.3509945E+01
 1.0344251E+01  2.3469242E+01
 1.0355750E+01  2.3489126E+01
 1.0367250E+01  2.3462555E+01
 1.0378751E+01  2.3502485E+01
 1.0390250E+01  2.3580641E+01
 1.0401751E+01  2.3608011E+01
 1.0413251E+01  2.3582642E+01
 1.0424750E+01  2.3434124E+01
 1.0436251E+01  2.3357723E+01
 1.0447750E+01  2.3278837E+01
 1.0459250E+01  2.3231462E+01
 1.0470751E+01  2.3237444E+01
 1.0482250E+01  2.3238745E+01
 1.0493751E+01  2.3280651E+01
 1.0505251E+01  2.3223463E+01
 1.0516750E+01  2.3240911E+01
 1.0528251E+01  2.3196182E+01
 1.0539750E+01  2.3173887E+01
 1.0551250E+01  2.3115223E+01
 1.0562751E+01  2.3078920E+01
 1.0574250E+01  2.3003035E+01
 1.0585751E+01  2.2914076E+01
 1.0597251E+01  2.2884335E+01
 1.0608750E+01  2.2867401E+01
 1.0620251E+01  2.2953989E+01
 1.0631750E+01  2.2977674E+01
 1.0643250E+01  2.3014021E+01
 1.0654751E+01  2.3039396E+01
 1.0666250E+01  2.3043993E+01
 1.0677751E+01  2.3059505E+01
 1.0689251E+01  2.3060450E+01
 1.0700750E+01  2.3027872E+01
 1.0712251E+01  2.3030607E+01
 1.0723750E+01  2.3003483E+01
 1.0735250E+01  2.3002888E+01
 1.0746751E+01  2.3043322E+01
 1.0758250E+01  2.3035069E+01
 1.0769751E+01  2.3092293E+01
 1.0781251E+01  2.3029350E+01
 1.0792750E+01  2.2947639E+01
 1.0804251E+01  2.2846251E+01
 1.0815750E+01  2.2767065E+01
 1.0827250E+01  2.2788004E+01
 1.0838751E+01  2.2777964E+01
 1.0850250E+01  2.2800550E+01
 1.0861751E+01  2.2765472E+01
 1.0873251E+01  2.2794415E+01
 1.0884750E+01  2.2789963E+01
 1.0896251E+01  2.2801615E+01
 1.0907750E+01  2.2807528E+01
 1.0919250E+01  2.2842905E+01
 1.0930751E+01  2.2880062E+01
 1.0942250E+01  2.2866545E+01
 1.0953751E+01  2.2871918E+01
 1.0965251E+01  2.2818457E+01
 1.0976750E+01  2.2808847E+01
 1.0988251E+01  2.2763803E+01
 1.0999750E+01  2.2766422E+01
 1.1011250E+01  2.2687023E+01
 1.1022751E+01  2.2686031E+01
 1.1034250E+01  2.2644140E+01
 1.1045751E+01  2.2587433E+01
 1.1057251E+01  2.2537720E+01
 1.1068750E+01  2.2533804E+01
 1.1080251E+01  2.2587032E+01
 1.1091750E+01  2.2575533E+01
 1.1103251E+01  2.2576231E+01
 1.1114751E+01  2.2593554E+01
 1.1126250E+01  2.2610439E+01
 1.1137751E+01  2.2614450E+01
 1.1149251E+01  2.2622379E+01
 1.1160750E+01  2.2664625E+01
 1.1172251E+01  2.2683828E+01
 1.1183750E+01  2.2670883E+01
 1.1195251E+01  2.2660000E+01
 1.1206751E+01  2.2673845E+01
 1.1218250E+01  2.2606783E+01
 1.1229751E+01  2.2534382E+01
 1.1241251E+01  2.2438910E+01
 1.1252750E+01  2.2485174E+01
 1.1264251E+01  2.2528593E+01
 1.1275750E+01  2.2561953E+01
 1.1287251E+01  2.2552464E+01
 1.1298751E+01  2.2548977E+01
 1.1310250E+01  2.2546976E+01
 1.1321751E+01  2.2564240E+01
 1.1333251E+01  2.2583588E+01
 1.1344750E+01  2.2640129E+01
 1.1356251E+01  2.2705730E+01
 1.1367750E+01  2.2759924E+01
 1.1379251E+01  2.2819178E+01
 1.1390751E+01  2.2887823E+01
 1.1402250E+01  2.3071541E+01
 1.1413751E+01  2.3139168E+01
 1.1425251E+01  2.3171877E+01
 1.1436750E+01  2.3180313E+01
 1.1448251E+01  2.3238920E+01
 1.1459750E+01  2.3383606E+01
 1.1471251E+01  2.3439280E+01
 1.1482751E+01  2.3585543E+01
 1.1494250E+01  2.3862087E+01
 1.1505751E+01  2.4256144E+01
 1.1517251E+01  2.5028250E+01
 1.1528750E+01  2.6366581E+01
 1.1540251E+01  2.9076630E+01
 1.1551750E+01  3.2405415E+01
 1.1563251E+01  3.7559685E+01
 1.1574751E+01  4.1264584E+01
 1.1586250E+01  4.5814640E+01
 1.1597751E+01  4.6294811E+01
 1.1609251E+01  4.5033272E+01
 1.1620750E+01  4.0253010E+01
 1.1632251E+01  3.5354935E+01
 1.1643750E+01  3.1075993E+01
 1.1655251E+01  2.7771446E+01
 1.1666751E+01  2.5735899E+01
 1.1678250E+01  2.4541929E+01
 1.1689751E+01  2.3938475E+01
 1.1701251E+01  2.3576328E+01
 1.1712750E+01  2.3375504E+01
 1.1724251E+01  2.3199293E+01
 1.1735750E+01  2.3076204E+01
 1.1747251E+01  2.3058411E+01
 1.1758751E+01  2.2972918E+01
 1.1770250E+01  2.2934931E+01
 1.1781751E+01  2.2831745E+01
 1.1793251E+01  2.2822477E+01
 1.1804750E+01  2.2805874E+01
 1.1816251E+01  2.2831476E+01
 1.1827750E+01  2.2816420E+01
 1.1839251E+01  2.2845528E+01
 1.1850751E+01  2.2773840E+01
 1.1862250E+01  2.2817770E+01
 1.1873751E+01  2.2830173E+01
 1.1885251E+01  2.2864672E+01
 1.1896750E+01  2.2967039E+01
 1.1908251E+01  2.3126331E+01
 1.1919750E+01  2.3379436E+01
 1.1931251E+01  2.4227144E+01
 1.1942751E+01  2.4923878E+01
 1.1954250E+01  2.5800943E+01
 1.1965751E+01  2.8248959E+01
 1.1977251E+01  2.9073969E+01
 1.1988750E+01  2.9421219E+01
 1.2000251E+01  2.7757401E+01
 1.2011750E+01  2.6924978E+01
 1.2023251E+01  2.6038204E+01
 1.2034751E+01  2.4815573E+01
 1.2046250E+01  2.4352175E+01
 1.2057751E+01  2.4193695E+01
 1.2069251E+01  2.4201128E+01
 1.2080750E+01  2.4432301E+01
 1.2092251E+01  2.4643978E+01
 1.2103750E+01  2.4725725E+01
 1.2115251E+01  2.4671543E+01
 1.2126751E+01  2.4376091E+01
 1.2138250E+01  2.4022106E+01
 1.2149751E+01  2.3624325E+01
 1.2161251E+01  2.3244883E+01
 1.2172750E+01  2.2989300E+01
 1.2184251E+01  2.2829350E+01
 1.2195750E+01  2.2736599E+01
 1.2207251E+01  2.2661346E+01
 1.2218751E+01  2.2565500E+01
 1.2230250E+01  2.2583834E+01
 1.2241751E+01  2.2635071E+01
 1.2253251E+01  2.2630695E+01
 1.2264750E+01  2.2649506E+01
 1.2276251E+01  2.2635750E+01
 1.2287750E+01  2.2720636E+01
 1.2299251E+01  2.2706951E+01
 1.2310751E+01  2.2716806E+01
 1.2322250E+01  2.2646484E+01
 1.2333751E+01  2.2678701E+01
 1.2345250E+01  2.2641081E+01
 1.2356750E+01  2.2721165E+01
 1.2368251E+01  2.2722471E+01
 1.2379750E+01  2.2784224E+01
 1.2391251E+01  2.2806320E+01
 1.2402751E+01  2.2771957E+01
 1.2414250E+01  2.2741196E+01
 1.2425751E+01  2.2649759E+01
 1.2437250E+01  2.2635078E+01
 1.2448750E+01  2.2615486E+01
 1.2460251E+01  2.2691042E+01
 1.2471750E+01  2.2768091E+01
 1.2483251E+01  2.2849358E+01
 1.2494751E+01  2.2804131E+01
 1.2506250E+01  2.2799500E+01
 1.2517751E+01  2.2749859E+01
 1.2529250E+01  2.2750341E+01
 1.2540751E+01  2.2720802E+01
 1.2552251E+01  2.2750977E+01
 1.2563750E+01  2.2812605E+01
 1.2575251E+01  2.2815783E+01
 1.2586751E+01  2.2826431E+01
 1.2598250E+01  2.2804728E+01
 1.2609751E+01  2.2835932E+01
 1.2621250E+01  2.2814114E+01
 1.2632751E+01  2.2861605E+01
 1.2644251E+01  2.2835373E+01
 1.2655750E+01  2.2821095E+01
 1.2667251E+01  2.2791866E+01
 1.2678751E+01  2.2793346E+01
 1.2690250E+01  2.2810778E+01
 1.2701751E+01  2.2828270E+01
 1.2713250E+01  2.2927910E+01
 1.2724751E+01  2.2954321E+01
 1.2736251E+01  2.2957176E+01
 1.2747750E+01  2.2966215E+01
 1.2759251E+01  2.3077143E+01
 1.2770751E+01  2.3134928E+01
 1.2782250E+01  2.3232498E+01
 1.2793751E+01  2.3225340E+01
 1.2805250E+01  2.3293943E+01
 1.2816751E+01  2.3281101E+01
 1.2828251E+01  2.3341640E+01
 1.2839750E+01  2.3382568E+01
 1.2851251E+01  2.3397078E+01
 1.2862751E+01  2.3392651E+01
 1.2874250E+01  2.3409113E+01
 1.2885751E+01  2.3460215E+01
 1.2897250E+01  2.3527885E+01
 1.2908751E+01  2.3542431E+01
 1.2920251E+01  2.3582987E+01
 1.2931750E+01  2.3703529E+01
 1.2943251E+01  2.3802444E+01
 1.2954751E+01  2.3873499E+01
 1.2966250E+01  2.3945953E+01
 1.2977751E+01  2.4065105E+01
 1.2989250E+01  2.4097790E+01
 1.3000751E+01  2.4126314E+01
 1.3012251E+01  2.4163122E+01
 1.3023750E+01  2.4240591E+01
 1.3035251E+01  2.4278913E+01
 1.3046751E+01  2.4287981E+01
 1.3058250E+01  2.4330317E+01
 1.3069751E+01  2.4406137E+01
 1.3081250E+01  2.4466314E+01
 1.3092751E+01  2.4591454E+01
 1.3104251E+01  2.4740673E+01
 1.3115750E+01  2.4912334E+01
 1.3127251E+01  2.5018986E+01
 1.3138751E+01  2.5057751E+01
 1.3150250E+01  2.5168011E+01
 1.3161751E+01  2.5225561E+01
 1.3173250E+01  2.5380236E+01
 1.3184751E+01  2.5518822E+01
 1.3196251E+01  2.5662052E+01
 1.3207750E+01  2.5764153E+01
 1.3219251E+01  2.5890669E+01
 1.3230751E+01  2.6100328E+01
 1.3242250E+01  2.6304407E+01
 1.3253751E+01  2.6477377E+01
 1.3265250E+01  2.6628515E+01
 1.3276751E+01  2.6761288E+01
 1.3288251E+01  2.6893175E+01
 1.3299750E+01  2.7043871E+01
 1.3311251E+01  2.7117657E+01
 1.3322751E+01  2.7223179E+01
 1.3334250E+01  2.7362278E+01
 1.3345751E+01  2.7485378E+01
 1.3357250E+01  2.7650400E+01
 1.3368751E+01  2.7710732E+01
 1.3380251E+01  2.7916416E+01
 1.3391750E+01  2.8053860E+01
 1.3403251E+01  2.8257534E+01
 1.3414751E+01  2.8332190E+01
 1.3426250E+01  2.8401827E+01
 1.3437751E+01  2.8459826E+01
 1.3449250E+01  2.8587767E+01
 1.3460751E+01  2.8745735E+01
 1.3472251E+01  2.8845173E+01
 1.3483750E+01  2.9009756E+01
 1.3495251E+01  2.9118076E+01
 1.3506751E+01  2.9309345E+01
 1.3518250E+01  2.9431938E+01
 1.3529751E+01  2.9518753E+01
 1.3541250E+01  2.9602812E+01
 1.3552751E+01  2.9609324E+01
 1.3564251E+01  2.9669168E+01
 1.3575750E+01  2.9699112E+01
 1.3587251E+01  2.9734009E+01
 1.3598751E+01  2.9789236E+01
 1.3610250E+01  2.9779480E+01
 1.3621751E+01  2.9763332E+01
 1.3633250E+01  2.9736050E+01
 1.3644751E+01  2.9698864E+01
 1.3656251E+01  2.9755541E+01
 1.3667750E+01  2.9806835E+01
 1.3679251E+01  2.9853188E+01
 1.3690751E+01  2.9820421E+01
 1.3702250E+01  2.9755535E+01
 1.3713751E+01  2.9709675E+01
 1.3725250E+01  2.9711056E+01
 1.3736751E+01  2.9729370E+01
 1.3748251E+01  2.9663322E+01
 1.3759750E+01  2.9604353E+01
 1.3771251E+01  2.9543522E+01
 1.3782751E+01  2.9572201E+01
 1.3794250E+01  2.9577168E+01
 1.3805751E+01  2.9553001E+01
 1.3817250E+01  2.9568193E+01
 1.3828751E+01  2.9565645E+01
 1.3840251E+01  2.9653950E+01
 1.3851750E+01  2.9789370E+01
 1.3863251E+01  2.9991774E+01
 1.3874751E+01  3.0330391E+01
 1.3886250E+01  3.0845812E+01
 1.3897751E+01  3.1970583E+01
 1.3909250E+01  3.3466129E+01
 1.3920751E+01  3.5818802E+01
 1.3932251E+01  3.8775700E+01
 1.3943750E+01  4.1443691E+01
 1.3955251E+01  4.3885464E+01
 1.3966751E+01  4.4905052E+01
 1.3978251E+01  4.4963989E+01
 1.3989751E+01  4.3417332E+01
 1.4001250E+01  4.0456722E+01
 1.4012751E+01  3.7038765E+01
 1.4024251E+01  3.3698303E+01
 1.4035750E+01  3.1565145E+01
 1.4047251E+01  2.9993736E+01
 1.4058751E+01  2.9109926E+01
 1.4070251E+01  2.8647833E+01
 1.4081751E+01  2.8295418E+01
 1.4093250E+01  2.8095236E+01
 1.4104751E+01  2.7834593E+01
 1.4116251E+01  2.7717190E+01
 1.4127750E+01  2.7577318E+01
 1.4139251E+01  2.7503458E+01
 1.4150751E+01  2.7353050E+01
 1.4162251E+01  2.7287592E+01
 1.4173751E+01  2.7120762E+01
 1.4185250E+01  2.7063364E+01
 1.4196751E+01  2.6965425E+01
 1.4208251E+01  2.7004154E+01
 1.4219750E+01  2.6939676E+01
 1.4231251E+01  2.6908024E+01
 1.4242751E+01  2.6790388E+01
 1.4254251E+01  2.6735878E+01
 1.4265751E+01  2.6664822E+01
 1.4277250E+01  2.6585852E+01
 1.4288751E+01  2.6454153E+01
 1.4300251E+01  2.6332230E+01
 1.4311750E+01  2.6336575E+01
 1.4323251E+01  2.6292032E+01
 1.4334751E+01  2.6289513E+01
 1.4346251E+01  2.6237061E+01
 1.4357751E+01  2.6215471E+01
 1.4369250E+01  2.6188349E+01
 1.4380751E+01  2.6158602E+01
 1.4392251E+01  2.6088249E+01
 1.4403750E+01  2.5976448E+01
 1.4415251E+01  2.5950327E+01
 1.4426751E+01  2.5947248E+01
 1.4438251E+01  2.5958504E+01
 1.4449751E+01  2.5907551E+01
 1.4461250E+01  2.5838451E+01
 1.4472751E+01  2.5794109E+01
 1.4484251E+01  2.5729013E+01
 1.4495750E+01  2.5668289E+01
 1.4507251E+01  2.5631138E+01
 1.4518751E+01  2.5592609E+01
 1.4530251E+01  2.5639307E+01
 1.4541751E+01  2.5630571E+01
 1.4553250E+01  2.5646606E+01
 1.4564751E+01  2.5648741E+01
 1.4576251E+01  2.5640284E+01
 1.4587750E+01  2.5640446E+01
 1.4599251E+01  2.5623940E+01
 1.4610751E+01  2.5589891E+01
 1.4622251E+01  2.5520334E+01
 1.4633751E+01  2.5428837E+01
 1.4645250E+01  2.5400251E+01
 1.4656751E+01  2.5331385E+01
 1.4668251E+01  2.5291294E+01
 1.4679750E+01  2.5285353E+01
 1.4691251E+01  2.5326044E+01
 1.4702751E+01  2.5379354E+01
 1.4714251E+01  2.5369886E+01
 1.4725751E+01  2.5381113E+01
 1.4737250E+01  2.5326962E+01
 1.4748751E+01  2.5318211E+01
 1.4760251E+01  2.5265745E+01
 1.4771750E+01  2.5254267E+01
 1.4783251E+01  2.5180153E+01
 1.4794751E+01  2.5119730E+01
 1.4806251E+01  2.5075117E+01
 1.4817751E+01  2.5048428E+01
 1.4829250E+01  2.5054136E+01
 1.4840751E+01  2.5098602E+01
 1.4852251E+01  2.5086933E+01
 1.4863750E+01  2.5078318E+01
 1.4875251E+01  2.5020929E+01
 1.4886751E+01  2.5065409E+01
 1.4898251E+01  2.5083693E+01
 1.4909751E+01  2.5111193E+01
 1.4921250E+01  2.5089897E+01
 1.4932751E+01  2.5033466E+01
 1.4944251E+01  2.4899857E+01
 1.4955750E+01  2.4826300E+01
 1.4967251E+01  2.4772316E+01
 1.4978751E+01  2.4793608E+01
 1.4990251E+01  2.4795370E+01
 1.5001751E+01  2.4777885E+01
 1.5013250E+01  2.4849876E+01
 1.5024751E+01  2.4869827E+01
 1.5036251E+01  2.4868956E+01
 1.5047750E+01  2.4806408E+01
 1.5059251E+01  2.4792391E+01
 1.5070751E+01  2.4818752E+01
 1.5082251E+01  2.4909216E+01
 1.5093751E+01  2.4979471E+01
 1.5105250E+01  2.5068619E+01
 1.5116751E+01  2.5106770E+01
 1.5128251E+01  2.5266487E+01
 1.5139750E+01  2.5546120E+01
 1.5151251E+01  2.5954716E+01
 1.5162751E+01  2.6445175E+01
 1.5174251E+01  2.6915937E+01
 1.5185751E+01  2.7208899E+01
 1.5197250E+01  2.7406635E+01
 1.5208751E+01  2.7364716E+01
 1.5220251E+01  2.7099915E+01
 1.5231750E+01  2.6634640E+01
 1.5243251E+01  2.6018599E+01
 1.5254751E+01  2.5635468E+01
 1.5266251E+01  2.5199905E+01
 1.5277751E+01  2.5017241E+01
 1.5289250E+01  2.4836176E+01
 1.5300751E+01  2.4742071E+01
 1.5312251E+01  2.4730070E+01
 1.5323750E+01  2.4705997E+01
 1.5335251E+01  2.4707956E+01
 1.5346751E+01  2.4675076E+01
 1.5358251E+01  2.4653599E+01
 1.5369751E+01  2.4629213E+01
 1.5381250E+01  2.4568098E+01
 1.5392751E+01  2.4477970E+01
 1.5404251E+01  2.4452639E+01
 1.5415751E+01  2.4458199E+01
 1.5427251E+01  2.4481899E+01
 1.5438751E+01  2.4504248E+01
 1.5450251E+01  2.4531746E+01
 1.5461751E+01  2.4594248E+01
 1.5473250E+01  2.4595516E+01
 1.5484751E+01  2.4647436E+01
 1.5496251E+01  2.4646116E+01
 1.5507751E+01  2.4664545E+01
 1.5519251E+01  2.4677170E+01
 1.5530751E+01  2.4615759E+01
 1.5542251E+01  2.4539043E+01
 1.5553751E+01  2.4441975E+01
 1.5565250E+01  2.4468754E+01
 1.5576751E+01  2.4512062E+01
 1.5588251E+01  2.4591839E+01
 1.5599751E+01  2.4605701E+01
 1.5611251E+01  2.4620518E+01
 1.5622751E+01  2.4605227E+01
 1.5634251E+01  2.4578571E+01
 1.5645751E+01  2.4564770E+01
 1.5657250E+01  2.4567837E+01
 1.5668751E+01  2.4597223E+01
 1.5680251E+01  2.4565054E+01
 1.5691751E+01  2.4564070E+01
 1.5703251E+01  2.4588570E+01
 1.5714751E+01  2.4631058E+01
 1.5726251E+01  2.4625607E+01
 1.5737751E+01  2.4578079E+01
 1.5749250E+01  2.4517223E+01
 1.5760751E+01  2.4498827E+01
 1.5772251E+01  2.4494429E+01
 1.5783751E+01  2.4462223E+01
 1.5795251E+01  2.4442390E+01
 1.5806751E+01  2.4483469E+01
 1.5818251E+01  2.4557720E+01
 1.5829751E+01  2.4553776E+01
 1.5841250E+01  2.4538374E+01
 1.5852751E+01  2.4528576E+01
 1.5864251E+01  2.4510677E+01
 1.5875751E+01  2.4513670E+01
 1.5887251E+01  2.4512857E+01
 1.5898750E+01  2.4582159E+01
 1.5910251E+01  2.4643547E+01
 1.5921751E+01  2.4721613E+01
 1.5933250E+01  2.4741245E+01
 1.5944751E+01  2.4693941E+01
 1.5956251E+01  2.4680872E+01
 1.5967751E+01  2.4668280E+01
 1.5979251E+01  2.4696402E+01
 1.5990750E+01  2.4717405E+01
 1.6002251E+01  2.4742588E+01
 1.6013750E+01  2.4748026E+01
 1.6025251E+01  2.4765533E+01
 1.6036751E+01  2.4795515E+01
 1.6048250E+01  2.4838724E+01
 1.6059752E+01  2.4894350E+01
 1.6071251E+01  2.4858770E+01
 1.6082750E+01  2.4911455E+01
 1.6094252E+01  2.4884472E+01
 1.6105751E+01  2.4980530E+01
 1.6117250E+01  2.4964239E+01
 1.6128750E+01  2.4923952E+01
 1.6140251E+01  2.4930599E+01
 1.6151751E+01  2.4949930E+01
 1.6163250E+01  2.5122349E+01
 1.6174751E+01  2.5102545E+01
 1.6186251E+01  2.5442276E+01
 1.6197750E+01  2.5365711E+01
 1.6209251E+01  2.6066248E+01
 1.6220751E+01  2.6034229E+01
 1.6232250E+01  2.6882959E+01
 1.6243752E+01  2.7074364E+01
 1.6255251E+01  2.7483187E+01
 1.6266750E+01  2.7566698E+01
 1.6278252E+01  2.6990026E+01
 1.6289751E+01  2.6820751E+01
 1.6301250E+01  2.5784561E+01
 1.6312750E+01  2.5716175E+01
 1.6324251E+01  2.5052256E+01
 1.6335751E+01  2.5055750E+01
 1.6347250E+01  2.4808937E+01
 1.6358751E+01  2.4792870E+01
 1.6370251E+01  2.4699652E+01
 1.6381750E+01  2.4728460E+01
 1.6393251E+01  2.4752787E+01
 1.6404751E+01  2.4753859E+01
 1.6416250E+01  2.4780582E+01
 1.6427752E+01  2.4816391E+01
 1.6439251E+01  2.4841881E+01
 1.6450750E+01  2.4777454E+01
 1.6462252E+01  2.4730463E+01
 1.6473751E+01  2.4685530E+01
 1.6485250E+01  2.4716543E+01
 1.6496750E+01  2.4787619E+01
 1.6508251E+01  2.4783974E+01
 1.6519751E+01  2.4763931E+01
 1.6531250E+01  2.4689541E+01
 1.6542751E+01  2.4656231E+01
 1.6554251E+01  2.4619072E+01
 1.6565750E+01  2.4614529E+01
 1.6577251E+01  2.4619743E+01
 1.6588751E+01  2.4619675E+01
 1.6600250E+01  2.4597225E+01
 1.6611752E+01  2.4589205E+01
 1.6623251E+01  2.4543243E+01
 1.6634750E+01  2.4532040E+01
 1.6646252E+01  2.4524561E+01
 1.6657751E+01  2.4540131E+01
 1.6669250E+01  2.4573406E+01
 1.6680750E+01  2.4530935E+01
 1.6692251E+01  2.4515160E+01
 1.6703751E+01  2.4482418E+01
 1.6715250E+01  2.4462507E+01
 1.6726751E+01  2.4419203E+01
 1.6738251E+01  2.4432112E+01
 1.6749750E+01  2.4515276E+01
 1.6761251E+01  2.4520872E+01
 1.6772751E+01  2.4496300E+01
 1.6784250E+01  2.4447935E+01
 1.6795752E+01  2.4416143E+01
 1.6807251E+01  2.4410295E+01
 1.6818750E+01  2.4406826E+01
 1.6830252E+01  2.4424782E+01
 1.6841751E+01  2.4413614E+01
 1.6853251E+01  2.4439926E+01
 1.6864750E+01  2.4480566E+01
 1.6876251E+01  2.4542974E+01
 1.6887751E+01  2.4587097E+01
 1.6899250E+01  2.4608866E+01
 1.6910751E+01  2.4620886E+01
 1.6922251E+01  2.4574598E+01
 1.6933750E+01  2.4531834E+01
 1.6945251E+01  2.4453056E+01
 1.6956751E+01  2.4377184E+01
 1.6968250E+01  2.4318575E+01
 1.6979752E+01  2.4291569E+01
 1.6991251E+01  2.4273771E+01
 1.7002750E+01  2.4279940E+01
 1.7014252E+01  2.4316702E+01
 1.7025751E+01  2.4330698E+01
 1.7037251E+01  2.4322884E+01
 1.7048750E+01  2.4266029E+01
 1.7060251E+01  2.4238768E+01
 1.7071751E+01  2.4188480E+01
 1.7083250E+01  2.4183813E+01
 1.7094751E+01  2.4166033E+01
 1.7106251E+01  2.4172388E+01
 1.7117750E+01  2.4151377E+01
 1.7129251E+01  2.4191875E+01
 1.7140751E+01  2.4208982E+01
 1.7152250E+01  2.4233021E+01
 1.7163752E+01  2.4226795E+01
 1.7175251E+01  2.4256504E+01
 1.7186750E+01  2.4271406E+01
 1.7198252E+01  2.4269474E+01
 1.7209751E+01  2.4243113E+01
 1.7221251E+01  2.4215967E+01
 1.7232750E+01  2.4168301E+01
 1.7244251E+01  2.4127794E+01
 1.7255751E+01  2.4050318E+01
 1.7267250E+01  2.4037766E+01
 1.7278751E+01  2.4029572E+01
 1.7290251E+01  2.4052834E+01
 1.7301750E+01  2.4097532E+01
 1.7313251E+01  2.4142529E+01
 1.7324751E+01  2.4137999E+01
 1.7336250E+01  2.4134878E+01
 1.7347752E+01  2.4063944E+01
 1.7359251E+01  2.4053526E+01
 1.7370750E+01  2.3985596E+01
 1.7382252E+01  2.3952133E+01
 1.7393751E+01  2.3924934E+01
 1.7405251E+01  2.3930195E+01
 1.7416750E+01  2.3973980E+01
 1.7428251E+01  2.4004139E+01
 1.7439751E+01  2.4053057E+01
 1.7451250E+01  2.4035717E+01
 1.7462751E+01  2.4046188E+01
 1.7474251E+01  2.4011940E+01
 1.7485750E+01  2.4033142E+01
 1.7497252E+01  2.4004173E+01
 1.7508751E+01  2.4053478E+01
 1.7520250E+01  2.4034853E+01
 1.7531752E+01  2.4033491E+01
 1.7543251E+01  2.4022375E+01
 1.7554750E+01  2.3997122E+01
 1.7566252E+01  2.3931875E+01
 1.7577751E+01  2.3826761E+01
 1.7589251E+01  2.3781286E+01
 1.7600750E+01  2.3847939E+01
 1.7612251E+01  2.3908440E+01
 1.7623751E+01  2.3939568E+01
 1.7635250E+01  2.3882084E+01
 1.7646751E+01  2.3808378E+01
 1.7658251E+01  2.3739517E+01
 1.7669750E+01  2.3746140E+01
 1.7681252E+01  2.3813850E+01
 1.7692751E+01  2.3862045E+01
 1.7704250E+01  2.3880386E+01
 1.7715752E+01  2.3883434E+01
 1.7727251E+01  2.3848181E+01
 1.7738750E+01  2.3843414E+01
 1.7750252E+01  2.3823528E+01
 1.7761751E+01  2.3876020E+01
 1.7773251E+01  2.3954359E+01
 1.7784750E+01  2.4034660E+01
 1.7796251E+01  2.4097879E+01
 1.7807751E+01  2.4036316E+01
 1.7819250E+01  2.3986668E+01
 1.7830751E+01  2.3943094E+01
 1.7842251E+01  2.3996613E+01
 1.7853750E+01  2.3979589E+01
 1.7865252E+01  2.3978611E+01
 1.7876751E+01  2.4000906E+01
 1.7888250E+01  2.3995626E+01
 1.7899752E+01  2.4009806E+01
 1.7911251E+01  2.3993889E+01
 1.7922750E+01  2.4032896E+01
 1.7934252E+01  2.3982811E+01
 1.7945751E+01  2.3989832E+01
 1.7957251E+01  2.4063850E+01
 1.7968750E+01  2.4165346E+01
 1.7980251E+01  2.4322355E+01
 1.7991751E+01  2.4397696E+01
 1.8003250E+01  2.4543882E+01
 1.8014751E+01  2.4601809E+01
 1.8026251E+01  2.4721601E+01
 1.8037750E+01  2.5215416E+01
 1.8049252E+01  2.5529186E+01
 1.8060751E+01  2.6916653E+01
 1.8072250E+01  2.7306961E+01
 1.8083752E+01  2.9025919E+01
 1.8095251E+01  2.8934549E+01
 1.8106750E+01  2.9441416E+01
 1.8118252E+01  2.8748262E+01
 1.8129751E+01  2.7896719E+01
 1.8141251E+01  2.7229342E+01
 1.8152750E+01  2.6265650E+01
 1.8164251E+01  2.5760805E+01
 1.8175751E+01  2.4988003E+01
 1.8187250E+01  2.4703913E+01
 1.8198751E+01  2.4434145E+01
 1.8210251E+01  2.4296478E+01
 1.8221750E+01  2.4110050E+01
 1.8233252E+01  2.3951132E+01
 1.8244751E+01  2.3870869E+01
 1.8256250E+01  2.3819014E+01
 1.8267752E+01  2.3836462E+01
 1.8279251E+01  2.3890280E+01
 1.8290751E+01  2.3900867E+01
 1.8302252E+01  2.3892855E+01
 1.8313751E+01  2.3804813E+01
 1.8325251E+01  2.3766342E+01
 1.8336750E+01  2.3705162E+01
 1.8348251E+01  2.3686930E+01
 1.8359751E+01  2.3685446E+01
 1.8371250E+01  2.3680750E+01
 1.8382751E+01  2.3752186E+01
 1.8394251E+01  2.3784477E+01
 1.8405750E+01  2.3820223E+01
 1.8417252E+01  2.3796743E+01
 1.8428751E+01  2.3779688E+01
 1.8440250E+01  2.3774118E+01
 1.8451752E+01  2.3768763E+01
 1.8463251E+01  2.3797249E+01
 1.8474751E+01  2.3830591E+01
 1.8486252E+01  2.3796555E+01
 1.8497751E+01  2.3736486E+01
 1.8509251E+01  2.3688314E+01
 1.8520750E+01  2.3628075E+01
 1.8532251E+01  2.3574240E+01
 1.8543751E+01  2.3521490E+01
 1.8555250E+01  2.3538742E+01
 1.8566751E+01  2.3561159E+01
 1.8578251E+01  2.3588505E+01
 1.8589750E+01  2.3657188E+01
 1.8601252E+01  2.3727064E+01
 1.8612751E+01  2.3768768E+01
 1.8624250E+01  2.3708515E+01
 1.8635752E+01  2.3643538E+01
 1.8647251E+01  2.3615458E+01
 1.8658751E+01  2.3562531E+01
 1.8670252E+01  2.3583429E+01
 1.8681751E+01  2.3569603E+01
 1.8693251E+01  2.3613028E+01
 1.8704750E+01  2.3606295E+01
 1.8716251E+01  2.3618956E+01
 1.8727751E+01  2.3617025E+01
 1.8739250E+01  2.3602180E+01
 1.8750751E+01  2.3607769E+01
 1.8762251E+01  2.3541290E+01
 1.8773750E+01  2.3488161E+01
 1.8785252E+01  2.3468761E+01
 1.8796751E+01  2.3487808E+01
 1.8808250E+01  2.3487949E+01
 1.8819752E+01  2.3513599E+01
 1.8831251E+01  2.3510159E+01
 1.8842751E+01  2.3518894E+01
 1.8854252E+01  2.3518892E+01
 1.8865751E+01  2.3538952E+01
 1.8877251E+01  2.3538208E+01
 1.8888750E+01  2.3533672E+01
 1.8900251E+01  2.3577394E+01
 1.8911751E+01  2.3553391E+01
 1.8923250E+01  2.3603216E+01
 1.8934752E+01  2.3643471E+01
 1.8946251E+01  2.3732428E+01
 1.8957750E+01  2.3713167E+01
 1.8969252E+01  2.3664949E+01
 1.8980751E+01  2.3628599E+01
 1.8992250E+01  2.3604723E+01
 1.9003752E+01  2.3626719E+01
 1.9015251E+01  2.3631117E+01
 1.9026751E+01  2.3621563E+01
 1.9038252E+01  2.3640116E+01
 1.9049751E+01  2.3619944E+01
 1.9061251E+01  2.3628876E+01
 1.9072750E+01  2.3624386E+01
 1.9084251E+01  2.3657923E+01
 1.9095751E+01  2.3640175E+01
 1.9107250E+01  2.3600058E+01
 1.9118752E+01  2.3568630E+01
 1.9130251E+01  2.3574123E+01
 1.9141750E+01  2.3529434E+01
 1.9153252E+01  2.3551203E+01
 1.9164751E+01  2.3533333E+01
 1.9176250E+01  2.3576174E+01
 1.9187752E+01  2.3594234E+01
 1.9199251E+01  2.3573116E+01
 1.9210751E+01  2.3534008E+01
 1.9222252E+01  2.3447533E+01
 1.9233751E+01  2.3428083E+01
 1.9245251E+01  2.3419674E+01
 1.9256750E+01  2.3501255E+01
 1.9268251E+01  2.3555494E+01
 1.9279751E+01  2.3558336E+01
 1.9291250E+01  2.3581760E+01
 1.9302752E+01  2.3596676E+01
 1.9314251E+01  2.3562380E+01
 1.9325750E+01  2.3503773E+01
 1.9337252E+01  2.3506010E+01
 1.9348751E+01  2.3569725E+01
 1.9360250E+01  2.3611605E+01
 1.9371752E+01  2.3652124E+01
 1.9383251E+01  2.3627712E+01
 1.9394751E+01  2.3631025E+01
 1.9406250E+01  2.3608894E+01
 1.9417751E+01  2.3604811E+01
 1.9429251E+01  2.3607594E+01
 1.9440750E+01  2.3627485E+01
 1.9452251E+01  2.3649990E+01
 1.9463751E+01  2.3679268E+01
 1.9475250E+01  2.3731176E+01
 1.9486752E+01  2.3764051E+01
 1.9498251E+01  2.3758326E+01
 1.9509750E+01  2.3737762E+01
 1.9521252E+01  2.3808800E+01
 1.9532751E+01  2.3859100E+01
 1.9544250E+01  2.3934744E+01
 1.9555752E+01  2.3899153E+01
 1.9567251E+01  2.4042101E+01
 1.9578751E+01  2.4131630E+01
 1.9590250E+01  2.4214233E+01
 1.9601751E+01  2.4233744E+01
 1.9613251E+01  2.4309208E+01
 1.9624750E+01  2.4409935E+01
 1.9636251E+01  2.4589094E+01
 1.9647751E+01  2.4917519E+01
 1.9659250E+01  2.5344025E+01
 1.9670752E+01  2.5986263E+01
 1.9682251E+01  2.6566692E+01
 1.9693750E+01  2.7319756E+01
 1.9705252E+01  2.7753592E+01
 1.9716751E+01  2.8124439E+01
 1.9728251E+01  2.7967766E+01
 1.9739752E+01  2.7689547E+01
 1.9751251E+01  2.7250450E+01
 1.9762751E+01  2.6722578E+01
 1.9774250E+01  2.6347908E+01
 1.9785751E+01  2.6281433E+01
 1.9797251E+01  2.6758280E+01
 1.9808750E+01  2.7505947E+01
 1.9820251E+01  2.8932308E+01
 1.9831751E+01  2.9978300E+01
 1.9843250E+01  3.1657297E+01
 1.9854752E+01  3.1937708E+01
 1.9866251E+01  3.2564610E+01
 1.9877750E+01  3.1732409E+01
 1.9889252E+01  3.0698259E+01
 1.9900751E+01  2.9523142E+01
 1.9912251E+01  2.7878387E+01
 1.9923752E+01  2.6867731E+01
 1.9935251E+01  2.5689720E+01
 1.9946751E+01  2.5085001E+01
 1.9958250E+01  2.4633848E+01
 1.9969751E+01  2.4469589E+01
 1.9981251E+01  2.4310995E+01
 1.9992750E+01  2.4240818E+01
 2.0004251E+01  2.4140202E+01
 2.0015751E+01  2.4091568E+01
 2.0027250E+01  2.4091927E+01
 2.0038752E+01  2.4127653E+01
 2.0050251E+01  2.4186239E+01
 2.0061750E+01  2.4089142E+01
 2.0073252E+01  2.4006750E+01
 2.0084751E+01  2.3889187E+01
 2.0096251E+01  2.3863691E+01
 2.0107752E+01  2.3833418E+01
 2.0119251E+01  2.3859821E+01
 2.0130751E+01  2.3845818E+01
 2.0142250E+01  2.3846287E+01
 2.0153751E+01  2.3829681E+01
 2.0165251E+01  2.3852684E+01
 2.0176750E+01  2.3819223E+01
 2.0188251E+01  2.3784628E+01
 2.0199751E+01  2.3776091E+01
 2.0211250E+01  2.3792822E+01
 2.0222752E+01  2.3842569E+01
 2.0234251E+01  2.3880840E+01
 2.0245750E+01  2.3945749E+01
 2.0257252E+01  2.3912468E+01
 2.0268751E+01  2.3855951E+01
 2.0280251E+01  2.3824688E+01
 2.0291752E+01  2.3837694E+01
 2.0303251E+01  2.3799412E+01
 2.0314751E+01  2.3792645E+01
 2.0326250E+01  2.3813770E+01
 2.0337751E+01  2.3863884E+01
 2.0349251E+01  2.3853872E+01
 2.0360750E+01  2.3850815E+01
 2.0372252E+01  2.3786570E+01
 2.0383751E+01  2.3741756E+01
 2.0395250E+01  2.3756765E+01
 2.0406752E+01  2.3760435E+01
 2.0418251E+01  2.3774130E+01
 2.0429750E+01  2.3799109E+01
 2.0441252E+01  2.3796976E+01
 2.0452751E+01  2.3833429E+01
 2.0464251E+01  2.3814116E+01
 2.0475752E+01  2.3804081E+01
 2.0487251E+01  2.3778286E+01
 2.0498751E+01  2.3806929E+01
 2.0510250E+01  2.3771317E+01
 2.0521751E+01  2.3746292E+01
 2.0533251E+01  2.3751570E+01
 2.0544750E+01  2.3785482E+01
 2.0556252E+01  2.3867590E+01
 2.0567751E+01  2.3889854E+01
 2.0579250E+01  2.3921091E+01
 2.0590752E+01  2.3960363E+01
 2.0602251E+01  2.4032883E+01
 2.0613750E+01  2.4060722E+01
 2.0625252E+01  2.4114561E+01
 2.0636751E+01  2.4138206E+01
 2.0648251E+01  2.4162397E+01
 2.0659752E+01  2.4162937E+01
 2.0671251E+01  2.4228397E+01
 2.0682751E+01  2.4381672E+01
 2.0694250E+01  2.4564270E+01
 2.0705751E+01  2.4904232E+01
 2.0717251E+01  2.5355320E+01
 2.0728750E+01  2.5876474E+01
 2.0740252E+01  2.6574787E+01
 2.0751751E+01  2.7499880E+01
 2.0763250E+01  2.8038532E+01
 2.0774752E+01  2.8159922E+01
 2.0786251E+01  2.7837957E+01
 2.0797750E+01  2.7158665E+01
 2.0809252E+01  2.6260710E+01
 2.0820751E+01  2.5526752E+01
 2.0832251E+01  2.4994541E+01
 2.0843752E+01  2.4583958E+01
 2.0855251E+01  2.4501177E+01
 2.0866751E+01  2.4376514E+01
 2.0878250E+01  2.4244589E+01
 2.0889751E+01  2.4138901E+01
 2.0901251E+01  2.4103405E+01
 2.0912750E+01  2.4090561E+01
 2.0924252E+01  2.4080677E+01
 2.0935751E+01  2.4065189E+01
 2.0947250E+01  2.4084400E+01
 2.0958752E+01  2.4029722E+01
 2.0970251E+01  2.4009403E+01
 2.0981750E+01  2.3999294E+01
 2.0993252E+01  2.4003420E+01
 2.1004751E+01  2.3980288E+01
 2.1016251E+01  2.3982843E+01
 2.1027752E+01  2.3973413E+01
 2.1039251E+01  2.3979338E+01
 2.1050751E+01  2.3970728E+01
 2.1062250E+01  2.3982124E+01
 2.1073751E+01  2.3992893E+01
 2.1085251E+01  2.3967505E+01
 2.1096750E+01  2.3876379E+01
 2.1108252E+01  2.3872175E+01
 2.1119751E+01  2.3930445E+01
 2.1131250E+01  2.3997240E+01
 2.1142752E+01  2.3988564E+01
 2.1154251E+01  2.3963543E+01
 2.1165751E+01  2.3931103E+01
 2.1177252E+01  2.3896292E+01
 2.1188751E+01  2.3875246E+01
 2.1200251E+01  2.3908133E+01
 2.1211752E+01  2.3942354E+01
 2.1223251E+01  2.3924467E+01
 2.1234751E+01  2.3930771E+01
 2.1246250E+01  2.3953701E+01
 2.1257751E+01  2.4030594E+01
 2.1269251E+01  2.4029762E+01
 2.1280750E+01  2.3971567E+01
 2.1292252E+01  2.3961451E+01
 2.1303751E+01  2.3973337E+01
 2.1315250E+01  2.3983463E+01
 2.1326752E+01  2.3976469E+01
 2.1338251E+01  2.3978579E+01
 2.1349751E+01  2.3987932E+01
 2.1361252E+01  2.3970564E+01
 2.1372751E+01  2.4015272E+01
 2.1384251E+01  2.3978884E+01
 2.1395752E+01  2.3954170E+01
 2.1407251E+01  2.3901247E+01
 2.1418751E+01  2.3893064E+01
 2.1430250E+01  2.3907507E+01
 2.1441751E+01  2.3946526E+01
 2.1453251E+01  2.3992277E+01
 2.1464750E+01  2.4010815E+01
 2.1476252E+01  2.3998190E+01
 2.1487751E+01  2.4016647E+01
 2.1499250E+01  2.4038218E+01
 2.1510752E+01  2.4088556E+01
 2.1522251E+01  2.4103745E+01
 2.1533751E+01  2.4112082E+01
 2.1545252E+01  2.4066620E+01
 2.1556751E+01  2.4061237E+01
 2.1568251E+01  2.4053581E+01
 2.1579752E+01  2.4092747E+01
 2.1591251E+01  2.4143370E+01
 2.1602751E+01  2.4187239E+01
 2.1614250E+01  2.4184912E+01
 2.1625751E+01  2.4171476E+01
 2.1637251E+01  2.4151047E+01
 2.1648750E+01  2.4135897E+01
 2.1660252E+01  2.4152565E+01
 2.1671751E+01  2.4186167E+01
 2.1683250E+01  2.4178877E+01
 2.1694752E+01  2.4220819E+01
 2.1706251E+01  2.4217152E+01
 2.1717751E+01  2.4190304E+01
 2.1729252E+01  2.4121014E+01
 2.1740751E+01  2.4078985E+01
 2.1752251E+01  2.4063341E+01
 2.1763752E+01  2.4035892E+01
 2.1775251E+01  2.4070011E+01
 2.1786751E+01  2.4107256E+01
 2.1798250E+01  2.4174408E+01
 2.1809752E+01  2.4200554E+01
 2.1821251E+01  2.4241209E+01
 2.1832750E+01  2.4221081E+01
 2.1844252E+01  2.4218609E+01
 2.1855751E+01  2.4233231E+01
 2.1867250E+01  2.4279709E+01
 2.1878752E+01  2.4286915E+01
 2.1890251E+01  2.4282578E+01
 2.1901751E+01  2.4238901E+01
 2.1913252E+01  2.4241623E+01
 2.1924751E+01  2.4227308E+01
 2.1936251E+01  2.4250347E+01
 2.1947752E+01  2.4238390E+01
 2.1959251E+01  2.4210556E+01
 2.1970751E+01  2.4172667E+01
 2.1982250E+01  2.4158951E+01
 2.1993752E+01  2.4207178E+01
 2.2005251E+01  2.4272293E+01
 2.2016750E+01  2.4324045E+01
 2.2028252E+01  2.4370266E+01
 2.2039751E+01  2.4345871E+01
 2.2051250E+01  2.4300150E+01
 2.2062752E+01  2.4270704E+01
 2.2074251E+01  2.4306631E+01
 2.2085751E+01  2.4304510E+01
 2.2097252E+01  2.4300289E+01
 2.2108751E+01  2.4294250E+01
 2.2120251E+01  2.4379126E+01
 2.2131752E+01  2.4427109E+01
 2.2143251E+01  2.4462353E+01
 2.2154751E+01  2.4434170E+01
 2.2166250E+01  2.4455574E+01
 2.2177752E+01  2.4406462E+01
 2.2189251E+01  2.4395765E+01
 2.2200750E+01  2.4416481E+01
 2.2212252E+01  2.4433521E+01
 2.2223751E+01  2.4460058E+01
 2.2235250E+01  2.4514536E+01
 2.2246752E+01  2.4601921E+01
 2.2258251E+01  2.4600180E+01
 2.2269751E+01  2.4540314E+01
 2.2281252E+01  2.4480837E+01
 2.2292751E+01  2.4468256E+01
 2.2304251E+01  2.4484783E+01
 2.2315752E+01  2.4535053E+01
 2.2327251E+01  2.4558460E+01
 2.2338751E+01  2.4595297E+01
 2.2350250E+01  2.4634081E+01
 2.2361752E+01  2.4649620E+01
 2.2373251E+01  2.4673491E+01
 2.2384750E+01  2.4605288E+01
 2.2396252E+01  2.4567795E+01
 2.2407751E+01  2.4506836E+01
 2.2419250E+01  2.4527201E+01
 2.2430752E+01  2.4583210E+01
 2.2442251E+01  2.4684298E+01
 2.2453751E+01  2.4758709E+01
 2.2465252E+01  2.4772537E+01
 2.2476751E+01  2.4765028E+01
 2.2488251E+01  2.4780005E+01
 2.2499752E+01  2.4829216E+01
 2.2511251E+01  2.4895926E+01
 2.2522751E+01  2.4949501E+01
 2.2534250E+01  2.4958759E+01
 2.2545752E+01  2.4957354E+01
 2.2557251E+01  2.4950840E+01
 2.2568750E+01  2.4945366E+01
 2.2580252E+01  2.4971642E+01
 2.2591751E+01  2.4994284E+01
 2.2603251E+01  2.5017752E+01
 2.2614752E+01  2.5049381E+01
 2.2626251E+01  2.5084681E+01
 2.2637751E+01  2.5103350E+01
 2.2649252E+01  2.5077261E+01
 2.2660751E+01  2.5066702E+01
 2.2672251E+01  2.5073250E+01
 2.2683752E+01  2.5158499E+01
 2.2695251E+01  2.5220564E+01
 2.2706751E+01  2.5214399E+01
 2.2718250E+01  2.5224205E+01
 2.2729752E+01  2.5230703E+01
 2.2741251E+01  2.5277216E+01
 2.2752750E+01  2.5314566E+01
 2.2764252E+01  2.5346653E+01
 2.2775751E+01  2.5376904E+01
 2.2787251E+01  2.5343840E+01
 2.2798752E+01  2.5349447E+01
 2.2810251E+01  2.5353128E+01
 2.2821751E+01  2.5350529E+01
 2.2833252E+01  2.5394293E+01
 2.2844751E+01  2.5439739E+01
 2.2856251E+01  2.5489849E+01
 2.2867750E+01  2.5585548E+01
 2.2879251E+01  2.5667982E+01
 2.2890751E+01  2.5781794E+01
 2.2902250E+01  2.5785116E+01
 2.2913752E+01  2.5860855E+01
 2.2925251E+01  2.5923792E+01
 2.2936750E+01  2.6008257E+01
 2.2948252E+01  2.6058086E+01
 2.2959751E+01  2.6088434E+01
 2.2971251E+01  2.6209391E+01
 2.2982752E+01  2.6319736E+01
 2.2994251E+01  2.6432594E+01
