F:\20151113_APS_34IDE\\Brian\Particle1\OCV\Data_0056.tif
2-Theta Angle (Degrees)
Intensity
       2000
 5.7500005E-03  0.0000000E+00
 1.7250001E-02  0.0000000E+00
 2.8750001E-02  0.0000000E+00
 4.0250003E-02  0.0000000E+00
 5.1750004E-02  0.0000000E+00
 6.3250005E-02  0.0000000E+00
 7.4750006E-02  0.0000000E+00
 8.6250007E-02  0.0000000E+00
 9.7750008E-02  0.0000000E+00
 1.0925001E-01  0.0000000E+00
 1.2075000E-01  0.0000000E+00
 1.3225001E-01  0.0000000E+00
 1.4375001E-01  0.0000000E+00
 1.5525001E-01  0.0000000E+00
 1.6675001E-01  0.0000000E+00
 1.7825001E-01  0.0000000E+00
 1.8975002E-01  0.0000000E+00
 2.0125002E-01  0.0000000E+00
 2.1275002E-01  0.0000000E+00
 2.2425000E-01  0.0000000E+00
 2.3575000E-01  0.0000000E+00
 2.4725001E-01  0.0000000E+00
 2.5875002E-01  0.0000000E+00
 2.7025002E-01  0.0000000E+00
 2.8175002E-01  0.0000000E+00
 2.9325002E-01  0.0000000E+00
 3.0475003E-01  0.0000000E+00
 3.1625003E-01  0.0000000E+00
 3.2775003E-01  0.0000000E+00
 3.3925003E-01  0.0000000E+00
 3.5075003E-01  0.0000000E+00
 3.6225003E-01  0.0000000E+00
 3.7375003E-01  0.0000000E+00
 3.8525003E-01  0.0000000E+00
 3.9675003E-01  0.0000000E+00
 4.0825003E-01  0.0000000E+00
 4.1975003E-01  0.0000000E+00
 4.3125004E-01  0.0000000E+00
 4.4275001E-01  0.0000000E+00
 4.5425001E-01  0.0000000E+00
 4.6575001E-01  0.0000000E+00
 4.7725001E-01  0.0000000E+00
 4.8875001E-01  0.0000000E+00
 5.0025004E-01  0.0000000E+00
 5.1175004E-01  0.0000000E+00
 5.2325004E-01  0.0000000E+00
 5.3475004E-01  0.0000000E+00
 5.4625005E-01  0.0000000E+00
 5.5775005E-01  0.0000000E+00
 5.6925005E-01  0.0000000E+00
 5.8075005E-01  0.0000000E+00
 5.9225005E-01  0.0000000E+00
 6.0375005E-01  0.0000000E+00
 6.1525005E-01  0.0000000E+00
 6.2675005E-01  0.0000000E+00
 6.3825005E-01  0.0000000E+00
 6.4975005E-01  0.0000000E+00
 6.6125005E-01  0.0000000E+00
 6.7275006E-01  0.0000000E+00
 6.8425006E-01  0.0000000E+00
 6.9575006E-01  0.0000000E+00
 7.0725006E-01  0.0000000E+00
 7.1875006E-01  0.0000000E+00
 7.3025006E-01  0.0000000E+00
 7.4175006E-01  0.0000000E+00
 7.5325006E-01  0.0000000E+00
 7.6475006E-01  0.0000000E+00
 7.7625006E-01  0.0000000E+00
 7.8775007E-01  0.0000000E+00
 7.9925007E-01  0.0000000E+00
 8.1075007E-01  0.0000000E+00
 8.2225007E-01  0.0000000E+00
 8.3375007E-01  0.0000000E+00
 8.4525007E-01  0.0000000E+00
 8.5675007E-01  0.0000000E+00
 8.6825007E-01  0.0000000E+00
 8.7975001E-01  0.0000000E+00
 8.9125001E-01  0.0000000E+00
 9.0275002E-01  0.0000000E+00
 9.1425002E-01  0.0000000E+00
 9.2575002E-01  0.0000000E+00
 9.3725002E-01  0.0000000E+00
 9.4875002E-01  0.0000000E+00
 9.6025002E-01  0.0000000E+00
 9.7175002E-01  0.0000000E+00
 9.8325002E-01  0.0000000E+00
 9.9475002E-01  0.0000000E+00
 1.0062500E+00  0.0000000E+00
 1.0177500E+00  0.0000000E+00
 1.0292500E+00  0.0000000E+00
 1.0407500E+00  0.0000000E+00
 1.0522500E+00  0.0000000E+00
 1.0637500E+00  0.0000000E+00
 1.0752500E+00  0.0000000E+00
 1.0867500E+00  0.0000000E+00
 1.0982500E+00  0.0000000E+00
 1.1097500E+00  0.0000000E+00
 1.1212500E+00  0.0000000E+00
 1.1327500E+00  0.0000000E+00
 1.1442500E+00  0.0000000E+00
 1.1557500E+00  0.0000000E+00
 1.1672500E+00  0.0000000E+00
 1.1787500E+00  0.0000000E+00
 1.1902500E+00  0.0000000E+00
 1.2017500E+00  0.0000000E+00
 1.2132500E+00  0.0000000E+00
 1.2247500E+00  0.0000000E+00
 1.2362500E+00  0.0000000E+00
 1.2477500E+00  0.0000000E+00
 1.2592500E+00  0.0000000E+00
 1.2707500E+00  0.0000000E+00
 1.2822500E+00  0.0000000E+00
 1.2937500E+00  0.0000000E+00
 1.3052500E+00  0.0000000E+00
 1.3167500E+00  0.0000000E+00
 1.3282501E+00  0.0000000E+00
 1.3397501E+00  0.0000000E+00
 1.3512501E+00  0.0000000E+00
 1.3627501E+00  0.0000000E+00
 1.3742501E+00  0.0000000E+00
 1.3857501E+00  0.0000000E+00
 1.3972501E+00  0.0000000E+00
 1.4087501E+00  0.0000000E+00
 1.4202501E+00  0.0000000E+00
 1.4317501E+00  0.0000000E+00
 1.4432501E+00  0.0000000E+00
 1.4547501E+00  0.0000000E+00
 1.4662501E+00  0.0000000E+00
 1.4777501E+00  0.0000000E+00
 1.4892501E+00  0.0000000E+00
 1.5007501E+00  0.0000000E+00
 1.5122501E+00  0.0000000E+00
 1.5237501E+00  0.0000000E+00
 1.5352501E+00  0.0000000E+00
 1.5467501E+00  0.0000000E+00
 1.5582501E+00  0.0000000E+00
 1.5697501E+00  0.0000000E+00
 1.5812501E+00  0.0000000E+00
 1.5927501E+00  0.0000000E+00
 1.6042501E+00  0.0000000E+00
 1.6157501E+00  0.0000000E+00
 1.6272501E+00  0.0000000E+00
 1.6387501E+00  0.0000000E+00
 1.6502501E+00  0.0000000E+00
 1.6617501E+00  0.0000000E+00
 1.6732501E+00  0.0000000E+00
 1.6847501E+00  0.0000000E+00
 1.6962501E+00  0.0000000E+00
 1.7077501E+00  0.0000000E+00
 1.7192501E+00  0.0000000E+00
 1.7307501E+00  0.0000000E+00
 1.7422501E+00  0.0000000E+00
 1.7537501E+00  0.0000000E+00
 1.7652501E+00  0.0000000E+00
 1.7767501E+00  0.0000000E+00
 1.7882501E+00  0.0000000E+00
 1.7997501E+00  0.0000000E+00
 1.8112501E+00  0.0000000E+00
 1.8227501E+00  0.0000000E+00
 1.8342501E+00  0.0000000E+00
 1.8457501E+00  0.0000000E+00
 1.8572501E+00  0.0000000E+00
 1.8687501E+00  0.0000000E+00
 1.8802501E+00  0.0000000E+00
 1.8917501E+00  0.0000000E+00
 1.9032501E+00  0.0000000E+00
 1.9147501E+00  0.0000000E+00
 1.9262501E+00  0.0000000E+00
 1.9377501E+00  0.0000000E+00
 1.9492501E+00  0.0000000E+00
 1.9607501E+00  0.0000000E+00
 1.9722501E+00  0.0000000E+00
 1.9837501E+00  0.0000000E+00
 1.9952501E+00  0.0000000E+00
 2.0067501E+00  0.0000000E+00
 2.0182500E+00  0.0000000E+00
 2.0297501E+00  0.0000000E+00
 2.0412500E+00  0.0000000E+00
 2.0527501E+00  0.0000000E+00
 2.0642500E+00  0.0000000E+00
 2.0757501E+00  0.0000000E+00
 2.0872500E+00  0.0000000E+00
 2.0987501E+00  0.0000000E+00
 2.1102500E+00  0.0000000E+00
 2.1217501E+00  0.0000000E+00
 2.1332500E+00  0.0000000E+00
 2.1447501E+00  0.0000000E+00
 2.1562500E+00  0.0000000E+00
 2.1677501E+00  0.0000000E+00
 2.1792500E+00  0.0000000E+00
 2.1907501E+00  0.0000000E+00
 2.2022500E+00  0.0000000E+00
 2.2137501E+00  0.0000000E+00
 2.2252500E+00  0.0000000E+00
 2.2367501E+00  0.0000000E+00
 2.2482500E+00  0.0000000E+00
 2.2597501E+00  0.0000000E+00
 2.2712500E+00  0.0000000E+00
 2.2827501E+00  0.0000000E+00
 2.2942500E+00  0.0000000E+00
 2.3057501E+00  0.0000000E+00
 2.3172500E+00  0.0000000E+00
 2.3287501E+00  0.0000000E+00
 2.3402500E+00  0.0000000E+00
 2.3517501E+00  0.0000000E+00
 2.3632500E+00  0.0000000E+00
 2.3747501E+00  0.0000000E+00
 2.3862500E+00  0.0000000E+00
 2.3977501E+00  0.0000000E+00
 2.4092500E+00  0.0000000E+00
 2.4207501E+00  0.0000000E+00
 2.4322500E+00  0.0000000E+00
 2.4437501E+00  0.0000000E+00
 2.4552500E+00  0.0000000E+00
 2.4667501E+00  0.0000000E+00
 2.4782500E+00  0.0000000E+00
 2.4897501E+00  0.0000000E+00
 2.5012500E+00  0.0000000E+00
 2.5127501E+00  0.0000000E+00
 2.5242500E+00  0.0000000E+00
 2.5357502E+00  0.0000000E+00
 2.5472500E+00  0.0000000E+00
 2.5587502E+00  0.0000000E+00
 2.5702500E+00  0.0000000E+00
 2.5817502E+00  0.0000000E+00
 2.5932500E+00  0.0000000E+00
 2.6047502E+00  0.0000000E+00
 2.6162500E+00  0.0000000E+00
 2.6277502E+00  0.0000000E+00
 2.6392500E+00  0.0000000E+00
 2.6507502E+00  0.0000000E+00
 2.6622500E+00  0.0000000E+00
 2.6737502E+00  0.0000000E+00
 2.6852500E+00  0.0000000E+00
 2.6967502E+00  0.0000000E+00
 2.7082500E+00  0.0000000E+00
 2.7197502E+00  0.0000000E+00
 2.7312500E+00  0.0000000E+00
 2.7427502E+00  0.0000000E+00
 2.7542500E+00  0.0000000E+00
 2.7657502E+00  0.0000000E+00
 2.7772501E+00  0.0000000E+00
 2.7887502E+00  0.0000000E+00
 2.8002501E+00  0.0000000E+00
 2.8117502E+00  0.0000000E+00
 2.8232501E+00  3.9297966E+01
 2.8347502E+00  3.6379559E+01
 2.8462501E+00  3.5022751E+01
 2.8577502E+00  3.4634052E+01
 2.8692501E+00  3.4923336E+01
 2.8807502E+00  3.5645969E+01
 2.8922501E+00  3.5510460E+01
 2.9037502E+00  3.5402248E+01
 2.9152501E+00  3.5480804E+01
 2.9267502E+00  3.5619591E+01
 2.9382501E+00  3.5543098E+01
 2.9497502E+00  3.5303768E+01
 2.9612501E+00  3.5045044E+01
 2.9727502E+00  3.5297905E+01
 2.9842501E+00  3.5138950E+01
 2.9957502E+00  3.5489552E+01
 3.0072501E+00  3.5757690E+01
 3.0187502E+00  3.6033974E+01
 3.0302501E+00  3.6034927E+01
 3.0417502E+00  3.5911472E+01
 3.0532501E+00  3.5540825E+01
 3.0647502E+00  3.5764912E+01
 3.0762501E+00  3.5836670E+01
 3.0877502E+00  3.6080620E+01
 3.0992501E+00  3.5950436E+01
 3.1107502E+00  3.5972874E+01
 3.1222501E+00  3.6048325E+01
 3.1337502E+00  3.6124729E+01
 3.1452501E+00  3.6100578E+01
 3.1567502E+00  3.6183189E+01
 3.1682501E+00  3.6018219E+01
 3.1797502E+00  3.6235821E+01
 3.1912501E+00  3.6205795E+01
 3.2027502E+00  3.6360531E+01
 3.2142501E+00  3.6312912E+01
 3.2257502E+00  3.6215714E+01
 3.2372501E+00  3.6152695E+01
 3.2487502E+00  3.5883167E+01
 3.2602501E+00  3.5827148E+01
 3.2717502E+00  3.5605930E+01
 3.2832501E+00  3.5662895E+01
 3.2947502E+00  3.5185421E+01
 3.3062501E+00  3.5031578E+01
 3.3177502E+00  3.4804604E+01
 3.3292501E+00  3.5041145E+01
 3.3407502E+00  3.5118835E+01
 3.3522501E+00  3.5136292E+01
 3.3637502E+00  3.5039028E+01
 3.3752501E+00  3.5167019E+01
 3.3867502E+00  3.5180679E+01
 3.3982501E+00  3.5379536E+01
 3.4097502E+00  3.5285526E+01
 3.4212501E+00  3.4985374E+01
 3.4327502E+00  3.4888725E+01
 3.4442501E+00  3.4575439E+01
 3.4557502E+00  3.4527885E+01
 3.4672501E+00  3.4454243E+01
 3.4787502E+00  3.4570522E+01
 3.4902501E+00  3.4452305E+01
 3.5017502E+00  3.4209175E+01
 3.5132501E+00  3.3815567E+01
 3.5247502E+00  3.3960022E+01
 3.5362501E+00  3.3710415E+01
 3.5477502E+00  3.4174984E+01
 3.5592501E+00  3.3976818E+01
 3.5707502E+00  3.3954388E+01
 3.5822501E+00  3.3872620E+01
 3.5937502E+00  3.3838711E+01
 3.6052501E+00  3.3877296E+01
 3.6167502E+00  3.3710083E+01
 3.6282501E+00  3.3479557E+01
 3.6397502E+00  3.3398708E+01
 3.6512501E+00  3.3314514E+01
 3.6627502E+00  3.3548298E+01
 3.6742501E+00  3.3749210E+01
 3.6857502E+00  3.3638420E+01
 3.6972501E+00  3.3637043E+01
 3.7087502E+00  3.3523117E+01
 3.7202501E+00  3.3595192E+01
 3.7317502E+00  3.3568680E+01
 3.7432501E+00  3.3404461E+01
 3.7547503E+00  3.3332527E+01
 3.7662501E+00  3.3263496E+01
 3.7777503E+00  3.3204971E+01
 3.7892501E+00  3.3068863E+01
 3.8007503E+00  3.2713955E+01
 3.8122501E+00  3.2937153E+01
 3.8237503E+00  3.2914150E+01
 3.8352501E+00  3.3000858E+01
 3.8467503E+00  3.2944782E+01
 3.8582501E+00  3.2859241E+01
 3.8697503E+00  3.2963985E+01
 3.8812501E+00  3.2712311E+01
 3.8927503E+00  3.2578552E+01
 3.9042501E+00  3.2443531E+01
 3.9157503E+00  3.2378178E+01
 3.9272501E+00  3.2413422E+01
 3.9387503E+00  3.2409096E+01
 3.9502501E+00  3.2441639E+01
 3.9617503E+00  3.2573853E+01
 3.9732502E+00  3.2593090E+01
 3.9847503E+00  3.2866302E+01
 3.9962502E+00  3.2834545E+01
 4.0077500E+00  3.2886745E+01
 4.0192504E+00  3.2711456E+01
 4.0307503E+00  3.2685863E+01
 4.0422502E+00  3.2703552E+01
 4.0537500E+00  3.2674004E+01
 4.0652504E+00  3.2680527E+01
 4.0767503E+00  3.2418167E+01
 4.0882502E+00  3.2223003E+01
 4.0997500E+00  3.2109009E+01
 4.1112504E+00  3.2070976E+01
 4.1227503E+00  3.2027119E+01
 4.1342502E+00  3.2020393E+01
 4.1457500E+00  3.2091877E+01
 4.1572504E+00  3.2233562E+01
 4.1687503E+00  3.2089931E+01
 4.1802502E+00  3.2032074E+01
 4.1917500E+00  3.1971661E+01
 4.2032504E+00  3.2150898E+01
 4.2147503E+00  3.2463943E+01
 4.2262502E+00  3.2620338E+01
 4.2377501E+00  3.2644920E+01
 4.2492504E+00  3.2578190E+01
 4.2607503E+00  3.2496693E+01
 4.2722502E+00  3.2440498E+01
 4.2837501E+00  3.2293137E+01
 4.2952504E+00  3.2260269E+01
 4.3067503E+00  3.2245647E+01
 4.3182502E+00  3.2271030E+01
 4.3297501E+00  3.2219498E+01
 4.3412504E+00  3.2261658E+01
 4.3527503E+00  3.2337093E+01
 4.3642502E+00  3.2509239E+01
 4.3757501E+00  3.2563248E+01
 4.3872504E+00  3.2591434E+01
 4.3987503E+00  3.2555367E+01
 4.4102502E+00  3.2633266E+01
 4.4217501E+00  3.2555584E+01
 4.4332504E+00  3.2541477E+01
 4.4447503E+00  3.2531948E+01
 4.4562502E+00  3.2626331E+01
 4.4677501E+00  3.2794025E+01
 4.4792504E+00  3.2914627E+01
 4.4907503E+00  3.2988602E+01
 4.5022502E+00  3.3045139E+01
 4.5137501E+00  3.2997726E+01
 4.5252504E+00  3.3112801E+01
 4.5367503E+00  3.3029743E+01
 4.5482502E+00  3.2998184E+01
 4.5597501E+00  3.2815147E+01
 4.5712504E+00  3.2623837E+01
 4.5827503E+00  3.2611401E+01
 4.5942502E+00  3.2561298E+01
 4.6057501E+00  3.2698284E+01
 4.6172504E+00  3.2743752E+01
 4.6287503E+00  3.2671299E+01
 4.6402502E+00  3.2647682E+01
 4.6517501E+00  3.2563095E+01
 4.6632504E+00  3.2644753E+01
 4.6747503E+00  3.2629341E+01
 4.6862502E+00  3.2530201E+01
 4.6977501E+00  3.2685703E+01
 4.7092505E+00  3.2741489E+01
 4.7207503E+00  3.2864902E+01
 4.7322502E+00  3.2775093E+01
 4.7437501E+00  3.2658337E+01
 4.7552505E+00  3.2439781E+01
 4.7667503E+00  3.2340496E+01
 4.7782502E+00  3.2280426E+01
 4.7897501E+00  3.2494274E+01
 4.8012505E+00  3.2581043E+01
 4.8127503E+00  3.2696026E+01
 4.8242502E+00  3.2783726E+01
 4.8357501E+00  3.2783951E+01
 4.8472505E+00  3.2771152E+01
 4.8587503E+00  3.2681244E+01
 4.8702502E+00  3.2522438E+01
 4.8817501E+00  3.2469147E+01
 4.8932505E+00  3.2455212E+01
 4.9047503E+00  3.2595127E+01
 4.9162502E+00  3.2836716E+01
 4.9277501E+00  3.3047562E+01
 4.9392505E+00  3.3108421E+01
 4.9507504E+00  3.3190128E+01
 4.9622502E+00  3.3146214E+01
 4.9737501E+00  3.3251068E+01
 4.9852505E+00  3.3253456E+01
 4.9967504E+00  3.3195507E+01
 5.0082502E+00  3.3210430E+01
 5.0197501E+00  3.3171326E+01
 5.0312505E+00  3.3178398E+01
 5.0427504E+00  3.3171844E+01
 5.0542502E+00  3.3165092E+01
 5.0657501E+00  3.3246201E+01
 5.0772505E+00  3.3289268E+01
 5.0887504E+00  3.3361805E+01
 5.1002502E+00  3.3478622E+01
 5.1117501E+00  3.3548653E+01
 5.1232505E+00  3.3522877E+01
 5.1347504E+00  3.3583515E+01
 5.1462502E+00  3.3703342E+01
 5.1577501E+00  3.3863483E+01
 5.1692505E+00  3.3966110E+01
 5.1807504E+00  3.3990276E+01
 5.1922503E+00  3.3988605E+01
 5.2037501E+00  3.4040936E+01
 5.2152505E+00  3.4099796E+01
 5.2267504E+00  3.4269966E+01
 5.2382503E+00  3.4300606E+01
 5.2497501E+00  3.4356598E+01
 5.2612505E+00  3.4341568E+01
 5.2727504E+00  3.4309341E+01
 5.2842503E+00  3.4291386E+01
 5.2957501E+00  3.4318573E+01
 5.3072500E+00  3.4298210E+01
 5.3187504E+00  3.4293594E+01
 5.3302503E+00  3.4261509E+01
 5.3417501E+00  3.4340702E+01
 5.3532500E+00  3.4427582E+01
 5.3647504E+00  3.4504185E+01
 5.3762503E+00  3.4579975E+01
 5.3877501E+00  3.4684746E+01
 5.3992500E+00  3.4741314E+01
 5.4107504E+00  3.4860794E+01
 5.4222503E+00  3.4872414E+01
 5.4337502E+00  3.4840103E+01
 5.4452500E+00  3.4861843E+01
 5.4567504E+00  3.5049374E+01
 5.4682503E+00  3.5220573E+01
 5.4797502E+00  3.5367294E+01
 5.4912500E+00  3.5379513E+01
 5.5027504E+00  3.5467522E+01
 5.5142503E+00  3.5437977E+01
 5.5257502E+00  3.5379051E+01
 5.5372500E+00  3.5361019E+01
 5.5487504E+00  3.5314903E+01
 5.5602503E+00  3.5332546E+01
 5.5717502E+00  3.5361538E+01
 5.5832500E+00  3.5500931E+01
 5.5947504E+00  3.5578224E+01
 5.6062503E+00  3.5619160E+01
 5.6177502E+00  3.5614067E+01
 5.6292500E+00  3.5694672E+01
 5.6407504E+00  3.5916267E+01
 5.6522503E+00  3.6095959E+01
 5.6637502E+00  3.6346169E+01
 5.6752501E+00  3.6364117E+01
 5.6867504E+00  3.6366791E+01
 5.6982503E+00  3.6342449E+01
 5.7097502E+00  3.6411285E+01
 5.7212501E+00  3.6515015E+01
 5.7327504E+00  3.6676407E+01
 5.7442503E+00  3.6923031E+01
 5.7557502E+00  3.7219044E+01
 5.7672501E+00  3.7539024E+01
 5.7787504E+00  3.7864429E+01
 5.7902503E+00  3.8209324E+01
 5.8017502E+00  3.8546982E+01
 5.8132501E+00  3.8803413E+01
 5.8247504E+00  3.9076859E+01
 5.8362503E+00  3.9504726E+01
 5.8477502E+00  4.0008167E+01
 5.8592501E+00  4.0498672E+01
 5.8707504E+00  4.1129929E+01
 5.8822503E+00  4.2301472E+01
 5.8937502E+00  4.3533276E+01
 5.9052501E+00  4.7400894E+01
 5.9167504E+00  5.3098156E+01
 5.9282503E+00  5.8386990E+01
 5.9397502E+00  8.6627266E+01
 5.9512501E+00  1.1037579E+02
 5.9627504E+00  1.2925856E+02
 5.9742503E+00  1.9026167E+02
 5.9857502E+00  2.1171437E+02
 5.9972501E+00  2.2211232E+02
 6.0087504E+00  1.9524077E+02
 6.0202503E+00  1.4909795E+02
 6.0317502E+00  1.2916574E+02
 6.0432501E+00  8.0206627E+01
 6.0547504E+00  6.4580994E+01
 6.0662503E+00  5.5801262E+01
 6.0777502E+00  4.6463390E+01
 6.0892501E+00  4.3799980E+01
 6.1007504E+00  4.2434998E+01
 6.1122503E+00  4.1212788E+01
 6.1237502E+00  4.0602417E+01
 6.1352501E+00  3.9964386E+01
 6.1467505E+00  3.9580147E+01
 6.1582503E+00  3.9298225E+01
 6.1697502E+00  3.9128551E+01
 6.1812501E+00  3.8943958E+01
 6.1927505E+00  3.8696236E+01
 6.2042503E+00  3.8497139E+01
 6.2157502E+00  3.8441784E+01
 6.2272501E+00  3.8497211E+01
 6.2387505E+00  3.8504246E+01
 6.2502503E+00  3.8481239E+01
 6.2617502E+00  3.8437004E+01
 6.2732501E+00  3.8419941E+01
 6.2847505E+00  3.8460087E+01
 6.2962503E+00  3.8408070E+01
 6.3077502E+00  3.8358757E+01
 6.3192501E+00  3.8316147E+01
 6.3307505E+00  3.8340492E+01
 6.3422503E+00  3.8358337E+01
 6.3537502E+00  3.8372368E+01
 6.3652501E+00  3.8407291E+01
 6.3767505E+00  3.8460922E+01
 6.3882504E+00  3.8451672E+01
 6.3997502E+00  3.8551445E+01
 6.4112501E+00  3.8677406E+01
 6.4227505E+00  3.8778271E+01
 6.4342504E+00  3.8840668E+01
 6.4457502E+00  3.9000305E+01
 6.4572501E+00  3.9108105E+01
 6.4687505E+00  3.9234180E+01
 6.4802504E+00  3.9200405E+01
 6.4917502E+00  3.9357754E+01
 6.5032501E+00  3.9436966E+01
 6.5147505E+00  3.9545074E+01
 6.5262504E+00  3.9529110E+01
 6.5377502E+00  3.9576145E+01
 6.5492501E+00  3.9582069E+01
 6.5607505E+00  3.9710369E+01
 6.5722504E+00  3.9755993E+01
 6.5837502E+00  3.9849388E+01
 6.5952501E+00  3.9831757E+01
 6.6067505E+00  3.9882866E+01
 6.6182504E+00  3.9957352E+01
 6.6297503E+00  4.0157570E+01
 6.6412501E+00  4.0320610E+01
 6.6527505E+00  4.0473091E+01
 6.6642504E+00  4.0604496E+01
 6.6757503E+00  4.0621834E+01
 6.6872501E+00  4.0611122E+01
 6.6987505E+00  4.0572346E+01
 6.7102504E+00  4.0573112E+01
 6.7217503E+00  4.0508591E+01
 6.7332501E+00  4.0489971E+01
 6.7447505E+00  4.0472225E+01
 6.7562504E+00  4.0729095E+01
 6.7677503E+00  4.0883739E+01
 6.7792501E+00  4.1160816E+01
 6.7907505E+00  4.1322720E+01
 6.8022504E+00  4.1535507E+01
 6.8137503E+00  4.1631016E+01
 6.8252501E+00  4.1771763E+01
 6.8367505E+00  4.1845501E+01
 6.8482504E+00  4.1961418E+01
 6.8597503E+00  4.1986450E+01
 6.8712502E+00  4.2013565E+01
 6.8827505E+00  4.2056267E+01
 6.8942504E+00  4.2077927E+01
 6.9057503E+00  4.1989689E+01
 6.9172502E+00  4.2006729E+01
 6.9287505E+00  4.1961971E+01
 6.9402504E+00  4.2050377E+01
 6.9517503E+00  4.2103737E+01
 6.9632502E+00  4.2189766E+01
 6.9747505E+00  4.2304890E+01
 6.9862504E+00  4.2338223E+01
 6.9977503E+00  4.2367603E+01
 7.0092502E+00  4.2442959E+01
 7.0207505E+00  4.2537933E+01
 7.0322504E+00  4.2579098E+01
 7.0437503E+00  4.2613750E+01
 7.0552502E+00  4.2605011E+01
 7.0667505E+00  4.2669678E+01
 7.0782504E+00  4.2713100E+01
 7.0897503E+00  4.2834480E+01
 7.1012502E+00  4.2949181E+01
 7.1127505E+00  4.3138683E+01
 7.1242504E+00  4.3235355E+01
 7.1357503E+00  4.3356834E+01
 7.1472502E+00  4.3349129E+01
 7.1587505E+00  4.3414967E+01
 7.1702504E+00  4.3396057E+01
 7.1817503E+00  4.3393528E+01
 7.1932502E+00  4.3370941E+01
 7.2047505E+00  4.3411999E+01
 7.2162504E+00  4.3423508E+01
 7.2277503E+00  4.3399395E+01
 7.2392502E+00  4.3370663E+01
 7.2507505E+00  4.3394588E+01
 7.2622504E+00  4.3390656E+01
 7.2737503E+00  4.3448559E+01
 7.2852502E+00  4.3514423E+01
 7.2967505E+00  4.3673817E+01
 7.3082504E+00  4.3771294E+01
 7.3197503E+00  4.3912186E+01
 7.3312502E+00  4.3990101E+01
 7.3427505E+00  4.4096119E+01
 7.3542504E+00  4.4076511E+01
 7.3657503E+00  4.4128372E+01
 7.3772502E+00  4.4078659E+01
 7.3887506E+00  4.4100475E+01
 7.4002504E+00  4.4142059E+01
 7.4117503E+00  4.4197109E+01
 7.4232502E+00  4.4237255E+01
 7.4347506E+00  4.4222900E+01
 7.4462504E+00  4.4214741E+01
 7.4577503E+00  4.4248886E+01
 7.4692502E+00  4.4202576E+01
 7.4807506E+00  4.4251991E+01
 7.4922504E+00  4.4243656E+01
 7.5037503E+00  4.4294804E+01
 7.5152502E+00  4.4282398E+01
 7.5267506E+00  4.4226089E+01
 7.5382504E+00  4.4263042E+01
 7.5497503E+00  4.4222309E+01
 7.5612502E+00  4.4308182E+01
 7.5727506E+00  4.4321480E+01
 7.5842505E+00  4.4338966E+01
 7.5957503E+00  4.4399960E+01
 7.6072502E+00  4.4469646E+01
 7.6187506E+00  4.4533382E+01
 7.6302505E+00  4.4540958E+01
 7.6417503E+00  4.4510273E+01
 7.6532502E+00  4.4436035E+01
 7.6647506E+00  4.4317329E+01
 7.6762505E+00  4.4205563E+01
 7.6877503E+00  4.4185566E+01
 7.6992502E+00  4.4156242E+01
 7.7107506E+00  4.4253212E+01
 7.7222505E+00  4.4333603E+01
 7.7337503E+00  4.4506561E+01
 7.7452502E+00  4.4468040E+01
 7.7567506E+00  4.4458652E+01
 7.7682505E+00  4.4203133E+01
 7.7797503E+00  4.4150734E+01
 7.7912502E+00  4.4003643E+01
 7.8027506E+00  4.3990170E+01
 7.8142505E+00  4.3972736E+01
 7.8257504E+00  4.4108658E+01
 7.8372502E+00  4.4175499E+01
 7.8487506E+00  4.4259167E+01
 7.8602505E+00  4.4196960E+01
 7.8717504E+00  4.4215874E+01
 7.8832502E+00  4.4144573E+01
 7.8947506E+00  4.4043945E+01
 7.9062505E+00  4.3975437E+01
 7.9177504E+00  4.3947865E+01
 7.9292502E+00  4.3942150E+01
 7.9407506E+00  4.3967632E+01
 7.9522505E+00  4.3821636E+01
 7.9637504E+00  4.3718231E+01
 7.9752502E+00  4.3530048E+01
 7.9867506E+00  4.3519478E+01
 7.9982505E+00  4.3462063E+01
 8.0097504E+00  4.3433167E+01
 8.0212507E+00  4.3339291E+01
 8.0327501E+00  4.3270588E+01
 8.0442505E+00  4.3217049E+01
 8.0557508E+00  4.3195000E+01
 8.0672503E+00  4.3100830E+01
 8.0787506E+00  4.2996391E+01
 8.0902500E+00  4.2910782E+01
 8.1017504E+00  4.2852051E+01
 8.1132507E+00  4.2768959E+01
 8.1247501E+00  4.2607994E+01
 8.1362505E+00  4.2457615E+01
 8.1477509E+00  4.2326130E+01
 8.1592503E+00  4.2267712E+01
 8.1707506E+00  4.2250000E+01
 8.1822500E+00  4.2259655E+01
 8.1937504E+00  4.2222813E+01
 8.2052507E+00  4.2098564E+01
 8.2167501E+00  4.1967075E+01
 8.2282505E+00  4.1765259E+01
 8.2397509E+00  4.1623379E+01
 8.2512503E+00  4.1570534E+01
 8.2627506E+00  4.1447975E+01
 8.2742500E+00  4.1354511E+01
 8.2857504E+00  4.1078495E+01
 8.2972507E+00  4.0860569E+01
 8.3087502E+00  4.0659412E+01
 8.3202505E+00  4.0523819E+01
 8.3317509E+00  4.0473461E+01
 8.3432503E+00  4.0315163E+01
 8.3547506E+00  4.0154438E+01
 8.3662500E+00  3.9951939E+01
 8.3777504E+00  3.9820621E+01
 8.3892508E+00  3.9675575E+01
 8.4007502E+00  3.9480095E+01
 8.4122505E+00  3.9358734E+01
 8.4237509E+00  3.9240345E+01
 8.4352503E+00  3.9211861E+01
 8.4467506E+00  3.9161377E+01
 8.4582500E+00  3.9006893E+01
 8.4697504E+00  3.8829609E+01
 8.4812508E+00  3.8495213E+01
 8.4927502E+00  3.8259224E+01
 8.5042505E+00  3.8000195E+01
 8.5157509E+00  3.7887486E+01
 8.5272503E+00  3.7764095E+01
 8.5387506E+00  3.7628510E+01
 8.5502501E+00  3.7383648E+01
 8.5617504E+00  3.7177143E+01
 8.5732508E+00  3.7032669E+01
 8.5847502E+00  3.6894230E+01
 8.5962505E+00  3.6759296E+01
 8.6077509E+00  3.6503994E+01
 8.6192503E+00  3.6241734E+01
 8.6307507E+00  3.5976456E+01
 8.6422501E+00  3.5695572E+01
 8.6537504E+00  3.5372227E+01
 8.6652508E+00  3.5096680E+01
 8.6767502E+00  3.4852062E+01
 8.6882505E+00  3.4815678E+01
 8.6997509E+00  3.4735306E+01
 8.7112503E+00  3.4659977E+01
 8.7227507E+00  3.4582500E+01
 8.7342501E+00  3.4431976E+01
 8.7457504E+00  3.4256275E+01
 8.7572508E+00  3.3992550E+01
 8.7687502E+00  3.3760361E+01
 8.7802505E+00  3.3538486E+01
 8.7917500E+00  3.3343704E+01
 8.8032503E+00  3.3142941E+01
 8.8147507E+00  3.3054844E+01
 8.8262501E+00  3.2918018E+01
 8.8377504E+00  3.2809330E+01
 8.8492508E+00  3.2649937E+01
 8.8607502E+00  3.2545376E+01
 8.8722506E+00  3.2452091E+01
 8.8837500E+00  3.2311470E+01
 8.8952503E+00  3.2154140E+01
 8.9067507E+00  3.1935673E+01
 8.9182501E+00  3.1824707E+01
 8.9297504E+00  3.1583679E+01
 8.9412508E+00  3.1405472E+01
 8.9527502E+00  3.1158516E+01
 8.9642506E+00  3.1029015E+01
 8.9757500E+00  3.0824097E+01
 8.9872503E+00  3.0637934E+01
 8.9987507E+00  3.0485975E+01
 9.0102501E+00  3.0319677E+01
 9.0217505E+00  3.0175730E+01
 9.0332508E+00  3.0066593E+01
 9.0447502E+00  3.0064625E+01
 9.0562506E+00  3.0016338E+01
 9.0677500E+00  2.9986244E+01
 9.0792503E+00  2.9912149E+01
 9.0907507E+00  2.9885328E+01
 9.1022501E+00  2.9714249E+01
 9.1137505E+00  2.9562511E+01
 9.1252508E+00  2.9408758E+01
 9.1367502E+00  2.9301561E+01
 9.1482506E+00  2.9229557E+01
 9.1597500E+00  2.9119183E+01
 9.1712503E+00  2.8958450E+01
 9.1827507E+00  2.8760757E+01
 9.1942501E+00  2.8607065E+01
 9.2057505E+00  2.8458357E+01
 9.2172508E+00  2.8410294E+01
 9.2287502E+00  2.8228653E+01
 9.2402506E+00  2.8221266E+01
 9.2517500E+00  2.8115448E+01
 9.2632504E+00  2.8068790E+01
 9.2747507E+00  2.7911589E+01
 9.2862501E+00  2.7766247E+01
 9.2977505E+00  2.7638138E+01
 9.3092508E+00  2.7496399E+01
 9.3207502E+00  2.7320189E+01
 9.3322506E+00  2.7190989E+01
 9.3437500E+00  2.7075085E+01
 9.3552504E+00  2.7020222E+01
 9.3667507E+00  2.7052567E+01
 9.3782501E+00  2.7070034E+01
 9.3897505E+00  2.7065525E+01
 9.4012508E+00  2.7009356E+01
 9.4127502E+00  2.6979372E+01
 9.4242506E+00  2.6950211E+01
 9.4357500E+00  2.6852716E+01
 9.4472504E+00  2.6766821E+01
 9.4587507E+00  2.6679895E+01
 9.4702501E+00  2.6603167E+01
 9.4817505E+00  2.6589563E+01
 9.4932508E+00  2.6550737E+01
 9.5047503E+00  2.6485107E+01
 9.5162506E+00  2.6351477E+01
 9.5277500E+00  2.6196402E+01
 9.5392504E+00  2.6074007E+01
 9.5507507E+00  2.5957436E+01
 9.5622501E+00  2.5960917E+01
 9.5737505E+00  2.5975531E+01
 9.5852509E+00  2.5937489E+01
 9.5967503E+00  2.5907061E+01
 9.6082506E+00  2.5827383E+01
 9.6197500E+00  2.5852537E+01
 9.6312504E+00  2.5778168E+01
 9.6427507E+00  2.5698530E+01
 9.6542501E+00  2.5576302E+01
 9.6657505E+00  2.5455942E+01
 9.6772509E+00  2.5332167E+01
 9.6887503E+00  2.5262650E+01
 9.7002506E+00  2.5233948E+01
 9.7117500E+00  2.5272768E+01
 9.7232504E+00  2.5199833E+01
 9.7347507E+00  2.5149893E+01
 9.7462502E+00  2.5069183E+01
 9.7577505E+00  2.5057259E+01
 9.7692509E+00  2.5074533E+01
 9.7807503E+00  2.5043741E+01
 9.7922506E+00  2.5069336E+01
 9.8037500E+00  2.4958323E+01
 9.8152504E+00  2.4929108E+01
 9.8267508E+00  2.4794449E+01
 9.8382502E+00  2.4717503E+01
 9.8497505E+00  2.4646646E+01
 9.8612509E+00  2.4561117E+01
 9.8727503E+00  2.4516069E+01
 9.8842506E+00  2.4474018E+01
 9.8957500E+00  2.4499231E+01
 9.9072504E+00  2.4508114E+01
 9.9187508E+00  2.4445570E+01
 9.9302502E+00  2.4351690E+01
 9.9417505E+00  2.4255741E+01
 9.9532509E+00  2.4222538E+01
 9.9647503E+00  2.4219908E+01
 9.9762506E+00  2.4272476E+01
 9.9877501E+00  2.4272873E+01
 9.9992504E+00  2.4287422E+01
 1.0010751E+01  2.4199234E+01
 1.0022250E+01  2.4201191E+01
 1.0033751E+01  2.4184761E+01
 1.0045251E+01  2.4199442E+01
 1.0056750E+01  2.4146883E+01
 1.0068251E+01  2.4049246E+01
 1.0079750E+01  2.3994263E+01
 1.0091250E+01  2.3898027E+01
 1.0102751E+01  2.3878910E+01
 1.0114250E+01  2.3868347E+01
 1.0125751E+01  2.3890251E+01
 1.0137251E+01  2.3848375E+01
 1.0148750E+01  2.3815697E+01
 1.0160251E+01  2.3799513E+01
 1.0171750E+01  2.3777657E+01
 1.0183250E+01  2.3762993E+01
 1.0194751E+01  2.3692020E+01
 1.0206250E+01  2.3670542E+01
 1.0217751E+01  2.3593250E+01
 1.0229251E+01  2.3578459E+01
 1.0240750E+01  2.3584438E+01
 1.0252251E+01  2.3525173E+01
 1.0263750E+01  2.3527769E+01
 1.0275250E+01  2.3534096E+01
 1.0286751E+01  2.3555599E+01
 1.0298250E+01  2.3574221E+01
 1.0309751E+01  2.3516960E+01
 1.0321251E+01  2.3519289E+01
 1.0332750E+01  2.3444839E+01
 1.0344251E+01  2.3386635E+01
 1.0355750E+01  2.3324350E+01
 1.0367250E+01  2.3289185E+01
 1.0378751E+01  2.3261551E+01
 1.0390250E+01  2.3294355E+01
 1.0401751E+01  2.3288406E+01
 1.0413251E+01  2.3299387E+01
 1.0424750E+01  2.3261080E+01
 1.0436251E+01  2.3307076E+01
 1.0447750E+01  2.3318548E+01
 1.0459250E+01  2.3340467E+01
 1.0470751E+01  2.3316916E+01
 1.0482250E+01  2.3305433E+01
 1.0493751E+01  2.3252819E+01
 1.0505251E+01  2.3220911E+01
 1.0516750E+01  2.3221823E+01
 1.0528251E+01  2.3162582E+01
 1.0539750E+01  2.3129866E+01
 1.0551250E+01  2.3097435E+01
 1.0562751E+01  2.3135868E+01
 1.0574250E+01  2.3101265E+01
 1.0585751E+01  2.3068192E+01
 1.0597251E+01  2.3027985E+01
 1.0608750E+01  2.2991266E+01
 1.0620251E+01  2.2999157E+01
 1.0631750E+01  2.2977785E+01
 1.0643250E+01  2.2997242E+01
 1.0654751E+01  2.3046614E+01
 1.0666250E+01  2.3084738E+01
 1.0677751E+01  2.3130356E+01
 1.0689251E+01  2.3055140E+01
 1.0700750E+01  2.3085974E+01
 1.0712251E+01  2.3042101E+01
 1.0723750E+01  2.3063221E+01
 1.0735250E+01  2.2999147E+01
 1.0746751E+01  2.2978533E+01
 1.0758250E+01  2.2867987E+01
 1.0769751E+01  2.2804873E+01
 1.0781251E+01  2.2760317E+01
 1.0792750E+01  2.2728628E+01
 1.0804251E+01  2.2702427E+01
 1.0815750E+01  2.2656839E+01
 1.0827250E+01  2.2647503E+01
 1.0838751E+01  2.2619268E+01
 1.0850250E+01  2.2599819E+01
 1.0861751E+01  2.2601032E+01
 1.0873251E+01  2.2559679E+01
 1.0884750E+01  2.2492109E+01
 1.0896251E+01  2.2454929E+01
 1.0907750E+01  2.2515158E+01
 1.0919250E+01  2.2582895E+01
 1.0930751E+01  2.2587732E+01
 1.0942250E+01  2.2558950E+01
 1.0953751E+01  2.2570257E+01
 1.0965251E+01  2.2559204E+01
 1.0976750E+01  2.2537962E+01
 1.0988251E+01  2.2479052E+01
 1.0999750E+01  2.2496277E+01
 1.1011250E+01  2.2534924E+01
 1.1022751E+01  2.2587395E+01
 1.1034250E+01  2.2577705E+01
 1.1045751E+01  2.2516073E+01
 1.1057251E+01  2.2458536E+01
 1.1068750E+01  2.2448503E+01
 1.1080251E+01  2.2418934E+01
 1.1091750E+01  2.2422197E+01
 1.1103251E+01  2.2434950E+01
 1.1114751E+01  2.2489923E+01
 1.1126250E+01  2.2535664E+01
 1.1137751E+01  2.2533646E+01
 1.1149251E+01  2.2560266E+01
 1.1160750E+01  2.2552322E+01
 1.1172251E+01  2.2512526E+01
 1.1183750E+01  2.2499660E+01
 1.1195251E+01  2.2452538E+01
 1.1206751E+01  2.2426096E+01
 1.1218250E+01  2.2351366E+01
 1.1229751E+01  2.2318645E+01
 1.1241251E+01  2.2338213E+01
 1.1252750E+01  2.2382986E+01
 1.1264251E+01  2.2454727E+01
 1.1275750E+01  2.2511621E+01
 1.1287251E+01  2.2514420E+01
 1.1298751E+01  2.2520561E+01
 1.1310250E+01  2.2519300E+01
 1.1321751E+01  2.2544384E+01
 1.1333251E+01  2.2530806E+01
 1.1344750E+01  2.2507336E+01
 1.1356251E+01  2.2522749E+01
 1.1367750E+01  2.2591328E+01
 1.1379251E+01  2.2634241E+01
 1.1390751E+01  2.2688713E+01
 1.1402250E+01  2.2679426E+01
 1.1413751E+01  2.2721561E+01
 1.1425251E+01  2.2682087E+01
 1.1436750E+01  2.2751682E+01
 1.1448251E+01  2.2763153E+01
 1.1459750E+01  2.2810120E+01
 1.1471251E+01  2.2794540E+01
 1.1482751E+01  2.2761108E+01
 1.1494250E+01  2.2773762E+01
 1.1505751E+01  2.2780508E+01
 1.1517251E+01  2.2973034E+01
 1.1528750E+01  2.3257866E+01
 1.1540251E+01  2.3696184E+01
 1.1551750E+01  2.4514343E+01
 1.1563251E+01  2.5245575E+01
 1.1574751E+01  2.5891497E+01
 1.1586250E+01  2.6586380E+01
 1.1597751E+01  2.6660805E+01
 1.1609251E+01  2.6618835E+01
 1.1620750E+01  2.5756174E+01
 1.1632251E+01  2.4993340E+01
 1.1643750E+01  2.4165903E+01
 1.1655251E+01  2.3460886E+01
 1.1666751E+01  2.3109118E+01
 1.1678250E+01  2.2832108E+01
 1.1689751E+01  2.2618399E+01
 1.1701251E+01  2.2548187E+01
 1.1712750E+01  2.2480295E+01
 1.1724251E+01  2.2510832E+01
 1.1735750E+01  2.2517900E+01
 1.1747251E+01  2.2529493E+01
 1.1758751E+01  2.2544600E+01
 1.1770250E+01  2.2476952E+01
 1.1781751E+01  2.2476696E+01
 1.1793251E+01  2.2438711E+01
 1.1804750E+01  2.2450613E+01
 1.1816251E+01  2.2402271E+01
 1.1827750E+01  2.2365002E+01
 1.1839251E+01  2.2395988E+01
 1.1850751E+01  2.2377146E+01
 1.1862250E+01  2.2427973E+01
 1.1873751E+01  2.2429834E+01
 1.1885251E+01  2.2476921E+01
 1.1896750E+01  2.2508537E+01
 1.1908251E+01  2.2522322E+01
 1.1919750E+01  2.2602825E+01
 1.1931251E+01  2.2679251E+01
 1.1942751E+01  2.2865753E+01
 1.1954250E+01  2.3025831E+01
 1.1965751E+01  2.3257809E+01
 1.1977251E+01  2.3557583E+01
 1.1988750E+01  2.3737688E+01
 1.2000251E+01  2.3878723E+01
 1.2011750E+01  2.3812361E+01
 1.2023251E+01  2.3682110E+01
 1.2034751E+01  2.3536732E+01
 1.2046250E+01  2.3469591E+01
 1.2057751E+01  2.3707125E+01
 1.2069251E+01  2.3912264E+01
 1.2080750E+01  2.4563007E+01
 1.2092251E+01  2.5154604E+01
 1.2103750E+01  2.5696095E+01
 1.2115251E+01  2.6462160E+01
 1.2126751E+01  2.7052408E+01
 1.2138250E+01  2.7080658E+01
 1.2149751E+01  2.6232914E+01
 1.2161251E+01  2.4929436E+01
 1.2172750E+01  2.4058382E+01
 1.2184251E+01  2.3282242E+01
 1.2195750E+01  2.2993233E+01
 1.2207251E+01  2.2807941E+01
 1.2218751E+01  2.2678751E+01
 1.2230250E+01  2.2629309E+01
 1.2241751E+01  2.2606913E+01
 1.2253251E+01  2.2597878E+01
 1.2264750E+01  2.2628540E+01
 1.2276251E+01  2.2605272E+01
 1.2287750E+01  2.2652363E+01
 1.2299251E+01  2.2689117E+01
 1.2310751E+01  2.2723141E+01
 1.2322250E+01  2.2709864E+01
 1.2333751E+01  2.2691414E+01
 1.2345250E+01  2.2607944E+01
 1.2356750E+01  2.2563915E+01
 1.2368251E+01  2.2502113E+01
 1.2379750E+01  2.2517706E+01
 1.2391251E+01  2.2563675E+01
 1.2402751E+01  2.2556421E+01
 1.2414250E+01  2.2619921E+01
 1.2425751E+01  2.2586596E+01
 1.2437250E+01  2.2609989E+01
 1.2448750E+01  2.2583431E+01
 1.2460251E+01  2.2586020E+01
 1.2471750E+01  2.2557825E+01
 1.2483251E+01  2.2619381E+01
 1.2494751E+01  2.2633595E+01
 1.2506250E+01  2.2655258E+01
 1.2517751E+01  2.2638824E+01
 1.2529250E+01  2.2666212E+01
 1.2540751E+01  2.2714996E+01
 1.2552251E+01  2.2721359E+01
 1.2563750E+01  2.2728212E+01
 1.2575251E+01  2.2706774E+01
 1.2586751E+01  2.2706301E+01
 1.2598250E+01  2.2720831E+01
 1.2609751E+01  2.2754864E+01
 1.2621250E+01  2.2811625E+01
 1.2632751E+01  2.2848345E+01
 1.2644251E+01  2.2848633E+01
 1.2655750E+01  2.2776125E+01
 1.2667251E+01  2.2719908E+01
 1.2678751E+01  2.2726212E+01
 1.2690250E+01  2.2775440E+01
 1.2701751E+01  2.2847626E+01
 1.2713250E+01  2.2872181E+01
 1.2724751E+01  2.2858511E+01
 1.2736251E+01  2.2843651E+01
 1.2747750E+01  2.2877626E+01
 1.2759251E+01  2.2938469E+01
 1.2770751E+01  2.2919476E+01
 1.2782250E+01  2.2959192E+01
 1.2793751E+01  2.2960922E+01
 1.2805250E+01  2.3074356E+01
 1.2816751E+01  2.3152815E+01
 1.2828251E+01  2.3225517E+01
 1.2839750E+01  2.3278465E+01
 1.2851251E+01  2.3326927E+01
 1.2862751E+01  2.3426016E+01
 1.2874250E+01  2.3488934E+01
 1.2885751E+01  2.3517391E+01
 1.2897250E+01  2.3525070E+01
 1.2908751E+01  2.3555693E+01
 1.2920251E+01  2.3581182E+01
 1.2931750E+01  2.3705034E+01
 1.2943251E+01  2.3703094E+01
 1.2954751E+01  2.3787292E+01
 1.2966250E+01  2.3754971E+01
 1.2977751E+01  2.3872425E+01
 1.2989250E+01  2.3867912E+01
 1.3000751E+01  2.3897221E+01
 1.3012251E+01  2.3958498E+01
 1.3023750E+01  2.4036547E+01
 1.3035251E+01  2.4118940E+01
 1.3046751E+01  2.4166971E+01
 1.3058250E+01  2.4241907E+01
 1.3069751E+01  2.4280357E+01
 1.3081250E+01  2.4331375E+01
 1.3092751E+01  2.4450254E+01
 1.3104251E+01  2.4659838E+01
 1.3115750E+01  2.4869003E+01
 1.3127251E+01  2.5009478E+01
 1.3138751E+01  2.5151798E+01
 1.3150250E+01  2.5271669E+01
 1.3161751E+01  2.5412689E+01
 1.3173250E+01  2.5530682E+01
 1.3184751E+01  2.5667664E+01
 1.3196251E+01  2.5793928E+01
 1.3207750E+01  2.5921562E+01
 1.3219251E+01  2.6072622E+01
 1.3230751E+01  2.6299601E+01
 1.3242250E+01  2.6482670E+01
 1.3253751E+01  2.6616982E+01
 1.3265250E+01  2.6637999E+01
 1.3276751E+01  2.6732073E+01
 1.3288251E+01  2.6798195E+01
 1.3299750E+01  2.6967575E+01
 1.3311251E+01  2.7124811E+01
 1.3322751E+01  2.7319553E+01
 1.3334250E+01  2.7445421E+01
 1.3345751E+01  2.7563234E+01
 1.3357250E+01  2.7700167E+01
 1.3368751E+01  2.7815479E+01
 1.3380251E+01  2.7987440E+01
 1.3391750E+01  2.8113880E+01
 1.3403251E+01  2.8276363E+01
 1.3414751E+01  2.8354546E+01
 1.3426250E+01  2.8391918E+01
 1.3437751E+01  2.8522934E+01
 1.3449250E+01  2.8596869E+01
 1.3460751E+01  2.8722801E+01
 1.3472251E+01  2.8758696E+01
 1.3483750E+01  2.8920984E+01
 1.3495251E+01  2.9056229E+01
 1.3506751E+01  2.9214144E+01
 1.3518250E+01  2.9286701E+01
 1.3529751E+01  2.9371307E+01
 1.3541250E+01  2.9435856E+01
 1.3552751E+01  2.9493586E+01
 1.3564251E+01  2.9578821E+01
 1.3575750E+01  2.9617802E+01
 1.3587251E+01  2.9707594E+01
 1.3598751E+01  2.9751360E+01
 1.3610250E+01  2.9758738E+01
 1.3621751E+01  2.9750187E+01
 1.3633250E+01  2.9732697E+01
 1.3644751E+01  2.9724871E+01
 1.3656251E+01  2.9702171E+01
 1.3667750E+01  2.9716040E+01
 1.3679251E+01  2.9724932E+01
 1.3690751E+01  2.9708231E+01
 1.3702250E+01  2.9624599E+01
 1.3713751E+01  2.9574963E+01
 1.3725250E+01  2.9539595E+01
 1.3736751E+01  2.9510027E+01
 1.3748251E+01  2.9491579E+01
 1.3759750E+01  2.9469692E+01
 1.3771251E+01  2.9443352E+01
 1.3782751E+01  2.9397282E+01
 1.3794250E+01  2.9348164E+01
 1.3805751E+01  2.9343283E+01
 1.3817250E+01  2.9274179E+01
 1.3828751E+01  2.9236216E+01
 1.3840251E+01  2.9186832E+01
 1.3851750E+01  2.9240986E+01
 1.3863251E+01  2.9331657E+01
 1.3874751E+01  2.9612530E+01
 1.3886250E+01  2.9857004E+01
 1.3897751E+01  3.0726669E+01
 1.3909250E+01  3.1599611E+01
 1.3920751E+01  3.2716728E+01
 1.3932251E+01  3.3972393E+01
 1.3943750E+01  3.4775612E+01
 1.3955251E+01  3.4961529E+01
 1.3966751E+01  3.4566101E+01
 1.3978251E+01  3.3331478E+01
 1.3989751E+01  3.2268894E+01
 1.4001250E+01  3.0660452E+01
 1.4012751E+01  2.9915323E+01
 1.4024251E+01  2.8995615E+01
 1.4035750E+01  2.8497314E+01
 1.4047251E+01  2.8107056E+01
 1.4058751E+01  2.7910135E+01
 1.4070251E+01  2.7812763E+01
 1.4081751E+01  2.7673033E+01
 1.4093250E+01  2.7586103E+01
 1.4104751E+01  2.7449539E+01
 1.4116251E+01  2.7350830E+01
 1.4127750E+01  2.7258356E+01
 1.4139251E+01  2.7204529E+01
 1.4150751E+01  2.7137512E+01
 1.4162251E+01  2.7047644E+01
 1.4173751E+01  2.6977278E+01
 1.4185250E+01  2.6921988E+01
 1.4196751E+01  2.6849451E+01
 1.4208251E+01  2.6718374E+01
 1.4219750E+01  2.6680954E+01
 1.4231251E+01  2.6626722E+01
 1.4242751E+01  2.6592968E+01
 1.4254251E+01  2.6517553E+01
 1.4265751E+01  2.6509171E+01
 1.4277250E+01  2.6481554E+01
 1.4288751E+01  2.6471970E+01
 1.4300251E+01  2.6389214E+01
 1.4311750E+01  2.6341948E+01
 1.4323251E+01  2.6202400E+01
 1.4334751E+01  2.6180658E+01
 1.4346251E+01  2.6089067E+01
 1.4357751E+01  2.6115301E+01
 1.4369250E+01  2.6105234E+01
 1.4380751E+01  2.6123398E+01
 1.4392251E+01  2.6051771E+01
 1.4403750E+01  2.5971708E+01
 1.4415251E+01  2.5934198E+01
 1.4426751E+01  2.5926533E+01
 1.4438251E+01  2.5909861E+01
 1.4449751E+01  2.5892763E+01
 1.4461250E+01  2.5843674E+01
 1.4472751E+01  2.5818249E+01
 1.4484251E+01  2.5758812E+01
 1.4495750E+01  2.5742987E+01
 1.4507251E+01  2.5740587E+01
 1.4518751E+01  2.5729931E+01
 1.4530251E+01  2.5720585E+01
 1.4541751E+01  2.5671469E+01
 1.4553250E+01  2.5674690E+01
 1.4564751E+01  2.5672798E+01
 1.4576251E+01  2.5613791E+01
 1.4587750E+01  2.5552998E+01
 1.4599251E+01  2.5449099E+01
 1.4610751E+01  2.5453005E+01
 1.4622251E+01  2.5424887E+01
 1.4633751E+01  2.5380787E+01
 1.4645250E+01  2.5387491E+01
 1.4656751E+01  2.5349342E+01
 1.4668251E+01  2.5352411E+01
 1.4679750E+01  2.5333567E+01
 1.4691251E+01  2.5366158E+01
 1.4702751E+01  2.5357224E+01
 1.4714251E+01  2.5327274E+01
 1.4725751E+01  2.5293575E+01
 1.4737250E+01  2.5291346E+01
 1.4748751E+01  2.5216848E+01
 1.4760251E+01  2.5193729E+01
 1.4771750E+01  2.5128593E+01
 1.4783251E+01  2.5119787E+01
 1.4794751E+01  2.5073158E+01
 1.4806251E+01  2.5042341E+01
 1.4817751E+01  2.4959358E+01
 1.4829250E+01  2.4888636E+01
 1.4840751E+01  2.4889534E+01
 1.4852251E+01  2.4875746E+01
 1.4863750E+01  2.4901365E+01
 1.4875251E+01  2.4929981E+01
 1.4886751E+01  2.4948969E+01
 1.4898251E+01  2.4933105E+01
 1.4909751E+01  2.4932512E+01
 1.4921250E+01  2.4986223E+01
 1.4932751E+01  2.4986917E+01
 1.4944251E+01  2.4956333E+01
 1.4955750E+01  2.4905312E+01
 1.4967251E+01  2.4891624E+01
 1.4978751E+01  2.4886473E+01
 1.4990251E+01  2.4912073E+01
 1.5001751E+01  2.4904846E+01
 1.5013250E+01  2.4940542E+01
 1.5024751E+01  2.4977060E+01
 1.5036251E+01  2.5031200E+01
 1.5047750E+01  2.5026606E+01
 1.5059251E+01  2.5021719E+01
 1.5070751E+01  2.4981749E+01
 1.5082251E+01  2.4919916E+01
 1.5093751E+01  2.4918678E+01
 1.5105250E+01  2.5009571E+01
 1.5116751E+01  2.5252108E+01
 1.5128251E+01  2.5497976E+01
 1.5139750E+01  2.5872581E+01
 1.5151251E+01  2.6376463E+01
 1.5162751E+01  2.6852034E+01
 1.5174251E+01  2.7272011E+01
 1.5185751E+01  2.7455627E+01
 1.5197250E+01  2.7358984E+01
 1.5208751E+01  2.6969738E+01
 1.5220251E+01  2.6396727E+01
 1.5231750E+01  2.5871944E+01
 1.5243251E+01  2.5400269E+01
 1.5254751E+01  2.5126516E+01
 1.5266251E+01  2.4930569E+01
 1.5277751E+01  2.4845619E+01
 1.5289250E+01  2.4830374E+01
 1.5300751E+01  2.4813393E+01
 1.5312251E+01  2.4819880E+01
 1.5323750E+01  2.4742420E+01
 1.5335251E+01  2.4755194E+01
 1.5346751E+01  2.4698238E+01
 1.5358251E+01  2.4699148E+01
 1.5369751E+01  2.4640015E+01
 1.5381250E+01  2.4565170E+01
 1.5392751E+01  2.4526125E+01
 1.5404251E+01  2.4543386E+01
 1.5415751E+01  2.4558273E+01
 1.5427251E+01  2.4534781E+01
 1.5438751E+01  2.4494471E+01
 1.5450251E+01  2.4448963E+01
 1.5461751E+01  2.4422285E+01
 1.5473250E+01  2.4414923E+01
 1.5484751E+01  2.4470665E+01
 1.5496251E+01  2.4551573E+01
 1.5507751E+01  2.4595789E+01
 1.5519251E+01  2.4618565E+01
 1.5530751E+01  2.4584396E+01
 1.5542251E+01  2.4505814E+01
 1.5553751E+01  2.4452349E+01
 1.5565250E+01  2.4423973E+01
 1.5576751E+01  2.4493650E+01
 1.5588251E+01  2.4562290E+01
 1.5599751E+01  2.4632639E+01
 1.5611251E+01  2.4629095E+01
 1.5622751E+01  2.4591295E+01
 1.5634251E+01  2.4524853E+01
 1.5645751E+01  2.4504454E+01
 1.5657250E+01  2.4514860E+01
 1.5668751E+01  2.4525709E+01
 1.5680251E+01  2.4581337E+01
 1.5691751E+01  2.4643429E+01
 1.5703251E+01  2.4691803E+01
 1.5714751E+01  2.4651737E+01
 1.5726251E+01  2.4616837E+01
 1.5737751E+01  2.4610416E+01
 1.5749250E+01  2.4595228E+01
 1.5760751E+01  2.4605047E+01
 1.5772251E+01  2.4634565E+01
 1.5783751E+01  2.4626619E+01
 1.5795251E+01  2.4641872E+01
 1.5806751E+01  2.4659815E+01
 1.5818251E+01  2.4681637E+01
 1.5829751E+01  2.4645308E+01
 1.5841250E+01  2.4634344E+01
 1.5852751E+01  2.4596483E+01
 1.5864251E+01  2.4563108E+01
 1.5875751E+01  2.4569557E+01
 1.5887251E+01  2.4554726E+01
 1.5898750E+01  2.4531616E+01
 1.5910251E+01  2.4532343E+01
 1.5921751E+01  2.4556511E+01
 1.5933250E+01  2.4588892E+01
 1.5944751E+01  2.4528339E+01
 1.5956251E+01  2.4574482E+01
 1.5967751E+01  2.4567366E+01
 1.5979251E+01  2.4602726E+01
 1.5990750E+01  2.4626104E+01
 1.6002251E+01  2.4656015E+01
 1.6013750E+01  2.4747732E+01
 1.6025251E+01  2.4749973E+01
 1.6036751E+01  2.4790321E+01
 1.6048250E+01  2.4766876E+01
 1.6059752E+01  2.4805328E+01
 1.6071251E+01  2.4774433E+01
 1.6082750E+01  2.4836906E+01
 1.6094252E+01  2.4816944E+01
 1.6105751E+01  2.4901625E+01
 1.6117250E+01  2.4883070E+01
 1.6128750E+01  2.4919430E+01
 1.6140251E+01  2.4956799E+01
 1.6151751E+01  2.5032001E+01
 1.6163250E+01  2.5202871E+01
 1.6174751E+01  2.5156734E+01
 1.6186251E+01  2.5615791E+01
 1.6197750E+01  2.5552399E+01
 1.6209251E+01  2.6647745E+01
 1.6220751E+01  2.6683428E+01
 1.6232250E+01  2.7938034E+01
 1.6243752E+01  2.8093285E+01
 1.6255251E+01  2.8562933E+01
 1.6266750E+01  2.8444454E+01
 1.6278252E+01  2.7559828E+01
 1.6289751E+01  2.7212715E+01
 1.6301250E+01  2.5923239E+01
 1.6312750E+01  2.5829861E+01
 1.6324251E+01  2.5067533E+01
 1.6335751E+01  2.5102831E+01
 1.6347250E+01  2.4826082E+01
 1.6358751E+01  2.4808298E+01
 1.6370251E+01  2.4770746E+01
 1.6381750E+01  2.4737995E+01
 1.6393251E+01  2.4766756E+01
 1.6404751E+01  2.4648201E+01
 1.6416250E+01  2.4692064E+01
 1.6427752E+01  2.4669575E+01
 1.6439251E+01  2.4746893E+01
 1.6450750E+01  2.4754086E+01
 1.6462252E+01  2.4740778E+01
 1.6473751E+01  2.4723776E+01
 1.6485250E+01  2.4730228E+01
 1.6496750E+01  2.4733458E+01
 1.6508251E+01  2.4714323E+01
 1.6519751E+01  2.4655519E+01
 1.6531250E+01  2.4627050E+01
 1.6542751E+01  2.4634869E+01
 1.6554251E+01  2.4616434E+01
 1.6565750E+01  2.4625692E+01
 1.6577251E+01  2.4610468E+01
 1.6588751E+01  2.4614782E+01
 1.6600250E+01  2.4602079E+01
 1.6611752E+01  2.4599388E+01
 1.6623251E+01  2.4610704E+01
 1.6634750E+01  2.4628927E+01
 1.6646252E+01  2.4660601E+01
 1.6657751E+01  2.4692156E+01
 1.6669250E+01  2.4705086E+01
 1.6680750E+01  2.4643785E+01
 1.6692251E+01  2.4623846E+01
 1.6703751E+01  2.4568880E+01
 1.6715250E+01  2.4564928E+01
 1.6726751E+01  2.4528519E+01
 1.6738251E+01  2.4525700E+01
 1.6749750E+01  2.4466812E+01
 1.6761251E+01  2.4381239E+01
 1.6772751E+01  2.4419397E+01
 1.6784250E+01  2.4391323E+01
 1.6795752E+01  2.4395247E+01
 1.6807251E+01  2.4365715E+01
 1.6818750E+01  2.4432125E+01
 1.6830252E+01  2.4460009E+01
 1.6841751E+01  2.4511356E+01
 1.6853251E+01  2.4537197E+01
 1.6864750E+01  2.4504303E+01
 1.6876251E+01  2.4558977E+01
 1.6887751E+01  2.4631149E+01
 1.6899250E+01  2.4636997E+01
 1.6910751E+01  2.4527557E+01
 1.6922251E+01  2.4481672E+01
 1.6933750E+01  2.4442425E+01
 1.6945251E+01  2.4365597E+01
 1.6956751E+01  2.4285892E+01
 1.6968250E+01  2.4305353E+01
 1.6979752E+01  2.4323162E+01
 1.6991251E+01  2.4332533E+01
 1.7002750E+01  2.4321230E+01
 1.7014252E+01  2.4341486E+01
 1.7025751E+01  2.4337027E+01
 1.7037251E+01  2.4292282E+01
 1.7048750E+01  2.4222723E+01
 1.7060251E+01  2.4195601E+01
 1.7071751E+01  2.4186399E+01
 1.7083250E+01  2.4169594E+01
 1.7094751E+01  2.4151884E+01
 1.7106251E+01  2.4125235E+01
 1.7117750E+01  2.4138027E+01
 1.7129251E+01  2.4161385E+01
 1.7140751E+01  2.4198343E+01
 1.7152250E+01  2.4201994E+01
 1.7163752E+01  2.4214993E+01
 1.7175251E+01  2.4192125E+01
 1.7186750E+01  2.4140882E+01
 1.7198252E+01  2.4107315E+01
 1.7209751E+01  2.4117788E+01
 1.7221251E+01  2.4127234E+01
 1.7232750E+01  2.4111826E+01
 1.7244251E+01  2.4087482E+01
 1.7255751E+01  2.4061024E+01
 1.7267250E+01  2.4050100E+01
 1.7278751E+01  2.4054028E+01
 1.7290251E+01  2.4041401E+01
 1.7301750E+01  2.4004784E+01
 1.7313251E+01  2.3990753E+01
 1.7324751E+01  2.3996553E+01
 1.7336250E+01  2.4016262E+01
 1.7347752E+01  2.4023508E+01
 1.7359251E+01  2.4044786E+01
 1.7370750E+01  2.4081802E+01
 1.7382252E+01  2.4101191E+01
 1.7393751E+01  2.4098721E+01
 1.7405251E+01  2.4095587E+01
 1.7416750E+01  2.4119007E+01
 1.7428251E+01  2.4083036E+01
 1.7439751E+01  2.4046400E+01
 1.7451250E+01  2.3957401E+01
 1.7462751E+01  2.3923731E+01
 1.7474251E+01  2.3929796E+01
 1.7485750E+01  2.3984285E+01
 1.7497252E+01  2.4009418E+01
 1.7508751E+01  2.3957518E+01
 1.7520250E+01  2.3910069E+01
 1.7531752E+01  2.3885815E+01
 1.7543251E+01  2.3879337E+01
 1.7554750E+01  2.3843826E+01
 1.7566252E+01  2.3846323E+01
 1.7577751E+01  2.3830696E+01
 1.7589251E+01  2.3815231E+01
 1.7600750E+01  2.3791403E+01
 1.7612251E+01  2.3794065E+01
 1.7623751E+01  2.3883512E+01
 1.7635250E+01  2.3912731E+01
 1.7646751E+01  2.3954187E+01
 1.7658251E+01  2.3968687E+01
 1.7669750E+01  2.3978916E+01
 1.7681252E+01  2.3985495E+01
 1.7692751E+01  2.4009043E+01
 1.7704250E+01  2.4012438E+01
 1.7715752E+01  2.3944746E+01
 1.7727251E+01  2.3838202E+01
 1.7738750E+01  2.3780342E+01
 1.7750252E+01  2.3751225E+01
 1.7761751E+01  2.3737043E+01
 1.7773251E+01  2.3789991E+01
 1.7784750E+01  2.3796179E+01
 1.7796251E+01  2.3843361E+01
 1.7807751E+01  2.3829752E+01
 1.7819250E+01  2.3857410E+01
 1.7830751E+01  2.3817211E+01
 1.7842251E+01  2.3781921E+01
 1.7853750E+01  2.3782803E+01
 1.7865252E+01  2.3760435E+01
 1.7876751E+01  2.3780495E+01
 1.7888250E+01  2.3764296E+01
 1.7899752E+01  2.3801865E+01
 1.7911251E+01  2.3839502E+01
 1.7922750E+01  2.3839411E+01
 1.7934252E+01  2.3820847E+01
 1.7945751E+01  2.3795065E+01
 1.7957251E+01  2.3861809E+01
 1.7968750E+01  2.3969254E+01
 1.7980251E+01  2.4053122E+01
 1.7991751E+01  2.4250687E+01
 1.8003250E+01  2.4380194E+01
 1.8014751E+01  2.4506039E+01
 1.8026251E+01  2.4577829E+01
 1.8037750E+01  2.4665089E+01
 1.8049252E+01  2.4854486E+01
 1.8060751E+01  2.5073938E+01
 1.8072250E+01  2.5446222E+01
 1.8083752E+01  2.5939144E+01
 1.8095251E+01  2.6170174E+01
 1.8106750E+01  2.6867779E+01
 1.8118252E+01  2.7226923E+01
 1.8129751E+01  2.7444620E+01
 1.8141251E+01  2.8200573E+01
 1.8152750E+01  2.7936287E+01
 1.8164251E+01  2.7374979E+01
 1.8175751E+01  2.5712458E+01
 1.8187250E+01  2.5181032E+01
 1.8198751E+01  2.4459425E+01
 1.8210251E+01  2.4077677E+01
 1.8221750E+01  2.3986347E+01
 1.8233252E+01  2.3826069E+01
 1.8244751E+01  2.3791719E+01
 1.8256250E+01  2.3721237E+01
 1.8267752E+01  2.3693947E+01
 1.8279251E+01  2.3640610E+01
 1.8290751E+01  2.3586578E+01
 1.8302252E+01  2.3565521E+01
 1.8313751E+01  2.3552244E+01
 1.8325251E+01  2.3573395E+01
 1.8336750E+01  2.3573658E+01
 1.8348251E+01  2.3588991E+01
 1.8359751E+01  2.3621115E+01
 1.8371250E+01  2.3644068E+01
 1.8382751E+01  2.3653606E+01
 1.8394251E+01  2.3672186E+01
 1.8405750E+01  2.3696085E+01
 1.8417252E+01  2.3659294E+01
 1.8428751E+01  2.3620022E+01
 1.8440250E+01  2.3607212E+01
 1.8451752E+01  2.3644062E+01
 1.8463251E+01  2.3705006E+01
 1.8474751E+01  2.3715368E+01
 1.8486252E+01  2.3714003E+01
 1.8497751E+01  2.3689259E+01
 1.8509251E+01  2.3674322E+01
 1.8520750E+01  2.3621876E+01
 1.8532251E+01  2.3576460E+01
 1.8543751E+01  2.3543627E+01
 1.8555250E+01  2.3561499E+01
 1.8566751E+01  2.3599827E+01
 1.8578251E+01  2.3614958E+01
 1.8589750E+01  2.3623056E+01
 1.8601252E+01  2.3604212E+01
 1.8612751E+01  2.3606339E+01
 1.8624250E+01  2.3605621E+01
 1.8635752E+01  2.3623638E+01
 1.8647251E+01  2.3639185E+01
 1.8658751E+01  2.3628700E+01
 1.8670252E+01  2.3627764E+01
 1.8681751E+01  2.3605145E+01
 1.8693251E+01  2.3589060E+01
 1.8704750E+01  2.3546232E+01
 1.8716251E+01  2.3509508E+01
 1.8727751E+01  2.3449295E+01
 1.8739250E+01  2.3425461E+01
 1.8750751E+01  2.3423426E+01
 1.8762251E+01  2.3456841E+01
 1.8773750E+01  2.3466137E+01
 1.8785252E+01  2.3509668E+01
 1.8796751E+01  2.3534227E+01
 1.8808250E+01  2.3550035E+01
 1.8819752E+01  2.3538273E+01
 1.8831251E+01  2.3503880E+01
 1.8842751E+01  2.3507639E+01
 1.8854252E+01  2.3497334E+01
 1.8865751E+01  2.3505987E+01
 1.8877251E+01  2.3467588E+01
 1.8888750E+01  2.3444500E+01
 1.8900251E+01  2.3442942E+01
 1.8911751E+01  2.3499273E+01
 1.8923250E+01  2.3560122E+01
 1.8934752E+01  2.3543928E+01
 1.8946251E+01  2.3505669E+01
 1.8957750E+01  2.3408400E+01
 1.8969252E+01  2.3330292E+01
 1.8980751E+01  2.3297775E+01
 1.8992250E+01  2.3299351E+01
 1.9003752E+01  2.3336308E+01
 1.9015251E+01  2.3412251E+01
 1.9026751E+01  2.3473469E+01
 1.9038252E+01  2.3538363E+01
 1.9049751E+01  2.3483074E+01
 1.9061251E+01  2.3531622E+01
 1.9072750E+01  2.3536503E+01
 1.9084251E+01  2.3581411E+01
 1.9095751E+01  2.3559317E+01
 1.9107250E+01  2.3550049E+01
 1.9118752E+01  2.3475275E+01
 1.9130251E+01  2.3459215E+01
 1.9141750E+01  2.3473858E+01
 1.9153252E+01  2.3518221E+01
 1.9164751E+01  2.3500004E+01
 1.9176250E+01  2.3534977E+01
 1.9187752E+01  2.3528904E+01
 1.9199251E+01  2.3571129E+01
 1.9210751E+01  2.3600203E+01
 1.9222252E+01  2.3598614E+01
 1.9233751E+01  2.3520721E+01
 1.9245251E+01  2.3497656E+01
 1.9256750E+01  2.3536247E+01
 1.9268251E+01  2.3559484E+01
 1.9279751E+01  2.3569517E+01
 1.9291250E+01  2.3547630E+01
 1.9302752E+01  2.3557531E+01
 1.9314251E+01  2.3546438E+01
 1.9325750E+01  2.3569231E+01
 1.9337252E+01  2.3573349E+01
 1.9348751E+01  2.3580627E+01
 1.9360250E+01  2.3566069E+01
 1.9371752E+01  2.3593346E+01
 1.9383251E+01  2.3595480E+01
 1.9394751E+01  2.3615566E+01
 1.9406250E+01  2.3623405E+01
 1.9417751E+01  2.3655598E+01
 1.9429251E+01  2.3697502E+01
 1.9440750E+01  2.3705503E+01
 1.9452251E+01  2.3691944E+01
 1.9463751E+01  2.3674158E+01
 1.9475250E+01  2.3683647E+01
 1.9486752E+01  2.3695881E+01
 1.9498251E+01  2.3690809E+01
 1.9509750E+01  2.3693604E+01
 1.9521252E+01  2.3716852E+01
 1.9532751E+01  2.3750734E+01
 1.9544250E+01  2.3784037E+01
 1.9555752E+01  2.3738720E+01
 1.9567251E+01  2.3745708E+01
 1.9578751E+01  2.3819883E+01
 1.9590250E+01  2.3895145E+01
 1.9601751E+01  2.3916126E+01
 1.9613251E+01  2.3928593E+01
 1.9624750E+01  2.3967913E+01
 1.9636251E+01  2.4056343E+01
 1.9647751E+01  2.4231594E+01
 1.9659250E+01  2.4611816E+01
 1.9670752E+01  2.5085310E+01
 1.9682251E+01  2.5599310E+01
 1.9693750E+01  2.6109715E+01
 1.9705252E+01  2.6518173E+01
 1.9716751E+01  2.6664293E+01
 1.9728251E+01  2.6579132E+01
 1.9739752E+01  2.6242550E+01
 1.9751251E+01  2.5901329E+01
 1.9762751E+01  2.5489820E+01
 1.9774250E+01  2.5285402E+01
 1.9785751E+01  2.5112766E+01
 1.9797251E+01  2.5142996E+01
 1.9808750E+01  2.5280899E+01
 1.9820251E+01  2.5643778E+01
 1.9831751E+01  2.6447838E+01
 1.9843250E+01  2.6843601E+01
 1.9854752E+01  2.7589750E+01
 1.9866251E+01  2.7593143E+01
 1.9877750E+01  2.7547897E+01
 1.9889252E+01  2.6718592E+01
 1.9900751E+01  2.6164009E+01
 1.9912251E+01  2.5466524E+01
 1.9923752E+01  2.4812555E+01
 1.9935251E+01  2.4440020E+01
 1.9946751E+01  2.4139980E+01
 1.9958250E+01  2.4024679E+01
 1.9969751E+01  2.3961586E+01
 1.9981251E+01  2.3888508E+01
 1.9992750E+01  2.3844391E+01
 2.0004251E+01  2.3813126E+01
 2.0015751E+01  2.3830065E+01
 2.0027250E+01  2.3829479E+01
 2.0038752E+01  2.3853222E+01
 2.0050251E+01  2.3839811E+01
 2.0061750E+01  2.3829266E+01
 2.0073252E+01  2.3818398E+01
 2.0084751E+01  2.3772804E+01
 2.0096251E+01  2.3767635E+01
 2.0107752E+01  2.3807653E+01
 2.0119251E+01  2.3819414E+01
 2.0130751E+01  2.3843325E+01
 2.0142250E+01  2.3850925E+01
 2.0153751E+01  2.3868370E+01
 2.0165251E+01  2.3847153E+01
 2.0176750E+01  2.3835447E+01
 2.0188251E+01  2.3803833E+01
 2.0199751E+01  2.3775713E+01
 2.0211250E+01  2.3810637E+01
 2.0222752E+01  2.3859896E+01
 2.0234251E+01  2.3855312E+01
 2.0245750E+01  2.3813562E+01
 2.0257252E+01  2.3722565E+01
 2.0268751E+01  2.3697281E+01
 2.0280251E+01  2.3709377E+01
 2.0291752E+01  2.3738604E+01
 2.0303251E+01  2.3720011E+01
 2.0314751E+01  2.3736580E+01
 2.0326250E+01  2.3757034E+01
 2.0337751E+01  2.3737318E+01
 2.0349251E+01  2.3692257E+01
 2.0360750E+01  2.3672647E+01
 2.0372252E+01  2.3668011E+01
 2.0383751E+01  2.3670446E+01
 2.0395250E+01  2.3698757E+01
 2.0406752E+01  2.3742102E+01
 2.0418251E+01  2.3797344E+01
 2.0429750E+01  2.3817188E+01
 2.0441252E+01  2.3774118E+01
 2.0452751E+01  2.3726742E+01
 2.0464251E+01  2.3742792E+01
 2.0475752E+01  2.3776207E+01
 2.0487251E+01  2.3765696E+01
 2.0498751E+01  2.3743347E+01
 2.0510250E+01  2.3672638E+01
 2.0521751E+01  2.3629129E+01
 2.0533251E+01  2.3598217E+01
 2.0544750E+01  2.3660130E+01
 2.0556252E+01  2.3713831E+01
 2.0567751E+01  2.3774830E+01
 2.0579250E+01  2.3774334E+01
 2.0590752E+01  2.3834404E+01
 2.0602251E+01  2.3892113E+01
 2.0613750E+01  2.3935936E+01
 2.0625252E+01  2.3965752E+01
 2.0636751E+01  2.3982887E+01
 2.0648251E+01  2.4001434E+01
 2.0659752E+01  2.4045441E+01
 2.0671251E+01  2.4173655E+01
 2.0682751E+01  2.4362638E+01
 2.0694250E+01  2.4641026E+01
 2.0705751E+01  2.4876692E+01
 2.0717251E+01  2.5311958E+01
 2.0728750E+01  2.5654688E+01
 2.0740252E+01  2.6018742E+01
 2.0751751E+01  2.6324747E+01
 2.0763250E+01  2.6331699E+01
 2.0774752E+01  2.6362829E+01
 2.0786251E+01  2.5920847E+01
 2.0797750E+01  2.5653591E+01
 2.0809252E+01  2.5072990E+01
 2.0820751E+01  2.4702272E+01
 2.0832251E+01  2.4432522E+01
 2.0843752E+01  2.4235821E+01
 2.0855251E+01  2.4179708E+01
 2.0866751E+01  2.4097418E+01
 2.0878250E+01  2.4085810E+01
 2.0889751E+01  2.4032469E+01
 2.0901251E+01  2.4032328E+01
 2.0912750E+01  2.4005985E+01
 2.0924252E+01  2.4028038E+01
 2.0935751E+01  2.4022781E+01
 2.0947250E+01  2.3990084E+01
 2.0958752E+01  2.3888630E+01
 2.0970251E+01  2.3844048E+01
 2.0981750E+01  2.3833353E+01
 2.0993252E+01  2.3859459E+01
 2.1004751E+01  2.3827616E+01
 2.1016251E+01  2.3780979E+01
 2.1027752E+01  2.3770250E+01
 2.1039251E+01  2.3788063E+01
 2.1050751E+01  2.3784496E+01
 2.1062250E+01  2.3785824E+01
 2.1073751E+01  2.3844345E+01
 2.1085251E+01  2.3886913E+01
 2.1096750E+01  2.3866116E+01
 2.1108252E+01  2.3891954E+01
 2.1119751E+01  2.3926756E+01
 2.1131250E+01  2.3954052E+01
 2.1142752E+01  2.3915447E+01
 2.1154251E+01  2.3827219E+01
 2.1165751E+01  2.3840010E+01
 2.1177252E+01  2.3870258E+01
 2.1188751E+01  2.3958302E+01
 2.1200251E+01  2.3968893E+01
 2.1211752E+01  2.3974026E+01
 2.1223251E+01  2.3952160E+01
 2.1234751E+01  2.3913250E+01
 2.1246250E+01  2.3937422E+01
 2.1257751E+01  2.3935814E+01
 2.1269251E+01  2.3944351E+01
 2.1280750E+01  2.3911270E+01
 2.1292252E+01  2.3888803E+01
 2.1303751E+01  2.3825020E+01
 2.1315250E+01  2.3782412E+01
 2.1326752E+01  2.3802744E+01
 2.1338251E+01  2.3851439E+01
 2.1349751E+01  2.3917749E+01
 2.1361252E+01  2.3980383E+01
 2.1372751E+01  2.4004801E+01
 2.1384251E+01  2.3986969E+01
 2.1395752E+01  2.3985662E+01
 2.1407251E+01  2.3936621E+01
 2.1418751E+01  2.3943312E+01
 2.1430250E+01  2.3948809E+01
 2.1441751E+01  2.3957777E+01
 2.1453251E+01  2.3958069E+01
 2.1464750E+01  2.3965963E+01
 2.1476252E+01  2.3943811E+01
 2.1487751E+01  2.3915127E+01
 2.1499250E+01  2.3929279E+01
 2.1510752E+01  2.3941298E+01
 2.1522251E+01  2.3941624E+01
 2.1533751E+01  2.3936472E+01
 2.1545252E+01  2.3925747E+01
 2.1556751E+01  2.3900110E+01
 2.1568251E+01  2.3886217E+01
 2.1579752E+01  2.3934044E+01
 2.1591251E+01  2.3986139E+01
 2.1602751E+01  2.4052322E+01
 2.1614250E+01  2.4031960E+01
 2.1625751E+01  2.4036945E+01
 2.1637251E+01  2.3971392E+01
 2.1648750E+01  2.3993038E+01
 2.1660252E+01  2.4029812E+01
 2.1671751E+01  2.4099062E+01
 2.1683250E+01  2.4076380E+01
 2.1694752E+01  2.4097244E+01
 2.1706251E+01  2.4142374E+01
 2.1717751E+01  2.4220570E+01
 2.1729252E+01  2.4219255E+01
 2.1740751E+01  2.4202789E+01
 2.1752251E+01  2.4100817E+01
 2.1763752E+01  2.4031736E+01
 2.1775251E+01  2.4064251E+01
 2.1786751E+01  2.4113245E+01
 2.1798250E+01  2.4182047E+01
 2.1809752E+01  2.4193331E+01
 2.1821251E+01  2.4229959E+01
 2.1832750E+01  2.4182947E+01
 2.1844252E+01  2.4143906E+01
 2.1855751E+01  2.4160526E+01
 2.1867250E+01  2.4141199E+01
 2.1878752E+01  2.4144678E+01
 2.1890251E+01  2.4113920E+01
 2.1901751E+01  2.4123442E+01
 2.1913252E+01  2.4156338E+01
 2.1924751E+01  2.4215044E+01
 2.1936251E+01  2.4238380E+01
 2.1947752E+01  2.4207289E+01
 2.1959251E+01  2.4164551E+01
 2.1970751E+01  2.4169575E+01
 2.1982250E+01  2.4157955E+01
 2.1993752E+01  2.4161633E+01
 2.2005251E+01  2.4193390E+01
 2.2016750E+01  2.4227112E+01
 2.2028252E+01  2.4246880E+01
 2.2039751E+01  2.4263460E+01
 2.2051250E+01  2.4319515E+01
 2.2062752E+01  2.4337067E+01
 2.2074251E+01  2.4323700E+01
 2.2085751E+01  2.4252218E+01
 2.2097252E+01  2.4221561E+01
 2.2108751E+01  2.4208994E+01
 2.2120251E+01  2.4247381E+01
 2.2131752E+01  2.4263512E+01
 2.2143251E+01  2.4354914E+01
 2.2154751E+01  2.4333338E+01
 2.2166250E+01  2.4336668E+01
 2.2177752E+01  2.4356813E+01
 2.2189251E+01  2.4402565E+01
 2.2200750E+01  2.4460890E+01
 2.2212252E+01  2.4418272E+01
 2.2223751E+01  2.4426823E+01
 2.2235250E+01  2.4418987E+01
 2.2246752E+01  2.4464491E+01
 2.2258251E+01  2.4463297E+01
 2.2269751E+01  2.4443419E+01
 2.2281252E+01  2.4439270E+01
 2.2292751E+01  2.4430573E+01
 2.2304251E+01  2.4423199E+01
 2.2315752E+01  2.4406647E+01
 2.2327251E+01  2.4394857E+01
 2.2338751E+01  2.4417675E+01
 2.2350250E+01  2.4465368E+01
 2.2361752E+01  2.4457361E+01
 2.2373251E+01  2.4452990E+01
 2.2384750E+01  2.4467560E+01
 2.2396252E+01  2.4497444E+01
 2.2407751E+01  2.4511713E+01
 2.2419250E+01  2.4536688E+01
 2.2430752E+01  2.4610182E+01
 2.2442251E+01  2.4692919E+01
 2.2453751E+01  2.4816271E+01
 2.2465252E+01  2.4830553E+01
 2.2476751E+01  2.4802017E+01
 2.2488251E+01  2.4788284E+01
 2.2499752E+01  2.4797384E+01
 2.2511251E+01  2.4815252E+01
 2.2522751E+01  2.4822266E+01
 2.2534250E+01  2.4783131E+01
 2.2545752E+01  2.4791452E+01
 2.2557251E+01  2.4827820E+01
 2.2568750E+01  2.4905426E+01
 2.2580252E+01  2.4966185E+01
 2.2591751E+01  2.4950748E+01
 2.2603251E+01  2.4956564E+01
 2.2614752E+01  2.4991640E+01
 2.2626251E+01  2.4992636E+01
 2.2637751E+01  2.4974062E+01
 2.2649252E+01  2.4946354E+01
 2.2660751E+01  2.4957230E+01
 2.2672251E+01  2.4978785E+01
 2.2683752E+01  2.5055355E+01
 2.2695251E+01  2.5145859E+01
 2.2706751E+01  2.5205290E+01
 2.2718250E+01  2.5216820E+01
 2.2729752E+01  2.5191217E+01
 2.2741251E+01  2.5194063E+01
 2.2752750E+01  2.5206623E+01
 2.2764252E+01  2.5244740E+01
 2.2775751E+01  2.5251919E+01
 2.2787251E+01  2.5239929E+01
 2.2798752E+01  2.5263262E+01
 2.2810251E+01  2.5390392E+01
 2.2821751E+01  2.5485020E+01
 2.2833252E+01  2.5598776E+01
 2.2844751E+01  2.5626320E+01
 2.2856251E+01  2.5632465E+01
 2.2867750E+01  2.5654533E+01
 2.2879251E+01  2.5674095E+01
 2.2890751E+01  2.5725925E+01
 2.2902250E+01  2.5766409E+01
 2.2913752E+01  2.5904533E+01
 2.2925251E+01  2.5998880E+01
 2.2936750E+01  2.6059654E+01
 2.2948252E+01  2.6112209E+01
 2.2959751E+01  2.6181091E+01
 2.2971251E+01  2.6294073E+01
 2.2982752E+01  2.6446781E+01
 2.2994251E+01  2.6561195E+01
