F:\20151113_APS_34IDE\\Brian\Particle1\OCV\Data_0134.tif
2-Theta Angle (Degrees)
Intensity
       2000
 5.7500005E-03  0.0000000E+00
 1.7250001E-02  0.0000000E+00
 2.8750001E-02  0.0000000E+00
 4.0250003E-02  0.0000000E+00
 5.1750004E-02  0.0000000E+00
 6.3250005E-02  0.0000000E+00
 7.4750006E-02  0.0000000E+00
 8.6250007E-02  0.0000000E+00
 9.7750008E-02  0.0000000E+00
 1.0925001E-01  0.0000000E+00
 1.2075000E-01  0.0000000E+00
 1.3225001E-01  0.0000000E+00
 1.4375001E-01  0.0000000E+00
 1.5525001E-01  0.0000000E+00
 1.6675001E-01  0.0000000E+00
 1.7825001E-01  0.0000000E+00
 1.8975002E-01  0.0000000E+00
 2.0125002E-01  0.0000000E+00
 2.1275002E-01  0.0000000E+00
 2.2425000E-01  0.0000000E+00
 2.3575000E-01  0.0000000E+00
 2.4725001E-01  0.0000000E+00
 2.5875002E-01  0.0000000E+00
 2.7025002E-01  0.0000000E+00
 2.8175002E-01  0.0000000E+00
 2.9325002E-01  0.0000000E+00
 3.0475003E-01  0.0000000E+00
 3.1625003E-01  0.0000000E+00
 3.2775003E-01  0.0000000E+00
 3.3925003E-01  0.0000000E+00
 3.5075003E-01  0.0000000E+00
 3.6225003E-01  0.0000000E+00
 3.7375003E-01  0.0000000E+00
 3.8525003E-01  0.0000000E+00
 3.9675003E-01  0.0000000E+00
 4.0825003E-01  0.0000000E+00
 4.1975003E-01  0.0000000E+00
 4.3125004E-01  0.0000000E+00
 4.4275001E-01  0.0000000E+00
 4.5425001E-01  0.0000000E+00
 4.6575001E-01  0.0000000E+00
 4.7725001E-01  0.0000000E+00
 4.8875001E-01  0.0000000E+00
 5.0025004E-01  0.0000000E+00
 5.1175004E-01  0.0000000E+00
 5.2325004E-01  0.0000000E+00
 5.3475004E-01  0.0000000E+00
 5.4625005E-01  0.0000000E+00
 5.5775005E-01  0.0000000E+00
 5.6925005E-01  0.0000000E+00
 5.8075005E-01  0.0000000E+00
 5.9225005E-01  0.0000000E+00
 6.0375005E-01  0.0000000E+00
 6.1525005E-01  0.0000000E+00
 6.2675005E-01  0.0000000E+00
 6.3825005E-01  0.0000000E+00
 6.4975005E-01  0.0000000E+00
 6.6125005E-01  0.0000000E+00
 6.7275006E-01  0.0000000E+00
 6.8425006E-01  0.0000000E+00
 6.9575006E-01  0.0000000E+00
 7.0725006E-01  0.0000000E+00
 7.1875006E-01  0.0000000E+00
 7.3025006E-01  0.0000000E+00
 7.4175006E-01  0.0000000E+00
 7.5325006E-01  0.0000000E+00
 7.6475006E-01  0.0000000E+00
 7.7625006E-01  0.0000000E+00
 7.8775007E-01  0.0000000E+00
 7.9925007E-01  0.0000000E+00
 8.1075007E-01  0.0000000E+00
 8.2225007E-01  0.0000000E+00
 8.3375007E-01  0.0000000E+00
 8.4525007E-01  0.0000000E+00
 8.5675007E-01  0.0000000E+00
 8.6825007E-01  0.0000000E+00
 8.7975001E-01  0.0000000E+00
 8.9125001E-01  0.0000000E+00
 9.0275002E-01  0.0000000E+00
 9.1425002E-01  0.0000000E+00
 9.2575002E-01  0.0000000E+00
 9.3725002E-01  0.0000000E+00
 9.4875002E-01  0.0000000E+00
 9.6025002E-01  0.0000000E+00
 9.7175002E-01  0.0000000E+00
 9.8325002E-01  0.0000000E+00
 9.9475002E-01  0.0000000E+00
 1.0062500E+00  0.0000000E+00
 1.0177500E+00  0.0000000E+00
 1.0292500E+00  0.0000000E+00
 1.0407500E+00  0.0000000E+00
 1.0522500E+00  0.0000000E+00
 1.0637500E+00  0.0000000E+00
 1.0752500E+00  0.0000000E+00
 1.0867500E+00  0.0000000E+00
 1.0982500E+00  0.0000000E+00
 1.1097500E+00  0.0000000E+00
 1.1212500E+00  0.0000000E+00
 1.1327500E+00  0.0000000E+00
 1.1442500E+00  0.0000000E+00
 1.1557500E+00  0.0000000E+00
 1.1672500E+00  0.0000000E+00
 1.1787500E+00  0.0000000E+00
 1.1902500E+00  0.0000000E+00
 1.2017500E+00  0.0000000E+00
 1.2132500E+00  0.0000000E+00
 1.2247500E+00  0.0000000E+00
 1.2362500E+00  0.0000000E+00
 1.2477500E+00  0.0000000E+00
 1.2592500E+00  0.0000000E+00
 1.2707500E+00  0.0000000E+00
 1.2822500E+00  0.0000000E+00
 1.2937500E+00  0.0000000E+00
 1.3052500E+00  0.0000000E+00
 1.3167500E+00  0.0000000E+00
 1.3282501E+00  0.0000000E+00
 1.3397501E+00  0.0000000E+00
 1.3512501E+00  0.0000000E+00
 1.3627501E+00  0.0000000E+00
 1.3742501E+00  0.0000000E+00
 1.3857501E+00  0.0000000E+00
 1.3972501E+00  0.0000000E+00
 1.4087501E+00  0.0000000E+00
 1.4202501E+00  0.0000000E+00
 1.4317501E+00  0.0000000E+00
 1.4432501E+00  0.0000000E+00
 1.4547501E+00  0.0000000E+00
 1.4662501E+00  0.0000000E+00
 1.4777501E+00  0.0000000E+00
 1.4892501E+00  0.0000000E+00
 1.5007501E+00  0.0000000E+00
 1.5122501E+00  0.0000000E+00
 1.5237501E+00  0.0000000E+00
 1.5352501E+00  0.0000000E+00
 1.5467501E+00  0.0000000E+00
 1.5582501E+00  0.0000000E+00
 1.5697501E+00  0.0000000E+00
 1.5812501E+00  0.0000000E+00
 1.5927501E+00  0.0000000E+00
 1.6042501E+00  0.0000000E+00
 1.6157501E+00  0.0000000E+00
 1.6272501E+00  0.0000000E+00
 1.6387501E+00  0.0000000E+00
 1.6502501E+00  0.0000000E+00
 1.6617501E+00  0.0000000E+00
 1.6732501E+00  0.0000000E+00
 1.6847501E+00  0.0000000E+00
 1.6962501E+00  0.0000000E+00
 1.7077501E+00  0.0000000E+00
 1.7192501E+00  0.0000000E+00
 1.7307501E+00  0.0000000E+00
 1.7422501E+00  0.0000000E+00
 1.7537501E+00  0.0000000E+00
 1.7652501E+00  0.0000000E+00
 1.7767501E+00  0.0000000E+00
 1.7882501E+00  0.0000000E+00
 1.7997501E+00  0.0000000E+00
 1.8112501E+00  0.0000000E+00
 1.8227501E+00  0.0000000E+00
 1.8342501E+00  0.0000000E+00
 1.8457501E+00  0.0000000E+00
 1.8572501E+00  0.0000000E+00
 1.8687501E+00  0.0000000E+00
 1.8802501E+00  0.0000000E+00
 1.8917501E+00  0.0000000E+00
 1.9032501E+00  0.0000000E+00
 1.9147501E+00  0.0000000E+00
 1.9262501E+00  0.0000000E+00
 1.9377501E+00  0.0000000E+00
 1.9492501E+00  0.0000000E+00
 1.9607501E+00  0.0000000E+00
 1.9722501E+00  0.0000000E+00
 1.9837501E+00  0.0000000E+00
 1.9952501E+00  0.0000000E+00
 2.0067501E+00  0.0000000E+00
 2.0182500E+00  0.0000000E+00
 2.0297501E+00  0.0000000E+00
 2.0412500E+00  0.0000000E+00
 2.0527501E+00  0.0000000E+00
 2.0642500E+00  0.0000000E+00
 2.0757501E+00  0.0000000E+00
 2.0872500E+00  0.0000000E+00
 2.0987501E+00  0.0000000E+00
 2.1102500E+00  0.0000000E+00
 2.1217501E+00  0.0000000E+00
 2.1332500E+00  0.0000000E+00
 2.1447501E+00  0.0000000E+00
 2.1562500E+00  0.0000000E+00
 2.1677501E+00  0.0000000E+00
 2.1792500E+00  0.0000000E+00
 2.1907501E+00  0.0000000E+00
 2.2022500E+00  0.0000000E+00
 2.2137501E+00  0.0000000E+00
 2.2252500E+00  0.0000000E+00
 2.2367501E+00  0.0000000E+00
 2.2482500E+00  0.0000000E+00
 2.2597501E+00  0.0000000E+00
 2.2712500E+00  0.0000000E+00
 2.2827501E+00  0.0000000E+00
 2.2942500E+00  0.0000000E+00
 2.3057501E+00  0.0000000E+00
 2.3172500E+00  0.0000000E+00
 2.3287501E+00  0.0000000E+00
 2.3402500E+00  0.0000000E+00
 2.3517501E+00  0.0000000E+00
 2.3632500E+00  0.0000000E+00
 2.3747501E+00  0.0000000E+00
 2.3862500E+00  0.0000000E+00
 2.3977501E+00  0.0000000E+00
 2.4092500E+00  0.0000000E+00
 2.4207501E+00  0.0000000E+00
 2.4322500E+00  0.0000000E+00
 2.4437501E+00  0.0000000E+00
 2.4552500E+00  0.0000000E+00
 2.4667501E+00  0.0000000E+00
 2.4782500E+00  0.0000000E+00
 2.4897501E+00  0.0000000E+00
 2.5012500E+00  0.0000000E+00
 2.5127501E+00  0.0000000E+00
 2.5242500E+00  0.0000000E+00
 2.5357502E+00  0.0000000E+00
 2.5472500E+00  0.0000000E+00
 2.5587502E+00  0.0000000E+00
 2.5702500E+00  0.0000000E+00
 2.5817502E+00  0.0000000E+00
 2.5932500E+00  0.0000000E+00
 2.6047502E+00  0.0000000E+00
 2.6162500E+00  0.0000000E+00
 2.6277502E+00  0.0000000E+00
 2.6392500E+00  0.0000000E+00
 2.6507502E+00  0.0000000E+00
 2.6622500E+00  0.0000000E+00
 2.6737502E+00  0.0000000E+00
 2.6852500E+00  0.0000000E+00
 2.6967502E+00  0.0000000E+00
 2.7082500E+00  0.0000000E+00
 2.7197502E+00  0.0000000E+00
 2.7312500E+00  0.0000000E+00
 2.7427502E+00  0.0000000E+00
 2.7542500E+00  0.0000000E+00
 2.7657502E+00  0.0000000E+00
 2.7772501E+00  0.0000000E+00
 2.7887502E+00  0.0000000E+00
 2.8002501E+00  0.0000000E+00
 2.8117502E+00  0.0000000E+00
 2.8232501E+00  3.1543634E+01
 2.8347502E+00  3.1938810E+01
 2.8462501E+00  3.2516384E+01
 2.8577502E+00  3.2777306E+01
 2.8692501E+00  3.3600166E+01
 2.8807502E+00  3.4173481E+01
 2.8922501E+00  3.4723404E+01
 2.9037502E+00  3.5300137E+01
 2.9152501E+00  3.5689045E+01
 2.9267502E+00  3.6057537E+01
 2.9382501E+00  3.6237125E+01
 2.9497502E+00  3.6288006E+01
 2.9612501E+00  3.6348259E+01
 2.9727502E+00  3.6083336E+01
 2.9842501E+00  3.6118290E+01
 2.9957502E+00  3.5980038E+01
 3.0072501E+00  3.5961857E+01
 3.0187502E+00  3.5815292E+01
 3.0302501E+00  3.5381721E+01
 3.0417502E+00  3.5343491E+01
 3.0532501E+00  3.5195385E+01
 3.0647502E+00  3.4866791E+01
 3.0762501E+00  3.4378124E+01
 3.0877502E+00  3.4198128E+01
 3.0992501E+00  3.4199402E+01
 3.1107502E+00  3.4366177E+01
 3.1222501E+00  3.4064747E+01
 3.1337502E+00  3.3973244E+01
 3.1452501E+00  3.4478199E+01
 3.1567502E+00  3.4797157E+01
 3.1682501E+00  3.5203873E+01
 3.1797502E+00  3.5063713E+01
 3.1912501E+00  3.5024277E+01
 3.2027502E+00  3.4952030E+01
 3.2142501E+00  3.5179691E+01
 3.2257502E+00  3.5047874E+01
 3.2372501E+00  3.5254566E+01
 3.2487502E+00  3.5033848E+01
 3.2602501E+00  3.5238377E+01
 3.2717502E+00  3.4957645E+01
 3.2832501E+00  3.5278427E+01
 3.2947502E+00  3.5188354E+01
 3.3062501E+00  3.5080490E+01
 3.3177502E+00  3.4707291E+01
 3.3292501E+00  3.4587994E+01
 3.3407502E+00  3.4516720E+01
 3.3522501E+00  3.4417461E+01
 3.3637502E+00  3.4076458E+01
 3.3752501E+00  3.4024982E+01
 3.3867502E+00  3.3827473E+01
 3.3982501E+00  3.4107983E+01
 3.4097502E+00  3.3944164E+01
 3.4212501E+00  3.4205338E+01
 3.4327502E+00  3.4086292E+01
 3.4442501E+00  3.4360107E+01
 3.4557502E+00  3.4387318E+01
 3.4672501E+00  3.4535519E+01
 3.4787502E+00  3.4543369E+01
 3.4902501E+00  3.4562145E+01
 3.5017502E+00  3.4369831E+01
 3.5132501E+00  3.3989929E+01
 3.5247502E+00  3.3948315E+01
 3.5362501E+00  3.3853134E+01
 3.5477502E+00  3.3907238E+01
 3.5592501E+00  3.3965073E+01
 3.5707502E+00  3.3869873E+01
 3.5822501E+00  3.3933651E+01
 3.5937502E+00  3.3780037E+01
 3.6052501E+00  3.3765965E+01
 3.6167502E+00  3.3822491E+01
 3.6282501E+00  3.3743862E+01
 3.6397502E+00  3.3690071E+01
 3.6512501E+00  3.3555889E+01
 3.6627502E+00  3.3538120E+01
 3.6742501E+00  3.3499065E+01
 3.6857502E+00  3.3555462E+01
 3.6972501E+00  3.3511433E+01
 3.7087502E+00  3.3450665E+01
 3.7202501E+00  3.3389301E+01
 3.7317502E+00  3.3380020E+01
 3.7432501E+00  3.3334141E+01
 3.7547503E+00  3.3297943E+01
 3.7662501E+00  3.3229641E+01
 3.7777503E+00  3.3089970E+01
 3.7892501E+00  3.2874016E+01
 3.8007503E+00  3.2503487E+01
 3.8122501E+00  3.2556110E+01
 3.8237503E+00  3.2467033E+01
 3.8352501E+00  3.2564034E+01
 3.8467503E+00  3.2488647E+01
 3.8582501E+00  3.2571823E+01
 3.8697503E+00  3.2506294E+01
 3.8812501E+00  3.2571556E+01
 3.8927503E+00  3.2358578E+01
 3.9042501E+00  3.2262436E+01
 3.9157503E+00  3.2263607E+01
 3.9272501E+00  3.2315372E+01
 3.9387503E+00  3.2339359E+01
 3.9502501E+00  3.2261818E+01
 3.9617503E+00  3.2225258E+01
 3.9732502E+00  3.2591797E+01
 3.9847503E+00  3.2737015E+01
 3.9962502E+00  3.2955734E+01
 4.0077500E+00  3.2950794E+01
 4.0192504E+00  3.2979134E+01
 4.0307503E+00  3.2701500E+01
 4.0422502E+00  3.2576168E+01
 4.0537500E+00  3.2203442E+01
 4.0652504E+00  3.2212791E+01
 4.0767503E+00  3.2071548E+01
 4.0882502E+00  3.2028687E+01
 4.0997500E+00  3.2256683E+01
 4.1112504E+00  3.2367928E+01
 4.1227503E+00  3.2398361E+01
 4.1342502E+00  3.2390854E+01
 4.1457500E+00  3.2439373E+01
 4.1572504E+00  3.2507370E+01
 4.1687503E+00  3.2371826E+01
 4.1802502E+00  3.2090595E+01
 4.1917500E+00  3.1996325E+01
 4.2032504E+00  3.1935301E+01
 4.2147503E+00  3.2016769E+01
 4.2262502E+00  3.2029156E+01
 4.2377501E+00  3.2088310E+01
 4.2492504E+00  3.2148865E+01
 4.2607503E+00  3.2299809E+01
 4.2722502E+00  3.2510368E+01
 4.2837501E+00  3.2669750E+01
 4.2952504E+00  3.2797825E+01
 4.3067503E+00  3.2800827E+01
 4.3182502E+00  3.2763622E+01
 4.3297501E+00  3.2483360E+01
 4.3412504E+00  3.2431118E+01
 4.3527503E+00  3.2298321E+01
 4.3642502E+00  3.2385555E+01
 4.3757501E+00  3.2347351E+01
 4.3872504E+00  3.2508667E+01
 4.3987503E+00  3.2467159E+01
 4.4102502E+00  3.2499603E+01
 4.4217501E+00  3.2421440E+01
 4.4332504E+00  3.2411018E+01
 4.4447503E+00  3.2420860E+01
 4.4562502E+00  3.2372784E+01
 4.4677501E+00  3.2343410E+01
 4.4792504E+00  3.2466232E+01
 4.4907503E+00  3.2405922E+01
 4.5022502E+00  3.2511986E+01
 4.5137501E+00  3.2552917E+01
 4.5252504E+00  3.2486172E+01
 4.5367503E+00  3.2418644E+01
 4.5482502E+00  3.2319260E+01
 4.5597501E+00  3.2349724E+01
 4.5712504E+00  3.2352570E+01
 4.5827503E+00  3.2332802E+01
 4.5942502E+00  3.2320137E+01
 4.6057501E+00  3.2491497E+01
 4.6172504E+00  3.2451313E+01
 4.6287503E+00  3.2562096E+01
 4.6402502E+00  3.2625008E+01
 4.6517501E+00  3.2819359E+01
 4.6632504E+00  3.3017494E+01
 4.6747503E+00  3.3032677E+01
 4.6862502E+00  3.3116577E+01
 4.6977501E+00  3.3017189E+01
 4.7092505E+00  3.2967911E+01
 4.7207503E+00  3.2847759E+01
 4.7322502E+00  3.2716747E+01
 4.7437501E+00  3.2658737E+01
 4.7552505E+00  3.2629772E+01
 4.7667503E+00  3.2758739E+01
 4.7782502E+00  3.2674076E+01
 4.7897501E+00  3.2640030E+01
 4.8012505E+00  3.2480904E+01
 4.8127503E+00  3.2403778E+01
 4.8242502E+00  3.2254730E+01
 4.8357501E+00  3.2226292E+01
 4.8472505E+00  3.2317062E+01
 4.8587503E+00  3.2485027E+01
 4.8702502E+00  3.2602757E+01
 4.8817501E+00  3.2707695E+01
 4.8932505E+00  3.2814705E+01
 4.9047503E+00  3.2963314E+01
 4.9162502E+00  3.2965012E+01
 4.9277501E+00  3.3066830E+01
 4.9392505E+00  3.3114250E+01
 4.9507504E+00  3.3083447E+01
 4.9622502E+00  3.2991661E+01
 4.9737501E+00  3.2887966E+01
 4.9852505E+00  3.2949959E+01
 4.9967504E+00  3.3009281E+01
 5.0082502E+00  3.3047291E+01
 5.0197501E+00  3.3121048E+01
 5.0312505E+00  3.3125637E+01
 5.0427504E+00  3.3166710E+01
 5.0542502E+00  3.3220573E+01
 5.0657501E+00  3.3359940E+01
 5.0772505E+00  3.3433338E+01
 5.0887504E+00  3.3533401E+01
 5.1002502E+00  3.3612888E+01
 5.1117501E+00  3.3659023E+01
 5.1232505E+00  3.3703232E+01
 5.1347504E+00  3.3765236E+01
 5.1462502E+00  3.3800026E+01
 5.1577501E+00  3.3887615E+01
 5.1692505E+00  3.3944717E+01
 5.1807504E+00  3.4114067E+01
 5.1922503E+00  3.4145214E+01
 5.2037501E+00  3.4078587E+01
 5.2152505E+00  3.4106766E+01
 5.2267504E+00  3.4102547E+01
 5.2382503E+00  3.4118408E+01
 5.2497501E+00  3.3927536E+01
 5.2612505E+00  3.3859554E+01
 5.2727504E+00  3.3785526E+01
 5.2842503E+00  3.3864235E+01
 5.2957501E+00  3.3907841E+01
 5.3072500E+00  3.3897785E+01
 5.3187504E+00  3.3930210E+01
 5.3302503E+00  3.3957317E+01
 5.3417501E+00  3.4017521E+01
 5.3532500E+00  3.4061977E+01
 5.3647504E+00  3.4031567E+01
 5.3762503E+00  3.4157753E+01
 5.3877501E+00  3.4173744E+01
 5.3992500E+00  3.4219116E+01
 5.4107504E+00  3.4238750E+01
 5.4222503E+00  3.4119377E+01
 5.4337502E+00  3.4018871E+01
 5.4452500E+00  3.4005230E+01
 5.4567504E+00  3.4076687E+01
 5.4682503E+00  3.4190857E+01
 5.4797502E+00  3.4364876E+01
 5.4912500E+00  3.4463478E+01
 5.5027504E+00  3.4598186E+01
 5.5142503E+00  3.4649590E+01
 5.5257502E+00  3.4778236E+01
 5.5372500E+00  3.4789104E+01
 5.5487504E+00  3.4788223E+01
 5.5602503E+00  3.4726353E+01
 5.5717502E+00  3.4826748E+01
 5.5832500E+00  3.4788380E+01
 5.5947504E+00  3.4891438E+01
 5.6062503E+00  3.4878025E+01
 5.6177502E+00  3.4865723E+01
 5.6292500E+00  3.4759808E+01
 5.6407504E+00  3.4875351E+01
 5.6522503E+00  3.4859314E+01
 5.6637502E+00  3.5095306E+01
 5.6752501E+00  3.5169277E+01
 5.6867504E+00  3.5457134E+01
 5.6982503E+00  3.5499870E+01
 5.7097502E+00  3.5581909E+01
 5.7212501E+00  3.5516682E+01
 5.7327504E+00  3.5414139E+01
 5.7442503E+00  3.5342056E+01
 5.7557502E+00  3.5270279E+01
 5.7672501E+00  3.5194607E+01
 5.7787504E+00  3.5205532E+01
 5.7902503E+00  3.5263313E+01
 5.8017502E+00  3.5383224E+01
 5.8132501E+00  3.5516762E+01
 5.8247504E+00  3.5634727E+01
 5.8362503E+00  3.5790257E+01
 5.8477502E+00  3.5758354E+01
 5.8592501E+00  3.5711128E+01
 5.8707504E+00  3.5772705E+01
 5.8822503E+00  3.5891560E+01
 5.8937502E+00  3.6050930E+01
 5.9052501E+00  3.6164101E+01
 5.9167504E+00  3.6344257E+01
 5.9282503E+00  3.6473099E+01
 5.9397502E+00  3.6905174E+01
 5.9512501E+00  3.7496258E+01
 5.9627504E+00  3.7920132E+01
 5.9742503E+00  3.8360222E+01
 5.9857502E+00  3.8289047E+01
 5.9972501E+00  3.8176399E+01
 6.0087504E+00  3.7875565E+01
 6.0202503E+00  3.7455585E+01
 6.0317502E+00  3.7286011E+01
 6.0432501E+00  3.6915974E+01
 6.0547504E+00  3.6856670E+01
 6.0662503E+00  3.6835476E+01
 6.0777502E+00  3.6777657E+01
 6.0892501E+00  3.6738586E+01
 6.1007504E+00  3.6668449E+01
 6.1122503E+00  3.6786804E+01
 6.1237502E+00  3.6814571E+01
 6.1352501E+00  3.6858288E+01
 6.1467505E+00  3.6768200E+01
 6.1582503E+00  3.6782490E+01
 6.1697502E+00  3.6730026E+01
 6.1812501E+00  3.6786407E+01
 6.1927505E+00  3.6782566E+01
 6.2042503E+00  3.6830662E+01
 6.2157502E+00  3.6916035E+01
 6.2272501E+00  3.7058853E+01
 6.2387505E+00  3.7119678E+01
 6.2502503E+00  3.7218353E+01
 6.2617502E+00  3.7271549E+01
 6.2732501E+00  3.7452618E+01
 6.2847505E+00  3.7659977E+01
 6.2962503E+00  3.7796051E+01
 6.3077502E+00  3.7880428E+01
 6.3192501E+00  3.7886391E+01
 6.3307505E+00  3.7922981E+01
 6.3422503E+00  3.8011089E+01
 6.3537502E+00  3.8055977E+01
 6.3652501E+00  3.8076591E+01
 6.3767505E+00  3.8139511E+01
 6.3882504E+00  3.8203056E+01
 6.3997502E+00  3.8359955E+01
 6.4112501E+00  3.8545429E+01
 6.4227505E+00  3.8635864E+01
 6.4342504E+00  3.8704037E+01
 6.4457502E+00  3.8787659E+01
 6.4572501E+00  3.8870502E+01
 6.4687505E+00  3.8965927E+01
 6.4802504E+00  3.8924572E+01
 6.4917502E+00  3.8917809E+01
 6.5032501E+00  3.8981266E+01
 6.5147505E+00  3.8998413E+01
 6.5262504E+00  3.9132221E+01
 6.5377502E+00  3.9225517E+01
 6.5492501E+00  3.9365643E+01
 6.5607505E+00  3.9479870E+01
 6.5722504E+00  3.9499535E+01
 6.5837502E+00  3.9535301E+01
 6.5952501E+00  3.9512222E+01
 6.6067505E+00  3.9588764E+01
 6.6182504E+00  3.9599609E+01
 6.6297503E+00  3.9753075E+01
 6.6412501E+00  3.9854427E+01
 6.6527505E+00  3.9978363E+01
 6.6642504E+00  4.0065464E+01
 6.6757503E+00  4.0112984E+01
 6.6872501E+00  4.0152992E+01
 6.6987505E+00  4.0174393E+01
 6.7102504E+00  4.0234543E+01
 6.7217503E+00  4.0325825E+01
 6.7332501E+00  4.0392979E+01
 6.7447505E+00  4.0439362E+01
 6.7562504E+00  4.0616829E+01
 6.7677503E+00  4.0800640E+01
 6.7792501E+00  4.0901077E+01
 6.7907505E+00  4.0968388E+01
 6.8022504E+00  4.1136597E+01
 6.8137503E+00  4.1281956E+01
 6.8252501E+00  4.1433666E+01
 6.8367505E+00  4.1518185E+01
 6.8482504E+00  4.1592861E+01
 6.8597503E+00  4.1734425E+01
 6.8712502E+00  4.1696159E+01
 6.8827505E+00  4.1643158E+01
 6.8942504E+00  4.1596569E+01
 6.9057503E+00  4.1563656E+01
 6.9172502E+00  4.1704731E+01
 6.9287505E+00  4.1761211E+01
 6.9402504E+00  4.1906178E+01
 6.9517503E+00  4.1998356E+01
 6.9632502E+00  4.2084160E+01
 6.9747505E+00  4.2131466E+01
 6.9862504E+00  4.2274101E+01
 6.9977503E+00  4.2306347E+01
 7.0092502E+00  4.2329906E+01
 7.0207505E+00  4.2330956E+01
 7.0322504E+00  4.2403175E+01
 7.0437503E+00  4.2447529E+01
 7.0552502E+00  4.2509472E+01
 7.0667505E+00  4.2645367E+01
 7.0782504E+00  4.2742065E+01
 7.0897503E+00  4.2830807E+01
 7.1012502E+00  4.2863129E+01
 7.1127505E+00  4.3020458E+01
 7.1242504E+00  4.3089573E+01
 7.1357503E+00  4.3055222E+01
 7.1472502E+00  4.3021667E+01
 7.1587505E+00  4.2955589E+01
 7.1702504E+00  4.2979843E+01
 7.1817503E+00  4.2938816E+01
 7.1932502E+00  4.3077198E+01
 7.2047505E+00  4.3121151E+01
 7.2162504E+00  4.3282116E+01
 7.2277503E+00  4.3333942E+01
 7.2392502E+00  4.3445473E+01
 7.2507505E+00  4.3457996E+01
 7.2622504E+00  4.3484566E+01
 7.2737503E+00  4.3557930E+01
 7.2852502E+00  4.3574078E+01
 7.2967505E+00  4.3657387E+01
 7.3082504E+00  4.3627235E+01
 7.3197503E+00  4.3790771E+01
 7.3312502E+00  4.3759792E+01
 7.3427505E+00  4.3809475E+01
 7.3542504E+00  4.3829075E+01
 7.3657503E+00  4.3827003E+01
 7.3772502E+00  4.3811489E+01
 7.3887506E+00  4.3832432E+01
 7.4002504E+00  4.3914249E+01
 7.4117503E+00  4.4152199E+01
 7.4232502E+00  4.4235867E+01
 7.4347506E+00  4.4335197E+01
 7.4462504E+00  4.4238319E+01
 7.4577503E+00  4.4269249E+01
 7.4692502E+00  4.4210312E+01
 7.4807506E+00  4.4273579E+01
 7.4922504E+00  4.4205788E+01
 7.5037503E+00  4.4244301E+01
 7.5152502E+00  4.4269680E+01
 7.5267506E+00  4.4327888E+01
 7.5382504E+00  4.4296646E+01
 7.5497503E+00  4.4243664E+01
 7.5612502E+00  4.4308147E+01
 7.5727506E+00  4.4385265E+01
 7.5842505E+00  4.4410416E+01
 7.5957503E+00  4.4376591E+01
 7.6072502E+00  4.4360043E+01
 7.6187506E+00  4.4378540E+01
 7.6302505E+00  4.4394146E+01
 7.6417503E+00  4.4343945E+01
 7.6532502E+00  4.4324467E+01
 7.6647506E+00  4.4254955E+01
 7.6762505E+00  4.4260113E+01
 7.6877503E+00  4.4289185E+01
 7.6992502E+00  4.4303757E+01
 7.7107506E+00  4.4282497E+01
 7.7222505E+00  4.4256683E+01
 7.7337503E+00  4.4256626E+01
 7.7452502E+00  4.4283913E+01
 7.7567506E+00  4.4294308E+01
 7.7682505E+00  4.4317989E+01
 7.7797503E+00  4.4303711E+01
 7.7912502E+00  4.4332062E+01
 7.8027506E+00  4.4274048E+01
 7.8142505E+00  4.4311798E+01
 7.8257504E+00  4.4326401E+01
 7.8372502E+00  4.4376553E+01
 7.8487506E+00  4.4382309E+01
 7.8602505E+00  4.4343445E+01
 7.8717504E+00  4.4187935E+01
 7.8832502E+00  4.4078888E+01
 7.8947506E+00  4.3940716E+01
 7.9062505E+00  4.3912125E+01
 7.9177504E+00  4.3837101E+01
 7.9292502E+00  4.3737629E+01
 7.9407506E+00  4.3661720E+01
 7.9522505E+00  4.3458530E+01
 7.9637504E+00  4.3434853E+01
 7.9752502E+00  4.3380222E+01
 7.9867506E+00  4.3463829E+01
 7.9982505E+00  4.3415958E+01
 8.0097504E+00  4.3308670E+01
 8.0212507E+00  4.3210133E+01
 8.0327501E+00  4.3130249E+01
 8.0442505E+00  4.3141991E+01
 8.0557508E+00  4.3062138E+01
 8.0672503E+00  4.2962212E+01
 8.0787506E+00  4.2861767E+01
 8.0902500E+00  4.2933273E+01
 8.1017504E+00  4.2994629E+01
 8.1132507E+00  4.2978722E+01
 8.1247501E+00  4.2779842E+01
 8.1362505E+00  4.2664215E+01
 8.1477509E+00  4.2529957E+01
 8.1592503E+00  4.2419502E+01
 8.1707506E+00  4.2293133E+01
 8.1822500E+00  4.2165001E+01
 8.1937504E+00  4.2140213E+01
 8.2052507E+00  4.2103527E+01
 8.2167501E+00  4.2022568E+01
 8.2282505E+00  4.1985088E+01
 8.2397509E+00  4.1867680E+01
 8.2512503E+00  4.1775589E+01
 8.2627506E+00  4.1633228E+01
 8.2742500E+00  4.1410950E+01
 8.2857504E+00  4.1199333E+01
 8.2972507E+00  4.0971989E+01
 8.3087502E+00  4.0776840E+01
 8.3202505E+00  4.0637550E+01
 8.3317509E+00  4.0442463E+01
 8.3432503E+00  4.0339603E+01
 8.3547506E+00  4.0275108E+01
 8.3662500E+00  4.0217911E+01
 8.3777504E+00  4.0142021E+01
 8.3892508E+00  3.9959637E+01
 8.4007502E+00  3.9741699E+01
 8.4122505E+00  3.9442989E+01
 8.4237509E+00  3.9140194E+01
 8.4352503E+00  3.8890228E+01
 8.4467506E+00  3.8769314E+01
 8.4582500E+00  3.8663063E+01
 8.4697504E+00  3.8539566E+01
 8.4812508E+00  3.8323135E+01
 8.4927502E+00  3.8118195E+01
 8.5042505E+00  3.7861763E+01
 8.5157509E+00  3.7649891E+01
 8.5272503E+00  3.7419125E+01
 8.5387506E+00  3.7282257E+01
 8.5502501E+00  3.7051395E+01
 8.5617504E+00  3.6937557E+01
 8.5732508E+00  3.6748280E+01
 8.5847502E+00  3.6630100E+01
 8.5962505E+00  3.6446384E+01
 8.6077509E+00  3.6253963E+01
 8.6192503E+00  3.6083195E+01
 8.6307507E+00  3.5923542E+01
 8.6422501E+00  3.5718884E+01
 8.6537504E+00  3.5474880E+01
 8.6652508E+00  3.5359043E+01
 8.6767502E+00  3.5272331E+01
 8.6882505E+00  3.5250366E+01
 8.6997509E+00  3.5121281E+01
 8.7112503E+00  3.5025074E+01
 8.7227507E+00  3.4915123E+01
 8.7342501E+00  3.4715546E+01
 8.7457504E+00  3.4484665E+01
 8.7572508E+00  3.4262051E+01
 8.7687502E+00  3.4083210E+01
 8.7802505E+00  3.3916210E+01
 8.7917500E+00  3.3745201E+01
 8.8032503E+00  3.3560249E+01
 8.8147507E+00  3.3447399E+01
 8.8262501E+00  3.3226379E+01
 8.8377504E+00  3.3051048E+01
 8.8492508E+00  3.2824051E+01
 8.8607502E+00  3.2707176E+01
 8.8722506E+00  3.2546146E+01
 8.8837500E+00  3.2331741E+01
 8.8952503E+00  3.2042557E+01
 8.9067507E+00  3.1824131E+01
 8.9182501E+00  3.1636925E+01
 8.9297504E+00  3.1506432E+01
 8.9412508E+00  3.1372063E+01
 8.9527502E+00  3.1220448E+01
 8.9642506E+00  3.1166010E+01
 8.9757500E+00  3.0994209E+01
 8.9872503E+00  3.0990725E+01
 8.9987507E+00  3.0853058E+01
 9.0102501E+00  3.0770136E+01
 9.0217505E+00  3.0511112E+01
 9.0332508E+00  3.0366955E+01
 9.0447502E+00  3.0142246E+01
 9.0562506E+00  3.0003862E+01
 9.0677500E+00  2.9828260E+01
 9.0792503E+00  2.9711681E+01
 9.0907507E+00  2.9628744E+01
 9.1022501E+00  2.9565481E+01
 9.1137505E+00  2.9521526E+01
 9.1252508E+00  2.9463873E+01
 9.1367502E+00  2.9326937E+01
 9.1482506E+00  2.9265541E+01
 9.1597500E+00  2.9155794E+01
 9.1712503E+00  2.8994392E+01
 9.1827507E+00  2.8876183E+01
 9.1942501E+00  2.8742708E+01
 9.2057505E+00  2.8641644E+01
 9.2172508E+00  2.8522800E+01
 9.2287502E+00  2.8365967E+01
 9.2402506E+00  2.8353039E+01
 9.2517500E+00  2.8254997E+01
 9.2632504E+00  2.8105410E+01
 9.2747507E+00  2.7934229E+01
 9.2862501E+00  2.7754433E+01
 9.2977505E+00  2.7720146E+01
 9.3092508E+00  2.7646925E+01
 9.3207502E+00  2.7608994E+01
 9.3322506E+00  2.7540981E+01
 9.3437500E+00  2.7379494E+01
 9.3552504E+00  2.7279167E+01
 9.3667507E+00  2.7173595E+01
 9.3782501E+00  2.7174395E+01
 9.3897505E+00  2.7059427E+01
 9.4012508E+00  2.7032972E+01
 9.4127502E+00  2.6904209E+01
 9.4242506E+00  2.6840300E+01
 9.4357500E+00  2.6718906E+01
 9.4472504E+00  2.6577154E+01
 9.4587507E+00  2.6528795E+01
 9.4702501E+00  2.6481050E+01
 9.4817505E+00  2.6501453E+01
 9.4932508E+00  2.6447870E+01
 9.5047503E+00  2.6293867E+01
 9.5162506E+00  2.6261719E+01
 9.5277500E+00  2.6149017E+01
 9.5392504E+00  2.6113951E+01
 9.5507507E+00  2.5982035E+01
 9.5622501E+00  2.5940704E+01
 9.5737505E+00  2.5881918E+01
 9.5852509E+00  2.5812721E+01
 9.5967503E+00  2.5804871E+01
 9.6082506E+00  2.5813738E+01
 9.6197500E+00  2.5759373E+01
 9.6312504E+00  2.5689789E+01
 9.6427507E+00  2.5610561E+01
 9.6542501E+00  2.5539251E+01
 9.6657505E+00  2.5511637E+01
 9.6772509E+00  2.5348606E+01
 9.6887503E+00  2.5361708E+01
 9.7002506E+00  2.5283865E+01
 9.7117500E+00  2.5324911E+01
 9.7232504E+00  2.5306232E+01
 9.7347507E+00  2.5270054E+01
 9.7462502E+00  2.5196589E+01
 9.7577505E+00  2.5124094E+01
 9.7692509E+00  2.5069260E+01
 9.7807503E+00  2.5016499E+01
 9.7922506E+00  2.4937811E+01
 9.8037500E+00  2.4853254E+01
 9.8152504E+00  2.4794949E+01
 9.8267508E+00  2.4747410E+01
 9.8382502E+00  2.4737806E+01
 9.8497505E+00  2.4697084E+01
 9.8612509E+00  2.4620501E+01
 9.8727503E+00  2.4538553E+01
 9.8842506E+00  2.4445971E+01
 9.8957500E+00  2.4432005E+01
 9.9072504E+00  2.4390734E+01
 9.9187508E+00  2.4434557E+01
 9.9302502E+00  2.4452473E+01
 9.9417505E+00  2.4401907E+01
 9.9532509E+00  2.4358484E+01
 9.9647503E+00  2.4260309E+01
 9.9762506E+00  2.4187986E+01
 9.9877501E+00  2.4157753E+01
 9.9992504E+00  2.4121077E+01
 1.0010751E+01  2.4108608E+01
 1.0022250E+01  2.4056688E+01
 1.0033751E+01  2.4021828E+01
 1.0045251E+01  2.3988173E+01
 1.0056750E+01  2.3936907E+01
 1.0068251E+01  2.3866280E+01
 1.0079750E+01  2.3852562E+01
 1.0091250E+01  2.3782829E+01
 1.0102751E+01  2.3834316E+01
 1.0114250E+01  2.3843199E+01
 1.0125751E+01  2.3834511E+01
 1.0137251E+01  2.3781988E+01
 1.0148750E+01  2.3753086E+01
 1.0160251E+01  2.3812044E+01
 1.0171750E+01  2.3846317E+01
 1.0183250E+01  2.3845316E+01
 1.0194751E+01  2.3782902E+01
 1.0206250E+01  2.3737499E+01
 1.0217751E+01  2.3714437E+01
 1.0229251E+01  2.3682289E+01
 1.0240750E+01  2.3651936E+01
 1.0252251E+01  2.3576530E+01
 1.0263750E+01  2.3627605E+01
 1.0275250E+01  2.3618359E+01
 1.0286751E+01  2.3618570E+01
 1.0298250E+01  2.3596676E+01
 1.0309751E+01  2.3561754E+01
 1.0321251E+01  2.3505194E+01
 1.0332750E+01  2.3436745E+01
 1.0344251E+01  2.3334986E+01
 1.0355750E+01  2.3343319E+01
 1.0367250E+01  2.3282795E+01
 1.0378751E+01  2.3321693E+01
 1.0390250E+01  2.3368044E+01
 1.0401751E+01  2.3425688E+01
 1.0413251E+01  2.3429884E+01
 1.0424750E+01  2.3380970E+01
 1.0436251E+01  2.3304188E+01
 1.0447750E+01  2.3226915E+01
 1.0459250E+01  2.3146566E+01
 1.0470751E+01  2.3124262E+01
 1.0482250E+01  2.3134462E+01
 1.0493751E+01  2.3094233E+01
 1.0505251E+01  2.3080355E+01
 1.0516750E+01  2.3063745E+01
 1.0528251E+01  2.3023989E+01
 1.0539750E+01  2.3053829E+01
 1.0551250E+01  2.3064930E+01
 1.0562751E+01  2.3160913E+01
 1.0574250E+01  2.3115135E+01
 1.0585751E+01  2.3069714E+01
 1.0597251E+01  2.3053177E+01
 1.0608750E+01  2.2995033E+01
 1.0620251E+01  2.3002928E+01
 1.0631750E+01  2.2988575E+01
 1.0643250E+01  2.3013102E+01
 1.0654751E+01  2.3040421E+01
 1.0666250E+01  2.2968931E+01
 1.0677751E+01  2.2955370E+01
 1.0689251E+01  2.2882200E+01
 1.0700750E+01  2.2913597E+01
 1.0712251E+01  2.2891058E+01
 1.0723750E+01  2.2858105E+01
 1.0735250E+01  2.2769037E+01
 1.0746751E+01  2.2752176E+01
 1.0758250E+01  2.2719572E+01
 1.0769751E+01  2.2719515E+01
 1.0781251E+01  2.2717791E+01
 1.0792750E+01  2.2729645E+01
 1.0804251E+01  2.2723984E+01
 1.0815750E+01  2.2706165E+01
 1.0827250E+01  2.2711744E+01
 1.0838751E+01  2.2715561E+01
 1.0850250E+01  2.2731596E+01
 1.0861751E+01  2.2688347E+01
 1.0873251E+01  2.2712496E+01
 1.0884750E+01  2.2619732E+01
 1.0896251E+01  2.2578426E+01
 1.0907750E+01  2.2601297E+01
 1.0919250E+01  2.2560455E+01
 1.0930751E+01  2.2613081E+01
 1.0942250E+01  2.2510862E+01
 1.0953751E+01  2.2562447E+01
 1.0965251E+01  2.2514126E+01
 1.0976750E+01  2.2565174E+01
 1.0988251E+01  2.2555801E+01
 1.0999750E+01  2.2514692E+01
 1.1011250E+01  2.2421955E+01
 1.1022751E+01  2.2371399E+01
 1.1034250E+01  2.2349844E+01
 1.1045751E+01  2.2338259E+01
 1.1057251E+01  2.2288137E+01
 1.1068750E+01  2.2300301E+01
 1.1080251E+01  2.2302094E+01
 1.1091750E+01  2.2298758E+01
 1.1103251E+01  2.2274813E+01
 1.1114751E+01  2.2200788E+01
 1.1126250E+01  2.2143618E+01
 1.1137751E+01  2.2117575E+01
 1.1149251E+01  2.2142433E+01
 1.1160750E+01  2.2229696E+01
 1.1172251E+01  2.2237211E+01
 1.1183750E+01  2.2242918E+01
 1.1195251E+01  2.2205198E+01
 1.1206751E+01  2.2209375E+01
 1.1218250E+01  2.2229176E+01
 1.1229751E+01  2.2273071E+01
 1.1241251E+01  2.2335077E+01
 1.1252750E+01  2.2389803E+01
 1.1264251E+01  2.2373953E+01
 1.1275750E+01  2.2315554E+01
 1.1287251E+01  2.2202475E+01
 1.1298751E+01  2.2118858E+01
 1.1310250E+01  2.2070999E+01
 1.1321751E+01  2.2134523E+01
 1.1333251E+01  2.2220604E+01
 1.1344750E+01  2.2253963E+01
 1.1356251E+01  2.2276215E+01
 1.1367750E+01  2.2286427E+01
 1.1379251E+01  2.2312691E+01
 1.1390751E+01  2.2330570E+01
 1.1402250E+01  2.2398720E+01
 1.1413751E+01  2.2438402E+01
 1.1425251E+01  2.2474253E+01
 1.1436750E+01  2.2458965E+01
 1.1448251E+01  2.2482319E+01
 1.1459750E+01  2.2508266E+01
 1.1471251E+01  2.2503443E+01
 1.1482751E+01  2.2439720E+01
 1.1494250E+01  2.2324993E+01
 1.1505751E+01  2.2252804E+01
 1.1517251E+01  2.2260563E+01
 1.1528750E+01  2.2347376E+01
 1.1540251E+01  2.2514679E+01
 1.1551750E+01  2.2715405E+01
 1.1563251E+01  2.2971931E+01
 1.1574751E+01  2.3140610E+01
 1.1586250E+01  2.3254210E+01
 1.1597751E+01  2.3297703E+01
 1.1609251E+01  2.3183903E+01
 1.1620750E+01  2.3080917E+01
 1.1632251E+01  2.2883932E+01
 1.1643750E+01  2.2749626E+01
 1.1655251E+01  2.2640358E+01
 1.1666751E+01  2.2499802E+01
 1.1678250E+01  2.2434097E+01
 1.1689751E+01  2.2373718E+01
 1.1701251E+01  2.2329781E+01
 1.1712750E+01  2.2307209E+01
 1.1724251E+01  2.2283222E+01
 1.1735750E+01  2.2287018E+01
 1.1747251E+01  2.2359793E+01
 1.1758751E+01  2.2374662E+01
 1.1770250E+01  2.2396557E+01
 1.1781751E+01  2.2336723E+01
 1.1793251E+01  2.2296713E+01
 1.1804750E+01  2.2332922E+01
 1.1816251E+01  2.2337036E+01
 1.1827750E+01  2.2346176E+01
 1.1839251E+01  2.2307808E+01
 1.1850751E+01  2.2266209E+01
 1.1862250E+01  2.2337973E+01
 1.1873751E+01  2.2328215E+01
 1.1885251E+01  2.2349783E+01
 1.1896750E+01  2.2362288E+01
 1.1908251E+01  2.2325405E+01
 1.1919750E+01  2.2407167E+01
 1.1931251E+01  2.2373243E+01
 1.1942751E+01  2.2448009E+01
 1.1954250E+01  2.2437857E+01
 1.1965751E+01  2.2493202E+01
 1.1977251E+01  2.2538998E+01
 1.1988750E+01  2.2617922E+01
 1.2000251E+01  2.2617874E+01
 1.2011750E+01  2.2691940E+01
 1.2023251E+01  2.2675249E+01
 1.2034751E+01  2.2691612E+01
 1.2046250E+01  2.2635302E+01
 1.2057751E+01  2.2580164E+01
 1.2069251E+01  2.2610195E+01
 1.2080750E+01  2.2636232E+01
 1.2092251E+01  2.2646187E+01
 1.2103750E+01  2.2634430E+01
 1.2115251E+01  2.2612177E+01
 1.2126751E+01  2.2633854E+01
 1.2138250E+01  2.2597422E+01
 1.2149751E+01  2.2587336E+01
 1.2161251E+01  2.2570568E+01
 1.2172750E+01  2.2533165E+01
 1.2184251E+01  2.2496733E+01
 1.2195750E+01  2.2507372E+01
 1.2207251E+01  2.2485701E+01
 1.2218751E+01  2.2448540E+01
 1.2230250E+01  2.2423244E+01
 1.2241751E+01  2.2394119E+01
 1.2253251E+01  2.2369814E+01
 1.2264750E+01  2.2329554E+01
 1.2276251E+01  2.2279848E+01
 1.2287750E+01  2.2279772E+01
 1.2299251E+01  2.2246271E+01
 1.2310751E+01  2.2274012E+01
 1.2322250E+01  2.2281712E+01
 1.2333751E+01  2.2355162E+01
 1.2345250E+01  2.2381741E+01
 1.2356750E+01  2.2322243E+01
 1.2368251E+01  2.2274073E+01
 1.2379750E+01  2.2248337E+01
 1.2391251E+01  2.2224995E+01
 1.2402751E+01  2.2237282E+01
 1.2414250E+01  2.2332104E+01
 1.2425751E+01  2.2451088E+01
 1.2437250E+01  2.2495636E+01
 1.2448750E+01  2.2479855E+01
 1.2460251E+01  2.2500896E+01
 1.2471750E+01  2.2508778E+01
 1.2483251E+01  2.2509333E+01
 1.2494751E+01  2.2467197E+01
 1.2506250E+01  2.2435843E+01
 1.2517751E+01  2.2427500E+01
 1.2529250E+01  2.2522608E+01
 1.2540751E+01  2.2561493E+01
 1.2552251E+01  2.2608599E+01
 1.2563750E+01  2.2572002E+01
 1.2575251E+01  2.2571445E+01
 1.2586751E+01  2.2527342E+01
 1.2598250E+01  2.2542046E+01
 1.2609751E+01  2.2569685E+01
 1.2621250E+01  2.2664499E+01
 1.2632751E+01  2.2687714E+01
 1.2644251E+01  2.2697933E+01
 1.2655750E+01  2.2704878E+01
 1.2667251E+01  2.2740728E+01
 1.2678751E+01  2.2789232E+01
 1.2690250E+01  2.2783823E+01
 1.2701751E+01  2.2782183E+01
 1.2713250E+01  2.2810894E+01
 1.2724751E+01  2.2772060E+01
 1.2736251E+01  2.2795515E+01
 1.2747750E+01  2.2788918E+01
 1.2759251E+01  2.2865332E+01
 1.2770751E+01  2.2887344E+01
 1.2782250E+01  2.2932808E+01
 1.2793751E+01  2.2908350E+01
 1.2805250E+01  2.2938705E+01
 1.2816751E+01  2.2989452E+01
 1.2828251E+01  2.3088995E+01
 1.2839750E+01  2.3147509E+01
 1.2851251E+01  2.3161753E+01
 1.2862751E+01  2.3223587E+01
 1.2874250E+01  2.3255594E+01
 1.2885751E+01  2.3330229E+01
 1.2897250E+01  2.3384668E+01
 1.2908751E+01  2.3485937E+01
 1.2920251E+01  2.3509205E+01
 1.2931750E+01  2.3592194E+01
 1.2943251E+01  2.3565495E+01
 1.2954751E+01  2.3577114E+01
 1.2966250E+01  2.3594822E+01
 1.2977751E+01  2.3665274E+01
 1.2989250E+01  2.3691854E+01
 1.3000751E+01  2.3723078E+01
 1.3012251E+01  2.3772049E+01
 1.3023750E+01  2.3839096E+01
 1.3035251E+01  2.3934618E+01
 1.3046751E+01  2.4021360E+01
 1.3058250E+01  2.4214550E+01
 1.3069751E+01  2.4334648E+01
 1.3081250E+01  2.4492878E+01
 1.3092751E+01  2.4597311E+01
 1.3104251E+01  2.4747398E+01
 1.3115750E+01  2.4885086E+01
 1.3127251E+01  2.5010193E+01
 1.3138751E+01  2.5104584E+01
 1.3150250E+01  2.5215967E+01
 1.3161751E+01  2.5269016E+01
 1.3173250E+01  2.5391167E+01
 1.3184751E+01  2.5504946E+01
 1.3196251E+01  2.5621641E+01
 1.3207750E+01  2.5717335E+01
 1.3219251E+01  2.5837645E+01
 1.3230751E+01  2.5960051E+01
 1.3242250E+01  2.6053040E+01
 1.3253751E+01  2.6134928E+01
 1.3265250E+01  2.6245638E+01
 1.3276751E+01  2.6353022E+01
 1.3288251E+01  2.6502712E+01
 1.3299750E+01  2.6703304E+01
 1.3311251E+01  2.6848965E+01
 1.3322751E+01  2.7015963E+01
 1.3334250E+01  2.7155176E+01
 1.3345751E+01  2.7348837E+01
 1.3357250E+01  2.7516239E+01
 1.3368751E+01  2.7645971E+01
 1.3380251E+01  2.7809896E+01
 1.3391750E+01  2.7934149E+01
 1.3403251E+01  2.8067917E+01
 1.3414751E+01  2.8127695E+01
 1.3426250E+01  2.8192511E+01
 1.3437751E+01  2.8323704E+01
 1.3449250E+01  2.8427383E+01
 1.3460751E+01  2.8544893E+01
 1.3472251E+01  2.8664066E+01
 1.3483750E+01  2.8866585E+01
 1.3495251E+01  2.9014385E+01
 1.3506751E+01  2.9125597E+01
 1.3518250E+01  2.9175440E+01
 1.3529751E+01  2.9250902E+01
 1.3541250E+01  2.9296877E+01
 1.3552751E+01  2.9347828E+01
 1.3564251E+01  2.9386908E+01
 1.3575750E+01  2.9407352E+01
 1.3587251E+01  2.9389259E+01
 1.3598751E+01  2.9411407E+01
 1.3610250E+01  2.9409929E+01
 1.3621751E+01  2.9426386E+01
 1.3633250E+01  2.9429785E+01
 1.3644751E+01  2.9452850E+01
 1.3656251E+01  2.9485182E+01
 1.3667750E+01  2.9524872E+01
 1.3679251E+01  2.9569729E+01
 1.3690751E+01  2.9546799E+01
 1.3702250E+01  2.9493631E+01
 1.3713751E+01  2.9388006E+01
 1.3725250E+01  2.9374935E+01
 1.3736751E+01  2.9294127E+01
 1.3748251E+01  2.9284332E+01
 1.3759750E+01  2.9243921E+01
 1.3771251E+01  2.9260454E+01
 1.3782751E+01  2.9209673E+01
 1.3794250E+01  2.9121407E+01
 1.3805751E+01  2.9048389E+01
 1.3817250E+01  2.8944349E+01
 1.3828751E+01  2.8885023E+01
 1.3840251E+01  2.8812759E+01
 1.3851750E+01  2.8773539E+01
 1.3863251E+01  2.8734509E+01
 1.3874751E+01  2.8715876E+01
 1.3886250E+01  2.8740513E+01
 1.3897751E+01  2.8856222E+01
 1.3909250E+01  2.9022032E+01
 1.3920751E+01  2.9306501E+01
 1.3932251E+01  2.9529804E+01
 1.3943750E+01  2.9764994E+01
 1.3955251E+01  2.9891991E+01
 1.3966751E+01  2.9930128E+01
 1.3978251E+01  2.9767696E+01
 1.3989751E+01  2.9447601E+01
 1.4001250E+01  2.9020571E+01
 1.4012751E+01  2.8822607E+01
 1.4024251E+01  2.8473282E+01
 1.4035750E+01  2.8170612E+01
 1.4047251E+01  2.7754536E+01
 1.4058751E+01  2.7603210E+01
 1.4070251E+01  2.7551561E+01
 1.4081751E+01  2.7380983E+01
 1.4093250E+01  2.7314985E+01
 1.4104751E+01  2.7112545E+01
 1.4116251E+01  2.7019850E+01
 1.4127750E+01  2.6902824E+01
 1.4139251E+01  2.6846350E+01
 1.4150751E+01  2.6776793E+01
 1.4162251E+01  2.6731878E+01
 1.4173751E+01  2.6712959E+01
 1.4185250E+01  2.6706038E+01
 1.4196751E+01  2.6637447E+01
 1.4208251E+01  2.6566813E+01
 1.4219750E+01  2.6471043E+01
 1.4231251E+01  2.6385342E+01
 1.4242751E+01  2.6294979E+01
 1.4254251E+01  2.6185600E+01
 1.4265751E+01  2.6155611E+01
 1.4277250E+01  2.6099234E+01
 1.4288751E+01  2.6074873E+01
 1.4300251E+01  2.6031939E+01
 1.4311750E+01  2.6061829E+01
 1.4323251E+01  2.6076292E+01
 1.4334751E+01  2.6064579E+01
 1.4346251E+01  2.6042032E+01
 1.4357751E+01  2.5974421E+01
 1.4369250E+01  2.5890032E+01
 1.4380751E+01  2.5741852E+01
 1.4392251E+01  2.5673517E+01
 1.4403750E+01  2.5623978E+01
 1.4415251E+01  2.5684263E+01
 1.4426751E+01  2.5669928E+01
 1.4438251E+01  2.5663118E+01
 1.4449751E+01  2.5577057E+01
 1.4461250E+01  2.5509863E+01
 1.4472751E+01  2.5457581E+01
 1.4484251E+01  2.5436934E+01
 1.4495750E+01  2.5455952E+01
 1.4507251E+01  2.5467533E+01
 1.4518751E+01  2.5450029E+01
 1.4530251E+01  2.5433084E+01
 1.4541751E+01  2.5388641E+01
 1.4553250E+01  2.5312412E+01
 1.4564751E+01  2.5229836E+01
 1.4576251E+01  2.5168083E+01
 1.4587750E+01  2.5169188E+01
 1.4599251E+01  2.5153234E+01
 1.4610751E+01  2.5153149E+01
 1.4622251E+01  2.5133013E+01
 1.4633751E+01  2.5137728E+01
 1.4645250E+01  2.5127205E+01
 1.4656751E+01  2.5065845E+01
 1.4668251E+01  2.4970734E+01
 1.4679750E+01  2.4916035E+01
 1.4691251E+01  2.4875166E+01
 1.4702751E+01  2.4868450E+01
 1.4714251E+01  2.4840670E+01
 1.4725751E+01  2.4873779E+01
 1.4737250E+01  2.4892086E+01
 1.4748751E+01  2.4912882E+01
 1.4760251E+01  2.4882095E+01
 1.4771750E+01  2.4906843E+01
 1.4783251E+01  2.4864347E+01
 1.4794751E+01  2.4889977E+01
 1.4806251E+01  2.4828653E+01
 1.4817751E+01  2.4862612E+01
 1.4829250E+01  2.4792044E+01
 1.4840751E+01  2.4801445E+01
 1.4852251E+01  2.4741476E+01
 1.4863750E+01  2.4736082E+01
 1.4875251E+01  2.4686382E+01
 1.4886751E+01  2.4721907E+01
 1.4898251E+01  2.4756918E+01
 1.4909751E+01  2.4790361E+01
 1.4921250E+01  2.4762943E+01
 1.4932751E+01  2.4767296E+01
 1.4944251E+01  2.4733168E+01
 1.4955750E+01  2.4720039E+01
 1.4967251E+01  2.4664242E+01
 1.4978751E+01  2.4620733E+01
 1.4990251E+01  2.4571980E+01
 1.5001751E+01  2.4575882E+01
 1.5013250E+01  2.4588423E+01
 1.5024751E+01  2.4639896E+01
 1.5036251E+01  2.4634350E+01
 1.5047750E+01  2.4648554E+01
 1.5059251E+01  2.4607456E+01
 1.5070751E+01  2.4603231E+01
 1.5082251E+01  2.4550055E+01
 1.5093751E+01  2.4549259E+01
 1.5105250E+01  2.4549805E+01
 1.5116751E+01  2.4551178E+01
 1.5128251E+01  2.4542408E+01
 1.5139750E+01  2.4550436E+01
 1.5151251E+01  2.4664026E+01
 1.5162751E+01  2.4712755E+01
 1.5174251E+01  2.4776890E+01
 1.5185751E+01  2.4740711E+01
 1.5197250E+01  2.4702282E+01
 1.5208751E+01  2.4709337E+01
 1.5220251E+01  2.4684265E+01
 1.5231750E+01  2.4640520E+01
 1.5243251E+01  2.4559992E+01
 1.5254751E+01  2.4516909E+01
 1.5266251E+01  2.4461222E+01
 1.5277751E+01  2.4419580E+01
 1.5289250E+01  2.4414204E+01
 1.5300751E+01  2.4435232E+01
 1.5312251E+01  2.4407284E+01
 1.5323750E+01  2.4376333E+01
 1.5335251E+01  2.4380991E+01
 1.5346751E+01  2.4386747E+01
 1.5358251E+01  2.4367044E+01
 1.5369751E+01  2.4361116E+01
 1.5381250E+01  2.4333298E+01
 1.5392751E+01  2.4368731E+01
 1.5404251E+01  2.4367990E+01
 1.5415751E+01  2.4355986E+01
 1.5427251E+01  2.4292835E+01
 1.5438751E+01  2.4260561E+01
 1.5450251E+01  2.4256250E+01
 1.5461751E+01  2.4327061E+01
 1.5473250E+01  2.4318638E+01
 1.5484751E+01  2.4358341E+01
 1.5496251E+01  2.4357357E+01
 1.5507751E+01  2.4441267E+01
 1.5519251E+01  2.4399338E+01
 1.5530751E+01  2.4381176E+01
 1.5542251E+01  2.4320284E+01
 1.5553751E+01  2.4323225E+01
 1.5565250E+01  2.4341211E+01
 1.5576751E+01  2.4357334E+01
 1.5588251E+01  2.4396971E+01
 1.5599751E+01  2.4374012E+01
 1.5611251E+01  2.4395555E+01
 1.5622751E+01  2.4358219E+01
 1.5634251E+01  2.4295361E+01
 1.5645751E+01  2.4288992E+01
 1.5657250E+01  2.4282764E+01
 1.5668751E+01  2.4358585E+01
 1.5680251E+01  2.4355600E+01
 1.5691751E+01  2.4380850E+01
 1.5703251E+01  2.4355389E+01
 1.5714751E+01  2.4329813E+01
 1.5726251E+01  2.4335629E+01
 1.5737751E+01  2.4306425E+01
 1.5749250E+01  2.4328886E+01
 1.5760751E+01  2.4339926E+01
 1.5772251E+01  2.4393366E+01
 1.5783751E+01  2.4363237E+01
 1.5795251E+01  2.4388695E+01
 1.5806751E+01  2.4379326E+01
 1.5818251E+01  2.4395752E+01
 1.5829751E+01  2.4370779E+01
 1.5841250E+01  2.4378822E+01
 1.5852751E+01  2.4394560E+01
 1.5864251E+01  2.4353971E+01
 1.5875751E+01  2.4437378E+01
 1.5887251E+01  2.4475107E+01
 1.5898750E+01  2.4518053E+01
 1.5910251E+01  2.4474566E+01
 1.5921751E+01  2.4492283E+01
 1.5933250E+01  2.4488663E+01
 1.5944751E+01  2.4489159E+01
 1.5956251E+01  2.4487329E+01
 1.5967751E+01  2.4468309E+01
 1.5979251E+01  2.4506834E+01
 1.5990750E+01  2.4477814E+01
 1.6002251E+01  2.4497795E+01
 1.6013750E+01  2.4493107E+01
 1.6025251E+01  2.4556028E+01
 1.6036751E+01  2.4602432E+01
 1.6048250E+01  2.4610897E+01
 1.6059752E+01  2.4648071E+01
 1.6071251E+01  2.4576588E+01
 1.6082750E+01  2.4576487E+01
 1.6094252E+01  2.4530699E+01
 1.6105751E+01  2.4605949E+01
 1.6117250E+01  2.4627546E+01
 1.6128750E+01  2.4648693E+01
 1.6140251E+01  2.4645161E+01
 1.6151751E+01  2.4646902E+01
 1.6163250E+01  2.4770367E+01
 1.6174751E+01  2.4784115E+01
 1.6186251E+01  2.5175499E+01
 1.6197750E+01  2.5107895E+01
 1.6209251E+01  2.6079903E+01
 1.6220751E+01  2.6246023E+01
 1.6232250E+01  2.7727724E+01
 1.6243752E+01  2.8253098E+01
 1.6255251E+01  2.9019611E+01
 1.6266750E+01  2.9036013E+01
 1.6278252E+01  2.8015112E+01
 1.6289751E+01  2.7521185E+01
 1.6301250E+01  2.5951927E+01
 1.6312750E+01  2.5753496E+01
 1.6324251E+01  2.4886450E+01
 1.6335751E+01  2.4902843E+01
 1.6347250E+01  2.4605583E+01
 1.6358751E+01  2.4625011E+01
 1.6370251E+01  2.4516281E+01
 1.6381750E+01  2.4503511E+01
 1.6393251E+01  2.4572344E+01
 1.6404751E+01  2.4649160E+01
 1.6416250E+01  2.4800886E+01
 1.6427752E+01  2.4745745E+01
 1.6439251E+01  2.4743422E+01
 1.6450750E+01  2.4643436E+01
 1.6462252E+01  2.4619102E+01
 1.6473751E+01  2.4553326E+01
 1.6485250E+01  2.4544643E+01
 1.6496750E+01  2.4548744E+01
 1.6508251E+01  2.4537868E+01
 1.6519751E+01  2.4528759E+01
 1.6531250E+01  2.4497784E+01
 1.6542751E+01  2.4531528E+01
 1.6554251E+01  2.4498232E+01
 1.6565750E+01  2.4481476E+01
 1.6577251E+01  2.4446115E+01
 1.6588751E+01  2.4445173E+01
 1.6600250E+01  2.4449392E+01
 1.6611752E+01  2.4443020E+01
 1.6623251E+01  2.4394337E+01
 1.6634750E+01  2.4394825E+01
 1.6646252E+01  2.4343447E+01
 1.6657751E+01  2.4315096E+01
 1.6669250E+01  2.4271557E+01
 1.6680750E+01  2.4256350E+01
 1.6692251E+01  2.4256197E+01
 1.6703751E+01  2.4199816E+01
 1.6715250E+01  2.4196142E+01
 1.6726751E+01  2.4185547E+01
 1.6738251E+01  2.4234818E+01
 1.6749750E+01  2.4231640E+01
 1.6761251E+01  2.4201029E+01
 1.6772751E+01  2.4193480E+01
 1.6784250E+01  2.4169680E+01
 1.6795752E+01  2.4175182E+01
 1.6807251E+01  2.4185495E+01
 1.6818750E+01  2.4195721E+01
 1.6830252E+01  2.4178915E+01
 1.6841751E+01  2.4171303E+01
 1.6853251E+01  2.4179871E+01
 1.6864750E+01  2.4222416E+01
 1.6876251E+01  2.4230959E+01
 1.6887751E+01  2.4284203E+01
 1.6899250E+01  2.4281618E+01
 1.6910751E+01  2.4256744E+01
 1.6922251E+01  2.4215967E+01
 1.6933750E+01  2.4173616E+01
 1.6945251E+01  2.4207720E+01
 1.6956751E+01  2.4200756E+01
 1.6968250E+01  2.4196852E+01
 1.6979752E+01  2.4159328E+01
 1.6991251E+01  2.4174480E+01
 1.7002750E+01  2.4174376E+01
 1.7014252E+01  2.4456203E+01
 1.7025751E+01  2.4448404E+01
 1.7037251E+01  2.4859667E+01
 1.7048750E+01  2.5044880E+01
 1.7060251E+01  2.5009295E+01
 1.7071751E+01  2.4425840E+01
 1.7083250E+01  2.4092710E+01
 1.7094751E+01  2.4091970E+01
 1.7106251E+01  2.4049694E+01
 1.7117750E+01  2.4045776E+01
 1.7129251E+01  2.4070187E+01
 1.7140751E+01  2.4058266E+01
 1.7152250E+01  2.4029932E+01
 1.7163752E+01  2.4034147E+01
 1.7175251E+01  2.4012197E+01
 1.7186750E+01  2.4081123E+01
 1.7198252E+01  2.4068205E+01
 1.7209751E+01  2.4066378E+01
 1.7221251E+01  2.3960295E+01
 1.7232750E+01  2.3894091E+01
 1.7244251E+01  2.3861086E+01
 1.7255751E+01  2.3820299E+01
 1.7267250E+01  2.3851067E+01
 1.7278751E+01  2.3900688E+01
 1.7290251E+01  2.3984594E+01
 1.7301750E+01  2.4026861E+01
 1.7313251E+01  2.4035601E+01
 1.7324751E+01  2.4058325E+01
 1.7336250E+01  2.4011105E+01
 1.7347752E+01  2.3954456E+01
 1.7359251E+01  2.3868145E+01
 1.7370750E+01  2.3855581E+01
 1.7382252E+01  2.3856647E+01
 1.7393751E+01  2.3847191E+01
 1.7405251E+01  2.3819304E+01
 1.7416750E+01  2.3798958E+01
 1.7428251E+01  2.3770702E+01
 1.7439751E+01  2.3764383E+01
 1.7451250E+01  2.3749884E+01
 1.7462751E+01  2.3746681E+01
 1.7474251E+01  2.3726837E+01
 1.7485750E+01  2.3694906E+01
 1.7497252E+01  2.3679577E+01
 1.7508751E+01  2.3640999E+01
 1.7520250E+01  2.3605268E+01
 1.7531752E+01  2.3590910E+01
 1.7543251E+01  2.3628149E+01
 1.7554750E+01  2.3647631E+01
 1.7566252E+01  2.3588030E+01
 1.7577751E+01  2.3558558E+01
 1.7589251E+01  2.3577770E+01
 1.7600750E+01  2.3731955E+01
 1.7612251E+01  2.3771015E+01
 1.7623751E+01  2.3799232E+01
 1.7635250E+01  2.3721399E+01
 1.7646751E+01  2.3701950E+01
 1.7658251E+01  2.3637611E+01
 1.7669750E+01  2.3643148E+01
 1.7681252E+01  2.3647301E+01
 1.7692751E+01  2.3671812E+01
 1.7704250E+01  2.3631290E+01
 1.7715752E+01  2.3554167E+01
 1.7727251E+01  2.3512371E+01
 1.7738750E+01  2.3494913E+01
 1.7750252E+01  2.3490252E+01
 1.7761751E+01  2.3491417E+01
 1.7773251E+01  2.3543251E+01
 1.7784750E+01  2.3566460E+01
 1.7796251E+01  2.3623619E+01
 1.7807751E+01  2.3597523E+01
 1.7819250E+01  2.3568596E+01
 1.7830751E+01  2.3485077E+01
 1.7842251E+01  2.3463572E+01
 1.7853750E+01  2.3479143E+01
 1.7865252E+01  2.3479101E+01
 1.7876751E+01  2.3513758E+01
 1.7888250E+01  2.3454781E+01
 1.7899752E+01  2.3438990E+01
 1.7911251E+01  2.3473768E+01
 1.7922750E+01  2.3549725E+01
 1.7934252E+01  2.3524700E+01
 1.7945751E+01  2.3496363E+01
 1.7957251E+01  2.3459669E+01
 1.7968750E+01  2.3494081E+01
 1.7980251E+01  2.3561043E+01
 1.7991751E+01  2.3621120E+01
 1.8003250E+01  2.3670774E+01
 1.8014751E+01  2.3634798E+01
 1.8026251E+01  2.3607964E+01
 1.8037750E+01  2.3590725E+01
 1.8049252E+01  2.3620440E+01
 1.8060751E+01  2.3659010E+01
 1.8072250E+01  2.3651596E+01
 1.8083752E+01  2.3722296E+01
 1.8095251E+01  2.3815031E+01
 1.8106750E+01  2.3870480E+01
 1.8118252E+01  2.3867737E+01
 1.8129751E+01  2.3801676E+01
 1.8141251E+01  2.3757687E+01
 1.8152750E+01  2.3636616E+01
 1.8164251E+01  2.3517969E+01
 1.8175751E+01  2.3394655E+01
 1.8187250E+01  2.3316122E+01
 1.8198751E+01  2.3312639E+01
 1.8210251E+01  2.3331345E+01
 1.8221750E+01  2.3390324E+01
 1.8233252E+01  2.3403044E+01
 1.8244751E+01  2.3402626E+01
 1.8256250E+01  2.3400517E+01
 1.8267752E+01  2.3403843E+01
 1.8279251E+01  2.3395603E+01
 1.8290751E+01  2.3363045E+01
 1.8302252E+01  2.3335106E+01
 1.8313751E+01  2.3336733E+01
 1.8325251E+01  2.3308891E+01
 1.8336750E+01  2.3355871E+01
 1.8348251E+01  2.3430372E+01
 1.8359751E+01  2.3535261E+01
 1.8371250E+01  2.3532972E+01
 1.8382751E+01  2.3508242E+01
 1.8394251E+01  2.3472765E+01
 1.8405750E+01  2.3440502E+01
 1.8417252E+01  2.3407484E+01
 1.8428751E+01  2.3365713E+01
 1.8440250E+01  2.3351688E+01
 1.8451752E+01  2.3345726E+01
 1.8463251E+01  2.3364470E+01
 1.8474751E+01  2.3427540E+01
 1.8486252E+01  2.3471806E+01
 1.8497751E+01  2.3508619E+01
 1.8509251E+01  2.3520258E+01
 1.8520750E+01  2.3479317E+01
 1.8532251E+01  2.3407383E+01
 1.8543751E+01  2.3296692E+01
 1.8555250E+01  2.3268290E+01
 1.8566751E+01  2.3280119E+01
 1.8578251E+01  2.3284504E+01
 1.8589750E+01  2.3297159E+01
 1.8601252E+01  2.3275589E+01
 1.8612751E+01  2.3293577E+01
 1.8624250E+01  2.3289892E+01
 1.8635752E+01  2.3309671E+01
 1.8647251E+01  2.3280537E+01
 1.8658751E+01  2.3265223E+01
 1.8670252E+01  2.3250500E+01
 1.8681751E+01  2.3224174E+01
 1.8693251E+01  2.3202026E+01
 1.8704750E+01  2.3179626E+01
 1.8716251E+01  2.3187948E+01
 1.8727751E+01  2.3182884E+01
 1.8739250E+01  2.3186604E+01
 1.8750751E+01  2.3215788E+01
 1.8762251E+01  2.3227001E+01
 1.8773750E+01  2.3261129E+01
 1.8785252E+01  2.3283792E+01
 1.8796751E+01  2.3341825E+01
 1.8808250E+01  2.3341997E+01
 1.8819752E+01  2.3352215E+01
 1.8831251E+01  2.3301783E+01
 1.8842751E+01  2.3299356E+01
 1.8854252E+01  2.3276981E+01
 1.8865751E+01  2.3272575E+01
 1.8877251E+01  2.3312397E+01
 1.8888750E+01  2.3324896E+01
 1.8900251E+01  2.3318727E+01
 1.8911751E+01  2.3306309E+01
 1.8923250E+01  2.3328241E+01
 1.8934752E+01  2.3353271E+01
 1.8946251E+01  2.3370644E+01
 1.8957750E+01  2.3349573E+01
 1.8969252E+01  2.3302170E+01
 1.8980751E+01  2.3272425E+01
 1.8992250E+01  2.3273502E+01
 1.9003752E+01  2.3275707E+01
 1.9015251E+01  2.3284607E+01
 1.9026751E+01  2.3263920E+01
 1.9038252E+01  2.3232004E+01
 1.9049751E+01  2.3180071E+01
 1.9061251E+01  2.3232191E+01
 1.9072750E+01  2.3269375E+01
 1.9084251E+01  2.3306694E+01
 1.9095751E+01  2.3263136E+01
 1.9107250E+01  2.3227022E+01
 1.9118752E+01  2.3196770E+01
 1.9130251E+01  2.3240767E+01
 1.9141750E+01  2.3255211E+01
 1.9153252E+01  2.3274899E+01
 1.9164751E+01  2.3213274E+01
 1.9176250E+01  2.3208729E+01
 1.9187752E+01  2.3200241E+01
 1.9199251E+01  2.3225706E+01
 1.9210751E+01  2.3288963E+01
 1.9222252E+01  2.3272238E+01
 1.9233751E+01  2.3226198E+01
 1.9245251E+01  2.3168245E+01
 1.9256750E+01  2.3221689E+01
 1.9268251E+01  2.3262625E+01
 1.9279751E+01  2.3240702E+01
 1.9291250E+01  2.3276234E+01
 1.9302752E+01  2.3278698E+01
 1.9314251E+01  2.3332392E+01
 1.9325750E+01  2.3339914E+01
 1.9337252E+01  2.3357618E+01
 1.9348751E+01  2.3342655E+01
 1.9360250E+01  2.3328794E+01
 1.9371752E+01  2.3342501E+01
 1.9383251E+01  2.3338140E+01
 1.9394751E+01  2.3385208E+01
 1.9406250E+01  2.3414543E+01
 1.9417751E+01  2.3409250E+01
 1.9429251E+01  2.3386641E+01
 1.9440750E+01  2.3334335E+01
 1.9452251E+01  2.3302439E+01
 1.9463751E+01  2.3246973E+01
 1.9475250E+01  2.3255611E+01
 1.9486752E+01  2.3258362E+01
 1.9498251E+01  2.3300047E+01
 1.9509750E+01  2.3301813E+01
 1.9521252E+01  2.3372135E+01
 1.9532751E+01  2.3512209E+01
 1.9544250E+01  2.3881044E+01
 1.9555752E+01  2.3947979E+01
 1.9567251E+01  2.4053286E+01
 1.9578751E+01  2.3901152E+01
 1.9590250E+01  2.3841055E+01
 1.9601751E+01  2.3577171E+01
 1.9613251E+01  2.3512878E+01
 1.9624750E+01  2.3534048E+01
 1.9636251E+01  2.3562643E+01
 1.9647751E+01  2.3592451E+01
 1.9659250E+01  2.3662151E+01
 1.9670752E+01  2.3713863E+01
 1.9682251E+01  2.3796162E+01
 1.9693750E+01  2.3853039E+01
 1.9705252E+01  2.3912489E+01
 1.9716751E+01  2.3896400E+01
 1.9728251E+01  2.3900921E+01
 1.9739752E+01  2.3927994E+01
 1.9751251E+01  2.3949694E+01
 1.9762751E+01  2.3885553E+01
 1.9774250E+01  2.3803873E+01
 1.9785751E+01  2.3797029E+01
 1.9797251E+01  2.3805889E+01
 1.9808750E+01  2.3847424E+01
 1.9820251E+01  2.3885313E+01
 1.9831751E+01  2.4009304E+01
 1.9843250E+01  2.4082169E+01
 1.9854752E+01  2.4182278E+01
 1.9866251E+01  2.4232557E+01
 1.9877750E+01  2.4272270E+01
 1.9889252E+01  2.4247166E+01
 1.9900751E+01  2.4125454E+01
 1.9912251E+01  2.3966585E+01
 1.9923752E+01  2.3769138E+01
 1.9935251E+01  2.3622805E+01
 1.9946751E+01  2.3528368E+01
 1.9958250E+01  2.3481668E+01
 1.9969751E+01  2.3505800E+01
 1.9981251E+01  2.3483295E+01
 1.9992750E+01  2.3536079E+01
 2.0004251E+01  2.3544937E+01
 2.0015751E+01  2.3553745E+01
 2.0027250E+01  2.3531246E+01
 2.0038752E+01  2.3521524E+01
 2.0050251E+01  2.3519754E+01
 2.0061750E+01  2.3490761E+01
 2.0073252E+01  2.3491451E+01
 2.0084751E+01  2.3508240E+01
 2.0096251E+01  2.3563736E+01
 2.0107752E+01  2.3610676E+01
 2.0119251E+01  2.3616787E+01
 2.0130751E+01  2.3548962E+01
 2.0142250E+01  2.3452625E+01
 2.0153751E+01  2.3414007E+01
 2.0165251E+01  2.3388983E+01
 2.0176750E+01  2.3405098E+01
 2.0188251E+01  2.3391184E+01
 2.0199751E+01  2.3360498E+01
 2.0211250E+01  2.3389126E+01
 2.0222752E+01  2.3379642E+01
 2.0234251E+01  2.3399321E+01
 2.0245750E+01  2.3387665E+01
 2.0257252E+01  2.3384787E+01
 2.0268751E+01  2.3368177E+01
 2.0280251E+01  2.3379139E+01
 2.0291752E+01  2.3405254E+01
 2.0303251E+01  2.3402422E+01
 2.0314751E+01  2.3378489E+01
 2.0326250E+01  2.3367538E+01
 2.0337751E+01  2.3349360E+01
 2.0349251E+01  2.3345930E+01
 2.0360750E+01  2.3387815E+01
 2.0372252E+01  2.3457008E+01
 2.0383751E+01  2.3487381E+01
 2.0395250E+01  2.3540108E+01
 2.0406752E+01  2.3553743E+01
 2.0418251E+01  2.3588430E+01
 2.0429750E+01  2.3583786E+01
 2.0441252E+01  2.3594360E+01
 2.0452751E+01  2.3633173E+01
 2.0464251E+01  2.3647425E+01
 2.0475752E+01  2.3669420E+01
 2.0487251E+01  2.3633390E+01
 2.0498751E+01  2.3590010E+01
 2.0510250E+01  2.3556105E+01
 2.0521751E+01  2.3516577E+01
 2.0533251E+01  2.3484783E+01
 2.0544750E+01  2.3458942E+01
 2.0556252E+01  2.3520296E+01
 2.0567751E+01  2.3486853E+01
 2.0579250E+01  2.3459629E+01
 2.0590752E+01  2.3428049E+01
 2.0602251E+01  2.3474527E+01
 2.0613750E+01  2.3509312E+01
 2.0625252E+01  2.3545336E+01
 2.0636751E+01  2.3569113E+01
 2.0648251E+01  2.3575802E+01
 2.0659752E+01  2.3571079E+01
 2.0671251E+01  2.3562107E+01
 2.0682751E+01  2.3591965E+01
 2.0694250E+01  2.3653280E+01
 2.0705751E+01  2.3734732E+01
 2.0717251E+01  2.3776979E+01
 2.0728750E+01  2.3852110E+01
 2.0740252E+01  2.3936834E+01
 2.0751751E+01  2.4057220E+01
 2.0763250E+01  2.4078308E+01
 2.0774752E+01  2.4057362E+01
 2.0786251E+01  2.4005228E+01
 2.0797750E+01  2.3966400E+01
 2.0809252E+01  2.3885702E+01
 2.0820751E+01  2.3813976E+01
 2.0832251E+01  2.3742882E+01
 2.0843752E+01  2.3722872E+01
 2.0855251E+01  2.3716938E+01
 2.0866751E+01  2.3697012E+01
 2.0878250E+01  2.3662052E+01
 2.0889751E+01  2.3639114E+01
 2.0901251E+01  2.3632339E+01
 2.0912750E+01  2.3589787E+01
 2.0924252E+01  2.3577221E+01
 2.0935751E+01  2.3559067E+01
 2.0947250E+01  2.3563272E+01
 2.0958752E+01  2.3578350E+01
 2.0970251E+01  2.3610630E+01
 2.0981750E+01  2.3595432E+01
 2.0993252E+01  2.3581963E+01
 2.1004751E+01  2.3563032E+01
 2.1016251E+01  2.3520720E+01
 2.1027752E+01  2.3531553E+01
 2.1039251E+01  2.3542822E+01
 2.1050751E+01  2.3565891E+01
 2.1062250E+01  2.3593510E+01
 2.1073751E+01  2.3678047E+01
 2.1085251E+01  2.3679808E+01
 2.1096750E+01  2.3611071E+01
 2.1108252E+01  2.3595848E+01
 2.1119751E+01  2.3620066E+01
 2.1131250E+01  2.3619167E+01
 2.1142752E+01  2.3579378E+01
 2.1154251E+01  2.3538687E+01
 2.1165751E+01  2.3526545E+01
 2.1177252E+01  2.3549345E+01
 2.1188751E+01  2.3549686E+01
 2.1200251E+01  2.3550835E+01
 2.1211752E+01  2.3544464E+01
 2.1223251E+01  2.3545567E+01
 2.1234751E+01  2.3563231E+01
 2.1246250E+01  2.3651722E+01
 2.1257751E+01  2.3676577E+01
 2.1269251E+01  2.3678055E+01
 2.1280750E+01  2.3645452E+01
 2.1292252E+01  2.3671593E+01
 2.1303751E+01  2.3630266E+01
 2.1315250E+01  2.3613033E+01
 2.1326752E+01  2.3625261E+01
 2.1338251E+01  2.3697439E+01
 2.1349751E+01  2.3760452E+01
 2.1361252E+01  2.3810062E+01
 2.1372751E+01  2.3794430E+01
 2.1384251E+01  2.3719751E+01
 2.1395752E+01  2.3691488E+01
 2.1407251E+01  2.3706676E+01
 2.1418751E+01  2.3709755E+01
 2.1430250E+01  2.3708488E+01
 2.1441751E+01  2.3736408E+01
 2.1453251E+01  2.3802372E+01
 2.1464750E+01  2.3824480E+01
 2.1476252E+01  2.3795839E+01
 2.1487751E+01  2.3774895E+01
 2.1499250E+01  2.3761820E+01
 2.1510752E+01  2.3799238E+01
 2.1522251E+01  2.3844276E+01
 2.1533751E+01  2.3888313E+01
 2.1545252E+01  2.3890343E+01
 2.1556751E+01  2.3838997E+01
 2.1568251E+01  2.3789827E+01
 2.1579752E+01  2.3750635E+01
 2.1591251E+01  2.3727255E+01
 2.1602751E+01  2.3738865E+01
 2.1614250E+01  2.3781296E+01
 2.1625751E+01  2.3814665E+01
 2.1637251E+01  2.3883780E+01
 2.1648750E+01  2.3907948E+01
 2.1660252E+01  2.3901941E+01
 2.1671751E+01  2.3875002E+01
 2.1683250E+01  2.3867159E+01
 2.1694752E+01  2.3890467E+01
 2.1706251E+01  2.3898188E+01
 2.1717751E+01  2.3887606E+01
 2.1729252E+01  2.3849234E+01
 2.1740751E+01  2.3859524E+01
 2.1752251E+01  2.3816748E+01
 2.1763752E+01  2.3805470E+01
 2.1775251E+01  2.3767962E+01
 2.1786751E+01  2.3828184E+01
 2.1798250E+01  2.3876871E+01
 2.1809752E+01  2.3954973E+01
 2.1821251E+01  2.3990089E+01
 2.1832750E+01  2.3962471E+01
 2.1844252E+01  2.3921059E+01
 2.1855751E+01  2.3917753E+01
 2.1867250E+01  2.3966425E+01
 2.1878752E+01  2.4034101E+01
 2.1890251E+01  2.4058893E+01
 2.1901751E+01  2.4083565E+01
 2.1913252E+01  2.4106691E+01
 2.1924751E+01  2.4053549E+01
 2.1936251E+01  2.4051422E+01
 2.1947752E+01  2.4054716E+01
 2.1959251E+01  2.4062471E+01
 2.1970751E+01  2.4032633E+01
 2.1982250E+01  2.4029266E+01
 2.1993752E+01  2.4021351E+01
 2.2005251E+01  2.3986721E+01
 2.2016750E+01  2.3969007E+01
 2.2028252E+01  2.3949600E+01
 2.2039751E+01  2.3976160E+01
 2.2051250E+01  2.4010782E+01
 2.2062752E+01  2.4015028E+01
 2.2074251E+01  2.4019238E+01
 2.2085751E+01  2.4026684E+01
 2.2097252E+01  2.4062267E+01
 2.2108751E+01  2.4097021E+01
 2.2120251E+01  2.4163372E+01
 2.2131752E+01  2.4171503E+01
 2.2143251E+01  2.4165020E+01
 2.2154751E+01  2.4130318E+01
 2.2166250E+01  2.4123514E+01
 2.2177752E+01  2.4149515E+01
 2.2189251E+01  2.4146688E+01
 2.2200750E+01  2.4147688E+01
 2.2212252E+01  2.4139868E+01
 2.2223751E+01  2.4161236E+01
 2.2235250E+01  2.4188869E+01
 2.2246752E+01  2.4220671E+01
 2.2258251E+01  2.4222286E+01
 2.2269751E+01  2.4228163E+01
 2.2281252E+01  2.4266380E+01
 2.2292751E+01  2.4291370E+01
 2.2304251E+01  2.4331984E+01
 2.2315752E+01  2.4333385E+01
 2.2327251E+01  2.4290602E+01
 2.2338751E+01  2.4269985E+01
 2.2350250E+01  2.4316809E+01
 2.2361752E+01  2.4344402E+01
 2.2373251E+01  2.4357487E+01
 2.2384750E+01  2.4367294E+01
 2.2396252E+01  2.4295565E+01
 2.2407751E+01  2.4235548E+01
 2.2419250E+01  2.4169373E+01
 2.2430752E+01  2.4247789E+01
 2.2442251E+01  2.4341917E+01
 2.2453751E+01  2.4437973E+01
 2.2465252E+01  2.4435238E+01
 2.2476751E+01  2.4392967E+01
 2.2488251E+01  2.4384407E+01
 2.2499752E+01  2.4398396E+01
 2.2511251E+01  2.4452240E+01
 2.2522751E+01  2.4497650E+01
 2.2534250E+01  2.4541739E+01
 2.2545752E+01  2.4597742E+01
 2.2557251E+01  2.4606859E+01
 2.2568750E+01  2.4592470E+01
 2.2580252E+01  2.4613272E+01
 2.2591751E+01  2.4624266E+01
 2.2603251E+01  2.4641727E+01
 2.2614752E+01  2.4692410E+01
 2.2626251E+01  2.4733210E+01
 2.2637751E+01  2.4759203E+01
 2.2649252E+01  2.4763645E+01
 2.2660751E+01  2.4792053E+01
 2.2672251E+01  2.4841352E+01
 2.2683752E+01  2.4906527E+01
 2.2695251E+01  2.4963425E+01
 2.2706751E+01  2.4965710E+01
 2.2718250E+01  2.4916632E+01
 2.2729752E+01  2.4891508E+01
 2.2741251E+01  2.4892464E+01
 2.2752750E+01  2.4948616E+01
 2.2764252E+01  2.4994745E+01
 2.2775751E+01  2.5071983E+01
 2.2787251E+01  2.5106972E+01
 2.2798752E+01  2.5165462E+01
 2.2810251E+01  2.5230001E+01
 2.2821751E+01  2.5281195E+01
 2.2833252E+01  2.5318766E+01
 2.2844751E+01  2.5275436E+01
 2.2856251E+01  2.5234739E+01
 2.2867750E+01  2.5307957E+01
 2.2879251E+01  2.5402447E+01
 2.2890751E+01  2.5533579E+01
 2.2902250E+01  2.5542320E+01
 2.2913752E+01  2.5632816E+01
 2.2925251E+01  2.5651077E+01
 2.2936750E+01  2.5690771E+01
 2.2948252E+01  2.5700886E+01
 2.2959751E+01  2.5712015E+01
 2.2971251E+01  2.5779713E+01
 2.2982752E+01  2.5901714E+01
 2.2994251E+01  2.6047777E+01
