F:\20151113_APS_34IDE\\Brian\Particle1\OCV\Data_0011.tif
2-Theta Angle (Degrees)
Intensity
       2000
 5.7500005E-03  0.0000000E+00
 1.7250001E-02  0.0000000E+00
 2.8750001E-02  0.0000000E+00
 4.0250003E-02  0.0000000E+00
 5.1750004E-02  0.0000000E+00
 6.3250005E-02  0.0000000E+00
 7.4750006E-02  0.0000000E+00
 8.6250007E-02  0.0000000E+00
 9.7750008E-02  0.0000000E+00
 1.0925001E-01  0.0000000E+00
 1.2075000E-01  0.0000000E+00
 1.3225001E-01  0.0000000E+00
 1.4375001E-01  0.0000000E+00
 1.5525001E-01  0.0000000E+00
 1.6675001E-01  0.0000000E+00
 1.7825001E-01  0.0000000E+00
 1.8975002E-01  0.0000000E+00
 2.0125002E-01  0.0000000E+00
 2.1275002E-01  0.0000000E+00
 2.2425000E-01  0.0000000E+00
 2.3575000E-01  0.0000000E+00
 2.4725001E-01  0.0000000E+00
 2.5875002E-01  0.0000000E+00
 2.7025002E-01  0.0000000E+00
 2.8175002E-01  0.0000000E+00
 2.9325002E-01  0.0000000E+00
 3.0475003E-01  0.0000000E+00
 3.1625003E-01  0.0000000E+00
 3.2775003E-01  0.0000000E+00
 3.3925003E-01  0.0000000E+00
 3.5075003E-01  0.0000000E+00
 3.6225003E-01  0.0000000E+00
 3.7375003E-01  0.0000000E+00
 3.8525003E-01  0.0000000E+00
 3.9675003E-01  0.0000000E+00
 4.0825003E-01  0.0000000E+00
 4.1975003E-01  0.0000000E+00
 4.3125004E-01  0.0000000E+00
 4.4275001E-01  0.0000000E+00
 4.5425001E-01  0.0000000E+00
 4.6575001E-01  0.0000000E+00
 4.7725001E-01  0.0000000E+00
 4.8875001E-01  0.0000000E+00
 5.0025004E-01  0.0000000E+00
 5.1175004E-01  0.0000000E+00
 5.2325004E-01  0.0000000E+00
 5.3475004E-01  0.0000000E+00
 5.4625005E-01  0.0000000E+00
 5.5775005E-01  0.0000000E+00
 5.6925005E-01  0.0000000E+00
 5.8075005E-01  0.0000000E+00
 5.9225005E-01  0.0000000E+00
 6.0375005E-01  0.0000000E+00
 6.1525005E-01  0.0000000E+00
 6.2675005E-01  0.0000000E+00
 6.3825005E-01  0.0000000E+00
 6.4975005E-01  0.0000000E+00
 6.6125005E-01  0.0000000E+00
 6.7275006E-01  0.0000000E+00
 6.8425006E-01  0.0000000E+00
 6.9575006E-01  0.0000000E+00
 7.0725006E-01  0.0000000E+00
 7.1875006E-01  0.0000000E+00
 7.3025006E-01  0.0000000E+00
 7.4175006E-01  0.0000000E+00
 7.5325006E-01  0.0000000E+00
 7.6475006E-01  0.0000000E+00
 7.7625006E-01  0.0000000E+00
 7.8775007E-01  0.0000000E+00
 7.9925007E-01  0.0000000E+00
 8.1075007E-01  0.0000000E+00
 8.2225007E-01  0.0000000E+00
 8.3375007E-01  0.0000000E+00
 8.4525007E-01  0.0000000E+00
 8.5675007E-01  0.0000000E+00
 8.6825007E-01  0.0000000E+00
 8.7975001E-01  0.0000000E+00
 8.9125001E-01  0.0000000E+00
 9.0275002E-01  0.0000000E+00
 9.1425002E-01  0.0000000E+00
 9.2575002E-01  0.0000000E+00
 9.3725002E-01  0.0000000E+00
 9.4875002E-01  0.0000000E+00
 9.6025002E-01  0.0000000E+00
 9.7175002E-01  0.0000000E+00
 9.8325002E-01  0.0000000E+00
 9.9475002E-01  0.0000000E+00
 1.0062500E+00  0.0000000E+00
 1.0177500E+00  0.0000000E+00
 1.0292500E+00  0.0000000E+00
 1.0407500E+00  0.0000000E+00
 1.0522500E+00  0.0000000E+00
 1.0637500E+00  0.0000000E+00
 1.0752500E+00  0.0000000E+00
 1.0867500E+00  0.0000000E+00
 1.0982500E+00  0.0000000E+00
 1.1097500E+00  0.0000000E+00
 1.1212500E+00  0.0000000E+00
 1.1327500E+00  0.0000000E+00
 1.1442500E+00  0.0000000E+00
 1.1557500E+00  0.0000000E+00
 1.1672500E+00  0.0000000E+00
 1.1787500E+00  0.0000000E+00
 1.1902500E+00  0.0000000E+00
 1.2017500E+00  0.0000000E+00
 1.2132500E+00  0.0000000E+00
 1.2247500E+00  0.0000000E+00
 1.2362500E+00  0.0000000E+00
 1.2477500E+00  0.0000000E+00
 1.2592500E+00  0.0000000E+00
 1.2707500E+00  0.0000000E+00
 1.2822500E+00  0.0000000E+00
 1.2937500E+00  0.0000000E+00
 1.3052500E+00  0.0000000E+00
 1.3167500E+00  0.0000000E+00
 1.3282501E+00  0.0000000E+00
 1.3397501E+00  0.0000000E+00
 1.3512501E+00  0.0000000E+00
 1.3627501E+00  0.0000000E+00
 1.3742501E+00  0.0000000E+00
 1.3857501E+00  0.0000000E+00
 1.3972501E+00  0.0000000E+00
 1.4087501E+00  0.0000000E+00
 1.4202501E+00  0.0000000E+00
 1.4317501E+00  0.0000000E+00
 1.4432501E+00  0.0000000E+00
 1.4547501E+00  0.0000000E+00
 1.4662501E+00  0.0000000E+00
 1.4777501E+00  0.0000000E+00
 1.4892501E+00  0.0000000E+00
 1.5007501E+00  0.0000000E+00
 1.5122501E+00  0.0000000E+00
 1.5237501E+00  0.0000000E+00
 1.5352501E+00  0.0000000E+00
 1.5467501E+00  0.0000000E+00
 1.5582501E+00  0.0000000E+00
 1.5697501E+00  0.0000000E+00
 1.5812501E+00  0.0000000E+00
 1.5927501E+00  0.0000000E+00
 1.6042501E+00  0.0000000E+00
 1.6157501E+00  0.0000000E+00
 1.6272501E+00  0.0000000E+00
 1.6387501E+00  0.0000000E+00
 1.6502501E+00  0.0000000E+00
 1.6617501E+00  0.0000000E+00
 1.6732501E+00  0.0000000E+00
 1.6847501E+00  0.0000000E+00
 1.6962501E+00  0.0000000E+00
 1.7077501E+00  0.0000000E+00
 1.7192501E+00  0.0000000E+00
 1.7307501E+00  0.0000000E+00
 1.7422501E+00  0.0000000E+00
 1.7537501E+00  0.0000000E+00
 1.7652501E+00  0.0000000E+00
 1.7767501E+00  0.0000000E+00
 1.7882501E+00  0.0000000E+00
 1.7997501E+00  0.0000000E+00
 1.8112501E+00  0.0000000E+00
 1.8227501E+00  0.0000000E+00
 1.8342501E+00  0.0000000E+00
 1.8457501E+00  0.0000000E+00
 1.8572501E+00  0.0000000E+00
 1.8687501E+00  0.0000000E+00
 1.8802501E+00  0.0000000E+00
 1.8917501E+00  0.0000000E+00
 1.9032501E+00  0.0000000E+00
 1.9147501E+00  0.0000000E+00
 1.9262501E+00  0.0000000E+00
 1.9377501E+00  0.0000000E+00
 1.9492501E+00  0.0000000E+00
 1.9607501E+00  0.0000000E+00
 1.9722501E+00  0.0000000E+00
 1.9837501E+00  0.0000000E+00
 1.9952501E+00  0.0000000E+00
 2.0067501E+00  0.0000000E+00
 2.0182500E+00  0.0000000E+00
 2.0297501E+00  0.0000000E+00
 2.0412500E+00  0.0000000E+00
 2.0527501E+00  0.0000000E+00
 2.0642500E+00  0.0000000E+00
 2.0757501E+00  0.0000000E+00
 2.0872500E+00  0.0000000E+00
 2.0987501E+00  0.0000000E+00
 2.1102500E+00  0.0000000E+00
 2.1217501E+00  0.0000000E+00
 2.1332500E+00  0.0000000E+00
 2.1447501E+00  0.0000000E+00
 2.1562500E+00  0.0000000E+00
 2.1677501E+00  0.0000000E+00
 2.1792500E+00  0.0000000E+00
 2.1907501E+00  0.0000000E+00
 2.2022500E+00  0.0000000E+00
 2.2137501E+00  0.0000000E+00
 2.2252500E+00  0.0000000E+00
 2.2367501E+00  0.0000000E+00
 2.2482500E+00  0.0000000E+00
 2.2597501E+00  0.0000000E+00
 2.2712500E+00  0.0000000E+00
 2.2827501E+00  0.0000000E+00
 2.2942500E+00  0.0000000E+00
 2.3057501E+00  0.0000000E+00
 2.3172500E+00  0.0000000E+00
 2.3287501E+00  0.0000000E+00
 2.3402500E+00  0.0000000E+00
 2.3517501E+00  0.0000000E+00
 2.3632500E+00  0.0000000E+00
 2.3747501E+00  0.0000000E+00
 2.3862500E+00  0.0000000E+00
 2.3977501E+00  0.0000000E+00
 2.4092500E+00  0.0000000E+00
 2.4207501E+00  0.0000000E+00
 2.4322500E+00  0.0000000E+00
 2.4437501E+00  0.0000000E+00
 2.4552500E+00  0.0000000E+00
 2.4667501E+00  0.0000000E+00
 2.4782500E+00  0.0000000E+00
 2.4897501E+00  0.0000000E+00
 2.5012500E+00  0.0000000E+00
 2.5127501E+00  0.0000000E+00
 2.5242500E+00  0.0000000E+00
 2.5357502E+00  0.0000000E+00
 2.5472500E+00  0.0000000E+00
 2.5587502E+00  0.0000000E+00
 2.5702500E+00  0.0000000E+00
 2.5817502E+00  0.0000000E+00
 2.5932500E+00  0.0000000E+00
 2.6047502E+00  0.0000000E+00
 2.6162500E+00  0.0000000E+00
 2.6277502E+00  0.0000000E+00
 2.6392500E+00  0.0000000E+00
 2.6507502E+00  0.0000000E+00
 2.6622500E+00  0.0000000E+00
 2.6737502E+00  0.0000000E+00
 2.6852500E+00  0.0000000E+00
 2.6967502E+00  0.0000000E+00
 2.7082500E+00  0.0000000E+00
 2.7197502E+00  0.0000000E+00
 2.7312500E+00  0.0000000E+00
 2.7427502E+00  0.0000000E+00
 2.7542500E+00  0.0000000E+00
 2.7657502E+00  0.0000000E+00
 2.7772501E+00  0.0000000E+00
 2.7887502E+00  0.0000000E+00
 2.8002501E+00  0.0000000E+00
 2.8117502E+00  0.0000000E+00
 2.8232501E+00  3.5735058E+01
 2.8347502E+00  3.5383766E+01
 2.8462501E+00  3.6539486E+01
 2.8577502E+00  3.6630775E+01
 2.8692501E+00  3.6499004E+01
 2.8807502E+00  3.6180260E+01
 2.8922501E+00  3.5773438E+01
 2.9037502E+00  3.5649826E+01
 2.9152501E+00  3.5587540E+01
 2.9267502E+00  3.5193096E+01
 2.9382501E+00  3.5268780E+01
 2.9497502E+00  3.4909420E+01
 2.9612501E+00  3.5092594E+01
 2.9727502E+00  3.4938236E+01
 2.9842501E+00  3.4830788E+01
 2.9957502E+00  3.4779709E+01
 3.0072501E+00  3.4449478E+01
 3.0187502E+00  3.4612637E+01
 3.0302501E+00  3.4608158E+01
 3.0417502E+00  3.4605141E+01
 3.0532501E+00  3.4465076E+01
 3.0647502E+00  3.4374798E+01
 3.0762501E+00  3.4511974E+01
 3.0877502E+00  3.4738235E+01
 3.0992501E+00  3.4992638E+01
 3.1107502E+00  3.5042187E+01
 3.1222501E+00  3.5045635E+01
 3.1337502E+00  3.4975491E+01
 3.1452501E+00  3.4996742E+01
 3.1567502E+00  3.4972790E+01
 3.1682501E+00  3.4849831E+01
 3.1797502E+00  3.4833374E+01
 3.1912501E+00  3.5148033E+01
 3.2027502E+00  3.5434963E+01
 3.2142501E+00  3.5674660E+01
 3.2257502E+00  3.6020462E+01
 3.2372501E+00  3.5708702E+01
 3.2487502E+00  3.5740742E+01
 3.2602501E+00  3.5375889E+01
 3.2717502E+00  3.5232082E+01
 3.2832501E+00  3.4790951E+01
 3.2947502E+00  3.4764481E+01
 3.3062501E+00  3.4571709E+01
 3.3177502E+00  3.4638767E+01
 3.3292501E+00  3.4310257E+01
 3.3407502E+00  3.4031425E+01
 3.3522501E+00  3.3912231E+01
 3.3637502E+00  3.3794727E+01
 3.3752501E+00  3.3825993E+01
 3.3867502E+00  3.3816174E+01
 3.3982501E+00  3.3998383E+01
 3.4097502E+00  3.4275463E+01
 3.4212501E+00  3.4691971E+01
 3.4327502E+00  3.4618000E+01
 3.4442501E+00  3.4373062E+01
 3.4557502E+00  3.4153381E+01
 3.4672501E+00  3.4142136E+01
 3.4787502E+00  3.4499729E+01
 3.4902501E+00  3.4877987E+01
 3.5017502E+00  3.5128689E+01
 3.5132501E+00  3.5030170E+01
 3.5247502E+00  3.4721603E+01
 3.5362501E+00  3.4505772E+01
 3.5477502E+00  3.4406990E+01
 3.5592501E+00  3.4313725E+01
 3.5707502E+00  3.4189236E+01
 3.5822501E+00  3.4174934E+01
 3.5937502E+00  3.4038349E+01
 3.6052501E+00  3.4085472E+01
 3.6167502E+00  3.4066097E+01
 3.6282501E+00  3.4195156E+01
 3.6397502E+00  3.4205376E+01
 3.6512501E+00  3.4162006E+01
 3.6627502E+00  3.4098209E+01
 3.6742501E+00  3.3732132E+01
 3.6857502E+00  3.3540604E+01
 3.6972501E+00  3.3177513E+01
 3.7087502E+00  3.2830158E+01
 3.7202501E+00  3.2707558E+01
 3.7317502E+00  3.2743824E+01
 3.7432501E+00  3.2803993E+01
 3.7547503E+00  3.3045116E+01
 3.7662501E+00  3.3007824E+01
 3.7777503E+00  3.3159054E+01
 3.7892501E+00  3.2849567E+01
 3.8007503E+00  3.2762695E+01
 3.8122501E+00  3.2849072E+01
 3.8237503E+00  3.2754982E+01
 3.8352501E+00  3.2973400E+01
 3.8467503E+00  3.3004501E+01
 3.8582501E+00  3.3039387E+01
 3.8697503E+00  3.2713722E+01
 3.8812501E+00  3.2719364E+01
 3.8927503E+00  3.2614361E+01
 3.9042501E+00  3.2732876E+01
 3.9157503E+00  3.2749821E+01
 3.9272501E+00  3.2831047E+01
 3.9387503E+00  3.3048500E+01
 3.9502501E+00  3.3084087E+01
 3.9617503E+00  3.3072014E+01
 3.9732502E+00  3.3304443E+01
 3.9847503E+00  3.3123466E+01
 3.9962502E+00  3.3189102E+01
 4.0077500E+00  3.2823174E+01
 4.0192504E+00  3.2544956E+01
 4.0307503E+00  3.2290527E+01
 4.0422502E+00  3.2106316E+01
 4.0537500E+00  3.2077293E+01
 4.0652504E+00  3.2162590E+01
 4.0767503E+00  3.2202988E+01
 4.0882502E+00  3.2403824E+01
 4.0997500E+00  3.2673199E+01
 4.1112504E+00  3.2832001E+01
 4.1227503E+00  3.2921066E+01
 4.1342502E+00  3.2867943E+01
 4.1457500E+00  3.3064892E+01
 4.1572504E+00  3.2958420E+01
 4.1687503E+00  3.2994938E+01
 4.1802502E+00  3.2704109E+01
 4.1917500E+00  3.2700321E+01
 4.2032504E+00  3.2537563E+01
 4.2147503E+00  3.2526997E+01
 4.2262502E+00  3.2536934E+01
 4.2377501E+00  3.2505360E+01
 4.2492504E+00  3.2483997E+01
 4.2607503E+00  3.2403324E+01
 4.2722502E+00  3.2336903E+01
 4.2837501E+00  3.2262405E+01
 4.2952504E+00  3.2366528E+01
 4.3067503E+00  3.2403282E+01
 4.3182502E+00  3.2412544E+01
 4.3297501E+00  3.2350410E+01
 4.3412504E+00  3.2253857E+01
 4.3527503E+00  3.2178505E+01
 4.3642502E+00  3.2063995E+01
 4.3757501E+00  3.1948303E+01
 4.3872504E+00  3.1899942E+01
 4.3987503E+00  3.2017078E+01
 4.4102502E+00  3.2151154E+01
 4.4217501E+00  3.2455391E+01
 4.4332504E+00  3.2604027E+01
 4.4447503E+00  3.2700619E+01
 4.4562502E+00  3.2734760E+01
 4.4677501E+00  3.2658989E+01
 4.4792504E+00  3.2679958E+01
 4.4907503E+00  3.2433796E+01
 4.5022502E+00  3.2335876E+01
 4.5137501E+00  3.2275414E+01
 4.5252504E+00  3.2324528E+01
 4.5367503E+00  3.2322235E+01
 4.5482502E+00  3.2213005E+01
 4.5597501E+00  3.2104073E+01
 4.5712504E+00  3.2025131E+01
 4.5827503E+00  3.1995600E+01
 4.5942502E+00  3.2148998E+01
 4.6057501E+00  3.2205437E+01
 4.6172504E+00  3.2213581E+01
 4.6287503E+00  3.2147297E+01
 4.6402502E+00  3.2148922E+01
 4.6517501E+00  3.2164379E+01
 4.6632504E+00  3.2278790E+01
 4.6747503E+00  3.2291817E+01
 4.6862502E+00  3.2503437E+01
 4.6977501E+00  3.2635109E+01
 4.7092505E+00  3.2799622E+01
 4.7207503E+00  3.2905891E+01
 4.7322502E+00  3.2866592E+01
 4.7437501E+00  3.2777012E+01
 4.7552505E+00  3.2652710E+01
 4.7667503E+00  3.2569092E+01
 4.7782502E+00  3.2590618E+01
 4.7897501E+00  3.2795811E+01
 4.8012505E+00  3.2933563E+01
 4.8127503E+00  3.3071178E+01
 4.8242502E+00  3.3113995E+01
 4.8357501E+00  3.3118370E+01
 4.8472505E+00  3.3096333E+01
 4.8587503E+00  3.3034191E+01
 4.8702502E+00  3.2944904E+01
 4.8817501E+00  3.3027676E+01
 4.8932505E+00  3.2898746E+01
 4.9047503E+00  3.2990150E+01
 4.9162502E+00  3.2961872E+01
 4.9277501E+00  3.2963169E+01
 4.9392505E+00  3.2801811E+01
 4.9507504E+00  3.2847214E+01
 4.9622502E+00  3.2831718E+01
 4.9737501E+00  3.2982456E+01
 4.9852505E+00  3.2961517E+01
 4.9967504E+00  3.3179493E+01
 5.0082502E+00  3.3411591E+01
 5.0197501E+00  3.3551094E+01
 5.0312505E+00  3.3605114E+01
 5.0427504E+00  3.3530518E+01
 5.0542502E+00  3.3519402E+01
 5.0657501E+00  3.3532349E+01
 5.0772505E+00  3.3509838E+01
 5.0887504E+00  3.3507923E+01
 5.1002502E+00  3.3422073E+01
 5.1117501E+00  3.3546162E+01
 5.1232505E+00  3.3593689E+01
 5.1347504E+00  3.3829533E+01
 5.1462502E+00  3.4027390E+01
 5.1577501E+00  3.4181587E+01
 5.1692505E+00  3.4219410E+01
 5.1807504E+00  3.4282433E+01
 5.1922503E+00  3.4300667E+01
 5.2037501E+00  3.4230976E+01
 5.2152505E+00  3.4118538E+01
 5.2267504E+00  3.4066235E+01
 5.2382503E+00  3.4036140E+01
 5.2497501E+00  3.4116581E+01
 5.2612505E+00  3.4194794E+01
 5.2727504E+00  3.4337330E+01
 5.2842503E+00  3.4482307E+01
 5.2957501E+00  3.4640087E+01
 5.3072500E+00  3.4712666E+01
 5.3187504E+00  3.4827927E+01
 5.3302503E+00  3.4824448E+01
 5.3417501E+00  3.4927242E+01
 5.3532500E+00  3.4848164E+01
 5.3647504E+00  3.4875546E+01
 5.3762503E+00  3.4914982E+01
 5.3877501E+00  3.5028030E+01
 5.3992500E+00  3.4954147E+01
 5.4107504E+00  3.4939613E+01
 5.4222503E+00  3.4888058E+01
 5.4337502E+00  3.4721737E+01
 5.4452500E+00  3.4725590E+01
 5.4567504E+00  3.4674606E+01
 5.4682503E+00  3.4830517E+01
 5.4797502E+00  3.4942127E+01
 5.4912500E+00  3.4985718E+01
 5.5027504E+00  3.5110142E+01
 5.5142503E+00  3.5116798E+01
 5.5257502E+00  3.5221382E+01
 5.5372500E+00  3.5231583E+01
 5.5487504E+00  3.5241730E+01
 5.5602503E+00  3.5172901E+01
 5.5717502E+00  3.5232594E+01
 5.5832500E+00  3.5153591E+01
 5.5947504E+00  3.5265797E+01
 5.6062503E+00  3.5357201E+01
 5.6177502E+00  3.5552887E+01
 5.6292500E+00  3.5679897E+01
 5.6407504E+00  3.5807976E+01
 5.6522503E+00  3.5832783E+01
 5.6637502E+00  3.5822525E+01
 5.6752501E+00  3.5656754E+01
 5.6867504E+00  3.5629417E+01
 5.6982503E+00  3.5603226E+01
 5.7097502E+00  3.5640560E+01
 5.7212501E+00  3.5755527E+01
 5.7327504E+00  3.5843033E+01
 5.7442503E+00  3.5891487E+01
 5.7557502E+00  3.5975094E+01
 5.7672501E+00  3.5902790E+01
 5.7787504E+00  3.5931480E+01
 5.7902503E+00  3.5829914E+01
 5.8017502E+00  3.5768280E+01
 5.8132501E+00  3.5798866E+01
 5.8247504E+00  3.5783005E+01
 5.8362503E+00  3.5996254E+01
 5.8477502E+00  3.5997562E+01
 5.8592501E+00  3.5995449E+01
 5.8707504E+00  3.5969349E+01
 5.8822503E+00  3.6032894E+01
 5.8937502E+00  3.6153885E+01
 5.9052501E+00  3.6261997E+01
 5.9167504E+00  3.6396576E+01
 5.9282503E+00  3.6672146E+01
 5.9397502E+00  3.7015827E+01
 5.9512501E+00  3.7617695E+01
 5.9627504E+00  3.8519882E+01
 5.9742503E+00  3.9061058E+01
 5.9857502E+00  3.9453529E+01
 5.9972501E+00  3.9340630E+01
 6.0087504E+00  3.8963154E+01
 6.0202503E+00  3.8417633E+01
 6.0317502E+00  3.7715111E+01
 6.0432501E+00  3.7397305E+01
 6.0547504E+00  3.7054150E+01
 6.0662503E+00  3.6952286E+01
 6.0777502E+00  3.6896805E+01
 6.0892501E+00  3.7005516E+01
 6.1007504E+00  3.6927422E+01
 6.1122503E+00  3.6895859E+01
 6.1237502E+00  3.6847332E+01
 6.1352501E+00  3.6814144E+01
 6.1467505E+00  3.6776112E+01
 6.1582503E+00  3.6792561E+01
 6.1697502E+00  3.6851700E+01
 6.1812501E+00  3.7018276E+01
 6.1927505E+00  3.7134743E+01
 6.2042503E+00  3.7185730E+01
 6.2157502E+00  3.7242695E+01
 6.2272501E+00  3.7312901E+01
 6.2387505E+00  3.7315720E+01
 6.2502503E+00  3.7369576E+01
 6.2617502E+00  3.7369755E+01
 6.2732501E+00  3.7533749E+01
 6.2847505E+00  3.7686306E+01
 6.2962503E+00  3.7658802E+01
 6.3077502E+00  3.7714802E+01
 6.3192501E+00  3.7781883E+01
 6.3307505E+00  3.7901897E+01
 6.3422503E+00  3.8005283E+01
 6.3537502E+00  3.8034744E+01
 6.3652501E+00  3.8156387E+01
 6.3767505E+00  3.8187145E+01
 6.3882504E+00  3.8347775E+01
 6.3997502E+00  3.8456387E+01
 6.4112501E+00  3.8717102E+01
 6.4227505E+00  3.8829227E+01
 6.4342504E+00  3.8991947E+01
 6.4457502E+00  3.9128395E+01
 6.4572501E+00  3.9173126E+01
 6.4687505E+00  3.9299004E+01
 6.4802504E+00  3.9232906E+01
 6.4917502E+00  3.9273998E+01
 6.5032501E+00  3.9328583E+01
 6.5147505E+00  3.9528660E+01
 6.5262504E+00  3.9608658E+01
 6.5377502E+00  3.9659786E+01
 6.5492501E+00  3.9739243E+01
 6.5607505E+00  3.9884380E+01
 6.5722504E+00  4.0030521E+01
 6.5837502E+00  4.0154125E+01
 6.5952501E+00  4.0234039E+01
 6.6067505E+00  4.0323414E+01
 6.6182504E+00  4.0315968E+01
 6.6297503E+00  4.0298786E+01
 6.6412501E+00  4.0270531E+01
 6.6527505E+00  4.0244129E+01
 6.6642504E+00  4.0279015E+01
 6.6757503E+00  4.0383629E+01
 6.6872501E+00  4.0494476E+01
 6.6987505E+00  4.0736996E+01
 6.7102504E+00  4.0924389E+01
 6.7217503E+00  4.1133907E+01
 6.7332501E+00  4.1256260E+01
 6.7447505E+00  4.1345753E+01
 6.7562504E+00  4.1399044E+01
 6.7677503E+00  4.1428440E+01
 6.7792501E+00  4.1451069E+01
 6.7907505E+00  4.1451420E+01
 6.8022504E+00  4.1446926E+01
 6.8137503E+00  4.1585133E+01
 6.8252501E+00  4.1637802E+01
 6.8367505E+00  4.1728004E+01
 6.8482504E+00  4.1788998E+01
 6.8597503E+00  4.1905670E+01
 6.8712502E+00  4.2074612E+01
 6.8827505E+00  4.2164669E+01
 6.8942504E+00  4.2297363E+01
 6.9057503E+00  4.2382793E+01
 6.9172502E+00  4.2472202E+01
 6.9287505E+00  4.2465137E+01
 6.9402504E+00  4.2453220E+01
 6.9517503E+00  4.2371498E+01
 6.9632502E+00  4.2380104E+01
 6.9747505E+00  4.2471573E+01
 6.9862504E+00  4.2527985E+01
 6.9977503E+00  4.2561203E+01
 7.0092502E+00  4.2599735E+01
 7.0207505E+00  4.2686604E+01
 7.0322504E+00  4.2747421E+01
 7.0437503E+00  4.2789032E+01
 7.0552502E+00  4.2859207E+01
 7.0667505E+00  4.3008915E+01
 7.0782504E+00  4.3065468E+01
 7.0897503E+00  4.3170788E+01
 7.1012502E+00  4.3158230E+01
 7.1127505E+00  4.3111290E+01
 7.1242504E+00  4.3167564E+01
 7.1357503E+00  4.3239983E+01
 7.1472502E+00  4.3353745E+01
 7.1587505E+00  4.3383820E+01
 7.1702504E+00  4.3468014E+01
 7.1817503E+00  4.3699715E+01
 7.1932502E+00  4.3797760E+01
 7.2047505E+00  4.3902493E+01
 7.2162504E+00  4.3792072E+01
 7.2277503E+00  4.3741199E+01
 7.2392502E+00  4.3663677E+01
 7.2507505E+00  4.3710476E+01
 7.2622504E+00  4.3786171E+01
 7.2737503E+00  4.3814518E+01
 7.2852502E+00  4.3902088E+01
 7.2967505E+00  4.3985039E+01
 7.3082504E+00  4.4173286E+01
 7.3197503E+00  4.4200764E+01
 7.3312502E+00  4.4258305E+01
 7.3427505E+00  4.4224663E+01
 7.3542504E+00  4.4243210E+01
 7.3657503E+00  4.4262341E+01
 7.3772502E+00  4.4372360E+01
 7.3887506E+00  4.4523407E+01
 7.4002504E+00  4.4580494E+01
 7.4117503E+00  4.4631012E+01
 7.4232502E+00  4.4568539E+01
 7.4347506E+00  4.4550133E+01
 7.4462504E+00  4.4535580E+01
 7.4577503E+00  4.4534458E+01
 7.4692502E+00  4.4514393E+01
 7.4807506E+00  4.4439457E+01
 7.4922504E+00  4.4471272E+01
 7.5037503E+00  4.4462933E+01
 7.5152502E+00  4.4582588E+01
 7.5267506E+00  4.4558361E+01
 7.5382504E+00  4.4667038E+01
 7.5497503E+00  4.4780869E+01
 7.5612502E+00  4.4952549E+01
 7.5727506E+00  4.5044113E+01
 7.5842505E+00  4.5062916E+01
 7.5957503E+00  4.4967594E+01
 7.6072502E+00  4.4978466E+01
 7.6187506E+00  4.4902000E+01
 7.6302505E+00  4.4895950E+01
 7.6417503E+00  4.4907227E+01
 7.6532502E+00  4.5125771E+01
 7.6647506E+00  4.5317112E+01
 7.6762505E+00  4.5491550E+01
 7.6877503E+00  4.5260216E+01
 7.6992502E+00  4.5053867E+01
 7.7107506E+00  4.4884956E+01
 7.7222505E+00  4.4851852E+01
 7.7337503E+00  4.4936264E+01
 7.7452502E+00  4.4839828E+01
 7.7567506E+00  4.4774517E+01
 7.7682505E+00  4.4706108E+01
 7.7797503E+00  4.4672295E+01
 7.7912502E+00  4.4787659E+01
 7.8027506E+00  4.4719486E+01
 7.8142505E+00  4.4747902E+01
 7.8257504E+00  4.4653843E+01
 7.8372502E+00  4.4676018E+01
 7.8487506E+00  4.4556133E+01
 7.8602505E+00  4.4482433E+01
 7.8717504E+00  4.4406803E+01
 7.8832502E+00  4.4335613E+01
 7.8947506E+00  4.4227440E+01
 7.9062505E+00  4.4224323E+01
 7.9177504E+00  4.4240551E+01
 7.9292502E+00  4.4249420E+01
 7.9407506E+00  4.4237019E+01
 7.9522505E+00  4.4214844E+01
 7.9637504E+00  4.4166618E+01
 7.9752502E+00  4.4108238E+01
 7.9867506E+00  4.4049305E+01
 7.9982505E+00  4.4083176E+01
 8.0097504E+00  4.4085117E+01
 8.0212507E+00  4.3955406E+01
 8.0327501E+00  4.3904629E+01
 8.0442505E+00  4.3751698E+01
 8.0557508E+00  4.3764812E+01
 8.0672503E+00  4.3600914E+01
 8.0787506E+00  4.3510715E+01
 8.0902500E+00  4.3441700E+01
 8.1017504E+00  4.3334305E+01
 8.1132507E+00  4.3189381E+01
 8.1247501E+00  4.3005398E+01
 8.1362505E+00  4.2871674E+01
 8.1477509E+00  4.2768906E+01
 8.1592503E+00  4.2579147E+01
 8.1707506E+00  4.2445374E+01
 8.1822500E+00  4.2436695E+01
 8.1937504E+00  4.2374363E+01
 8.2052507E+00  4.2438316E+01
 8.2167501E+00  4.2273525E+01
 8.2282505E+00  4.2252663E+01
 8.2397509E+00  4.2166286E+01
 8.2512503E+00  4.2093105E+01
 8.2627506E+00  4.1998665E+01
 8.2742500E+00  4.1843117E+01
 8.2857504E+00  4.1661274E+01
 8.2972507E+00  4.1421051E+01
 8.3087502E+00  4.1146000E+01
 8.3202505E+00  4.0894939E+01
 8.3317509E+00  4.0663570E+01
 8.3432503E+00  4.0543709E+01
 8.3547506E+00  4.0407585E+01
 8.3662500E+00  4.0332947E+01
 8.3777504E+00  4.0171558E+01
 8.3892508E+00  3.9946571E+01
 8.4007502E+00  3.9778240E+01
 8.4122505E+00  3.9552692E+01
 8.4237509E+00  3.9499458E+01
 8.4352503E+00  3.9265415E+01
 8.4467506E+00  3.9062035E+01
 8.4582500E+00  3.8837749E+01
 8.4697504E+00  3.8699017E+01
 8.4812508E+00  3.8567581E+01
 8.4927502E+00  3.8413506E+01
 8.5042505E+00  3.8260201E+01
 8.5157509E+00  3.8237881E+01
 8.5272503E+00  3.8044598E+01
 8.5387506E+00  3.7909210E+01
 8.5502501E+00  3.7669342E+01
 8.5617504E+00  3.7566662E+01
 8.5732508E+00  3.7395535E+01
 8.5847502E+00  3.7252609E+01
 8.5962505E+00  3.7054588E+01
 8.6077509E+00  3.6849854E+01
 8.6192503E+00  3.6632954E+01
 8.6307507E+00  3.6484844E+01
 8.6422501E+00  3.6333122E+01
 8.6537504E+00  3.6128475E+01
 8.6652508E+00  3.5984581E+01
 8.6767502E+00  3.5787777E+01
 8.6882505E+00  3.5686607E+01
 8.6997509E+00  3.5496471E+01
 8.7112503E+00  3.5312855E+01
 8.7227507E+00  3.5140667E+01
 8.7342501E+00  3.4874844E+01
 8.7457504E+00  3.4677200E+01
 8.7572508E+00  3.4384422E+01
 8.7687502E+00  3.4263554E+01
 8.7802505E+00  3.3997231E+01
 8.7917500E+00  3.3888912E+01
 8.8032503E+00  3.3601044E+01
 8.8147507E+00  3.3534824E+01
 8.8262501E+00  3.3351868E+01
 8.8377504E+00  3.3202518E+01
 8.8492508E+00  3.3042595E+01
 8.8607502E+00  3.2892719E+01
 8.8722506E+00  3.2747261E+01
 8.8837500E+00  3.2615318E+01
 8.8952503E+00  3.2524235E+01
 8.9067507E+00  3.2463772E+01
 8.9182501E+00  3.2347767E+01
 8.9297504E+00  3.2159058E+01
 8.9412508E+00  3.1976191E+01
 8.9527502E+00  3.1784554E+01
 8.9642506E+00  3.1633230E+01
 8.9757500E+00  3.1479706E+01
 8.9872503E+00  3.1334341E+01
 8.9987507E+00  3.1159666E+01
 9.0102501E+00  3.0975376E+01
 9.0217505E+00  3.0813890E+01
 9.0332508E+00  3.0698524E+01
 9.0447502E+00  3.0640753E+01
 9.0562506E+00  3.0498627E+01
 9.0677500E+00  3.0390320E+01
 9.0792503E+00  3.0229197E+01
 9.0907507E+00  3.0089186E+01
 9.1022501E+00  2.9914364E+01
 9.1137505E+00  2.9750973E+01
 9.1252508E+00  2.9639984E+01
 9.1367502E+00  2.9561829E+01
 9.1482506E+00  2.9479977E+01
 9.1597500E+00  2.9410736E+01
 9.1712503E+00  2.9275381E+01
 9.1827507E+00  2.9124674E+01
 9.1942501E+00  2.8978254E+01
 9.2057505E+00  2.8789894E+01
 9.2172508E+00  2.8668760E+01
 9.2287502E+00  2.8488777E+01
 9.2402506E+00  2.8409197E+01
 9.2517500E+00  2.8249207E+01
 9.2632504E+00  2.8188360E+01
 9.2747507E+00  2.8078100E+01
 9.2862501E+00  2.8059315E+01
 9.2977505E+00  2.7989042E+01
 9.3092508E+00  2.7891430E+01
 9.3207502E+00  2.7816566E+01
 9.3322506E+00  2.7724854E+01
 9.3437500E+00  2.7631519E+01
 9.3552504E+00  2.7539917E+01
 9.3667507E+00  2.7430689E+01
 9.3782501E+00  2.7317926E+01
 9.3897505E+00  2.7161310E+01
 9.4012508E+00  2.7053474E+01
 9.4127502E+00  2.6984270E+01
 9.4242506E+00  2.6893032E+01
 9.4357500E+00  2.6780819E+01
 9.4472504E+00  2.6684828E+01
 9.4587507E+00  2.6650356E+01
 9.4702501E+00  2.6646149E+01
 9.4817505E+00  2.6663694E+01
 9.4932508E+00  2.6676582E+01
 9.5047503E+00  2.6606943E+01
 9.5162506E+00  2.6541643E+01
 9.5277500E+00  2.6466881E+01
 9.5392504E+00  2.6363358E+01
 9.5507507E+00  2.6322090E+01
 9.5622501E+00  2.6175375E+01
 9.5737505E+00  2.6114315E+01
 9.5852509E+00  2.5968832E+01
 9.5967503E+00  2.5995226E+01
 9.6082506E+00  2.6044851E+01
 9.6197500E+00  2.6090578E+01
 9.6312504E+00  2.6079666E+01
 9.6427507E+00  2.5994802E+01
 9.6542501E+00  2.5898869E+01
 9.6657505E+00  2.5802259E+01
 9.6772509E+00  2.5628019E+01
 9.6887503E+00  2.5499018E+01
 9.7002506E+00  2.5288290E+01
 9.7117500E+00  2.5209631E+01
 9.7232504E+00  2.5152424E+01
 9.7347507E+00  2.5143219E+01
 9.7462502E+00  2.5178820E+01
 9.7577505E+00  2.5200869E+01
 9.7692509E+00  2.5176371E+01
 9.7807503E+00  2.5135403E+01
 9.7922506E+00  2.5088543E+01
 9.8037500E+00  2.5101025E+01
 9.8152504E+00  2.5051487E+01
 9.8267508E+00  2.4991394E+01
 9.8382502E+00  2.4977234E+01
 9.8497505E+00  2.4933346E+01
 9.8612509E+00  2.4888273E+01
 9.8727503E+00  2.4833048E+01
 9.8842506E+00  2.4765772E+01
 9.8957500E+00  2.4760645E+01
 9.9072504E+00  2.4635164E+01
 9.9187508E+00  2.4633251E+01
 9.9302502E+00  2.4563683E+01
 9.9417505E+00  2.4542336E+01
 9.9532509E+00  2.4469475E+01
 9.9647503E+00  2.4451090E+01
 9.9762506E+00  2.4498215E+01
 9.9877501E+00  2.4497904E+01
 9.9992504E+00  2.4480694E+01
 1.0010751E+01  2.4408901E+01
 1.0022250E+01  2.4385826E+01
 1.0033751E+01  2.4414118E+01
 1.0045251E+01  2.4470304E+01
 1.0056750E+01  2.4525093E+01
 1.0068251E+01  2.4482445E+01
 1.0079750E+01  2.4357880E+01
 1.0091250E+01  2.4273260E+01
 1.0102751E+01  2.4157303E+01
 1.0114250E+01  2.4096285E+01
 1.0125751E+01  2.4090450E+01
 1.0137251E+01  2.4022818E+01
 1.0148750E+01  2.4026022E+01
 1.0160251E+01  2.3945263E+01
 1.0171750E+01  2.3976633E+01
 1.0183250E+01  2.3943783E+01
 1.0194751E+01  2.3896170E+01
 1.0206250E+01  2.3899654E+01
 1.0217751E+01  2.3883629E+01
 1.0229251E+01  2.3915075E+01
 1.0240750E+01  2.3868547E+01
 1.0252251E+01  2.3826757E+01
 1.0263750E+01  2.3812218E+01
 1.0275250E+01  2.3785032E+01
 1.0286751E+01  2.3688486E+01
 1.0298250E+01  2.3629030E+01
 1.0309751E+01  2.3608074E+01
 1.0321251E+01  2.3644117E+01
 1.0332750E+01  2.3600870E+01
 1.0344251E+01  2.3577806E+01
 1.0355750E+01  2.3586052E+01
 1.0367250E+01  2.3555073E+01
 1.0378751E+01  2.3528196E+01
 1.0390250E+01  2.3541552E+01
 1.0401751E+01  2.3539469E+01
 1.0413251E+01  2.3561085E+01
 1.0424750E+01  2.3536451E+01
 1.0436251E+01  2.3537899E+01
 1.0447750E+01  2.3483335E+01
 1.0459250E+01  2.3467628E+01
 1.0470751E+01  2.3507856E+01
 1.0482250E+01  2.3526117E+01
 1.0493751E+01  2.3512402E+01
 1.0505251E+01  2.3450701E+01
 1.0516750E+01  2.3381907E+01
 1.0528251E+01  2.3298607E+01
 1.0539750E+01  2.3245987E+01
 1.0551250E+01  2.3184425E+01
 1.0562751E+01  2.3172413E+01
 1.0574250E+01  2.3144436E+01
 1.0585751E+01  2.3100542E+01
 1.0597251E+01  2.3018295E+01
 1.0608750E+01  2.2960539E+01
 1.0620251E+01  2.2953279E+01
 1.0631750E+01  2.3015551E+01
 1.0643250E+01  2.3048786E+01
 1.0654751E+01  2.3128006E+01
 1.0666250E+01  2.3142410E+01
 1.0677751E+01  2.3156563E+01
 1.0689251E+01  2.3114941E+01
 1.0700750E+01  2.3096636E+01
 1.0712251E+01  2.2992516E+01
 1.0723750E+01  2.2937235E+01
 1.0735250E+01  2.2872446E+01
 1.0746751E+01  2.2870451E+01
 1.0758250E+01  2.2879787E+01
 1.0769751E+01  2.2891598E+01
 1.0781251E+01  2.2958368E+01
 1.0792750E+01  2.2978598E+01
 1.0804251E+01  2.2989704E+01
 1.0815750E+01  2.2969919E+01
 1.0827250E+01  2.2973860E+01
 1.0838751E+01  2.2949142E+01
 1.0850250E+01  2.2943275E+01
 1.0861751E+01  2.2930843E+01
 1.0873251E+01  2.2870676E+01
 1.0884750E+01  2.2790167E+01
 1.0896251E+01  2.2703497E+01
 1.0907750E+01  2.2666489E+01
 1.0919250E+01  2.2650988E+01
 1.0930751E+01  2.2620937E+01
 1.0942250E+01  2.2573166E+01
 1.0953751E+01  2.2494635E+01
 1.0965251E+01  2.2453058E+01
 1.0976750E+01  2.2501600E+01
 1.0988251E+01  2.2540537E+01
 1.0999750E+01  2.2588390E+01
 1.1011250E+01  2.2651831E+01
 1.1022751E+01  2.2730207E+01
 1.1034250E+01  2.2760281E+01
 1.1045751E+01  2.2674732E+01
 1.1057251E+01  2.2586620E+01
 1.1068750E+01  2.2524736E+01
 1.1080251E+01  2.2496885E+01
 1.1091750E+01  2.2456850E+01
 1.1103251E+01  2.2440140E+01
 1.1114751E+01  2.2489494E+01
 1.1126250E+01  2.2569662E+01
 1.1137751E+01  2.2600077E+01
 1.1149251E+01  2.2616402E+01
 1.1160750E+01  2.2646101E+01
 1.1172251E+01  2.2672558E+01
 1.1183750E+01  2.2683989E+01
 1.1195251E+01  2.2616549E+01
 1.1206751E+01  2.2566774E+01
 1.1218250E+01  2.2481203E+01
 1.1229751E+01  2.2464380E+01
 1.1241251E+01  2.2476892E+01
 1.1252750E+01  2.2500294E+01
 1.1264251E+01  2.2492537E+01
 1.1275750E+01  2.2511429E+01
 1.1287251E+01  2.2506891E+01
 1.1298751E+01  2.2442265E+01
 1.1310250E+01  2.2375423E+01
 1.1321751E+01  2.2313713E+01
 1.1333251E+01  2.2314129E+01
 1.1344750E+01  2.2335560E+01
 1.1356251E+01  2.2374353E+01
 1.1367750E+01  2.2514183E+01
 1.1379251E+01  2.2519169E+01
 1.1390751E+01  2.2600765E+01
 1.1402250E+01  2.2670731E+01
 1.1413751E+01  2.2623302E+01
 1.1425251E+01  2.2627439E+01
 1.1436750E+01  2.2568367E+01
 1.1448251E+01  2.2655540E+01
 1.1459750E+01  2.2611874E+01
 1.1471251E+01  2.2566881E+01
 1.1482751E+01  2.2543015E+01
 1.1494250E+01  2.2551037E+01
 1.1505751E+01  2.2497063E+01
 1.1517251E+01  2.2534748E+01
 1.1528750E+01  2.2585791E+01
 1.1540251E+01  2.2709667E+01
 1.1551750E+01  2.2849342E+01
 1.1563251E+01  2.3119061E+01
 1.1574751E+01  2.3369699E+01
 1.1586250E+01  2.3702105E+01
 1.1597751E+01  2.3928230E+01
 1.1609251E+01  2.3918045E+01
 1.1620750E+01  2.3632231E+01
 1.1632251E+01  2.3290739E+01
 1.1643750E+01  2.3022163E+01
 1.1655251E+01  2.2846224E+01
 1.1666751E+01  2.2643175E+01
 1.1678250E+01  2.2571941E+01
 1.1689751E+01  2.2483788E+01
 1.1701251E+01  2.2435417E+01
 1.1712750E+01  2.2409584E+01
 1.1724251E+01  2.2392132E+01
 1.1735750E+01  2.2432644E+01
 1.1747251E+01  2.2466312E+01
 1.1758751E+01  2.2521748E+01
 1.1770250E+01  2.2525978E+01
 1.1781751E+01  2.2476267E+01
 1.1793251E+01  2.2422112E+01
 1.1804750E+01  2.2404030E+01
 1.1816251E+01  2.2420784E+01
 1.1827750E+01  2.2416615E+01
 1.1839251E+01  2.2406387E+01
 1.1850751E+01  2.2356937E+01
 1.1862250E+01  2.2379049E+01
 1.1873751E+01  2.2307671E+01
 1.1885251E+01  2.2343075E+01
 1.1896750E+01  2.2351231E+01
 1.1908251E+01  2.2398756E+01
 1.1919750E+01  2.2429150E+01
 1.1931251E+01  2.2452473E+01
 1.1942751E+01  2.2472296E+01
 1.1954250E+01  2.2516327E+01
 1.1965751E+01  2.2539679E+01
 1.1977251E+01  2.2531662E+01
 1.1988750E+01  2.2538069E+01
 1.2000251E+01  2.2524191E+01
 1.2011750E+01  2.2546322E+01
 1.2023251E+01  2.2537292E+01
 1.2034751E+01  2.2618347E+01
 1.2046250E+01  2.2674807E+01
 1.2057751E+01  2.2716948E+01
 1.2069251E+01  2.2738028E+01
 1.2080750E+01  2.2820665E+01
 1.2092251E+01  2.2889608E+01
 1.2103750E+01  2.2910589E+01
 1.2115251E+01  2.2881594E+01
 1.2126751E+01  2.2846376E+01
 1.2138250E+01  2.2775045E+01
 1.2149751E+01  2.2673281E+01
 1.2161251E+01  2.2627583E+01
 1.2172750E+01  2.2574545E+01
 1.2184251E+01  2.2543407E+01
 1.2195750E+01  2.2481995E+01
 1.2207251E+01  2.2407005E+01
 1.2218751E+01  2.2424662E+01
 1.2230250E+01  2.2406906E+01
 1.2241751E+01  2.2448093E+01
 1.2253251E+01  2.2453640E+01
 1.2264750E+01  2.2508385E+01
 1.2276251E+01  2.2485771E+01
 1.2287750E+01  2.2501337E+01
 1.2299251E+01  2.2504269E+01
 1.2310751E+01  2.2586969E+01
 1.2322250E+01  2.2582514E+01
 1.2333751E+01  2.2649059E+01
 1.2345250E+01  2.2688770E+01
 1.2356750E+01  2.2811155E+01
 1.2368251E+01  2.2770761E+01
 1.2379750E+01  2.2830236E+01
 1.2391251E+01  2.2718027E+01
 1.2402751E+01  2.2651058E+01
 1.2414250E+01  2.2508682E+01
 1.2425751E+01  2.2453302E+01
 1.2437250E+01  2.2490114E+01
 1.2448750E+01  2.2506580E+01
 1.2460251E+01  2.2554359E+01
 1.2471750E+01  2.2561220E+01
 1.2483251E+01  2.2599669E+01
 1.2494751E+01  2.2603777E+01
 1.2506250E+01  2.2580435E+01
 1.2517751E+01  2.2555620E+01
 1.2529250E+01  2.2580549E+01
 1.2540751E+01  2.2622231E+01
 1.2552251E+01  2.2695787E+01
 1.2563750E+01  2.2723244E+01
 1.2575251E+01  2.2735138E+01
 1.2586751E+01  2.2757456E+01
 1.2598250E+01  2.2762270E+01
 1.2609751E+01  2.2839348E+01
 1.2621250E+01  2.2835564E+01
 1.2632751E+01  2.2877777E+01
 1.2644251E+01  2.2809034E+01
 1.2655750E+01  2.2854662E+01
 1.2667251E+01  2.2935177E+01
 1.2678751E+01  2.3015001E+01
 1.2690250E+01  2.3080633E+01
 1.2701751E+01  2.3084602E+01
 1.2713250E+01  2.3156445E+01
 1.2724751E+01  2.3147753E+01
 1.2736251E+01  2.3156759E+01
 1.2747750E+01  2.3141266E+01
 1.2759251E+01  2.3125128E+01
 1.2770751E+01  2.3130291E+01
 1.2782250E+01  2.3182714E+01
 1.2793751E+01  2.3225739E+01
 1.2805250E+01  2.3271938E+01
 1.2816751E+01  2.3266064E+01
 1.2828251E+01  2.3303846E+01
 1.2839750E+01  2.3322624E+01
 1.2851251E+01  2.3312119E+01
 1.2862751E+01  2.3270214E+01
 1.2874250E+01  2.3298090E+01
 1.2885751E+01  2.3303675E+01
 1.2897250E+01  2.3404781E+01
 1.2908751E+01  2.3503677E+01
 1.2920251E+01  2.3628040E+01
 1.2931750E+01  2.3702028E+01
 1.2943251E+01  2.3726513E+01
 1.2954751E+01  2.3778280E+01
 1.2966250E+01  2.3788052E+01
 1.2977751E+01  2.3808437E+01
 1.2989250E+01  2.3844610E+01
 1.3000751E+01  2.3894602E+01
 1.3012251E+01  2.3957153E+01
 1.3023750E+01  2.4059893E+01
 1.3035251E+01  2.4139563E+01
 1.3046751E+01  2.4225229E+01
 1.3058250E+01  2.4303019E+01
 1.3069751E+01  2.4401360E+01
 1.3081250E+01  2.4520025E+01
 1.3092751E+01  2.4610367E+01
 1.3104251E+01  2.4788250E+01
 1.3115750E+01  2.4916096E+01
 1.3127251E+01  2.5052475E+01
 1.3138751E+01  2.5134365E+01
 1.3150250E+01  2.5232632E+01
 1.3161751E+01  2.5320490E+01
 1.3173250E+01  2.5439968E+01
 1.3184751E+01  2.5556290E+01
 1.3196251E+01  2.5715120E+01
 1.3207750E+01  2.5914112E+01
 1.3219251E+01  2.6110403E+01
 1.3230751E+01  2.6272406E+01
 1.3242250E+01  2.6375668E+01
 1.3253751E+01  2.6490541E+01
 1.3265250E+01  2.6621021E+01
 1.3276751E+01  2.6784859E+01
 1.3288251E+01  2.6947826E+01
 1.3299750E+01  2.7152374E+01
 1.3311251E+01  2.7254713E+01
 1.3322751E+01  2.7421576E+01
 1.3334250E+01  2.7607258E+01
 1.3345751E+01  2.7797844E+01
 1.3357250E+01  2.7970543E+01
 1.3368751E+01  2.8037601E+01
 1.3380251E+01  2.8189251E+01
 1.3391750E+01  2.8273317E+01
 1.3403251E+01  2.8375479E+01
 1.3414751E+01  2.8463394E+01
 1.3426250E+01  2.8547316E+01
 1.3437751E+01  2.8700199E+01
 1.3449250E+01  2.8759661E+01
 1.3460751E+01  2.8854071E+01
 1.3472251E+01  2.8944012E+01
 1.3483750E+01  2.9061201E+01
 1.3495251E+01  2.9111719E+01
 1.3506751E+01  2.9179749E+01
 1.3518250E+01  2.9281263E+01
 1.3529751E+01  2.9409584E+01
 1.3541250E+01  2.9567699E+01
 1.3552751E+01  2.9726198E+01
 1.3564251E+01  2.9838554E+01
 1.3575750E+01  2.9841530E+01
 1.3587251E+01  2.9818720E+01
 1.3598751E+01  2.9804806E+01
 1.3610250E+01  2.9774281E+01
 1.3621751E+01  2.9827063E+01
 1.3633250E+01  2.9792526E+01
 1.3644751E+01  2.9780506E+01
 1.3656251E+01  2.9724709E+01
 1.3667750E+01  2.9798820E+01
 1.3679251E+01  2.9820721E+01
 1.3690751E+01  2.9829090E+01
 1.3702250E+01  2.9768330E+01
 1.3713751E+01  2.9721197E+01
 1.3725250E+01  2.9641813E+01
 1.3736751E+01  2.9650133E+01
 1.3748251E+01  2.9594959E+01
 1.3759750E+01  2.9538937E+01
 1.3771251E+01  2.9466877E+01
 1.3782751E+01  2.9372175E+01
 1.3794250E+01  2.9303528E+01
 1.3805751E+01  2.9135256E+01
 1.3817250E+01  2.9070850E+01
 1.3828751E+01  2.8951561E+01
 1.3840251E+01  2.8894243E+01
 1.3851750E+01  2.8822201E+01
 1.3863251E+01  2.8814550E+01
 1.3874751E+01  2.8808207E+01
 1.3886250E+01  2.8781612E+01
 1.3897751E+01  2.8782276E+01
 1.3909250E+01  2.8797516E+01
 1.3920751E+01  2.8806816E+01
 1.3932251E+01  2.8820133E+01
 1.3943750E+01  2.8811823E+01
 1.3955251E+01  2.8772449E+01
 1.3966751E+01  2.8743931E+01
 1.3978251E+01  2.8621185E+01
 1.3989751E+01  2.8460049E+01
 1.4001250E+01  2.8213163E+01
 1.4012751E+01  2.8014929E+01
 1.4024251E+01  2.7825666E+01
 1.4035750E+01  2.7630970E+01
 1.4047251E+01  2.7518053E+01
 1.4058751E+01  2.7422443E+01
 1.4070251E+01  2.7350494E+01
 1.4081751E+01  2.7281189E+01
 1.4093250E+01  2.7275072E+01
 1.4104751E+01  2.7227802E+01
 1.4116251E+01  2.7193933E+01
 1.4127750E+01  2.7123974E+01
 1.4139251E+01  2.7072453E+01
 1.4150751E+01  2.6957422E+01
 1.4162251E+01  2.6907631E+01
 1.4173751E+01  2.6805428E+01
 1.4185250E+01  2.6740494E+01
 1.4196751E+01  2.6713264E+01
 1.4208251E+01  2.6706127E+01
 1.4219750E+01  2.6694157E+01
 1.4231251E+01  2.6612600E+01
 1.4242751E+01  2.6543324E+01
 1.4254251E+01  2.6498827E+01
 1.4265751E+01  2.6426334E+01
 1.4277250E+01  2.6368603E+01
 1.4288751E+01  2.6278839E+01
 1.4300251E+01  2.6259876E+01
 1.4311750E+01  2.6236006E+01
 1.4323251E+01  2.6170956E+01
 1.4334751E+01  2.6113701E+01
 1.4346251E+01  2.6099382E+01
 1.4357751E+01  2.6129358E+01
 1.4369250E+01  2.6089874E+01
 1.4380751E+01  2.6097935E+01
 1.4392251E+01  2.6058111E+01
 1.4403750E+01  2.6070652E+01
 1.4415251E+01  2.6021029E+01
 1.4426751E+01  2.5950392E+01
 1.4438251E+01  2.5838001E+01
 1.4449751E+01  2.5721479E+01
 1.4461250E+01  2.5667608E+01
 1.4472751E+01  2.5654449E+01
 1.4484251E+01  2.5658342E+01
 1.4495750E+01  2.5650856E+01
 1.4507251E+01  2.5590889E+01
 1.4518751E+01  2.5549013E+01
 1.4530251E+01  2.5513742E+01
 1.4541751E+01  2.5509041E+01
 1.4553250E+01  2.5549244E+01
 1.4564751E+01  2.5571232E+01
 1.4576251E+01  2.5599495E+01
 1.4587750E+01  2.5546232E+01
 1.4599251E+01  2.5489573E+01
 1.4610751E+01  2.5420275E+01
 1.4622251E+01  2.5389971E+01
 1.4633751E+01  2.5403677E+01
 1.4645250E+01  2.5426033E+01
 1.4656751E+01  2.5398113E+01
 1.4668251E+01  2.5353437E+01
 1.4679750E+01  2.5324240E+01
 1.4691251E+01  2.5361116E+01
 1.4702751E+01  2.5349678E+01
 1.4714251E+01  2.5302893E+01
 1.4725751E+01  2.5175917E+01
 1.4737250E+01  2.5087484E+01
 1.4748751E+01  2.5028549E+01
 1.4760251E+01  2.4999567E+01
 1.4771750E+01  2.4984066E+01
 1.4783251E+01  2.4991562E+01
 1.4794751E+01  2.5021492E+01
 1.4806251E+01  2.5033550E+01
 1.4817751E+01  2.5024509E+01
 1.4829250E+01  2.5034847E+01
 1.4840751E+01  2.5028585E+01
 1.4852251E+01  2.5056637E+01
 1.4863750E+01  2.5026453E+01
 1.4875251E+01  2.5020620E+01
 1.4886751E+01  2.5044184E+01
 1.4898251E+01  2.5112185E+01
 1.4909751E+01  2.5159412E+01
 1.4921250E+01  2.5103767E+01
 1.4932751E+01  2.5035080E+01
 1.4944251E+01  2.4946350E+01
 1.4955750E+01  2.4862373E+01
 1.4967251E+01  2.4792992E+01
 1.4978751E+01  2.4744253E+01
 1.4990251E+01  2.4793371E+01
 1.5001751E+01  2.4799459E+01
 1.5013250E+01  2.4841805E+01
 1.5024751E+01  2.4836792E+01
 1.5036251E+01  2.4816788E+01
 1.5047750E+01  2.4757616E+01
 1.5059251E+01  2.4715929E+01
 1.5070751E+01  2.4698080E+01
 1.5082251E+01  2.4720863E+01
 1.5093751E+01  2.4711931E+01
 1.5105250E+01  2.4803921E+01
 1.5116751E+01  2.4827513E+01
 1.5128251E+01  2.4873867E+01
 1.5139750E+01  2.4936563E+01
 1.5151251E+01  2.5069227E+01
 1.5162751E+01  2.5267687E+01
 1.5174251E+01  2.5506947E+01
 1.5185751E+01  2.5692633E+01
 1.5197250E+01  2.5758869E+01
 1.5208751E+01  2.5869947E+01
 1.5220251E+01  2.5738598E+01
 1.5231750E+01  2.5534468E+01
 1.5243251E+01  2.5160736E+01
 1.5254751E+01  2.4989719E+01
 1.5266251E+01  2.4833395E+01
 1.5277751E+01  2.4758913E+01
 1.5289250E+01  2.4769394E+01
 1.5300751E+01  2.4735601E+01
 1.5312251E+01  2.4722742E+01
 1.5323750E+01  2.4667479E+01
 1.5335251E+01  2.4650864E+01
 1.5346751E+01  2.4634506E+01
 1.5358251E+01  2.4610237E+01
 1.5369751E+01  2.4612576E+01
 1.5381250E+01  2.4582645E+01
 1.5392751E+01  2.4542479E+01
 1.5404251E+01  2.4568819E+01
 1.5415751E+01  2.4567070E+01
 1.5427251E+01  2.4560495E+01
 1.5438751E+01  2.4515720E+01
 1.5450251E+01  2.4469067E+01
 1.5461751E+01  2.4449650E+01
 1.5473250E+01  2.4363007E+01
 1.5484751E+01  2.4379267E+01
 1.5496251E+01  2.4419098E+01
 1.5507751E+01  2.4527212E+01
 1.5519251E+01  2.4549929E+01
 1.5530751E+01  2.4584623E+01
 1.5542251E+01  2.4589088E+01
 1.5553751E+01  2.4555861E+01
 1.5565250E+01  2.4554626E+01
 1.5576751E+01  2.4541676E+01
 1.5588251E+01  2.4564600E+01
 1.5599751E+01  2.4565983E+01
 1.5611251E+01  2.4559156E+01
 1.5622751E+01  2.4569757E+01
 1.5634251E+01  2.4529671E+01
 1.5645751E+01  2.4527054E+01
 1.5657250E+01  2.4542461E+01
 1.5668751E+01  2.4564341E+01
 1.5680251E+01  2.4588924E+01
 1.5691751E+01  2.4626070E+01
 1.5703251E+01  2.4693157E+01
 1.5714751E+01  2.4688829E+01
 1.5726251E+01  2.4671791E+01
 1.5737751E+01  2.4603096E+01
 1.5749250E+01  2.4641504E+01
 1.5760751E+01  2.4663351E+01
 1.5772251E+01  2.4757303E+01
 1.5783751E+01  2.4720291E+01
 1.5795251E+01  2.4732014E+01
 1.5806751E+01  2.4687546E+01
 1.5818251E+01  2.4650715E+01
 1.5829751E+01  2.4593601E+01
 1.5841250E+01  2.4504402E+01
 1.5852751E+01  2.4454550E+01
 1.5864251E+01  2.4358475E+01
 1.5875751E+01  2.4412685E+01
 1.5887251E+01  2.4499521E+01
 1.5898750E+01  2.4590891E+01
 1.5910251E+01  2.4628050E+01
 1.5921751E+01  2.4638376E+01
 1.5933250E+01  2.4615519E+01
 1.5944751E+01  2.4528528E+01
 1.5956251E+01  2.4571123E+01
 1.5967751E+01  2.4553692E+01
 1.5979251E+01  2.4590004E+01
 1.5990750E+01  2.4535862E+01
 1.6002251E+01  2.4530140E+01
 1.6013750E+01  2.4544542E+01
 1.6025251E+01  2.4562073E+01
 1.6036751E+01  2.4599895E+01
 1.6048250E+01  2.4611567E+01
 1.6059752E+01  2.4567421E+01
 1.6071251E+01  2.4536280E+01
 1.6082750E+01  2.4537275E+01
 1.6094252E+01  2.4615812E+01
 1.6105751E+01  2.4661919E+01
 1.6117250E+01  2.4687321E+01
 1.6128750E+01  2.4664185E+01
 1.6140251E+01  2.4750702E+01
 1.6151751E+01  2.4780333E+01
 1.6163250E+01  2.4908785E+01
 1.6174751E+01  2.4850864E+01
 1.6186251E+01  2.4922930E+01
 1.6197750E+01  2.4833281E+01
 1.6209251E+01  2.4970449E+01
 1.6220751E+01  2.4952700E+01
 1.6232250E+01  2.5068459E+01
 1.6243752E+01  2.5100430E+01
 1.6255251E+01  2.5188286E+01
 1.6266750E+01  2.5276539E+01
 1.6278252E+01  2.5210474E+01
 1.6289751E+01  2.5258307E+01
 1.6301250E+01  2.5014059E+01
 1.6312750E+01  2.5082630E+01
 1.6324251E+01  2.4865822E+01
 1.6335751E+01  2.4889214E+01
 1.6347250E+01  2.4739105E+01
 1.6358751E+01  2.4740763E+01
 1.6370251E+01  2.4667953E+01
 1.6381750E+01  2.4573093E+01
 1.6393251E+01  2.4558416E+01
 1.6404751E+01  2.4566071E+01
 1.6416250E+01  2.4665949E+01
 1.6427752E+01  2.4692699E+01
 1.6439251E+01  2.4775620E+01
 1.6450750E+01  2.4765207E+01
 1.6462252E+01  2.4765091E+01
 1.6473751E+01  2.4707916E+01
 1.6485250E+01  2.4732061E+01
 1.6496750E+01  2.4704195E+01
 1.6508251E+01  2.4684759E+01
 1.6519751E+01  2.4626411E+01
 1.6531250E+01  2.4621616E+01
 1.6542751E+01  2.4617758E+01
 1.6554251E+01  2.4593739E+01
 1.6565750E+01  2.4573759E+01
 1.6577251E+01  2.4535053E+01
 1.6588751E+01  2.4559248E+01
 1.6600250E+01  2.4543200E+01
 1.6611752E+01  2.4581589E+01
 1.6623251E+01  2.4507639E+01
 1.6634750E+01  2.4534107E+01
 1.6646252E+01  2.4533522E+01
 1.6657751E+01  2.4603516E+01
 1.6669250E+01  2.4613749E+01
 1.6680750E+01  2.4644131E+01
 1.6692251E+01  2.4665169E+01
 1.6703751E+01  2.4668823E+01
 1.6715250E+01  2.4665386E+01
 1.6726751E+01  2.4651340E+01
 1.6738251E+01  2.4625372E+01
 1.6749750E+01  2.4620234E+01
 1.6761251E+01  2.4526169E+01
 1.6772751E+01  2.4546068E+01
 1.6784250E+01  2.4488197E+01
 1.6795752E+01  2.4508770E+01
 1.6807251E+01  2.4497175E+01
 1.6818750E+01  2.4438162E+01
 1.6830252E+01  2.4390951E+01
 1.6841751E+01  2.4302004E+01
 1.6853251E+01  2.4322586E+01
 1.6864750E+01  2.4360825E+01
 1.6876251E+01  2.4438961E+01
 1.6887751E+01  2.4478411E+01
 1.6899250E+01  2.4433681E+01
 1.6910751E+01  2.4374575E+01
 1.6922251E+01  2.4350817E+01
 1.6933750E+01  2.4288363E+01
 1.6945251E+01  2.4300858E+01
 1.6956751E+01  2.4299147E+01
 1.6968250E+01  2.4354961E+01
 1.6979752E+01  2.4317665E+01
 1.6991251E+01  2.4338181E+01
 1.7002750E+01  2.4284786E+01
 1.7014252E+01  2.4283009E+01
 1.7025751E+01  2.4220970E+01
 1.7037251E+01  2.4223692E+01
 1.7048750E+01  2.4177605E+01
 1.7060251E+01  2.4182095E+01
 1.7071751E+01  2.4142185E+01
 1.7083250E+01  2.4143360E+01
 1.7094751E+01  2.4157942E+01
 1.7106251E+01  2.4222670E+01
 1.7117750E+01  2.4240770E+01
 1.7129251E+01  2.4264898E+01
 1.7140751E+01  2.4277279E+01
 1.7152250E+01  2.4262043E+01
 1.7163752E+01  2.4257603E+01
 1.7175251E+01  2.4194134E+01
 1.7186750E+01  2.4205853E+01
 1.7198252E+01  2.4210083E+01
 1.7209751E+01  2.4246918E+01
 1.7221251E+01  2.4227043E+01
 1.7232750E+01  2.4128593E+01
 1.7244251E+01  2.4061674E+01
 1.7255751E+01  2.4002550E+01
 1.7267250E+01  2.3974974E+01
 1.7278751E+01  2.4000496E+01
 1.7290251E+01  2.4052271E+01
 1.7301750E+01  2.4118681E+01
 1.7313251E+01  2.4103775E+01
 1.7324751E+01  2.4096773E+01
 1.7336250E+01  2.4063406E+01
 1.7347752E+01  2.4056114E+01
 1.7359251E+01  2.4039598E+01
 1.7370750E+01  2.4012087E+01
 1.7382252E+01  2.3974968E+01
 1.7393751E+01  2.3922533E+01
 1.7405251E+01  2.3887918E+01
 1.7416750E+01  2.3899410E+01
 1.7428251E+01  2.3918415E+01
 1.7439751E+01  2.3974709E+01
 1.7451250E+01  2.4012564E+01
 1.7462751E+01  2.4009319E+01
 1.7474251E+01  2.3952900E+01
 1.7485750E+01  2.3917692E+01
 1.7497252E+01  2.3947033E+01
 1.7508751E+01  2.3935696E+01
 1.7520250E+01  2.3925117E+01
 1.7531752E+01  2.3923515E+01
 1.7543251E+01  2.4008627E+01
 1.7554750E+01  2.3977867E+01
 1.7566252E+01  2.3930925E+01
 1.7577751E+01  2.3812672E+01
 1.7589251E+01  2.3782770E+01
 1.7600750E+01  2.3793640E+01
 1.7612251E+01  2.3822548E+01
 1.7623751E+01  2.3847326E+01
 1.7635250E+01  2.3764471E+01
 1.7646751E+01  2.3752989E+01
 1.7658251E+01  2.3699518E+01
 1.7669750E+01  2.3744427E+01
 1.7681252E+01  2.3774239E+01
 1.7692751E+01  2.3841135E+01
 1.7704250E+01  2.3824146E+01
 1.7715752E+01  2.3794792E+01
 1.7727251E+01  2.3764633E+01
 1.7738750E+01  2.3732180E+01
 1.7750252E+01  2.3710077E+01
 1.7761751E+01  2.3718742E+01
 1.7773251E+01  2.3791601E+01
 1.7784750E+01  2.3817862E+01
 1.7796251E+01  2.3831453E+01
 1.7807751E+01  2.3777258E+01
 1.7819250E+01  2.3729279E+01
 1.7830751E+01  2.3644609E+01
 1.7842251E+01  2.3614319E+01
 1.7853750E+01  2.3623224E+01
 1.7865252E+01  2.3634670E+01
 1.7876751E+01  2.3655521E+01
 1.7888250E+01  2.3684561E+01
 1.7899752E+01  2.3735279E+01
 1.7911251E+01  2.3815290E+01
 1.7922750E+01  2.3859921E+01
 1.7934252E+01  2.3820782E+01
 1.7945751E+01  2.3770866E+01
 1.7957251E+01  2.3683435E+01
 1.7968750E+01  2.3661356E+01
 1.7980251E+01  2.3663721E+01
 1.7991751E+01  2.3701618E+01
 1.8003250E+01  2.3802200E+01
 1.8014751E+01  2.3819347E+01
 1.8026251E+01  2.3916704E+01
 1.8037750E+01  2.3984577E+01
 1.8049252E+01  2.4133207E+01
 1.8060751E+01  2.4177406E+01
 1.8072250E+01  2.4209229E+01
 1.8083752E+01  2.4306498E+01
 1.8095251E+01  2.4275784E+01
 1.8106750E+01  2.4232527E+01
 1.8118252E+01  2.4135708E+01
 1.8129751E+01  2.4056883E+01
 1.8141251E+01  2.3971378E+01
 1.8152750E+01  2.3891256E+01
 1.8164251E+01  2.3825369E+01
 1.8175751E+01  2.3724882E+01
 1.8187250E+01  2.3600330E+01
 1.8198751E+01  2.3566286E+01
 1.8210251E+01  2.3554220E+01
 1.8221750E+01  2.3576061E+01
 1.8233252E+01  2.3512196E+01
 1.8244751E+01  2.3545494E+01
 1.8256250E+01  2.3530684E+01
 1.8267752E+01  2.3529982E+01
 1.8279251E+01  2.3532864E+01
 1.8290751E+01  2.3543577E+01
 1.8302252E+01  2.3557447E+01
 1.8313751E+01  2.3520847E+01
 1.8325251E+01  2.3538952E+01
 1.8336750E+01  2.3541920E+01
 1.8348251E+01  2.3582861E+01
 1.8359751E+01  2.3607887E+01
 1.8371250E+01  2.3640850E+01
 1.8382751E+01  2.3600691E+01
 1.8394251E+01  2.3614658E+01
 1.8405750E+01  2.3608057E+01
 1.8417252E+01  2.3642330E+01
 1.8428751E+01  2.3569962E+01
 1.8440250E+01  2.3589920E+01
 1.8451752E+01  2.3528418E+01
 1.8463251E+01  2.3541996E+01
 1.8474751E+01  2.3519402E+01
 1.8486252E+01  2.3509857E+01
 1.8497751E+01  2.3470028E+01
 1.8509251E+01  2.3462046E+01
 1.8520750E+01  2.3493786E+01
 1.8532251E+01  2.3491888E+01
 1.8543751E+01  2.3464382E+01
 1.8555250E+01  2.3455154E+01
 1.8566751E+01  2.3458736E+01
 1.8578251E+01  2.3457756E+01
 1.8589750E+01  2.3486389E+01
 1.8601252E+01  2.3476749E+01
 1.8612751E+01  2.3492235E+01
 1.8624250E+01  2.3453640E+01
 1.8635752E+01  2.3478466E+01
 1.8647251E+01  2.3413095E+01
 1.8658751E+01  2.3400410E+01
 1.8670252E+01  2.3421671E+01
 1.8681751E+01  2.3529163E+01
 1.8693251E+01  2.3563667E+01
 1.8704750E+01  2.3546532E+01
 1.8716251E+01  2.3520260E+01
 1.8727751E+01  2.3502052E+01
 1.8739250E+01  2.3463274E+01
 1.8750751E+01  2.3458973E+01
 1.8762251E+01  2.3429029E+01
 1.8773750E+01  2.3447426E+01
 1.8785252E+01  2.3446524E+01
 1.8796751E+01  2.3514486E+01
 1.8808250E+01  2.3507793E+01
 1.8819752E+01  2.3533701E+01
 1.8831251E+01  2.3517036E+01
 1.8842751E+01  2.3548758E+01
 1.8854252E+01  2.3532976E+01
 1.8865751E+01  2.3511709E+01
 1.8877251E+01  2.3477615E+01
 1.8888750E+01  2.3475006E+01
 1.8900251E+01  2.3477173E+01
 1.8911751E+01  2.3521849E+01
 1.8923250E+01  2.3557871E+01
 1.8934752E+01  2.3600494E+01
 1.8946251E+01  2.3608255E+01
 1.8957750E+01  2.3559801E+01
 1.8969252E+01  2.3482967E+01
 1.8980751E+01  2.3468502E+01
 1.8992250E+01  2.3488005E+01
 1.9003752E+01  2.3486860E+01
 1.9015251E+01  2.3459990E+01
 1.9026751E+01  2.3497135E+01
 1.9038252E+01  2.3480747E+01
 1.9049751E+01  2.3498295E+01
 1.9061251E+01  2.3524166E+01
 1.9072750E+01  2.3618504E+01
 1.9084251E+01  2.3617695E+01
 1.9095751E+01  2.3622360E+01
 1.9107250E+01  2.3564405E+01
 1.9118752E+01  2.3512917E+01
 1.9130251E+01  2.3469465E+01
 1.9141750E+01  2.3503571E+01
 1.9153252E+01  2.3500469E+01
 1.9164751E+01  2.3479862E+01
 1.9176250E+01  2.3464769E+01
 1.9187752E+01  2.3527428E+01
 1.9199251E+01  2.3523041E+01
 1.9210751E+01  2.3517618E+01
 1.9222252E+01  2.3447979E+01
 1.9233751E+01  2.3493484E+01
 1.9245251E+01  2.3469967E+01
 1.9256750E+01  2.3459696E+01
 1.9268251E+01  2.3397066E+01
 1.9279751E+01  2.3426947E+01
 1.9291250E+01  2.3466135E+01
 1.9302752E+01  2.3513821E+01
 1.9314251E+01  2.3546780E+01
 1.9325750E+01  2.3576582E+01
 1.9337252E+01  2.3576183E+01
 1.9348751E+01  2.3557405E+01
 1.9360250E+01  2.3516848E+01
 1.9371752E+01  2.3516029E+01
 1.9383251E+01  2.3512754E+01
 1.9394751E+01  2.3542408E+01
 1.9406250E+01  2.3566643E+01
 1.9417751E+01  2.3583324E+01
 1.9429251E+01  2.3579399E+01
 1.9440750E+01  2.3561623E+01
 1.9452251E+01  2.3605028E+01
 1.9463751E+01  2.3645752E+01
 1.9475250E+01  2.3665060E+01
 1.9486752E+01  2.3593748E+01
 1.9498251E+01  2.3553951E+01
 1.9509750E+01  2.3498652E+01
 1.9521252E+01  2.3525478E+01
 1.9532751E+01  2.3576153E+01
 1.9544250E+01  2.3626263E+01
 1.9555752E+01  2.3608912E+01
 1.9567251E+01  2.3577791E+01
 1.9578751E+01  2.3583609E+01
 1.9590250E+01  2.3567118E+01
 1.9601751E+01  2.3562382E+01
 1.9613251E+01  2.3529533E+01
 1.9624750E+01  2.3518290E+01
 1.9636251E+01  2.3515142E+01
 1.9647751E+01  2.3547274E+01
 1.9659250E+01  2.3655985E+01
 1.9670752E+01  2.3720047E+01
 1.9682251E+01  2.3791071E+01
 1.9693750E+01  2.3826014E+01
 1.9705252E+01  2.3851086E+01
 1.9716751E+01  2.3872005E+01
 1.9728251E+01  2.3845030E+01
 1.9739752E+01  2.3808075E+01
 1.9751251E+01  2.3806198E+01
 1.9762751E+01  2.3769838E+01
 1.9774250E+01  2.3754425E+01
 1.9785751E+01  2.3735577E+01
 1.9797251E+01  2.3742384E+01
 1.9808750E+01  2.3793123E+01
 1.9820251E+01  2.3802786E+01
 1.9831751E+01  2.3966452E+01
 1.9843250E+01  2.4004578E+01
 1.9854752E+01  2.4072252E+01
 1.9866251E+01  2.3980364E+01
 1.9877750E+01  2.3896074E+01
 1.9889252E+01  2.3828684E+01
 1.9900751E+01  2.3782982E+01
 1.9912251E+01  2.3745443E+01
 1.9923752E+01  2.3702688E+01
 1.9935251E+01  2.3594700E+01
 1.9946751E+01  2.3542236E+01
 1.9958250E+01  2.3510052E+01
 1.9969751E+01  2.3530315E+01
 1.9981251E+01  2.3523426E+01
 1.9992750E+01  2.3558966E+01
 2.0004251E+01  2.3586817E+01
 2.0015751E+01  2.3626661E+01
 2.0027250E+01  2.3658541E+01
 2.0038752E+01  2.3670479E+01
 2.0050251E+01  2.3665182E+01
 2.0061750E+01  2.3626429E+01
 2.0073252E+01  2.3575022E+01
 2.0084751E+01  2.3517939E+01
 2.0096251E+01  2.3566032E+01
 2.0107752E+01  2.3593071E+01
 2.0119251E+01  2.3621799E+01
 2.0130751E+01  2.3622185E+01
 2.0142250E+01  2.3648781E+01
 2.0153751E+01  2.3682430E+01
 2.0165251E+01  2.3702459E+01
 2.0176750E+01  2.3721275E+01
 2.0188251E+01  2.3704744E+01
 2.0199751E+01  2.3661304E+01
 2.0211250E+01  2.3652678E+01
 2.0222752E+01  2.3685553E+01
 2.0234251E+01  2.3696428E+01
 2.0245750E+01  2.3715036E+01
 2.0257252E+01  2.3680010E+01
 2.0268751E+01  2.3660448E+01
 2.0280251E+01  2.3666969E+01
 2.0291752E+01  2.3690128E+01
 2.0303251E+01  2.3681257E+01
 2.0314751E+01  2.3636406E+01
 2.0326250E+01  2.3626162E+01
 2.0337751E+01  2.3641754E+01
 2.0349251E+01  2.3678101E+01
 2.0360750E+01  2.3706451E+01
 2.0372252E+01  2.3678999E+01
 2.0383751E+01  2.3663486E+01
 2.0395250E+01  2.3636559E+01
 2.0406752E+01  2.3641655E+01
 2.0418251E+01  2.3639011E+01
 2.0429750E+01  2.3629551E+01
 2.0441252E+01  2.3616539E+01
 2.0452751E+01  2.3591383E+01
 2.0464251E+01  2.3593756E+01
 2.0475752E+01  2.3650537E+01
 2.0487251E+01  2.3720989E+01
 2.0498751E+01  2.3760464E+01
 2.0510250E+01  2.3675995E+01
 2.0521751E+01  2.3623194E+01
 2.0533251E+01  2.3577541E+01
 2.0544750E+01  2.3636461E+01
 2.0556252E+01  2.3715139E+01
 2.0567751E+01  2.3757242E+01
 2.0579250E+01  2.3724453E+01
 2.0590752E+01  2.3728951E+01
 2.0602251E+01  2.3761835E+01
 2.0613750E+01  2.3737257E+01
 2.0625252E+01  2.3725348E+01
 2.0636751E+01  2.3735077E+01
 2.0648251E+01  2.3765362E+01
 2.0659752E+01  2.3750074E+01
 2.0671251E+01  2.3761959E+01
 2.0682751E+01  2.3807722E+01
 2.0694250E+01  2.3819378E+01
 2.0705751E+01  2.3858145E+01
 2.0717251E+01  2.3895647E+01
 2.0728750E+01  2.3900465E+01
 2.0740252E+01  2.3898132E+01
 2.0751751E+01  2.3909994E+01
 2.0763250E+01  2.3939442E+01
 2.0774752E+01  2.3918152E+01
 2.0786251E+01  2.3871498E+01
 2.0797750E+01  2.3842115E+01
 2.0809252E+01  2.3790310E+01
 2.0820751E+01  2.3733517E+01
 2.0832251E+01  2.3666155E+01
 2.0843752E+01  2.3636227E+01
 2.0855251E+01  2.3634880E+01
 2.0866751E+01  2.3593613E+01
 2.0878250E+01  2.3588257E+01
 2.0889751E+01  2.3631819E+01
 2.0901251E+01  2.3707811E+01
 2.0912750E+01  2.3753521E+01
 2.0924252E+01  2.3806635E+01
 2.0935751E+01  2.3782515E+01
 2.0947250E+01  2.3767778E+01
 2.0958752E+01  2.3728413E+01
 2.0970251E+01  2.3749067E+01
 2.0981750E+01  2.3769455E+01
 2.0993252E+01  2.3793041E+01
 2.1004751E+01  2.3790066E+01
 2.1016251E+01  2.3726332E+01
 2.1027752E+01  2.3746643E+01
 2.1039251E+01  2.3725584E+01
 2.1050751E+01  2.3721640E+01
 2.1062250E+01  2.3733532E+01
 2.1073751E+01  2.3819473E+01
 2.1085251E+01  2.3812201E+01
 2.1096750E+01  2.3799650E+01
 2.1108252E+01  2.3802542E+01
 2.1119751E+01  2.3854778E+01
 2.1131250E+01  2.3877167E+01
 2.1142752E+01  2.3877762E+01
 2.1154251E+01  2.3844559E+01
 2.1165751E+01  2.3854925E+01
 2.1177252E+01  2.3900331E+01
 2.1188751E+01  2.3920502E+01
 2.1200251E+01  2.3902094E+01
 2.1211752E+01  2.3893599E+01
 2.1223251E+01  2.3867382E+01
 2.1234751E+01  2.3858940E+01
 2.1246250E+01  2.3887882E+01
 2.1257751E+01  2.3937515E+01
 2.1269251E+01  2.3983622E+01
 2.1280750E+01  2.3995201E+01
 2.1292252E+01  2.3993891E+01
 2.1303751E+01  2.3929226E+01
 2.1315250E+01  2.3884258E+01
 2.1326752E+01  2.3846518E+01
 2.1338251E+01  2.3871967E+01
 2.1349751E+01  2.3867275E+01
 2.1361252E+01  2.3868073E+01
 2.1372751E+01  2.3861624E+01
 2.1384251E+01  2.3844282E+01
 2.1395752E+01  2.3845779E+01
 2.1407251E+01  2.3782608E+01
 2.1418751E+01  2.3815536E+01
 2.1430250E+01  2.3827316E+01
 2.1441751E+01  2.3864155E+01
 2.1453251E+01  2.3877539E+01
 2.1464750E+01  2.3907330E+01
 2.1476252E+01  2.3935598E+01
 2.1487751E+01  2.3981012E+01
 2.1499250E+01  2.3964396E+01
 2.1510752E+01  2.3964436E+01
 2.1522251E+01  2.3954449E+01
 2.1533751E+01  2.3993614E+01
 2.1545252E+01  2.3989935E+01
 2.1556751E+01  2.3997421E+01
 2.1568251E+01  2.3974222E+01
 2.1579752E+01  2.3979952E+01
 2.1591251E+01  2.3996777E+01
 2.1602751E+01  2.4009104E+01
 2.1614250E+01  2.4043644E+01
 2.1625751E+01  2.4030466E+01
 2.1637251E+01  2.4023512E+01
 2.1648750E+01  2.4024990E+01
 2.1660252E+01  2.4016396E+01
 2.1671751E+01  2.4046007E+01
 2.1683250E+01  2.4007519E+01
 2.1694752E+01  2.3994127E+01
 2.1706251E+01  2.4024570E+01
 2.1717751E+01  2.4079386E+01
 2.1729252E+01  2.4113461E+01
 2.1740751E+01  2.4129711E+01
 2.1752251E+01  2.4090347E+01
 2.1763752E+01  2.4041702E+01
 2.1775251E+01  2.4013693E+01
 2.1786751E+01  2.4072102E+01
 2.1798250E+01  2.4080347E+01
 2.1809752E+01  2.4103756E+01
 2.1821251E+01  2.4128281E+01
 2.1832750E+01  2.4100292E+01
 2.1844252E+01  2.4104666E+01
 2.1855751E+01  2.4105932E+01
 2.1867250E+01  2.4109308E+01
 2.1878752E+01  2.4095226E+01
 2.1890251E+01  2.4065826E+01
 2.1901751E+01  2.4065756E+01
 2.1913252E+01  2.4106071E+01
 2.1924751E+01  2.4130581E+01
 2.1936251E+01  2.4167742E+01
 2.1947752E+01  2.4162710E+01
 2.1959251E+01  2.4142239E+01
 2.1970751E+01  2.4128489E+01
 2.1982250E+01  2.4130512E+01
 2.1993752E+01  2.4159422E+01
 2.2005251E+01  2.4153860E+01
 2.2016750E+01  2.4168026E+01
 2.2028252E+01  2.4198721E+01
 2.2039751E+01  2.4217430E+01
 2.2051250E+01  2.4257389E+01
 2.2062752E+01  2.4255400E+01
 2.2074251E+01  2.4282257E+01
 2.2085751E+01  2.4258339E+01
 2.2097252E+01  2.4266945E+01
 2.2108751E+01  2.4274799E+01
 2.2120251E+01  2.4308853E+01
 2.2131752E+01  2.4287315E+01
 2.2143251E+01  2.4260679E+01
 2.2154751E+01  2.4284733E+01
 2.2166250E+01  2.4321463E+01
 2.2177752E+01  2.4372137E+01
 2.2189251E+01  2.4380060E+01
 2.2200750E+01  2.4384373E+01
 2.2212252E+01  2.4350948E+01
 2.2223751E+01  2.4328850E+01
 2.2235250E+01  2.4344576E+01
 2.2246752E+01  2.4381376E+01
 2.2258251E+01  2.4422766E+01
 2.2269751E+01  2.4440245E+01
 2.2281252E+01  2.4440138E+01
 2.2292751E+01  2.4450647E+01
 2.2304251E+01  2.4489962E+01
 2.2315752E+01  2.4525768E+01
 2.2327251E+01  2.4511154E+01
 2.2338751E+01  2.4456457E+01
 2.2350250E+01  2.4439165E+01
 2.2361752E+01  2.4417538E+01
 2.2373251E+01  2.4453918E+01
 2.2384750E+01  2.4459999E+01
 2.2396252E+01  2.4483231E+01
 2.2407751E+01  2.4459768E+01
 2.2419250E+01  2.4424948E+01
 2.2430752E+01  2.4422321E+01
 2.2442251E+01  2.4491228E+01
 2.2453751E+01  2.4540157E+01
 2.2465252E+01  2.4541773E+01
 2.2476751E+01  2.4564709E+01
 2.2488251E+01  2.4629040E+01
 2.2499752E+01  2.4660816E+01
 2.2511251E+01  2.4629454E+01
 2.2522751E+01  2.4650743E+01
 2.2534250E+01  2.4650648E+01
 2.2545752E+01  2.4701239E+01
 2.2557251E+01  2.4715158E+01
 2.2568750E+01  2.4753094E+01
 2.2580252E+01  2.4777027E+01
 2.2591751E+01  2.4793482E+01
 2.2603251E+01  2.4839453E+01
 2.2614752E+01  2.4898054E+01
 2.2626251E+01  2.4947195E+01
 2.2637751E+01  2.4964787E+01
 2.2649252E+01  2.4970428E+01
 2.2660751E+01  2.4970915E+01
 2.2672251E+01  2.5023474E+01
 2.2683752E+01  2.5084019E+01
 2.2695251E+01  2.5168270E+01
 2.2706751E+01  2.5154629E+01
 2.2718250E+01  2.5175653E+01
 2.2729752E+01  2.5165243E+01
 2.2741251E+01  2.5220348E+01
 2.2752750E+01  2.5193859E+01
 2.2764252E+01  2.5173136E+01
 2.2775751E+01  2.5184511E+01
 2.2787251E+01  2.5186865E+01
 2.2798752E+01  2.5259378E+01
 2.2810251E+01  2.5340279E+01
 2.2821751E+01  2.5394800E+01
 2.2833252E+01  2.5417236E+01
 2.2844751E+01  2.5432848E+01
 2.2856251E+01  2.5518970E+01
 2.2867750E+01  2.5613153E+01
 2.2879251E+01  2.5688200E+01
 2.2890751E+01  2.5719629E+01
 2.2902250E+01  2.5726492E+01
 2.2913752E+01  2.5799932E+01
 2.2925251E+01  2.5815134E+01
 2.2936750E+01  2.5769653E+01
 2.2948252E+01  2.5750025E+01
 2.2959751E+01  2.5750486E+01
 2.2971251E+01  2.5893522E+01
 2.2982752E+01  2.5966112E+01
 2.2994251E+01  2.6079088E+01
