F:\20151113_APS_34IDE\\Brian\Particle1\OCV\Data_0121.tif
2-Theta Angle (Degrees)
Intensity
       2000
 5.7500005E-03  0.0000000E+00
 1.7250001E-02  0.0000000E+00
 2.8750001E-02  0.0000000E+00
 4.0250003E-02  0.0000000E+00
 5.1750004E-02  0.0000000E+00
 6.3250005E-02  0.0000000E+00
 7.4750006E-02  0.0000000E+00
 8.6250007E-02  0.0000000E+00
 9.7750008E-02  0.0000000E+00
 1.0925001E-01  0.0000000E+00
 1.2075000E-01  0.0000000E+00
 1.3225001E-01  0.0000000E+00
 1.4375001E-01  0.0000000E+00
 1.5525001E-01  0.0000000E+00
 1.6675001E-01  0.0000000E+00
 1.7825001E-01  0.0000000E+00
 1.8975002E-01  0.0000000E+00
 2.0125002E-01  0.0000000E+00
 2.1275002E-01  0.0000000E+00
 2.2425000E-01  0.0000000E+00
 2.3575000E-01  0.0000000E+00
 2.4725001E-01  0.0000000E+00
 2.5875002E-01  0.0000000E+00
 2.7025002E-01  0.0000000E+00
 2.8175002E-01  0.0000000E+00
 2.9325002E-01  0.0000000E+00
 3.0475003E-01  0.0000000E+00
 3.1625003E-01  0.0000000E+00
 3.2775003E-01  0.0000000E+00
 3.3925003E-01  0.0000000E+00
 3.5075003E-01  0.0000000E+00
 3.6225003E-01  0.0000000E+00
 3.7375003E-01  0.0000000E+00
 3.8525003E-01  0.0000000E+00
 3.9675003E-01  0.0000000E+00
 4.0825003E-01  0.0000000E+00
 4.1975003E-01  0.0000000E+00
 4.3125004E-01  0.0000000E+00
 4.4275001E-01  0.0000000E+00
 4.5425001E-01  0.0000000E+00
 4.6575001E-01  0.0000000E+00
 4.7725001E-01  0.0000000E+00
 4.8875001E-01  0.0000000E+00
 5.0025004E-01  0.0000000E+00
 5.1175004E-01  0.0000000E+00
 5.2325004E-01  0.0000000E+00
 5.3475004E-01  0.0000000E+00
 5.4625005E-01  0.0000000E+00
 5.5775005E-01  0.0000000E+00
 5.6925005E-01  0.0000000E+00
 5.8075005E-01  0.0000000E+00
 5.9225005E-01  0.0000000E+00
 6.0375005E-01  0.0000000E+00
 6.1525005E-01  0.0000000E+00
 6.2675005E-01  0.0000000E+00
 6.3825005E-01  0.0000000E+00
 6.4975005E-01  0.0000000E+00
 6.6125005E-01  0.0000000E+00
 6.7275006E-01  0.0000000E+00
 6.8425006E-01  0.0000000E+00
 6.9575006E-01  0.0000000E+00
 7.0725006E-01  0.0000000E+00
 7.1875006E-01  0.0000000E+00
 7.3025006E-01  0.0000000E+00
 7.4175006E-01  0.0000000E+00
 7.5325006E-01  0.0000000E+00
 7.6475006E-01  0.0000000E+00
 7.7625006E-01  0.0000000E+00
 7.8775007E-01  0.0000000E+00
 7.9925007E-01  0.0000000E+00
 8.1075007E-01  0.0000000E+00
 8.2225007E-01  0.0000000E+00
 8.3375007E-01  0.0000000E+00
 8.4525007E-01  0.0000000E+00
 8.5675007E-01  0.0000000E+00
 8.6825007E-01  0.0000000E+00
 8.7975001E-01  0.0000000E+00
 8.9125001E-01  0.0000000E+00
 9.0275002E-01  0.0000000E+00
 9.1425002E-01  0.0000000E+00
 9.2575002E-01  0.0000000E+00
 9.3725002E-01  0.0000000E+00
 9.4875002E-01  0.0000000E+00
 9.6025002E-01  0.0000000E+00
 9.7175002E-01  0.0000000E+00
 9.8325002E-01  0.0000000E+00
 9.9475002E-01  0.0000000E+00
 1.0062500E+00  0.0000000E+00
 1.0177500E+00  0.0000000E+00
 1.0292500E+00  0.0000000E+00
 1.0407500E+00  0.0000000E+00
 1.0522500E+00  0.0000000E+00
 1.0637500E+00  0.0000000E+00
 1.0752500E+00  0.0000000E+00
 1.0867500E+00  0.0000000E+00
 1.0982500E+00  0.0000000E+00
 1.1097500E+00  0.0000000E+00
 1.1212500E+00  0.0000000E+00
 1.1327500E+00  0.0000000E+00
 1.1442500E+00  0.0000000E+00
 1.1557500E+00  0.0000000E+00
 1.1672500E+00  0.0000000E+00
 1.1787500E+00  0.0000000E+00
 1.1902500E+00  0.0000000E+00
 1.2017500E+00  0.0000000E+00
 1.2132500E+00  0.0000000E+00
 1.2247500E+00  0.0000000E+00
 1.2362500E+00  0.0000000E+00
 1.2477500E+00  0.0000000E+00
 1.2592500E+00  0.0000000E+00
 1.2707500E+00  0.0000000E+00
 1.2822500E+00  0.0000000E+00
 1.2937500E+00  0.0000000E+00
 1.3052500E+00  0.0000000E+00
 1.3167500E+00  0.0000000E+00
 1.3282501E+00  0.0000000E+00
 1.3397501E+00  0.0000000E+00
 1.3512501E+00  0.0000000E+00
 1.3627501E+00  0.0000000E+00
 1.3742501E+00  0.0000000E+00
 1.3857501E+00  0.0000000E+00
 1.3972501E+00  0.0000000E+00
 1.4087501E+00  0.0000000E+00
 1.4202501E+00  0.0000000E+00
 1.4317501E+00  0.0000000E+00
 1.4432501E+00  0.0000000E+00
 1.4547501E+00  0.0000000E+00
 1.4662501E+00  0.0000000E+00
 1.4777501E+00  0.0000000E+00
 1.4892501E+00  0.0000000E+00
 1.5007501E+00  0.0000000E+00
 1.5122501E+00  0.0000000E+00
 1.5237501E+00  0.0000000E+00
 1.5352501E+00  0.0000000E+00
 1.5467501E+00  0.0000000E+00
 1.5582501E+00  0.0000000E+00
 1.5697501E+00  0.0000000E+00
 1.5812501E+00  0.0000000E+00
 1.5927501E+00  0.0000000E+00
 1.6042501E+00  0.0000000E+00
 1.6157501E+00  0.0000000E+00
 1.6272501E+00  0.0000000E+00
 1.6387501E+00  0.0000000E+00
 1.6502501E+00  0.0000000E+00
 1.6617501E+00  0.0000000E+00
 1.6732501E+00  0.0000000E+00
 1.6847501E+00  0.0000000E+00
 1.6962501E+00  0.0000000E+00
 1.7077501E+00  0.0000000E+00
 1.7192501E+00  0.0000000E+00
 1.7307501E+00  0.0000000E+00
 1.7422501E+00  0.0000000E+00
 1.7537501E+00  0.0000000E+00
 1.7652501E+00  0.0000000E+00
 1.7767501E+00  0.0000000E+00
 1.7882501E+00  0.0000000E+00
 1.7997501E+00  0.0000000E+00
 1.8112501E+00  0.0000000E+00
 1.8227501E+00  0.0000000E+00
 1.8342501E+00  0.0000000E+00
 1.8457501E+00  0.0000000E+00
 1.8572501E+00  0.0000000E+00
 1.8687501E+00  0.0000000E+00
 1.8802501E+00  0.0000000E+00
 1.8917501E+00  0.0000000E+00
 1.9032501E+00  0.0000000E+00
 1.9147501E+00  0.0000000E+00
 1.9262501E+00  0.0000000E+00
 1.9377501E+00  0.0000000E+00
 1.9492501E+00  0.0000000E+00
 1.9607501E+00  0.0000000E+00
 1.9722501E+00  0.0000000E+00
 1.9837501E+00  0.0000000E+00
 1.9952501E+00  0.0000000E+00
 2.0067501E+00  0.0000000E+00
 2.0182500E+00  0.0000000E+00
 2.0297501E+00  0.0000000E+00
 2.0412500E+00  0.0000000E+00
 2.0527501E+00  0.0000000E+00
 2.0642500E+00  0.0000000E+00
 2.0757501E+00  0.0000000E+00
 2.0872500E+00  0.0000000E+00
 2.0987501E+00  0.0000000E+00
 2.1102500E+00  0.0000000E+00
 2.1217501E+00  0.0000000E+00
 2.1332500E+00  0.0000000E+00
 2.1447501E+00  0.0000000E+00
 2.1562500E+00  0.0000000E+00
 2.1677501E+00  0.0000000E+00
 2.1792500E+00  0.0000000E+00
 2.1907501E+00  0.0000000E+00
 2.2022500E+00  0.0000000E+00
 2.2137501E+00  0.0000000E+00
 2.2252500E+00  0.0000000E+00
 2.2367501E+00  0.0000000E+00
 2.2482500E+00  0.0000000E+00
 2.2597501E+00  0.0000000E+00
 2.2712500E+00  0.0000000E+00
 2.2827501E+00  0.0000000E+00
 2.2942500E+00  0.0000000E+00
 2.3057501E+00  0.0000000E+00
 2.3172500E+00  0.0000000E+00
 2.3287501E+00  0.0000000E+00
 2.3402500E+00  0.0000000E+00
 2.3517501E+00  0.0000000E+00
 2.3632500E+00  0.0000000E+00
 2.3747501E+00  0.0000000E+00
 2.3862500E+00  0.0000000E+00
 2.3977501E+00  0.0000000E+00
 2.4092500E+00  0.0000000E+00
 2.4207501E+00  0.0000000E+00
 2.4322500E+00  0.0000000E+00
 2.4437501E+00  0.0000000E+00
 2.4552500E+00  0.0000000E+00
 2.4667501E+00  0.0000000E+00
 2.4782500E+00  0.0000000E+00
 2.4897501E+00  0.0000000E+00
 2.5012500E+00  0.0000000E+00
 2.5127501E+00  0.0000000E+00
 2.5242500E+00  0.0000000E+00
 2.5357502E+00  0.0000000E+00
 2.5472500E+00  0.0000000E+00
 2.5587502E+00  0.0000000E+00
 2.5702500E+00  0.0000000E+00
 2.5817502E+00  0.0000000E+00
 2.5932500E+00  0.0000000E+00
 2.6047502E+00  0.0000000E+00
 2.6162500E+00  0.0000000E+00
 2.6277502E+00  0.0000000E+00
 2.6392500E+00  0.0000000E+00
 2.6507502E+00  0.0000000E+00
 2.6622500E+00  0.0000000E+00
 2.6737502E+00  0.0000000E+00
 2.6852500E+00  0.0000000E+00
 2.6967502E+00  0.0000000E+00
 2.7082500E+00  0.0000000E+00
 2.7197502E+00  0.0000000E+00
 2.7312500E+00  0.0000000E+00
 2.7427502E+00  0.0000000E+00
 2.7542500E+00  0.0000000E+00
 2.7657502E+00  0.0000000E+00
 2.7772501E+00  0.0000000E+00
 2.7887502E+00  0.0000000E+00
 2.8002501E+00  0.0000000E+00
 2.8117502E+00  0.0000000E+00
 2.8232501E+00  3.2748650E+01
 2.8347502E+00  3.2042439E+01
 2.8462501E+00  3.2572506E+01
 2.8577502E+00  3.2673122E+01
 2.8692501E+00  3.3456932E+01
 2.8807502E+00  3.4165081E+01
 2.8922501E+00  3.4565331E+01
 2.9037502E+00  3.4725040E+01
 2.9152501E+00  3.4701351E+01
 2.9267502E+00  3.4765308E+01
 2.9382501E+00  3.4823448E+01
 2.9497502E+00  3.5147099E+01
 2.9612501E+00  3.5345131E+01
 2.9727502E+00  3.5543316E+01
 2.9842501E+00  3.5482841E+01
 2.9957502E+00  3.5310101E+01
 3.0072501E+00  3.5154812E+01
 3.0187502E+00  3.5041164E+01
 3.0302501E+00  3.4931183E+01
 3.0417502E+00  3.4728985E+01
 3.0532501E+00  3.4374981E+01
 3.0647502E+00  3.4329582E+01
 3.0762501E+00  3.4567982E+01
 3.0877502E+00  3.4862812E+01
 3.0992501E+00  3.5420769E+01
 3.1107502E+00  3.5323586E+01
 3.1222501E+00  3.5438766E+01
 3.1337502E+00  3.5187874E+01
 3.1452501E+00  3.5249805E+01
 3.1567502E+00  3.5286255E+01
 3.1682501E+00  3.5172657E+01
 3.1797502E+00  3.5005264E+01
 3.1912501E+00  3.4678101E+01
 3.2027502E+00  3.4483185E+01
 3.2142501E+00  3.4211868E+01
 3.2257502E+00  3.4258186E+01
 3.2372501E+00  3.4087357E+01
 3.2487502E+00  3.4001514E+01
 3.2602501E+00  3.4040226E+01
 3.2717502E+00  3.3630463E+01
 3.2832501E+00  3.3675072E+01
 3.2947502E+00  3.3478188E+01
 3.3062501E+00  3.3557659E+01
 3.3177502E+00  3.3662876E+01
 3.3292501E+00  3.3582050E+01
 3.3407502E+00  3.4008175E+01
 3.3522501E+00  3.3934811E+01
 3.3637502E+00  3.4410767E+01
 3.3752501E+00  3.4431767E+01
 3.3867502E+00  3.4572941E+01
 3.3982501E+00  3.4204041E+01
 3.4097502E+00  3.4280861E+01
 3.4212501E+00  3.4121319E+01
 3.4327502E+00  3.4395405E+01
 3.4442501E+00  3.4413662E+01
 3.4557502E+00  3.4578247E+01
 3.4672501E+00  3.4686008E+01
 3.4787502E+00  3.4655922E+01
 3.4902501E+00  3.4652027E+01
 3.5017502E+00  3.4499748E+01
 3.5132501E+00  3.4254681E+01
 3.5247502E+00  3.3978798E+01
 3.5362501E+00  3.4012627E+01
 3.5477502E+00  3.3951496E+01
 3.5592501E+00  3.3805939E+01
 3.5707502E+00  3.3527176E+01
 3.5822501E+00  3.3345524E+01
 3.5937502E+00  3.3114338E+01
 3.6052501E+00  3.3109043E+01
 3.6167502E+00  3.2991940E+01
 3.6282501E+00  3.3125031E+01
 3.6397502E+00  3.2972599E+01
 3.6512501E+00  3.3036221E+01
 3.6627502E+00  3.3049736E+01
 3.6742501E+00  3.3144062E+01
 3.6857502E+00  3.3100899E+01
 3.6972501E+00  3.3045116E+01
 3.7087502E+00  3.2990143E+01
 3.7202501E+00  3.3076233E+01
 3.7317502E+00  3.3024391E+01
 3.7432501E+00  3.2984741E+01
 3.7547503E+00  3.2947174E+01
 3.7662501E+00  3.2848370E+01
 3.7777503E+00  3.2752632E+01
 3.7892501E+00  3.2583012E+01
 3.8007503E+00  3.2552765E+01
 3.8122501E+00  3.2593266E+01
 3.8237503E+00  3.2577000E+01
 3.8352501E+00  3.2458622E+01
 3.8467503E+00  3.2450176E+01
 3.8582501E+00  3.2403957E+01
 3.8697503E+00  3.2470730E+01
 3.8812501E+00  3.2449860E+01
 3.8927503E+00  3.2391747E+01
 3.9042501E+00  3.2399223E+01
 3.9157503E+00  3.2300041E+01
 3.9272501E+00  3.2362728E+01
 3.9387503E+00  3.2139713E+01
 3.9502501E+00  3.2019009E+01
 3.9617503E+00  3.1932102E+01
 3.9732502E+00  3.1951805E+01
 3.9847503E+00  3.2087231E+01
 3.9962502E+00  3.2269169E+01
 4.0077500E+00  3.2471207E+01
 4.0192504E+00  3.2403015E+01
 4.0307503E+00  3.2390724E+01
 4.0422502E+00  3.2371822E+01
 4.0537500E+00  3.2419743E+01
 4.0652504E+00  3.2473862E+01
 4.0767503E+00  3.2327621E+01
 4.0882502E+00  3.2460712E+01
 4.0997500E+00  3.2345318E+01
 4.1112504E+00  3.2409611E+01
 4.1227503E+00  3.2265110E+01
 4.1342502E+00  3.2294113E+01
 4.1457500E+00  3.2180870E+01
 4.1572504E+00  3.2115654E+01
 4.1687503E+00  3.1988907E+01
 4.1802502E+00  3.1983980E+01
 4.1917500E+00  3.2134438E+01
 4.2032504E+00  3.2185287E+01
 4.2147503E+00  3.2226601E+01
 4.2262502E+00  3.2035961E+01
 4.2377501E+00  3.1978647E+01
 4.2492504E+00  3.1772478E+01
 4.2607503E+00  3.1806572E+01
 4.2722502E+00  3.1645180E+01
 4.2837501E+00  3.1702744E+01
 4.2952504E+00  3.1656656E+01
 4.3067503E+00  3.1783125E+01
 4.3182502E+00  3.1862871E+01
 4.3297501E+00  3.1918638E+01
 4.3412504E+00  3.1936052E+01
 4.3527503E+00  3.1681093E+01
 4.3642502E+00  3.1529364E+01
 4.3757501E+00  3.1431511E+01
 4.3872504E+00  3.1444851E+01
 4.3987503E+00  3.1512802E+01
 4.4102502E+00  3.1619892E+01
 4.4217501E+00  3.1793655E+01
 4.4332504E+00  3.2004227E+01
 4.4447503E+00  3.1996973E+01
 4.4562502E+00  3.2015518E+01
 4.4677501E+00  3.2028687E+01
 4.4792504E+00  3.2204166E+01
 4.4907503E+00  3.2067265E+01
 4.5022502E+00  3.2105415E+01
 4.5137501E+00  3.1930017E+01
 4.5252504E+00  3.2123310E+01
 4.5367503E+00  3.2017445E+01
 4.5482502E+00  3.1995028E+01
 4.5597501E+00  3.2041595E+01
 4.5712504E+00  3.2220310E+01
 4.5827503E+00  3.2390224E+01
 4.5942502E+00  3.2445179E+01
 4.6057501E+00  3.2460613E+01
 4.6172504E+00  3.2423103E+01
 4.6287503E+00  3.2353981E+01
 4.6402502E+00  3.2310524E+01
 4.6517501E+00  3.2362728E+01
 4.6632504E+00  3.2421719E+01
 4.6747503E+00  3.2489944E+01
 4.6862502E+00  3.2410439E+01
 4.6977501E+00  3.2421124E+01
 4.7092505E+00  3.2419937E+01
 4.7207503E+00  3.2464619E+01
 4.7322502E+00  3.2434052E+01
 4.7437501E+00  3.2376461E+01
 4.7552505E+00  3.2264133E+01
 4.7667503E+00  3.2176891E+01
 4.7782502E+00  3.2110981E+01
 4.7897501E+00  3.2102184E+01
 4.8012505E+00  3.2069435E+01
 4.8127503E+00  3.1997280E+01
 4.8242502E+00  3.2166039E+01
 4.8357501E+00  3.2200752E+01
 4.8472505E+00  3.2382607E+01
 4.8587503E+00  3.2369148E+01
 4.8702502E+00  3.2371635E+01
 4.8817501E+00  3.2357494E+01
 4.8932505E+00  3.2311996E+01
 4.9047503E+00  3.2458122E+01
 4.9162502E+00  3.2894718E+01
 4.9277501E+00  3.2982986E+01
 4.9392505E+00  3.3212982E+01
 4.9507504E+00  3.2995075E+01
 4.9622502E+00  3.2968090E+01
 4.9737501E+00  3.2937462E+01
 4.9852505E+00  3.2835800E+01
 4.9967504E+00  3.2895981E+01
 5.0082502E+00  3.2836494E+01
 5.0197501E+00  3.2974403E+01
 5.0312505E+00  3.3000347E+01
 5.0427504E+00  3.2966671E+01
 5.0542502E+00  3.2894981E+01
 5.0657501E+00  3.2863186E+01
 5.0772505E+00  3.2852272E+01
 5.0887504E+00  3.2975937E+01
 5.1002502E+00  3.3079620E+01
 5.1117501E+00  3.3141811E+01
 5.1232505E+00  3.3259914E+01
 5.1347504E+00  3.3365135E+01
 5.1462502E+00  3.3511150E+01
 5.1577501E+00  3.3383411E+01
 5.1692505E+00  3.3263718E+01
 5.1807504E+00  3.3186520E+01
 5.1922503E+00  3.3271038E+01
 5.2037501E+00  3.3203991E+01
 5.2152505E+00  3.3381500E+01
 5.2267504E+00  3.3464443E+01
 5.2382503E+00  3.3706429E+01
 5.2497501E+00  3.3780819E+01
 5.2612505E+00  3.3843380E+01
 5.2727504E+00  3.3770908E+01
 5.2842503E+00  3.3842373E+01
 5.2957501E+00  3.3791039E+01
 5.3072500E+00  3.3912315E+01
 5.3187504E+00  3.3843113E+01
 5.3302503E+00  3.3873428E+01
 5.3417501E+00  3.3906834E+01
 5.3532500E+00  3.3801483E+01
 5.3647504E+00  3.3823280E+01
 5.3762503E+00  3.3797783E+01
 5.3877501E+00  3.4000134E+01
 5.3992500E+00  3.4116539E+01
 5.4107504E+00  3.4212936E+01
 5.4222503E+00  3.4260227E+01
 5.4337502E+00  3.4306404E+01
 5.4452500E+00  3.4363953E+01
 5.4567504E+00  3.4404057E+01
 5.4682503E+00  3.4526779E+01
 5.4797502E+00  3.4587410E+01
 5.4912500E+00  3.4599445E+01
 5.5027504E+00  3.4584461E+01
 5.5142503E+00  3.4601677E+01
 5.5257502E+00  3.4659142E+01
 5.5372500E+00  3.4718102E+01
 5.5487504E+00  3.4668472E+01
 5.5602503E+00  3.4618866E+01
 5.5717502E+00  3.4544727E+01
 5.5832500E+00  3.4529446E+01
 5.5947504E+00  3.4546509E+01
 5.6062503E+00  3.4654888E+01
 5.6177502E+00  3.4643749E+01
 5.6292500E+00  3.4714108E+01
 5.6407504E+00  3.4694496E+01
 5.6522503E+00  3.4818016E+01
 5.6637502E+00  3.4905613E+01
 5.6752501E+00  3.5072258E+01
 5.6867504E+00  3.5136520E+01
 5.6982503E+00  3.5245785E+01
 5.7097502E+00  3.5199230E+01
 5.7212501E+00  3.5221664E+01
 5.7327504E+00  3.5214405E+01
 5.7442503E+00  3.5202084E+01
 5.7557502E+00  3.5222530E+01
 5.7672501E+00  3.5147636E+01
 5.7787504E+00  3.5128864E+01
 5.7902503E+00  3.5141056E+01
 5.8017502E+00  3.5176498E+01
 5.8132501E+00  3.5290359E+01
 5.8247504E+00  3.5318684E+01
 5.8362503E+00  3.5470253E+01
 5.8477502E+00  3.5467030E+01
 5.8592501E+00  3.5427895E+01
 5.8707504E+00  3.5463833E+01
 5.8822503E+00  3.5515152E+01
 5.8937502E+00  3.5585018E+01
 5.9052501E+00  3.5647884E+01
 5.9167504E+00  3.5663441E+01
 5.9282503E+00  3.6042431E+01
 5.9397502E+00  3.6441189E+01
 5.9512501E+00  3.6938095E+01
 5.9627504E+00  3.7438812E+01
 5.9742503E+00  3.7673977E+01
 5.9857502E+00  3.7905075E+01
 5.9972501E+00  3.7640759E+01
 6.0087504E+00  3.7368980E+01
 6.0202503E+00  3.6820190E+01
 6.0317502E+00  3.6528259E+01
 6.0432501E+00  3.6202583E+01
 6.0547504E+00  3.6149422E+01
 6.0662503E+00  3.6124153E+01
 6.0777502E+00  3.6105789E+01
 6.0892501E+00  3.6188721E+01
 6.1007504E+00  3.6157051E+01
 6.1122503E+00  3.6163376E+01
 6.1237502E+00  3.6104614E+01
 6.1352501E+00  3.6064018E+01
 6.1467505E+00  3.6030190E+01
 6.1582503E+00  3.6168709E+01
 6.1697502E+00  3.6312492E+01
 6.1812501E+00  3.6554718E+01
 6.1927505E+00  3.6612186E+01
 6.2042503E+00  3.6697983E+01
 6.2157502E+00  3.6709503E+01
 6.2272501E+00  3.6854546E+01
 6.2387505E+00  3.6903606E+01
 6.2502503E+00  3.6904877E+01
 6.2617502E+00  3.6875366E+01
 6.2732501E+00  3.6961243E+01
 6.2847505E+00  3.7173717E+01
 6.2962503E+00  3.7368057E+01
 6.3077502E+00  3.7543915E+01
 6.3192501E+00  3.7769180E+01
 6.3307505E+00  3.7909153E+01
 6.3422503E+00  3.7957031E+01
 6.3537502E+00  3.7954613E+01
 6.3652501E+00  3.7919228E+01
 6.3767505E+00  3.7915314E+01
 6.3882504E+00  3.7908585E+01
 6.3997502E+00  3.7920185E+01
 6.4112501E+00  3.7973621E+01
 6.4227505E+00  3.7924416E+01
 6.4342504E+00  3.7895363E+01
 6.4457502E+00  3.7854954E+01
 6.4572501E+00  3.7906616E+01
 6.4687505E+00  3.7963650E+01
 6.4802504E+00  3.8077183E+01
 6.4917502E+00  3.8215538E+01
 6.5032501E+00  3.8444420E+01
 6.5147505E+00  3.8690979E+01
 6.5262504E+00  3.8879482E+01
 6.5377502E+00  3.8950954E+01
 6.5492501E+00  3.9062382E+01
 6.5607505E+00  3.9128231E+01
 6.5722504E+00  3.9224842E+01
 6.5837502E+00  3.9267384E+01
 6.5952501E+00  3.9335423E+01
 6.6067505E+00  3.9488842E+01
 6.6182504E+00  3.9670540E+01
 6.6297503E+00  3.9815273E+01
 6.6412501E+00  3.9851719E+01
 6.6527505E+00  3.9895645E+01
 6.6642504E+00  3.9959641E+01
 6.6757503E+00  3.9985489E+01
 6.6872501E+00  3.9957386E+01
 6.6987505E+00  3.9832821E+01
 6.7102504E+00  3.9885750E+01
 6.7217503E+00  4.0012844E+01
 6.7332501E+00  4.0202492E+01
 6.7447505E+00  4.0343842E+01
 6.7562504E+00  4.0418682E+01
 6.7677503E+00  4.0545601E+01
 6.7792501E+00  4.0533630E+01
 6.7907505E+00  4.0559872E+01
 6.8022504E+00  4.0647144E+01
 6.8137503E+00  4.0828251E+01
 6.8252501E+00  4.1010918E+01
 6.8367505E+00  4.1122589E+01
 6.8482504E+00  4.1252457E+01
 6.8597503E+00  4.1371338E+01
 6.8712502E+00  4.1402142E+01
 6.8827505E+00  4.1481178E+01
 6.8942504E+00  4.1463436E+01
 6.9057503E+00  4.1631001E+01
 6.9172502E+00  4.1691441E+01
 6.9287505E+00  4.1734173E+01
 6.9402504E+00  4.1749840E+01
 6.9517503E+00  4.1700027E+01
 6.9632502E+00  4.1792690E+01
 6.9747505E+00  4.1831913E+01
 6.9862504E+00  4.1948277E+01
 6.9977503E+00  4.1968666E+01
 7.0092502E+00  4.1974815E+01
 7.0207505E+00  4.2027866E+01
 7.0322504E+00  4.2089516E+01
 7.0437503E+00  4.2224979E+01
 7.0552502E+00  4.2318089E+01
 7.0667505E+00  4.2436371E+01
 7.0782504E+00  4.2382652E+01
 7.0897503E+00  4.2335033E+01
 7.1012502E+00  4.2320919E+01
 7.1127505E+00  4.2451309E+01
 7.1242504E+00  4.2585892E+01
 7.1357503E+00  4.2734112E+01
 7.1472502E+00  4.2809937E+01
 7.1587505E+00  4.2875416E+01
 7.1702504E+00  4.2954811E+01
 7.1817503E+00  4.2980068E+01
 7.1932502E+00  4.3057610E+01
 7.2047505E+00  4.3137413E+01
 7.2162504E+00  4.3214554E+01
 7.2277503E+00  4.3255512E+01
 7.2392502E+00  4.3352303E+01
 7.2507505E+00  4.3321636E+01
 7.2622504E+00  4.3362595E+01
 7.2737503E+00  4.3274696E+01
 7.2852502E+00  4.3317417E+01
 7.2967505E+00  4.3310993E+01
 7.3082504E+00  4.3336349E+01
 7.3197503E+00  4.3370029E+01
 7.3312502E+00  4.3484898E+01
 7.3427505E+00  4.3578838E+01
 7.3542504E+00  4.3746555E+01
 7.3657503E+00  4.3866978E+01
 7.3772502E+00  4.3874435E+01
 7.3887506E+00  4.3937141E+01
 7.4002504E+00  4.3821838E+01
 7.4117503E+00  4.3940151E+01
 7.4232502E+00  4.3841213E+01
 7.4347506E+00  4.3959938E+01
 7.4462504E+00  4.3918938E+01
 7.4577503E+00  4.3975399E+01
 7.4692502E+00  4.3968967E+01
 7.4807506E+00  4.4051441E+01
 7.4922504E+00  4.4249229E+01
 7.5037503E+00  4.4369991E+01
 7.5152502E+00  4.4372021E+01
 7.5267506E+00  4.4266308E+01
 7.5382504E+00  4.4157646E+01
 7.5497503E+00  4.4132942E+01
 7.5612502E+00  4.4122784E+01
 7.5727506E+00  4.4143211E+01
 7.5842505E+00  4.4158966E+01
 7.5957503E+00  4.4199188E+01
 7.6072502E+00  4.4279736E+01
 7.6187506E+00  4.4331055E+01
 7.6302505E+00  4.4303211E+01
 7.6417503E+00  4.4296345E+01
 7.6532502E+00  4.4233646E+01
 7.6647506E+00  4.4255032E+01
 7.6762505E+00  4.4191830E+01
 7.6877503E+00  4.4160400E+01
 7.6992502E+00  4.4113613E+01
 7.7107506E+00  4.4048325E+01
 7.7222505E+00  4.3985142E+01
 7.7337503E+00  4.3936890E+01
 7.7452502E+00  4.3841259E+01
 7.7567506E+00  4.3767445E+01
 7.7682505E+00  4.3724430E+01
 7.7797503E+00  4.3869545E+01
 7.7912502E+00  4.4023693E+01
 7.8027506E+00  4.4022476E+01
 7.8142505E+00  4.4066784E+01
 7.8257504E+00  4.4003899E+01
 7.8372502E+00  4.4030758E+01
 7.8487506E+00  4.3891212E+01
 7.8602505E+00  4.3814350E+01
 7.8717504E+00  4.3692497E+01
 7.8832502E+00  4.3600296E+01
 7.8947506E+00  4.3493988E+01
 7.9062505E+00  4.3462437E+01
 7.9177504E+00  4.3448368E+01
 7.9292502E+00  4.3398361E+01
 7.9407506E+00  4.3376507E+01
 7.9522505E+00  4.3265781E+01
 7.9637504E+00  4.3262459E+01
 7.9752502E+00  4.3257641E+01
 7.9867506E+00  4.3350372E+01
 7.9982505E+00  4.3313637E+01
 8.0097504E+00  4.3274391E+01
 8.0212507E+00  4.3158997E+01
 8.0327501E+00  4.3113609E+01
 8.0442505E+00  4.3127693E+01
 8.0557508E+00  4.3022652E+01
 8.0672503E+00  4.2934872E+01
 8.0787506E+00  4.2805073E+01
 8.0902500E+00  4.2745975E+01
 8.1017504E+00  4.2718117E+01
 8.1132507E+00  4.2574821E+01
 8.1247501E+00  4.2379356E+01
 8.1362505E+00  4.2118977E+01
 8.1477509E+00  4.1892281E+01
 8.1592503E+00  4.1867065E+01
 8.1707506E+00  4.1857529E+01
 8.1822500E+00  4.1769970E+01
 8.1937504E+00  4.1629234E+01
 8.2052507E+00  4.1413223E+01
 8.2167501E+00  4.1300201E+01
 8.2282505E+00  4.1100220E+01
 8.2397509E+00  4.1010155E+01
 8.2512503E+00  4.0856640E+01
 8.2627506E+00  4.0821060E+01
 8.2742500E+00  4.0718872E+01
 8.2857504E+00  4.0626392E+01
 8.2972507E+00  4.0476833E+01
 8.3087502E+00  4.0291325E+01
 8.3202505E+00  4.0163498E+01
 8.3317509E+00  4.0006165E+01
 8.3432503E+00  3.9806316E+01
 8.3547506E+00  3.9709747E+01
 8.3662500E+00  3.9506939E+01
 8.3777504E+00  3.9470474E+01
 8.3892508E+00  3.9313862E+01
 8.4007502E+00  3.9160439E+01
 8.4122505E+00  3.8967903E+01
 8.4237509E+00  3.8729630E+01
 8.4352503E+00  3.8529762E+01
 8.4467506E+00  3.8409348E+01
 8.4582500E+00  3.8291374E+01
 8.4697504E+00  3.8197586E+01
 8.4812508E+00  3.7950672E+01
 8.4927502E+00  3.7765770E+01
 8.5042505E+00  3.7597626E+01
 8.5157509E+00  3.7531208E+01
 8.5272503E+00  3.7419212E+01
 8.5387506E+00  3.7359146E+01
 8.5502501E+00  3.7097446E+01
 8.5617504E+00  3.6889473E+01
 8.5732508E+00  3.6675797E+01
 8.5847502E+00  3.6438728E+01
 8.5962505E+00  3.6286377E+01
 8.6077509E+00  3.6046391E+01
 8.6192503E+00  3.5920612E+01
 8.6307507E+00  3.5725910E+01
 8.6422501E+00  3.5558815E+01
 8.6537504E+00  3.5328732E+01
 8.6652508E+00  3.5163620E+01
 8.6767502E+00  3.4924271E+01
 8.6882505E+00  3.4889393E+01
 8.6997509E+00  3.4778034E+01
 8.7112503E+00  3.4673046E+01
 8.7227507E+00  3.4511211E+01
 8.7342501E+00  3.4304737E+01
 8.7457504E+00  3.4144306E+01
 8.7572508E+00  3.3915482E+01
 8.7687502E+00  3.3675018E+01
 8.7802505E+00  3.3478191E+01
 8.7917500E+00  3.3282619E+01
 8.8032503E+00  3.3140228E+01
 8.8147507E+00  3.3062393E+01
 8.8262501E+00  3.2897591E+01
 8.8377504E+00  3.2777294E+01
 8.8492508E+00  3.2541599E+01
 8.8607502E+00  3.2351948E+01
 8.8722506E+00  3.2220165E+01
 8.8837500E+00  3.2020950E+01
 8.8952503E+00  3.1891556E+01
 8.9067507E+00  3.1679598E+01
 8.9182501E+00  3.1476480E+01
 8.9297504E+00  3.1296642E+01
 8.9412508E+00  3.1017384E+01
 8.9527502E+00  3.0839573E+01
 8.9642506E+00  3.0723160E+01
 8.9757500E+00  3.0710495E+01
 8.9872503E+00  3.0700453E+01
 8.9987507E+00  3.0582602E+01
 9.0102501E+00  3.0499628E+01
 9.0217505E+00  3.0301744E+01
 9.0332508E+00  3.0210264E+01
 9.0447502E+00  3.0078876E+01
 9.0562506E+00  2.9925030E+01
 9.0677500E+00  2.9805031E+01
 9.0792503E+00  2.9639040E+01
 9.0907507E+00  2.9568834E+01
 9.1022501E+00  2.9436203E+01
 9.1137505E+00  2.9341150E+01
 9.1252508E+00  2.9250805E+01
 9.1367502E+00  2.9142612E+01
 9.1482506E+00  2.9069891E+01
 9.1597500E+00  2.8935905E+01
 9.1712503E+00  2.8806501E+01
 9.1827507E+00  2.8715673E+01
 9.1942501E+00  2.8616924E+01
 9.2057505E+00  2.8461878E+01
 9.2172508E+00  2.8301640E+01
 9.2287502E+00  2.8094282E+01
 9.2402506E+00  2.7953686E+01
 9.2517500E+00  2.7840813E+01
 9.2632504E+00  2.7771196E+01
 9.2747507E+00  2.7708731E+01
 9.2862501E+00  2.7579861E+01
 9.2977505E+00  2.7563732E+01
 9.3092508E+00  2.7561993E+01
 9.3207502E+00  2.7511972E+01
 9.3322506E+00  2.7399742E+01
 9.3437500E+00  2.7278149E+01
 9.3552504E+00  2.7206970E+01
 9.3667507E+00  2.7178585E+01
 9.3782501E+00  2.7095997E+01
 9.3897505E+00  2.7019068E+01
 9.4012508E+00  2.6942842E+01
 9.4127502E+00  2.6840500E+01
 9.4242506E+00  2.6761551E+01
 9.4357500E+00  2.6619186E+01
 9.4472504E+00  2.6554335E+01
 9.4587507E+00  2.6451967E+01
 9.4702501E+00  2.6386387E+01
 9.4817505E+00  2.6298296E+01
 9.4932508E+00  2.6230721E+01
 9.5047503E+00  2.6148836E+01
 9.5162506E+00  2.6089077E+01
 9.5277500E+00  2.5997152E+01
 9.5392504E+00  2.5847456E+01
 9.5507507E+00  2.5696350E+01
 9.5622501E+00  2.5620140E+01
 9.5737505E+00  2.5592550E+01
 9.5852509E+00  2.5529358E+01
 9.5967503E+00  2.5503767E+01
 9.6082506E+00  2.5468079E+01
 9.6197500E+00  2.5528376E+01
 9.6312504E+00  2.5482471E+01
 9.6427507E+00  2.5457977E+01
 9.6542501E+00  2.5423306E+01
 9.6657505E+00  2.5348940E+01
 9.6772509E+00  2.5299156E+01
 9.6887503E+00  2.5221125E+01
 9.7002506E+00  2.5220636E+01
 9.7117500E+00  2.5226530E+01
 9.7232504E+00  2.5207594E+01
 9.7347507E+00  2.5128839E+01
 9.7462502E+00  2.5008261E+01
 9.7577505E+00  2.4856886E+01
 9.7692509E+00  2.4746376E+01
 9.7807503E+00  2.4696526E+01
 9.7922506E+00  2.4677319E+01
 9.8037500E+00  2.4715885E+01
 9.8152504E+00  2.4682602E+01
 9.8267508E+00  2.4621052E+01
 9.8382502E+00  2.4521996E+01
 9.8497505E+00  2.4442797E+01
 9.8612509E+00  2.4376820E+01
 9.8727503E+00  2.4412359E+01
 9.8842506E+00  2.4409056E+01
 9.8957500E+00  2.4446707E+01
 9.9072504E+00  2.4424082E+01
 9.9187508E+00  2.4413164E+01
 9.9302502E+00  2.4399996E+01
 9.9417505E+00  2.4304907E+01
 9.9532509E+00  2.4206417E+01
 9.9647503E+00  2.4161840E+01
 9.9762506E+00  2.4132418E+01
 9.9877501E+00  2.4131670E+01
 9.9992504E+00  2.4096067E+01
 1.0010751E+01  2.4034420E+01
 1.0022250E+01  2.4043697E+01
 1.0033751E+01  2.4032785E+01
 1.0045251E+01  2.4074480E+01
 1.0056750E+01  2.4064005E+01
 1.0068251E+01  2.3990929E+01
 1.0079750E+01  2.3876476E+01
 1.0091250E+01  2.3769665E+01
 1.0102751E+01  2.3731892E+01
 1.0114250E+01  2.3680414E+01
 1.0125751E+01  2.3640997E+01
 1.0137251E+01  2.3599459E+01
 1.0148750E+01  2.3663153E+01
 1.0160251E+01  2.3647860E+01
 1.0171750E+01  2.3645109E+01
 1.0183250E+01  2.3656660E+01
 1.0194751E+01  2.3643156E+01
 1.0206250E+01  2.3591764E+01
 1.0217751E+01  2.3486137E+01
 1.0229251E+01  2.3474529E+01
 1.0240750E+01  2.3413918E+01
 1.0252251E+01  2.3408331E+01
 1.0263750E+01  2.3396664E+01
 1.0275250E+01  2.3421349E+01
 1.0286751E+01  2.3373030E+01
 1.0298250E+01  2.3343987E+01
 1.0309751E+01  2.3297457E+01
 1.0321251E+01  2.3264948E+01
 1.0332750E+01  2.3255713E+01
 1.0344251E+01  2.3238491E+01
 1.0355750E+01  2.3219460E+01
 1.0367250E+01  2.3158773E+01
 1.0378751E+01  2.3158291E+01
 1.0390250E+01  2.3247581E+01
 1.0401751E+01  2.3310314E+01
 1.0413251E+01  2.3357590E+01
 1.0424750E+01  2.3234127E+01
 1.0436251E+01  2.3139141E+01
 1.0447750E+01  2.3038450E+01
 1.0459250E+01  2.3070644E+01
 1.0470751E+01  2.3074305E+01
 1.0482250E+01  2.3131723E+01
 1.0493751E+01  2.3078873E+01
 1.0505251E+01  2.3085482E+01
 1.0516750E+01  2.2954359E+01
 1.0528251E+01  2.2890619E+01
 1.0539750E+01  2.2746710E+01
 1.0551250E+01  2.2718863E+01
 1.0562751E+01  2.2713240E+01
 1.0574250E+01  2.2706472E+01
 1.0585751E+01  2.2695747E+01
 1.0597251E+01  2.2657402E+01
 1.0608750E+01  2.2705719E+01
 1.0620251E+01  2.2741112E+01
 1.0631750E+01  2.2781429E+01
 1.0643250E+01  2.2789740E+01
 1.0654751E+01  2.2816137E+01
 1.0666250E+01  2.2828951E+01
 1.0677751E+01  2.2816061E+01
 1.0689251E+01  2.2765966E+01
 1.0700750E+01  2.2772840E+01
 1.0712251E+01  2.2766680E+01
 1.0723750E+01  2.2774208E+01
 1.0735250E+01  2.2729382E+01
 1.0746751E+01  2.2663563E+01
 1.0758250E+01  2.2564709E+01
 1.0769751E+01  2.2557924E+01
 1.0781251E+01  2.2594391E+01
 1.0792750E+01  2.2686281E+01
 1.0804251E+01  2.2642628E+01
 1.0815750E+01  2.2669191E+01
 1.0827250E+01  2.2594086E+01
 1.0838751E+01  2.2542576E+01
 1.0850250E+01  2.2426416E+01
 1.0861751E+01  2.2417055E+01
 1.0873251E+01  2.2446775E+01
 1.0884750E+01  2.2391392E+01
 1.0896251E+01  2.2319735E+01
 1.0907750E+01  2.2267103E+01
 1.0919250E+01  2.2294323E+01
 1.0930751E+01  2.2384100E+01
 1.0942250E+01  2.2363110E+01
 1.0953751E+01  2.2343447E+01
 1.0965251E+01  2.2280439E+01
 1.0976750E+01  2.2330305E+01
 1.0988251E+01  2.2344803E+01
 1.0999750E+01  2.2337841E+01
 1.1011250E+01  2.2291790E+01
 1.1022751E+01  2.2281118E+01
 1.1034250E+01  2.2279936E+01
 1.1045751E+01  2.2272083E+01
 1.1057251E+01  2.2254761E+01
 1.1068750E+01  2.2299706E+01
 1.1080251E+01  2.2344883E+01
 1.1091750E+01  2.2414524E+01
 1.1103251E+01  2.2397104E+01
 1.1114751E+01  2.2410715E+01
 1.1126250E+01  2.2363985E+01
 1.1137751E+01  2.2294695E+01
 1.1149251E+01  2.2241678E+01
 1.1160750E+01  2.2195971E+01
 1.1172251E+01  2.2209053E+01
 1.1183750E+01  2.2167938E+01
 1.1195251E+01  2.2137472E+01
 1.1206751E+01  2.2076908E+01
 1.1218250E+01  2.2000128E+01
 1.1229751E+01  2.1963633E+01
 1.1241251E+01  2.1961039E+01
 1.1252750E+01  2.2021646E+01
 1.1264251E+01  2.2037138E+01
 1.1275750E+01  2.2028103E+01
 1.1287251E+01  2.1963293E+01
 1.1298751E+01  2.1915071E+01
 1.1310250E+01  2.1918177E+01
 1.1321751E+01  2.1960487E+01
 1.1333251E+01  2.1995291E+01
 1.1344750E+01  2.2031181E+01
 1.1356251E+01  2.2033705E+01
 1.1367750E+01  2.2122219E+01
 1.1379251E+01  2.2068014E+01
 1.1390751E+01  2.2116589E+01
 1.1402250E+01  2.2171158E+01
 1.1413751E+01  2.2206167E+01
 1.1425251E+01  2.2209831E+01
 1.1436750E+01  2.2105415E+01
 1.1448251E+01  2.2106874E+01
 1.1459750E+01  2.2086639E+01
 1.1471251E+01  2.2157001E+01
 1.1482751E+01  2.2203634E+01
 1.1494250E+01  2.2261763E+01
 1.1505751E+01  2.2235878E+01
 1.1517251E+01  2.2304182E+01
 1.1528750E+01  2.2371384E+01
 1.1540251E+01  2.2479864E+01
 1.1551750E+01  2.2602854E+01
 1.1563251E+01  2.2793047E+01
 1.1574751E+01  2.2927292E+01
 1.1586250E+01  2.3064850E+01
 1.1597751E+01  2.2982441E+01
 1.1609251E+01  2.2943047E+01
 1.1620750E+01  2.2733191E+01
 1.1632251E+01  2.2625050E+01
 1.1643750E+01  2.2431753E+01
 1.1655251E+01  2.2309446E+01
 1.1666751E+01  2.2171421E+01
 1.1678250E+01  2.2090197E+01
 1.1689751E+01  2.1996178E+01
 1.1701251E+01  2.1985924E+01
 1.1712750E+01  2.1993324E+01
 1.1724251E+01  2.2030607E+01
 1.1735750E+01  2.2054405E+01
 1.1747251E+01  2.2056160E+01
 1.1758751E+01  2.2019896E+01
 1.1770250E+01  2.1956724E+01
 1.1781751E+01  2.1954952E+01
 1.1793251E+01  2.1980921E+01
 1.1804750E+01  2.2055916E+01
 1.1816251E+01  2.2047112E+01
 1.1827750E+01  2.2060549E+01
 1.1839251E+01  2.2018286E+01
 1.1850751E+01  2.2016239E+01
 1.1862250E+01  2.2036209E+01
 1.1873751E+01  2.1988894E+01
 1.1885251E+01  2.1964710E+01
 1.1896750E+01  2.1944857E+01
 1.1908251E+01  2.1940557E+01
 1.1919750E+01  2.2000458E+01
 1.1931251E+01  2.1995411E+01
 1.1942751E+01  2.2095724E+01
 1.1954250E+01  2.2106226E+01
 1.1965751E+01  2.2147030E+01
 1.1977251E+01  2.2133791E+01
 1.1988750E+01  2.2158472E+01
 1.2000251E+01  2.2155706E+01
 1.2011750E+01  2.2156097E+01
 1.2023251E+01  2.2129265E+01
 1.2034751E+01  2.2159119E+01
 1.2046250E+01  2.2187403E+01
 1.2057751E+01  2.2263086E+01
 1.2069251E+01  2.2316298E+01
 1.2080750E+01  2.2421522E+01
 1.2092251E+01  2.2478577E+01
 1.2103750E+01  2.2505806E+01
 1.2115251E+01  2.2446035E+01
 1.2126751E+01  2.2397749E+01
 1.2138250E+01  2.2316162E+01
 1.2149751E+01  2.2263718E+01
 1.2161251E+01  2.2187120E+01
 1.2172750E+01  2.2182222E+01
 1.2184251E+01  2.2190367E+01
 1.2195750E+01  2.2162201E+01
 1.2207251E+01  2.2157154E+01
 1.2218751E+01  2.2108515E+01
 1.2230250E+01  2.2134138E+01
 1.2241751E+01  2.2122330E+01
 1.2253251E+01  2.2108126E+01
 1.2264750E+01  2.2098391E+01
 1.2276251E+01  2.2057882E+01
 1.2287750E+01  2.2136921E+01
 1.2299251E+01  2.2188635E+01
 1.2310751E+01  2.2244032E+01
 1.2322250E+01  2.2192472E+01
 1.2333751E+01  2.2230188E+01
 1.2345250E+01  2.2216526E+01
 1.2356750E+01  2.2306189E+01
 1.2368251E+01  2.2310793E+01
 1.2379750E+01  2.2359005E+01
 1.2391251E+01  2.2384979E+01
 1.2402751E+01  2.2360353E+01
 1.2414250E+01  2.2344112E+01
 1.2425751E+01  2.2249435E+01
 1.2437250E+01  2.2246284E+01
 1.2448750E+01  2.2255133E+01
 1.2460251E+01  2.2304308E+01
 1.2471750E+01  2.2335505E+01
 1.2483251E+01  2.2374262E+01
 1.2494751E+01  2.2374819E+01
 1.2506250E+01  2.2357441E+01
 1.2517751E+01  2.2338301E+01
 1.2529250E+01  2.2369215E+01
 1.2540751E+01  2.2388369E+01
 1.2552251E+01  2.2406004E+01
 1.2563750E+01  2.2392155E+01
 1.2575251E+01  2.2401363E+01
 1.2586751E+01  2.2455021E+01
 1.2598250E+01  2.2511326E+01
 1.2609751E+01  2.2536955E+01
 1.2621250E+01  2.2535391E+01
 1.2632751E+01  2.2553463E+01
 1.2644251E+01  2.2507677E+01
 1.2655750E+01  2.2484505E+01
 1.2667251E+01  2.2418493E+01
 1.2678751E+01  2.2441553E+01
 1.2690250E+01  2.2433907E+01
 1.2701751E+01  2.2455099E+01
 1.2713250E+01  2.2503618E+01
 1.2724751E+01  2.2535114E+01
 1.2736251E+01  2.2530104E+01
 1.2747750E+01  2.2542784E+01
 1.2759251E+01  2.2601070E+01
 1.2770751E+01  2.2662144E+01
 1.2782250E+01  2.2733255E+01
 1.2793751E+01  2.2738457E+01
 1.2805250E+01  2.2766317E+01
 1.2816751E+01  2.2750904E+01
 1.2828251E+01  2.2766609E+01
 1.2839750E+01  2.2848778E+01
 1.2851251E+01  2.2947258E+01
 1.2862751E+01  2.3040861E+01
 1.2874250E+01  2.3140585E+01
 1.2885751E+01  2.3201693E+01
 1.2897250E+01  2.3236393E+01
 1.2908751E+01  2.3262291E+01
 1.2920251E+01  2.3232615E+01
 1.2931750E+01  2.3297850E+01
 1.2943251E+01  2.3267805E+01
 1.2954751E+01  2.3347048E+01
 1.2966250E+01  2.3378099E+01
 1.2977751E+01  2.3462231E+01
 1.2989250E+01  2.3473440E+01
 1.3000751E+01  2.3549953E+01
 1.3012251E+01  2.3644253E+01
 1.3023750E+01  2.3773350E+01
 1.3035251E+01  2.3896160E+01
 1.3046751E+01  2.3987850E+01
 1.3058250E+01  2.4055798E+01
 1.3069751E+01  2.4060232E+01
 1.3081250E+01  2.4050266E+01
 1.3092751E+01  2.4134928E+01
 1.3104251E+01  2.4268467E+01
 1.3115750E+01  2.4440800E+01
 1.3127251E+01  2.4532360E+01
 1.3138751E+01  2.4632101E+01
 1.3150250E+01  2.4724579E+01
 1.3161751E+01  2.4850527E+01
 1.3173250E+01  2.4963409E+01
 1.3184751E+01  2.5103626E+01
 1.3196251E+01  2.5209379E+01
 1.3207750E+01  2.5352831E+01
 1.3219251E+01  2.5517048E+01
 1.3230751E+01  2.5735090E+01
 1.3242250E+01  2.5939240E+01
 1.3253751E+01  2.6086641E+01
 1.3265250E+01  2.6158873E+01
 1.3276751E+01  2.6227451E+01
 1.3288251E+01  2.6283907E+01
 1.3299750E+01  2.6424994E+01
 1.3311251E+01  2.6539268E+01
 1.3322751E+01  2.6757307E+01
 1.3334250E+01  2.6986017E+01
 1.3345751E+01  2.7206358E+01
 1.3357250E+01  2.7409151E+01
 1.3368751E+01  2.7498045E+01
 1.3380251E+01  2.7641821E+01
 1.3391750E+01  2.7704258E+01
 1.3403251E+01  2.7852154E+01
 1.3414751E+01  2.7940418E+01
 1.3426250E+01  2.8074726E+01
 1.3437751E+01  2.8212198E+01
 1.3449250E+01  2.8351624E+01
 1.3460751E+01  2.8483061E+01
 1.3472251E+01  2.8576775E+01
 1.3483750E+01  2.8710209E+01
 1.3495251E+01  2.8789467E+01
 1.3506751E+01  2.8920582E+01
 1.3518250E+01  2.8994627E+01
 1.3529751E+01  2.9073244E+01
 1.3541250E+01  2.9134079E+01
 1.3552751E+01  2.9188427E+01
 1.3564251E+01  2.9263973E+01
 1.3575750E+01  2.9266556E+01
 1.3587251E+01  2.9332319E+01
 1.3598751E+01  2.9302464E+01
 1.3610250E+01  2.9315376E+01
 1.3621751E+01  2.9330900E+01
 1.3633250E+01  2.9428308E+01
 1.3644751E+01  2.9473251E+01
 1.3656251E+01  2.9501858E+01
 1.3667750E+01  2.9523125E+01
 1.3679251E+01  2.9440346E+01
 1.3690751E+01  2.9314989E+01
 1.3702250E+01  2.9191574E+01
 1.3713751E+01  2.9142052E+01
 1.3725250E+01  2.9106894E+01
 1.3736751E+01  2.9049374E+01
 1.3748251E+01  2.9042629E+01
 1.3759750E+01  2.9036568E+01
 1.3771251E+01  2.9045979E+01
 1.3782751E+01  2.9081141E+01
 1.3794250E+01  2.9037645E+01
 1.3805751E+01  2.9222160E+01
 1.3817250E+01  2.9064178E+01
 1.3828751E+01  2.9019281E+01
 1.3840251E+01  2.8690176E+01
 1.3851750E+01  2.8620934E+01
 1.3863251E+01  2.8505871E+01
 1.3874751E+01  2.8467487E+01
 1.3886250E+01  2.8465658E+01
 1.3897751E+01  2.8464869E+01
 1.3909250E+01  2.8550150E+01
 1.3920751E+01  2.8583324E+01
 1.3932251E+01  2.8663877E+01
 1.3943750E+01  2.8599188E+01
 1.3955251E+01  2.8593533E+01
 1.3966751E+01  2.8444761E+01
 1.3978251E+01  2.8367125E+01
 1.3989751E+01  2.8162464E+01
 1.4001250E+01  2.7983391E+01
 1.4012751E+01  2.7814049E+01
 1.4024251E+01  2.7593554E+01
 1.4035750E+01  2.7464464E+01
 1.4047251E+01  2.7279833E+01
 1.4058751E+01  2.7246790E+01
 1.4070251E+01  2.7158062E+01
 1.4081751E+01  2.7117126E+01
 1.4093250E+01  2.7091839E+01
 1.4104751E+01  2.7031763E+01
 1.4116251E+01  2.6968792E+01
 1.4127750E+01  2.6890314E+01
 1.4139251E+01  2.6860479E+01
 1.4150751E+01  2.6770538E+01
 1.4162251E+01  2.6679150E+01
 1.4173751E+01  2.6547211E+01
 1.4185250E+01  2.6519344E+01
 1.4196751E+01  2.6511955E+01
 1.4208251E+01  2.6474321E+01
 1.4219750E+01  2.6417166E+01
 1.4231251E+01  2.6294165E+01
 1.4242751E+01  2.6224373E+01
 1.4254251E+01  2.6071180E+01
 1.4265751E+01  2.5989210E+01
 1.4277250E+01  2.5942942E+01
 1.4288751E+01  2.5933130E+01
 1.4300251E+01  2.5914206E+01
 1.4311750E+01  2.5858822E+01
 1.4323251E+01  2.5769844E+01
 1.4334751E+01  2.5711004E+01
 1.4346251E+01  2.5657650E+01
 1.4357751E+01  2.5681040E+01
 1.4369250E+01  2.5648722E+01
 1.4380751E+01  2.5742073E+01
 1.4392251E+01  2.5794819E+01
 1.4403750E+01  2.5768881E+01
 1.4415251E+01  2.5652388E+01
 1.4426751E+01  2.5540794E+01
 1.4438251E+01  2.5484985E+01
 1.4449751E+01  2.5408970E+01
 1.4461250E+01  2.5329250E+01
 1.4472751E+01  2.5328917E+01
 1.4484251E+01  2.5353964E+01
 1.4495750E+01  2.5448099E+01
 1.4507251E+01  2.5528154E+01
 1.4518751E+01  2.5551680E+01
 1.4530251E+01  2.5462275E+01
 1.4541751E+01  2.5333485E+01
 1.4553250E+01  2.5311901E+01
 1.4564751E+01  2.5298040E+01
 1.4576251E+01  2.5253986E+01
 1.4587750E+01  2.5147358E+01
 1.4599251E+01  2.5061197E+01
 1.4610751E+01  2.5008621E+01
 1.4622251E+01  2.5002085E+01
 1.4633751E+01  2.4998598E+01
 1.4645250E+01  2.4999752E+01
 1.4656751E+01  2.4995602E+01
 1.4668251E+01  2.4987860E+01
 1.4679750E+01  2.4955257E+01
 1.4691251E+01  2.4878885E+01
 1.4702751E+01  2.4809982E+01
 1.4714251E+01  2.4740417E+01
 1.4725751E+01  2.4748428E+01
 1.4737250E+01  2.4740236E+01
 1.4748751E+01  2.4761972E+01
 1.4760251E+01  2.4754387E+01
 1.4771750E+01  2.4822605E+01
 1.4783251E+01  2.4818747E+01
 1.4794751E+01  2.4789856E+01
 1.4806251E+01  2.4695929E+01
 1.4817751E+01  2.4644020E+01
 1.4829250E+01  2.4577063E+01
 1.4840751E+01  2.4570076E+01
 1.4852251E+01  2.4560196E+01
 1.4863750E+01  2.4546129E+01
 1.4875251E+01  2.4522980E+01
 1.4886751E+01  2.4522207E+01
 1.4898251E+01  2.4575756E+01
 1.4909751E+01  2.4624887E+01
 1.4921250E+01  2.4616587E+01
 1.4932751E+01  2.4629545E+01
 1.4944251E+01  2.4526131E+01
 1.4955750E+01  2.4491936E+01
 1.4967251E+01  2.4410999E+01
 1.4978751E+01  2.4435270E+01
 1.4990251E+01  2.4382349E+01
 1.5001751E+01  2.4416416E+01
 1.5013250E+01  2.4477499E+01
 1.5024751E+01  2.4551302E+01
 1.5036251E+01  2.4488214E+01
 1.5047750E+01  2.4405079E+01
 1.5059251E+01  2.4368456E+01
 1.5070751E+01  2.4388866E+01
 1.5082251E+01  2.4397816E+01
 1.5093751E+01  2.4386694E+01
 1.5105250E+01  2.4400024E+01
 1.5116751E+01  2.4385326E+01
 1.5128251E+01  2.4360460E+01
 1.5139750E+01  2.4342209E+01
 1.5151251E+01  2.4448174E+01
 1.5162751E+01  2.4541027E+01
 1.5174251E+01  2.4724749E+01
 1.5185751E+01  2.4800251E+01
 1.5197250E+01  2.4850397E+01
 1.5208751E+01  2.4811907E+01
 1.5220251E+01  2.4716988E+01
 1.5231750E+01  2.4591217E+01
 1.5243251E+01  2.4439592E+01
 1.5254751E+01  2.4339956E+01
 1.5266251E+01  2.4186819E+01
 1.5277751E+01  2.4088541E+01
 1.5289250E+01  2.4074766E+01
 1.5300751E+01  2.4098896E+01
 1.5312251E+01  2.4101778E+01
 1.5323750E+01  2.4104242E+01
 1.5335251E+01  2.4132286E+01
 1.5346751E+01  2.4202198E+01
 1.5358251E+01  2.4177113E+01
 1.5369751E+01  2.4185389E+01
 1.5381250E+01  2.4141264E+01
 1.5392751E+01  2.4205053E+01
 1.5404251E+01  2.4253420E+01
 1.5415751E+01  2.4249372E+01
 1.5427251E+01  2.4264708E+01
 1.5438751E+01  2.4216070E+01
 1.5450251E+01  2.4203705E+01
 1.5461751E+01  2.4167316E+01
 1.5473250E+01  2.4163914E+01
 1.5484751E+01  2.4184666E+01
 1.5496251E+01  2.4173275E+01
 1.5507751E+01  2.4177130E+01
 1.5519251E+01  2.4200378E+01
 1.5530751E+01  2.4155107E+01
 1.5542251E+01  2.4048918E+01
 1.5553751E+01  2.3963411E+01
 1.5565250E+01  2.3944294E+01
 1.5576751E+01  2.3981125E+01
 1.5588251E+01  2.3955530E+01
 1.5599751E+01  2.4012285E+01
 1.5611251E+01  2.4023056E+01
 1.5622751E+01  2.4089979E+01
 1.5634251E+01  2.4074013E+01
 1.5645751E+01  2.4149137E+01
 1.5657250E+01  2.4182877E+01
 1.5668751E+01  2.4223785E+01
 1.5680251E+01  2.4252434E+01
 1.5691751E+01  2.4226765E+01
 1.5703251E+01  2.4233192E+01
 1.5714751E+01  2.4193462E+01
 1.5726251E+01  2.4261156E+01
 1.5737751E+01  2.4217060E+01
 1.5749250E+01  2.4214993E+01
 1.5760751E+01  2.4170910E+01
 1.5772251E+01  2.4181126E+01
 1.5783751E+01  2.4136364E+01
 1.5795251E+01  2.4158560E+01
 1.5806751E+01  2.4197861E+01
 1.5818251E+01  2.4226286E+01
 1.5829751E+01  2.4223537E+01
 1.5841250E+01  2.4200359E+01
 1.5852751E+01  2.4186356E+01
 1.5864251E+01  2.4183411E+01
 1.5875751E+01  2.4206964E+01
 1.5887251E+01  2.4248629E+01
 1.5898750E+01  2.4249611E+01
 1.5910251E+01  2.4282583E+01
 1.5921751E+01  2.4233414E+01
 1.5933250E+01  2.4213373E+01
 1.5944751E+01  2.4122883E+01
 1.5956251E+01  2.4118927E+01
 1.5967751E+01  2.4135443E+01
 1.5979251E+01  2.4171181E+01
 1.5990750E+01  2.4215748E+01
 1.6002251E+01  2.4207804E+01
 1.6013750E+01  2.4226053E+01
 1.6025251E+01  2.4211519E+01
 1.6036751E+01  2.4222258E+01
 1.6048250E+01  2.4313890E+01
 1.6059752E+01  2.4355978E+01
 1.6071251E+01  2.4351696E+01
 1.6082750E+01  2.4353580E+01
 1.6094252E+01  2.4347155E+01
 1.6105751E+01  2.4359829E+01
 1.6117250E+01  2.4336823E+01
 1.6128750E+01  2.4351984E+01
 1.6140251E+01  2.4436241E+01
 1.6151751E+01  2.4436720E+01
 1.6163250E+01  2.4520561E+01
 1.6174751E+01  2.4472775E+01
 1.6186251E+01  2.4536545E+01
 1.6197750E+01  2.4471672E+01
 1.6209251E+01  2.4639713E+01
 1.6220751E+01  2.4609344E+01
 1.6232250E+01  2.4729000E+01
 1.6243752E+01  2.4737024E+01
 1.6255251E+01  2.4809229E+01
 1.6266750E+01  2.4883987E+01
 1.6278252E+01  2.4746407E+01
 1.6289751E+01  2.4893984E+01
 1.6301250E+01  2.4632469E+01
 1.6312750E+01  2.4773035E+01
 1.6324251E+01  2.4497204E+01
 1.6335751E+01  2.4516367E+01
 1.6347250E+01  2.4348829E+01
 1.6358751E+01  2.4296339E+01
 1.6370251E+01  2.4216452E+01
 1.6381750E+01  2.4195581E+01
 1.6393251E+01  2.4249769E+01
 1.6404751E+01  2.4356215E+01
 1.6416250E+01  2.4434664E+01
 1.6427752E+01  2.4432329E+01
 1.6439251E+01  2.4375587E+01
 1.6450750E+01  2.4306370E+01
 1.6462252E+01  2.4267954E+01
 1.6473751E+01  2.4222103E+01
 1.6485250E+01  2.4218658E+01
 1.6496750E+01  2.4224390E+01
 1.6508251E+01  2.4186781E+01
 1.6519751E+01  2.4097383E+01
 1.6531250E+01  2.4045280E+01
 1.6542751E+01  2.4050600E+01
 1.6554251E+01  2.4087646E+01
 1.6565750E+01  2.4119152E+01
 1.6577251E+01  2.4156500E+01
 1.6588751E+01  2.4221272E+01
 1.6600250E+01  2.4260258E+01
 1.6611752E+01  2.4303995E+01
 1.6623251E+01  2.4265909E+01
 1.6634750E+01  2.4233385E+01
 1.6646252E+01  2.4168617E+01
 1.6657751E+01  2.4156458E+01
 1.6669250E+01  2.4154640E+01
 1.6680750E+01  2.4168863E+01
 1.6692251E+01  2.4182934E+01
 1.6703751E+01  2.4184618E+01
 1.6715250E+01  2.4142479E+01
 1.6726751E+01  2.4126419E+01
 1.6738251E+01  2.4129520E+01
 1.6749750E+01  2.4186119E+01
 1.6761251E+01  2.4143057E+01
 1.6772751E+01  2.4158377E+01
 1.6784250E+01  2.4094461E+01
 1.6795752E+01  2.4078815E+01
 1.6807251E+01  2.4024471E+01
 1.6818750E+01  2.4007771E+01
 1.6830252E+01  2.3997570E+01
 1.6841751E+01  2.4042162E+01
 1.6853251E+01  2.4069685E+01
 1.6864750E+01  2.4112358E+01
 1.6876251E+01  2.4072021E+01
 1.6887751E+01  2.4049967E+01
 1.6899250E+01  2.4052538E+01
 1.6910751E+01  2.4082146E+01
 1.6922251E+01  2.4103376E+01
 1.6933750E+01  2.4075808E+01
 1.6945251E+01  2.4040464E+01
 1.6956751E+01  2.4008739E+01
 1.6968250E+01  2.4004128E+01
 1.6979752E+01  2.4015133E+01
 1.6991251E+01  2.4000877E+01
 1.7002750E+01  2.3942062E+01
 1.7014252E+01  2.3890026E+01
 1.7025751E+01  2.3824989E+01
 1.7037251E+01  2.3793369E+01
 1.7048750E+01  2.3744148E+01
 1.7060251E+01  2.3744614E+01
 1.7071751E+01  2.3778759E+01
 1.7083250E+01  2.3827700E+01
 1.7094751E+01  2.3889566E+01
 1.7106251E+01  2.3855522E+01
 1.7117750E+01  2.3812923E+01
 1.7129251E+01  2.3775949E+01
 1.7140751E+01  2.3777071E+01
 1.7152250E+01  2.3771212E+01
 1.7163752E+01  2.3828413E+01
 1.7175251E+01  2.3852354E+01
 1.7186750E+01  2.3928802E+01
 1.7198252E+01  2.3914627E+01
 1.7209751E+01  2.3941198E+01
 1.7221251E+01  2.3913832E+01
 1.7232750E+01  2.3905468E+01
 1.7244251E+01  2.3898701E+01
 1.7255751E+01  2.3846788E+01
 1.7267250E+01  2.3798336E+01
 1.7278751E+01  2.3781656E+01
 1.7290251E+01  2.3769016E+01
 1.7301750E+01  2.3786062E+01
 1.7313251E+01  2.3712816E+01
 1.7324751E+01  2.3683788E+01
 1.7336250E+01  2.3648815E+01
 1.7347752E+01  2.3612480E+01
 1.7359251E+01  2.3595526E+01
 1.7370750E+01  2.3541145E+01
 1.7382252E+01  2.3580610E+01
 1.7393751E+01  2.3588318E+01
 1.7405251E+01  2.3621279E+01
 1.7416750E+01  2.3623686E+01
 1.7428251E+01  2.3624582E+01
 1.7439751E+01  2.3673567E+01
 1.7451250E+01  2.3742447E+01
 1.7462751E+01  2.3915356E+01
 1.7474251E+01  2.4032763E+01
 1.7485750E+01  2.4187040E+01
 1.7497252E+01  2.4014399E+01
 1.7508751E+01  2.3895353E+01
 1.7520250E+01  2.3578030E+01
 1.7531752E+01  2.3566229E+01
 1.7543251E+01  2.3571522E+01
 1.7554750E+01  2.3626825E+01
 1.7566252E+01  2.3605949E+01
 1.7577751E+01  2.3581015E+01
 1.7589251E+01  2.3553089E+01
 1.7600750E+01  2.3576096E+01
 1.7612251E+01  2.3564056E+01
 1.7623751E+01  2.3615484E+01
 1.7635250E+01  2.3549044E+01
 1.7646751E+01  2.3500689E+01
 1.7658251E+01  2.3387716E+01
 1.7669750E+01  2.3360483E+01
 1.7681252E+01  2.3320843E+01
 1.7692751E+01  2.3370035E+01
 1.7704250E+01  2.3420849E+01
 1.7715752E+01  2.3435846E+01
 1.7727251E+01  2.3392628E+01
 1.7738750E+01  2.3313438E+01
 1.7750252E+01  2.3248926E+01
 1.7761751E+01  2.3232725E+01
 1.7773251E+01  2.3276136E+01
 1.7784750E+01  2.3338261E+01
 1.7796251E+01  2.3361921E+01
 1.7807751E+01  2.3317854E+01
 1.7819250E+01  2.3354467E+01
 1.7830751E+01  2.3336412E+01
 1.7842251E+01  2.3361107E+01
 1.7853750E+01  2.3344015E+01
 1.7865252E+01  2.3343384E+01
 1.7876751E+01  2.3321854E+01
 1.7888250E+01  2.3268425E+01
 1.7899752E+01  2.3284864E+01
 1.7911251E+01  2.3353273E+01
 1.7922750E+01  2.3413986E+01
 1.7934252E+01  2.3413488E+01
 1.7945751E+01  2.3385622E+01
 1.7957251E+01  2.3393288E+01
 1.7968750E+01  2.3360312E+01
 1.7980251E+01  2.3322115E+01
 1.7991751E+01  2.3325661E+01
 1.8003250E+01  2.3376049E+01
 1.8014751E+01  2.3405582E+01
 1.8026251E+01  2.3401690E+01
 1.8037750E+01  2.3416298E+01
 1.8049252E+01  2.3425571E+01
 1.8060751E+01  2.3409214E+01
 1.8072250E+01  2.3410723E+01
 1.8083752E+01  2.3439350E+01
 1.8095251E+01  2.3485285E+01
 1.8106750E+01  2.3514000E+01
 1.8118252E+01  2.3464338E+01
 1.8129751E+01  2.3439560E+01
 1.8141251E+01  2.3346504E+01
 1.8152750E+01  2.3331278E+01
 1.8164251E+01  2.3281847E+01
 1.8175751E+01  2.3256704E+01
 1.8187250E+01  2.3231007E+01
 1.8198751E+01  2.3269939E+01
 1.8210251E+01  2.3291517E+01
 1.8221750E+01  2.3286318E+01
 1.8233252E+01  2.3227917E+01
 1.8244751E+01  2.3198158E+01
 1.8256250E+01  2.3199938E+01
 1.8267752E+01  2.3202131E+01
 1.8279251E+01  2.3201994E+01
 1.8290751E+01  2.3207514E+01
 1.8302252E+01  2.3234356E+01
 1.8313751E+01  2.3281227E+01
 1.8325251E+01  2.3286604E+01
 1.8336750E+01  2.3297827E+01
 1.8348251E+01  2.3230253E+01
 1.8359751E+01  2.3219151E+01
 1.8371250E+01  2.3140862E+01
 1.8382751E+01  2.3090834E+01
 1.8394251E+01  2.3086283E+01
 1.8405750E+01  2.3141998E+01
 1.8417252E+01  2.3181431E+01
 1.8428751E+01  2.3182386E+01
 1.8440250E+01  2.3162580E+01
 1.8451752E+01  2.3185621E+01
 1.8463251E+01  2.3186842E+01
 1.8474751E+01  2.3165512E+01
 1.8486252E+01  2.3177977E+01
 1.8497751E+01  2.3160622E+01
 1.8509251E+01  2.3176826E+01
 1.8520750E+01  2.3108313E+01
 1.8532251E+01  2.3117012E+01
 1.8543751E+01  2.3100721E+01
 1.8555250E+01  2.3168036E+01
 1.8566751E+01  2.3151491E+01
 1.8578251E+01  2.3200712E+01
 1.8589750E+01  2.3230892E+01
 1.8601252E+01  2.3301052E+01
 1.8612751E+01  2.3276281E+01
 1.8624250E+01  2.3223186E+01
 1.8635752E+01  2.3174152E+01
 1.8647251E+01  2.3134537E+01
 1.8658751E+01  2.3098587E+01
 1.8670252E+01  2.3139132E+01
 1.8681751E+01  2.3189302E+01
 1.8693251E+01  2.3224302E+01
 1.8704750E+01  2.3200567E+01
 1.8716251E+01  2.3190538E+01
 1.8727751E+01  2.3157629E+01
 1.8739250E+01  2.3089233E+01
 1.8750751E+01  2.3054743E+01
 1.8762251E+01  2.3061804E+01
 1.8773750E+01  2.3106815E+01
 1.8785252E+01  2.3124659E+01
 1.8796751E+01  2.3133080E+01
 1.8808250E+01  2.3099682E+01
 1.8819752E+01  2.3092417E+01
 1.8831251E+01  2.3066204E+01
 1.8842751E+01  2.3105326E+01
 1.8854252E+01  2.3091164E+01
 1.8865751E+01  2.3096167E+01
 1.8877251E+01  2.3052511E+01
 1.8888750E+01  2.3010618E+01
 1.8900251E+01  2.2989731E+01
 1.8911751E+01  2.3038998E+01
 1.8923250E+01  2.3117449E+01
 1.8934752E+01  2.3168045E+01
 1.8946251E+01  2.3255096E+01
 1.8957750E+01  2.3209993E+01
 1.8969252E+01  2.3117224E+01
 1.8980751E+01  2.2998465E+01
 1.8992250E+01  2.2973772E+01
 1.9003752E+01  2.3013119E+01
 1.9015251E+01  2.3043062E+01
 1.9026751E+01  2.3075575E+01
 1.9038252E+01  2.3035244E+01
 1.9049751E+01  2.3017450E+01
 1.9061251E+01  2.3053240E+01
 1.9072750E+01  2.3106899E+01
 1.9084251E+01  2.3129501E+01
 1.9095751E+01  2.3086935E+01
 1.9107250E+01  2.3058208E+01
 1.9118752E+01  2.3028685E+01
 1.9130251E+01  2.3073969E+01
 1.9141750E+01  2.3112165E+01
 1.9153252E+01  2.3200619E+01
 1.9164751E+01  2.3197222E+01
 1.9176250E+01  2.3230505E+01
 1.9187752E+01  2.3210588E+01
 1.9199251E+01  2.3207788E+01
 1.9210751E+01  2.3175505E+01
 1.9222252E+01  2.3131153E+01
 1.9233751E+01  2.3098171E+01
 1.9245251E+01  2.3094721E+01
 1.9256750E+01  2.3132727E+01
 1.9268251E+01  2.3179779E+01
 1.9279751E+01  2.3139811E+01
 1.9291250E+01  2.3153246E+01
 1.9302752E+01  2.3149384E+01
 1.9314251E+01  2.3175713E+01
 1.9325750E+01  2.3114035E+01
 1.9337252E+01  2.3122623E+01
 1.9348751E+01  2.3103352E+01
 1.9360250E+01  2.3151554E+01
 1.9371752E+01  2.3195837E+01
 1.9383251E+01  2.3199310E+01
 1.9394751E+01  2.3178875E+01
 1.9406250E+01  2.3152264E+01
 1.9417751E+01  2.3182066E+01
 1.9429251E+01  2.3144552E+01
 1.9440750E+01  2.3138542E+01
 1.9452251E+01  2.3108976E+01
 1.9463751E+01  2.3134190E+01
 1.9475250E+01  2.3137890E+01
 1.9486752E+01  2.3145115E+01
 1.9498251E+01  2.3133886E+01
 1.9509750E+01  2.3180805E+01
 1.9521252E+01  2.3192442E+01
 1.9532751E+01  2.3259434E+01
 1.9544250E+01  2.3262884E+01
 1.9555752E+01  2.3255955E+01
 1.9567251E+01  2.3190151E+01
 1.9578751E+01  2.3188217E+01
 1.9590250E+01  2.3173403E+01
 1.9601751E+01  2.3191240E+01
 1.9613251E+01  2.3241352E+01
 1.9624750E+01  2.3253435E+01
 1.9636251E+01  2.3278406E+01
 1.9647751E+01  2.3247898E+01
 1.9659250E+01  2.3328033E+01
 1.9670752E+01  2.3331352E+01
 1.9682251E+01  2.3409933E+01
 1.9693750E+01  2.3444162E+01
 1.9705252E+01  2.3577042E+01
 1.9716751E+01  2.3612574E+01
 1.9728251E+01  2.3620892E+01
 1.9739752E+01  2.3569874E+01
 1.9751251E+01  2.3585297E+01
 1.9762751E+01  2.3553186E+01
 1.9774250E+01  2.3496758E+01
 1.9785751E+01  2.3441122E+01
 1.9797251E+01  2.3420328E+01
 1.9808750E+01  2.3353327E+01
 1.9820251E+01  2.3321095E+01
 1.9831751E+01  2.3323057E+01
 1.9843250E+01  2.3353703E+01
 1.9854752E+01  2.3392694E+01
 1.9866251E+01  2.3457994E+01
 1.9877750E+01  2.3482922E+01
 1.9889252E+01  2.3442659E+01
 1.9900751E+01  2.3454754E+01
 1.9912251E+01  2.3481483E+01
 1.9923752E+01  2.3458393E+01
 1.9935251E+01  2.3361385E+01
 1.9946751E+01  2.3314890E+01
 1.9958250E+01  2.3285561E+01
 1.9969751E+01  2.3297758E+01
 1.9981251E+01  2.3266083E+01
 1.9992750E+01  2.3277245E+01
 2.0004251E+01  2.3250307E+01
 2.0015751E+01  2.3198767E+01
 2.0027250E+01  2.3143253E+01
 2.0038752E+01  2.3134834E+01
 2.0050251E+01  2.3214302E+01
 2.0061750E+01  2.3240717E+01
 2.0073252E+01  2.3262411E+01
 2.0084751E+01  2.3254662E+01
 2.0096251E+01  2.3277557E+01
 2.0107752E+01  2.3261921E+01
 2.0119251E+01  2.3262396E+01
 2.0130751E+01  2.3234339E+01
 2.0142250E+01  2.3230474E+01
 2.0153751E+01  2.3246620E+01
 2.0165251E+01  2.3271971E+01
 2.0176750E+01  2.3295723E+01
 2.0188251E+01  2.3284288E+01
 2.0199751E+01  2.3284204E+01
 2.0211250E+01  2.3271452E+01
 2.0222752E+01  2.3310455E+01
 2.0234251E+01  2.3360172E+01
 2.0245750E+01  2.3397749E+01
 2.0257252E+01  2.3416443E+01
 2.0268751E+01  2.3359282E+01
 2.0280251E+01  2.3355955E+01
 2.0291752E+01  2.3327965E+01
 2.0303251E+01  2.3330547E+01
 2.0314751E+01  2.3313547E+01
 2.0326250E+01  2.3331261E+01
 2.0337751E+01  2.3292332E+01
 2.0349251E+01  2.3287336E+01
 2.0360750E+01  2.3260971E+01
 2.0372252E+01  2.3264923E+01
 2.0383751E+01  2.3239662E+01
 2.0395250E+01  2.3258659E+01
 2.0406752E+01  2.3254053E+01
 2.0418251E+01  2.3288792E+01
 2.0429750E+01  2.3327618E+01
 2.0441252E+01  2.3354361E+01
 2.0452751E+01  2.3369934E+01
 2.0464251E+01  2.3360405E+01
 2.0475752E+01  2.3334419E+01
 2.0487251E+01  2.3277382E+01
 2.0498751E+01  2.3273197E+01
 2.0510250E+01  2.3255823E+01
 2.0521751E+01  2.3248415E+01
 2.0533251E+01  2.3252943E+01
 2.0544750E+01  2.3287563E+01
 2.0556252E+01  2.3346272E+01
 2.0567751E+01  2.3359772E+01
 2.0579250E+01  2.3374107E+01
 2.0590752E+01  2.3418631E+01
 2.0602251E+01  2.3451744E+01
 2.0613750E+01  2.3423294E+01
 2.0625252E+01  2.3407547E+01
 2.0636751E+01  2.3597559E+01
 2.0648251E+01  2.3688122E+01
 2.0659752E+01  2.3847668E+01
 2.0671251E+01  2.3940756E+01
 2.0682751E+01  2.4008898E+01
 2.0694250E+01  2.3904398E+01
 2.0705751E+01  2.3815804E+01
 2.0717251E+01  2.3777040E+01
 2.0728750E+01  2.3662537E+01
 2.0740252E+01  2.3639708E+01
 2.0751751E+01  2.3630239E+01
 2.0763250E+01  2.3674109E+01
 2.0774752E+01  2.3663086E+01
 2.0786251E+01  2.3612038E+01
 2.0797750E+01  2.3586529E+01
 2.0809252E+01  2.3564701E+01
 2.0820751E+01  2.3511835E+01
 2.0832251E+01  2.3474052E+01
 2.0843752E+01  2.3501966E+01
 2.0855251E+01  2.3513008E+01
 2.0866751E+01  2.3509352E+01
 2.0878250E+01  2.3499680E+01
 2.0889751E+01  2.3493549E+01
 2.0901251E+01  2.3525969E+01
 2.0912750E+01  2.3543146E+01
 2.0924252E+01  2.3543274E+01
 2.0935751E+01  2.3500685E+01
 2.0947250E+01  2.3488230E+01
 2.0958752E+01  2.3434883E+01
 2.0970251E+01  2.3414131E+01
 2.0981750E+01  2.3414972E+01
 2.0993252E+01  2.3419203E+01
 2.1004751E+01  2.3467493E+01
 2.1016251E+01  2.3473143E+01
 2.1027752E+01  2.3485502E+01
 2.1039251E+01  2.3447292E+01
 2.1050751E+01  2.3400787E+01
 2.1062250E+01  2.3373892E+01
 2.1073751E+01  2.3418745E+01
 2.1085251E+01  2.3491400E+01
 2.1096750E+01  2.3528963E+01
 2.1108252E+01  2.3533756E+01
 2.1119751E+01  2.3574116E+01
 2.1131250E+01  2.3563185E+01
 2.1142752E+01  2.3529203E+01
 2.1154251E+01  2.3450459E+01
 2.1165751E+01  2.3439610E+01
 2.1177252E+01  2.3451441E+01
 2.1188751E+01  2.3484362E+01
 2.1200251E+01  2.3507677E+01
 2.1211752E+01  2.3515356E+01
 2.1223251E+01  2.3533756E+01
 2.1234751E+01  2.3543919E+01
 2.1246250E+01  2.3584929E+01
 2.1257751E+01  2.3602562E+01
 2.1269251E+01  2.3560741E+01
 2.1280750E+01  2.3537653E+01
 2.1292252E+01  2.3533381E+01
 2.1303751E+01  2.3522785E+01
 2.1315250E+01  2.3519453E+01
 2.1326752E+01  2.3543438E+01
 2.1338251E+01  2.3564032E+01
 2.1349751E+01  2.3534342E+01
 2.1361252E+01  2.3531506E+01
 2.1372751E+01  2.3570339E+01
 2.1384251E+01  2.3584698E+01
 2.1395752E+01  2.3604788E+01
 2.1407251E+01  2.3585142E+01
 2.1418751E+01  2.3616728E+01
 2.1430250E+01  2.3606014E+01
 2.1441751E+01  2.3606087E+01
 2.1453251E+01  2.3585857E+01
 2.1464750E+01  2.3574732E+01
 2.1476252E+01  2.3510408E+01
 2.1487751E+01  2.3518147E+01
 2.1499250E+01  2.3545181E+01
 2.1510752E+01  2.3607033E+01
 2.1522251E+01  2.3634752E+01
 2.1533751E+01  2.3664318E+01
 2.1545252E+01  2.3676584E+01
 2.1556751E+01  2.3690809E+01
 2.1568251E+01  2.3681967E+01
 2.1579752E+01  2.3722626E+01
 2.1591251E+01  2.3735811E+01
 2.1602751E+01  2.3801476E+01
 2.1614250E+01  2.3818813E+01
 2.1625751E+01  2.3841808E+01
 2.1637251E+01  2.3813026E+01
 2.1648750E+01  2.3811583E+01
 2.1660252E+01  2.3760931E+01
 2.1671751E+01  2.3696600E+01
 2.1683250E+01  2.3665293E+01
 2.1694752E+01  2.3657368E+01
 2.1706251E+01  2.3677338E+01
 2.1717751E+01  2.3690353E+01
 2.1729252E+01  2.3749945E+01
 2.1740751E+01  2.3796278E+01
 2.1752251E+01  2.3851212E+01
 2.1763752E+01  2.3844421E+01
 2.1775251E+01  2.3801605E+01
 2.1786751E+01  2.3721432E+01
 2.1798250E+01  2.3718996E+01
 2.1809752E+01  2.3726995E+01
 2.1821251E+01  2.3802149E+01
 2.1832750E+01  2.3816181E+01
 2.1844252E+01  2.3795208E+01
 2.1855751E+01  2.3769281E+01
 2.1867250E+01  2.3762083E+01
 2.1878752E+01  2.3783552E+01
 2.1890251E+01  2.3787603E+01
 2.1901751E+01  2.3861454E+01
 2.1913252E+01  2.3952513E+01
 2.1924751E+01  2.4043346E+01
 2.1936251E+01  2.3991211E+01
 2.1947752E+01  2.3952147E+01
 2.1959251E+01  2.3907593E+01
 2.1970751E+01  2.3913904E+01
 2.1982250E+01  2.3984066E+01
 2.1993752E+01  2.4032213E+01
 2.2005251E+01  2.4105299E+01
 2.2016750E+01  2.4070782E+01
 2.2028252E+01  2.4127110E+01
 2.2039751E+01  2.4029318E+01
 2.2051250E+01  2.4063293E+01
 2.2062752E+01  2.4070333E+01
 2.2074251E+01  2.4107271E+01
 2.2085751E+01  2.4075520E+01
 2.2097252E+01  2.3989761E+01
 2.2108751E+01  2.3951498E+01
 2.2120251E+01  2.3922499E+01
 2.2131752E+01  2.3952812E+01
 2.2143251E+01  2.3991217E+01
 2.2154751E+01  2.4018600E+01
 2.2166250E+01  2.4045565E+01
 2.2177752E+01  2.4030340E+01
 2.2189251E+01  2.4005663E+01
 2.2200750E+01  2.3974745E+01
 2.2212252E+01  2.3950094E+01
 2.2223751E+01  2.3964218E+01
 2.2235250E+01  2.4007360E+01
 2.2246752E+01  2.4065104E+01
 2.2258251E+01  2.4113071E+01
 2.2269751E+01  2.4135380E+01
 2.2281252E+01  2.4188894E+01
 2.2292751E+01  2.4184460E+01
 2.2304251E+01  2.4243822E+01
 2.2315752E+01  2.4207485E+01
 2.2327251E+01  2.4163937E+01
 2.2338751E+01  2.4139805E+01
 2.2350250E+01  2.4164068E+01
 2.2361752E+01  2.4169117E+01
 2.2373251E+01  2.4132330E+01
 2.2384750E+01  2.4126705E+01
 2.2396252E+01  2.4115414E+01
 2.2407751E+01  2.4090712E+01
 2.2419250E+01  2.4088858E+01
 2.2430752E+01  2.4126837E+01
 2.2442251E+01  2.4209854E+01
 2.2453751E+01  2.4291500E+01
 2.2465252E+01  2.4311039E+01
 2.2476751E+01  2.4268042E+01
 2.2488251E+01  2.4263914E+01
 2.2499752E+01  2.4335527E+01
 2.2511251E+01  2.4378147E+01
 2.2522751E+01  2.4420679E+01
 2.2534250E+01  2.4433840E+01
 2.2545752E+01  2.4426235E+01
 2.2557251E+01  2.4414537E+01
 2.2568750E+01  2.4401213E+01
 2.2580252E+01  2.4462599E+01
 2.2591751E+01  2.4478512E+01
 2.2603251E+01  2.4517826E+01
 2.2614752E+01  2.4561247E+01
 2.2626251E+01  2.4635098E+01
 2.2637751E+01  2.4680122E+01
 2.2649252E+01  2.4698471E+01
 2.2660751E+01  2.4705290E+01
 2.2672251E+01  2.4703568E+01
 2.2683752E+01  2.4748055E+01
 2.2695251E+01  2.4776442E+01
 2.2706751E+01  2.4806126E+01
 2.2718250E+01  2.4869036E+01
 2.2729752E+01  2.4953220E+01
 2.2741251E+01  2.5012234E+01
 2.2752750E+01  2.5030994E+01
 2.2764252E+01  2.5021988E+01
 2.2775751E+01  2.5019491E+01
 2.2787251E+01  2.4956249E+01
 2.2798752E+01  2.4965420E+01
 2.2810251E+01  2.4998676E+01
 2.2821751E+01  2.5057291E+01
 2.2833252E+01  2.5136898E+01
 2.2844751E+01  2.5201944E+01
 2.2856251E+01  2.5192850E+01
 2.2867750E+01  2.5206867E+01
 2.2879251E+01  2.5212536E+01
 2.2890751E+01  2.5311403E+01
 2.2902250E+01  2.5314735E+01
 2.2913752E+01  2.5419088E+01
 2.2925251E+01  2.5432310E+01
 2.2936750E+01  2.5457369E+01
 2.2948252E+01  2.5519348E+01
 2.2959751E+01  2.5558830E+01
 2.2971251E+01  2.5638823E+01
 2.2982752E+01  2.5703506E+01
 2.2994251E+01  2.5802137E+01
