F:\20151113_APS_34IDE\\Brian\Particle1\OCV\Data_0089.tif
2-Theta Angle (Degrees)
Intensity
       2000
 5.7500005E-03  0.0000000E+00
 1.7250001E-02  0.0000000E+00
 2.8750001E-02  0.0000000E+00
 4.0250003E-02  0.0000000E+00
 5.1750004E-02  0.0000000E+00
 6.3250005E-02  0.0000000E+00
 7.4750006E-02  0.0000000E+00
 8.6250007E-02  0.0000000E+00
 9.7750008E-02  0.0000000E+00
 1.0925001E-01  0.0000000E+00
 1.2075000E-01  0.0000000E+00
 1.3225001E-01  0.0000000E+00
 1.4375001E-01  0.0000000E+00
 1.5525001E-01  0.0000000E+00
 1.6675001E-01  0.0000000E+00
 1.7825001E-01  0.0000000E+00
 1.8975002E-01  0.0000000E+00
 2.0125002E-01  0.0000000E+00
 2.1275002E-01  0.0000000E+00
 2.2425000E-01  0.0000000E+00
 2.3575000E-01  0.0000000E+00
 2.4725001E-01  0.0000000E+00
 2.5875002E-01  0.0000000E+00
 2.7025002E-01  0.0000000E+00
 2.8175002E-01  0.0000000E+00
 2.9325002E-01  0.0000000E+00
 3.0475003E-01  0.0000000E+00
 3.1625003E-01  0.0000000E+00
 3.2775003E-01  0.0000000E+00
 3.3925003E-01  0.0000000E+00
 3.5075003E-01  0.0000000E+00
 3.6225003E-01  0.0000000E+00
 3.7375003E-01  0.0000000E+00
 3.8525003E-01  0.0000000E+00
 3.9675003E-01  0.0000000E+00
 4.0825003E-01  0.0000000E+00
 4.1975003E-01  0.0000000E+00
 4.3125004E-01  0.0000000E+00
 4.4275001E-01  0.0000000E+00
 4.5425001E-01  0.0000000E+00
 4.6575001E-01  0.0000000E+00
 4.7725001E-01  0.0000000E+00
 4.8875001E-01  0.0000000E+00
 5.0025004E-01  0.0000000E+00
 5.1175004E-01  0.0000000E+00
 5.2325004E-01  0.0000000E+00
 5.3475004E-01  0.0000000E+00
 5.4625005E-01  0.0000000E+00
 5.5775005E-01  0.0000000E+00
 5.6925005E-01  0.0000000E+00
 5.8075005E-01  0.0000000E+00
 5.9225005E-01  0.0000000E+00
 6.0375005E-01  0.0000000E+00
 6.1525005E-01  0.0000000E+00
 6.2675005E-01  0.0000000E+00
 6.3825005E-01  0.0000000E+00
 6.4975005E-01  0.0000000E+00
 6.6125005E-01  0.0000000E+00
 6.7275006E-01  0.0000000E+00
 6.8425006E-01  0.0000000E+00
 6.9575006E-01  0.0000000E+00
 7.0725006E-01  0.0000000E+00
 7.1875006E-01  0.0000000E+00
 7.3025006E-01  0.0000000E+00
 7.4175006E-01  0.0000000E+00
 7.5325006E-01  0.0000000E+00
 7.6475006E-01  0.0000000E+00
 7.7625006E-01  0.0000000E+00
 7.8775007E-01  0.0000000E+00
 7.9925007E-01  0.0000000E+00
 8.1075007E-01  0.0000000E+00
 8.2225007E-01  0.0000000E+00
 8.3375007E-01  0.0000000E+00
 8.4525007E-01  0.0000000E+00
 8.5675007E-01  0.0000000E+00
 8.6825007E-01  0.0000000E+00
 8.7975001E-01  0.0000000E+00
 8.9125001E-01  0.0000000E+00
 9.0275002E-01  0.0000000E+00
 9.1425002E-01  0.0000000E+00
 9.2575002E-01  0.0000000E+00
 9.3725002E-01  0.0000000E+00
 9.4875002E-01  0.0000000E+00
 9.6025002E-01  0.0000000E+00
 9.7175002E-01  0.0000000E+00
 9.8325002E-01  0.0000000E+00
 9.9475002E-01  0.0000000E+00
 1.0062500E+00  0.0000000E+00
 1.0177500E+00  0.0000000E+00
 1.0292500E+00  0.0000000E+00
 1.0407500E+00  0.0000000E+00
 1.0522500E+00  0.0000000E+00
 1.0637500E+00  0.0000000E+00
 1.0752500E+00  0.0000000E+00
 1.0867500E+00  0.0000000E+00
 1.0982500E+00  0.0000000E+00
 1.1097500E+00  0.0000000E+00
 1.1212500E+00  0.0000000E+00
 1.1327500E+00  0.0000000E+00
 1.1442500E+00  0.0000000E+00
 1.1557500E+00  0.0000000E+00
 1.1672500E+00  0.0000000E+00
 1.1787500E+00  0.0000000E+00
 1.1902500E+00  0.0000000E+00
 1.2017500E+00  0.0000000E+00
 1.2132500E+00  0.0000000E+00
 1.2247500E+00  0.0000000E+00
 1.2362500E+00  0.0000000E+00
 1.2477500E+00  0.0000000E+00
 1.2592500E+00  0.0000000E+00
 1.2707500E+00  0.0000000E+00
 1.2822500E+00  0.0000000E+00
 1.2937500E+00  0.0000000E+00
 1.3052500E+00  0.0000000E+00
 1.3167500E+00  0.0000000E+00
 1.3282501E+00  0.0000000E+00
 1.3397501E+00  0.0000000E+00
 1.3512501E+00  0.0000000E+00
 1.3627501E+00  0.0000000E+00
 1.3742501E+00  0.0000000E+00
 1.3857501E+00  0.0000000E+00
 1.3972501E+00  0.0000000E+00
 1.4087501E+00  0.0000000E+00
 1.4202501E+00  0.0000000E+00
 1.4317501E+00  0.0000000E+00
 1.4432501E+00  0.0000000E+00
 1.4547501E+00  0.0000000E+00
 1.4662501E+00  0.0000000E+00
 1.4777501E+00  0.0000000E+00
 1.4892501E+00  0.0000000E+00
 1.5007501E+00  0.0000000E+00
 1.5122501E+00  0.0000000E+00
 1.5237501E+00  0.0000000E+00
 1.5352501E+00  0.0000000E+00
 1.5467501E+00  0.0000000E+00
 1.5582501E+00  0.0000000E+00
 1.5697501E+00  0.0000000E+00
 1.5812501E+00  0.0000000E+00
 1.5927501E+00  0.0000000E+00
 1.6042501E+00  0.0000000E+00
 1.6157501E+00  0.0000000E+00
 1.6272501E+00  0.0000000E+00
 1.6387501E+00  0.0000000E+00
 1.6502501E+00  0.0000000E+00
 1.6617501E+00  0.0000000E+00
 1.6732501E+00  0.0000000E+00
 1.6847501E+00  0.0000000E+00
 1.6962501E+00  0.0000000E+00
 1.7077501E+00  0.0000000E+00
 1.7192501E+00  0.0000000E+00
 1.7307501E+00  0.0000000E+00
 1.7422501E+00  0.0000000E+00
 1.7537501E+00  0.0000000E+00
 1.7652501E+00  0.0000000E+00
 1.7767501E+00  0.0000000E+00
 1.7882501E+00  0.0000000E+00
 1.7997501E+00  0.0000000E+00
 1.8112501E+00  0.0000000E+00
 1.8227501E+00  0.0000000E+00
 1.8342501E+00  0.0000000E+00
 1.8457501E+00  0.0000000E+00
 1.8572501E+00  0.0000000E+00
 1.8687501E+00  0.0000000E+00
 1.8802501E+00  0.0000000E+00
 1.8917501E+00  0.0000000E+00
 1.9032501E+00  0.0000000E+00
 1.9147501E+00  0.0000000E+00
 1.9262501E+00  0.0000000E+00
 1.9377501E+00  0.0000000E+00
 1.9492501E+00  0.0000000E+00
 1.9607501E+00  0.0000000E+00
 1.9722501E+00  0.0000000E+00
 1.9837501E+00  0.0000000E+00
 1.9952501E+00  0.0000000E+00
 2.0067501E+00  0.0000000E+00
 2.0182500E+00  0.0000000E+00
 2.0297501E+00  0.0000000E+00
 2.0412500E+00  0.0000000E+00
 2.0527501E+00  0.0000000E+00
 2.0642500E+00  0.0000000E+00
 2.0757501E+00  0.0000000E+00
 2.0872500E+00  0.0000000E+00
 2.0987501E+00  0.0000000E+00
 2.1102500E+00  0.0000000E+00
 2.1217501E+00  0.0000000E+00
 2.1332500E+00  0.0000000E+00
 2.1447501E+00  0.0000000E+00
 2.1562500E+00  0.0000000E+00
 2.1677501E+00  0.0000000E+00
 2.1792500E+00  0.0000000E+00
 2.1907501E+00  0.0000000E+00
 2.2022500E+00  0.0000000E+00
 2.2137501E+00  0.0000000E+00
 2.2252500E+00  0.0000000E+00
 2.2367501E+00  0.0000000E+00
 2.2482500E+00  0.0000000E+00
 2.2597501E+00  0.0000000E+00
 2.2712500E+00  0.0000000E+00
 2.2827501E+00  0.0000000E+00
 2.2942500E+00  0.0000000E+00
 2.3057501E+00  0.0000000E+00
 2.3172500E+00  0.0000000E+00
 2.3287501E+00  0.0000000E+00
 2.3402500E+00  0.0000000E+00
 2.3517501E+00  0.0000000E+00
 2.3632500E+00  0.0000000E+00
 2.3747501E+00  0.0000000E+00
 2.3862500E+00  0.0000000E+00
 2.3977501E+00  0.0000000E+00
 2.4092500E+00  0.0000000E+00
 2.4207501E+00  0.0000000E+00
 2.4322500E+00  0.0000000E+00
 2.4437501E+00  0.0000000E+00
 2.4552500E+00  0.0000000E+00
 2.4667501E+00  0.0000000E+00
 2.4782500E+00  0.0000000E+00
 2.4897501E+00  0.0000000E+00
 2.5012500E+00  0.0000000E+00
 2.5127501E+00  0.0000000E+00
 2.5242500E+00  0.0000000E+00
 2.5357502E+00  0.0000000E+00
 2.5472500E+00  0.0000000E+00
 2.5587502E+00  0.0000000E+00
 2.5702500E+00  0.0000000E+00
 2.5817502E+00  0.0000000E+00
 2.5932500E+00  0.0000000E+00
 2.6047502E+00  0.0000000E+00
 2.6162500E+00  0.0000000E+00
 2.6277502E+00  0.0000000E+00
 2.6392500E+00  0.0000000E+00
 2.6507502E+00  0.0000000E+00
 2.6622500E+00  0.0000000E+00
 2.6737502E+00  0.0000000E+00
 2.6852500E+00  0.0000000E+00
 2.6967502E+00  0.0000000E+00
 2.7082500E+00  0.0000000E+00
 2.7197502E+00  0.0000000E+00
 2.7312500E+00  0.0000000E+00
 2.7427502E+00  0.0000000E+00
 2.7542500E+00  0.0000000E+00
 2.7657502E+00  0.0000000E+00
 2.7772501E+00  0.0000000E+00
 2.7887502E+00  0.0000000E+00
 2.8002501E+00  0.0000000E+00
 2.8117502E+00  0.0000000E+00
 2.8232501E+00  3.3741638E+01
 2.8347502E+00  3.3519405E+01
 2.8462501E+00  3.4508881E+01
 2.8577502E+00  3.4869709E+01
 2.8692501E+00  3.4958107E+01
 2.8807502E+00  3.5104488E+01
 2.8922501E+00  3.5303135E+01
 2.9037502E+00  3.5388851E+01
 2.9152501E+00  3.5513798E+01
 2.9267502E+00  3.5662682E+01
 2.9382501E+00  3.5620144E+01
 2.9497502E+00  3.5720047E+01
 2.9612501E+00  3.5190174E+01
 2.9727502E+00  3.5183975E+01
 2.9842501E+00  3.5060135E+01
 2.9957502E+00  3.5853592E+01
 3.0072501E+00  3.6210236E+01
 3.0187502E+00  3.6558800E+01
 3.0302501E+00  3.6061184E+01
 3.0417502E+00  3.5876740E+01
 3.0532501E+00  3.5204002E+01
 3.0647502E+00  3.4883846E+01
 3.0762501E+00  3.4755733E+01
 3.0877502E+00  3.4953194E+01
 3.0992501E+00  3.5193295E+01
 3.1107502E+00  3.5074234E+01
 3.1222501E+00  3.5021130E+01
 3.1337502E+00  3.4931812E+01
 3.1452501E+00  3.4889988E+01
 3.1567502E+00  3.5000786E+01
 3.1682501E+00  3.5133209E+01
 3.1797502E+00  3.5395599E+01
 3.1912501E+00  3.5479748E+01
 3.2027502E+00  3.5434120E+01
 3.2142501E+00  3.5197865E+01
 3.2257502E+00  3.5180992E+01
 3.2372501E+00  3.5141918E+01
 3.2487502E+00  3.5372375E+01
 3.2602501E+00  3.5405994E+01
 3.2717502E+00  3.5663784E+01
 3.2832501E+00  3.5579666E+01
 3.2947502E+00  3.5746307E+01
 3.3062501E+00  3.5650837E+01
 3.3177502E+00  3.5673141E+01
 3.3292501E+00  3.5459862E+01
 3.3407502E+00  3.5433018E+01
 3.3522501E+00  3.5392799E+01
 3.3637502E+00  3.5000454E+01
 3.3752501E+00  3.4814617E+01
 3.3867502E+00  3.4709488E+01
 3.3982501E+00  3.4637199E+01
 3.4097502E+00  3.4634296E+01
 3.4212501E+00  3.4286175E+01
 3.4327502E+00  3.4210789E+01
 3.4442501E+00  3.4252285E+01
 3.4557502E+00  3.4390240E+01
 3.4672501E+00  3.5022594E+01
 3.4787502E+00  3.5046711E+01
 3.4902501E+00  3.5250694E+01
 3.5017502E+00  3.4966339E+01
 3.5132501E+00  3.4831741E+01
 3.5247502E+00  3.4496513E+01
 3.5362501E+00  3.4516163E+01
 3.5477502E+00  3.4327251E+01
 3.5592501E+00  3.4420906E+01
 3.5707502E+00  3.4086777E+01
 3.5822501E+00  3.4126900E+01
 3.5937502E+00  3.3887047E+01
 3.6052501E+00  3.4048164E+01
 3.6167502E+00  3.3922142E+01
 3.6282501E+00  3.4002640E+01
 3.6397502E+00  3.3949081E+01
 3.6512501E+00  3.4276691E+01
 3.6627502E+00  3.4281178E+01
 3.6742501E+00  3.4411957E+01
 3.6857502E+00  3.4314266E+01
 3.6972501E+00  3.4249443E+01
 3.7087502E+00  3.4053406E+01
 3.7202501E+00  3.3836685E+01
 3.7317502E+00  3.3750046E+01
 3.7432501E+00  3.3847561E+01
 3.7547503E+00  3.3842834E+01
 3.7662501E+00  3.3973915E+01
 3.7777503E+00  3.3994480E+01
 3.7892501E+00  3.4007973E+01
 3.8007503E+00  3.3843040E+01
 3.8122501E+00  3.3766556E+01
 3.8237503E+00  3.3736164E+01
 3.8352501E+00  3.3750336E+01
 3.8467503E+00  3.3586544E+01
 3.8582501E+00  3.3476181E+01
 3.8697503E+00  3.3295822E+01
 3.8812501E+00  3.3301331E+01
 3.8927503E+00  3.3056957E+01
 3.9042501E+00  3.3048801E+01
 3.9157503E+00  3.2982853E+01
 3.9272501E+00  3.3053944E+01
 3.9387503E+00  3.3063026E+01
 3.9502501E+00  3.3036224E+01
 3.9617503E+00  3.2944843E+01
 3.9732502E+00  3.2696323E+01
 3.9847503E+00  3.2565536E+01
 3.9962502E+00  3.2301052E+01
 4.0077500E+00  3.2337852E+01
 4.0192504E+00  3.2260368E+01
 4.0307503E+00  3.2260319E+01
 4.0422502E+00  3.2355564E+01
 4.0537500E+00  3.2391453E+01
 4.0652504E+00  3.2583179E+01
 4.0767503E+00  3.2687302E+01
 4.0882502E+00  3.2676300E+01
 4.0997500E+00  3.2796272E+01
 4.1112504E+00  3.2633450E+01
 4.1227503E+00  3.2804073E+01
 4.1342502E+00  3.2872421E+01
 4.1457500E+00  3.3111454E+01
 4.1572504E+00  3.3024864E+01
 4.1687503E+00  3.3068485E+01
 4.1802502E+00  3.2996971E+01
 4.1917500E+00  3.3178459E+01
 4.2032504E+00  3.3048672E+01
 4.2147503E+00  3.2936344E+01
 4.2262502E+00  3.2918213E+01
 4.2377501E+00  3.2953957E+01
 4.2492504E+00  3.2994976E+01
 4.2607503E+00  3.2976292E+01
 4.2722502E+00  3.2735729E+01
 4.2837501E+00  3.2721252E+01
 4.2952504E+00  3.2515976E+01
 4.3067503E+00  3.2506142E+01
 4.3182502E+00  3.2409489E+01
 4.3297501E+00  3.2270172E+01
 4.3412504E+00  3.2319057E+01
 4.3527503E+00  3.2341656E+01
 4.3642502E+00  3.2420101E+01
 4.3757501E+00  3.2504639E+01
 4.3872504E+00  3.2678612E+01
 4.3987503E+00  3.2784821E+01
 4.4102502E+00  3.2939590E+01
 4.4217501E+00  3.2838188E+01
 4.4332504E+00  3.2947147E+01
 4.4447503E+00  3.2831154E+01
 4.4562502E+00  3.2858841E+01
 4.4677501E+00  3.2917809E+01
 4.4792504E+00  3.3055145E+01
 4.4907503E+00  3.3103516E+01
 4.5022502E+00  3.3161419E+01
 4.5137501E+00  3.3142529E+01
 4.5252504E+00  3.3268841E+01
 4.5367503E+00  3.3211983E+01
 4.5482502E+00  3.3251976E+01
 4.5597501E+00  3.3095425E+01
 4.5712504E+00  3.3039864E+01
 4.5827503E+00  3.2974934E+01
 4.5942502E+00  3.2896236E+01
 4.6057501E+00  3.2811142E+01
 4.6172504E+00  3.2835526E+01
 4.6287503E+00  3.2883713E+01
 4.6402502E+00  3.3075958E+01
 4.6517501E+00  3.3165325E+01
 4.6632504E+00  3.3224804E+01
 4.6747503E+00  3.3274956E+01
 4.6862502E+00  3.3168118E+01
 4.6977501E+00  3.3179424E+01
 4.7092505E+00  3.3059856E+01
 4.7207503E+00  3.2930183E+01
 4.7322502E+00  3.2800304E+01
 4.7437501E+00  3.2757889E+01
 4.7552505E+00  3.2860115E+01
 4.7667503E+00  3.2902134E+01
 4.7782502E+00  3.2918549E+01
 4.7897501E+00  3.2885052E+01
 4.8012505E+00  3.2871750E+01
 4.8127503E+00  3.2954975E+01
 4.8242502E+00  3.3039814E+01
 4.8357501E+00  3.3084568E+01
 4.8472505E+00  3.3072235E+01
 4.8587503E+00  3.3071045E+01
 4.8702502E+00  3.3162926E+01
 4.8817501E+00  3.3169056E+01
 4.8932505E+00  3.3235619E+01
 4.9047503E+00  3.3184727E+01
 4.9162502E+00  3.3262623E+01
 4.9277501E+00  3.3249149E+01
 4.9392505E+00  3.3145603E+01
 4.9507504E+00  3.3071472E+01
 4.9622502E+00  3.3027092E+01
 4.9737501E+00  3.3207676E+01
 4.9852505E+00  3.3402576E+01
 4.9967504E+00  3.3607552E+01
 5.0082502E+00  3.3793373E+01
 5.0197501E+00  3.3918564E+01
 5.0312505E+00  3.3990494E+01
 5.0427504E+00  3.3984486E+01
 5.0542502E+00  3.3939075E+01
 5.0657501E+00  3.3861824E+01
 5.0772505E+00  3.3821152E+01
 5.0887504E+00  3.3765228E+01
 5.1002502E+00  3.3748352E+01
 5.1117501E+00  3.3690205E+01
 5.1232505E+00  3.3752167E+01
 5.1347504E+00  3.3830967E+01
 5.1462502E+00  3.4005497E+01
 5.1577501E+00  3.4119041E+01
 5.1692505E+00  3.4258690E+01
 5.1807504E+00  3.4345898E+01
 5.1922503E+00  3.4517105E+01
 5.2037501E+00  3.4474205E+01
 5.2152505E+00  3.4552452E+01
 5.2267504E+00  3.4557201E+01
 5.2382503E+00  3.4704185E+01
 5.2497501E+00  3.4713612E+01
 5.2612505E+00  3.4683159E+01
 5.2727504E+00  3.4580452E+01
 5.2842503E+00  3.4605766E+01
 5.2957501E+00  3.4740776E+01
 5.3072500E+00  3.4791927E+01
 5.3187504E+00  3.4884815E+01
 5.3302503E+00  3.4919193E+01
 5.3417501E+00  3.4986946E+01
 5.3532500E+00  3.5033596E+01
 5.3647504E+00  3.4977970E+01
 5.3762503E+00  3.5003883E+01
 5.3877501E+00  3.5130402E+01
 5.3992500E+00  3.5151817E+01
 5.4107504E+00  3.5248604E+01
 5.4222503E+00  3.5268867E+01
 5.4337502E+00  3.5296265E+01
 5.4452500E+00  3.5408058E+01
 5.4567504E+00  3.5539505E+01
 5.4682503E+00  3.5559582E+01
 5.4797502E+00  3.5578491E+01
 5.4912500E+00  3.5364540E+01
 5.5027504E+00  3.5431141E+01
 5.5142503E+00  3.5353756E+01
 5.5257502E+00  3.5471775E+01
 5.5372500E+00  3.5520184E+01
 5.5487504E+00  3.5632145E+01
 5.5602503E+00  3.5626110E+01
 5.5717502E+00  3.5691662E+01
 5.5832500E+00  3.5541264E+01
 5.5947504E+00  3.5658749E+01
 5.6062503E+00  3.5722900E+01
 5.6177502E+00  3.5876839E+01
 5.6292500E+00  3.6021065E+01
 5.6407504E+00  3.6136368E+01
 5.6522503E+00  3.6376251E+01
 5.6637502E+00  3.6671589E+01
 5.6752501E+00  3.6878078E+01
 5.6867504E+00  3.6900822E+01
 5.6982503E+00  3.6805435E+01
 5.7097502E+00  3.6850143E+01
 5.7212501E+00  3.6948784E+01
 5.7327504E+00  3.7026588E+01
 5.7442503E+00  3.7097401E+01
 5.7557502E+00  3.7178226E+01
 5.7672501E+00  3.7305126E+01
 5.7787504E+00  3.7503532E+01
 5.7902503E+00  3.7795658E+01
 5.8017502E+00  3.7996838E+01
 5.8132501E+00  3.8269615E+01
 5.8247504E+00  3.8635509E+01
 5.8362503E+00  3.9106350E+01
 5.8477502E+00  3.9556049E+01
 5.8592501E+00  4.0063858E+01
 5.8707504E+00  4.0868546E+01
 5.8822503E+00  4.1861000E+01
 5.8937502E+00  4.4678864E+01
 5.9052501E+00  4.6670837E+01
 5.9167504E+00  5.7028469E+01
 5.9282503E+00  6.3556042E+01
 5.9397502E+00  9.0452133E+01
 5.9512501E+00  1.0125207E+02
 5.9627504E+00  1.5316550E+02
 5.9742503E+00  1.6195236E+02
 5.9857502E+00  1.8588879E+02
 5.9972501E+00  1.6491307E+02
 6.0087504E+00  1.5327512E+02
 6.0202503E+00  1.2144034E+02
 6.0317502E+00  9.8042885E+01
 6.0432501E+00  7.3362595E+01
 6.0547504E+00  6.3437088E+01
 6.0662503E+00  5.0304970E+01
 6.0777502E+00  4.5449619E+01
 6.0892501E+00  4.3276154E+01
 6.1007504E+00  4.1958576E+01
 6.1122503E+00  4.1057327E+01
 6.1237502E+00  4.0619591E+01
 6.1352501E+00  4.0105869E+01
 6.1467505E+00  3.9805252E+01
 6.1582503E+00  3.9508034E+01
 6.1697502E+00  3.9323154E+01
 6.1812501E+00  3.9194714E+01
 6.1927505E+00  3.8975315E+01
 6.2042503E+00  3.8724705E+01
 6.2157502E+00  3.8636265E+01
 6.2272501E+00  3.8620869E+01
 6.2387505E+00  3.8565403E+01
 6.2502503E+00  3.8494118E+01
 6.2617502E+00  3.8448586E+01
 6.2732501E+00  3.8526451E+01
 6.2847505E+00  3.8580589E+01
 6.2962503E+00  3.8646423E+01
 6.3077502E+00  3.8637730E+01
 6.3192501E+00  3.8664719E+01
 6.3307505E+00  3.8840252E+01
 6.3422503E+00  3.8960518E+01
 6.3537502E+00  3.9091545E+01
 6.3652501E+00  3.9099613E+01
 6.3767505E+00  3.9115036E+01
 6.3882504E+00  3.9135311E+01
 6.3997502E+00  3.9096508E+01
 6.4112501E+00  3.9174480E+01
 6.4227505E+00  3.9201656E+01
 6.4342504E+00  3.9173103E+01
 6.4457502E+00  3.9250214E+01
 6.4572501E+00  3.9233242E+01
 6.4687505E+00  3.9367065E+01
 6.4802504E+00  3.9483932E+01
 6.4917502E+00  3.9694271E+01
 6.5032501E+00  3.9913769E+01
 6.5147505E+00  4.0082226E+01
 6.5262504E+00  4.0053860E+01
 6.5377502E+00  4.0022537E+01
 6.5492501E+00  3.9884624E+01
 6.5607505E+00  3.9883327E+01
 6.5722504E+00  3.9847187E+01
 6.5837502E+00  3.9975716E+01
 6.5952501E+00  4.0031425E+01
 6.6067505E+00  4.0210850E+01
 6.6182504E+00  4.0265450E+01
 6.6297503E+00  4.0369923E+01
 6.6412501E+00  4.0457493E+01
 6.6527505E+00  4.0552071E+01
 6.6642504E+00  4.0772957E+01
 6.6757503E+00  4.0815384E+01
 6.6872501E+00  4.0811729E+01
 6.6987505E+00  4.0763443E+01
 6.7102504E+00  4.0834526E+01
 6.7217503E+00  4.0954144E+01
 6.7332501E+00  4.1100739E+01
 6.7447505E+00  4.1194740E+01
 6.7562504E+00  4.1381382E+01
 6.7677503E+00  4.1432732E+01
 6.7792501E+00  4.1526543E+01
 6.7907505E+00  4.1589687E+01
 6.8022504E+00  4.1684376E+01
 6.8137503E+00  4.1781898E+01
 6.8252501E+00  4.1916725E+01
 6.8367505E+00  4.1969475E+01
 6.8482504E+00  4.2054066E+01
 6.8597503E+00  4.2128731E+01
 6.8712502E+00  4.2328415E+01
 6.8827505E+00  4.2448536E+01
 6.8942504E+00  4.2447269E+01
 6.9057503E+00  4.2402275E+01
 6.9172502E+00  4.2433788E+01
 6.9287505E+00  4.2450180E+01
 6.9402504E+00  4.2488544E+01
 6.9517503E+00  4.2567226E+01
 6.9632502E+00  4.2624458E+01
 6.9747505E+00  4.2772743E+01
 6.9862504E+00  4.2786064E+01
 6.9977503E+00  4.2759830E+01
 7.0092502E+00  4.2756649E+01
 7.0207505E+00  4.2637550E+01
 7.0322504E+00  4.2726685E+01
 7.0437503E+00  4.2780407E+01
 7.0552502E+00  4.2957268E+01
 7.0667505E+00  4.3061531E+01
 7.0782504E+00  4.3119053E+01
 7.0897503E+00  4.3251095E+01
 7.1012502E+00  4.3448181E+01
 7.1127505E+00  4.3726826E+01
 7.1242504E+00  4.3884571E+01
 7.1357503E+00  4.4027840E+01
 7.1472502E+00  4.3937485E+01
 7.1587505E+00  4.3893784E+01
 7.1702504E+00  4.3796822E+01
 7.1817503E+00  4.3830906E+01
 7.1932502E+00  4.3889469E+01
 7.2047505E+00  4.3941628E+01
 7.2162504E+00  4.3986900E+01
 7.2277503E+00  4.4021500E+01
 7.2392502E+00  4.3983986E+01
 7.2507505E+00  4.3950485E+01
 7.2622504E+00  4.3901558E+01
 7.2737503E+00  4.3925255E+01
 7.2852502E+00  4.3969563E+01
 7.2967505E+00  4.4004147E+01
 7.3082504E+00  4.4121780E+01
 7.3197503E+00  4.4195316E+01
 7.3312502E+00  4.4349495E+01
 7.3427505E+00  4.4527416E+01
 7.3542504E+00  4.4662998E+01
 7.3657503E+00  4.4815952E+01
 7.3772502E+00  4.4845970E+01
 7.3887506E+00  4.4921787E+01
 7.4002504E+00  4.4906200E+01
 7.4117503E+00  4.4928082E+01
 7.4232502E+00  4.4930592E+01
 7.4347506E+00  4.4922314E+01
 7.4462504E+00  4.4932201E+01
 7.4577503E+00  4.4882469E+01
 7.4692502E+00  4.4833332E+01
 7.4807506E+00  4.4726501E+01
 7.4922504E+00  4.4756149E+01
 7.5037503E+00  4.4722630E+01
 7.5152502E+00  4.4780884E+01
 7.5267506E+00  4.4722752E+01
 7.5382504E+00  4.4754082E+01
 7.5497503E+00  4.4741879E+01
 7.5612502E+00  4.4783508E+01
 7.5727506E+00  4.4883091E+01
 7.5842505E+00  4.5073536E+01
 7.5957503E+00  4.5206261E+01
 7.6072502E+00  4.5251625E+01
 7.6187506E+00  4.5210804E+01
 7.6302505E+00  4.5090416E+01
 7.6417503E+00  4.5012592E+01
 7.6532502E+00  4.4955231E+01
 7.6647506E+00  4.4914207E+01
 7.6762505E+00  4.4931293E+01
 7.6877503E+00  4.4812649E+01
 7.6992502E+00  4.4772118E+01
 7.7107506E+00  4.4721432E+01
 7.7222505E+00  4.4755898E+01
 7.7337503E+00  4.4743401E+01
 7.7452502E+00  4.4776463E+01
 7.7567506E+00  4.4788677E+01
 7.7682505E+00  4.4793751E+01
 7.7797503E+00  4.4833900E+01
 7.7912502E+00  4.4910088E+01
 7.8027506E+00  4.4918945E+01
 7.8142505E+00  4.4871864E+01
 7.8257504E+00  4.4722576E+01
 7.8372502E+00  4.4758808E+01
 7.8487506E+00  4.4732574E+01
 7.8602505E+00  4.4726643E+01
 7.8717504E+00  4.4668953E+01
 7.8832502E+00  4.4636551E+01
 7.8947506E+00  4.4637650E+01
 7.9062505E+00  4.4578823E+01
 7.9177504E+00  4.4528728E+01
 7.9292502E+00  4.4545891E+01
 7.9407506E+00  4.4556175E+01
 7.9522505E+00  4.4436745E+01
 7.9637504E+00  4.4355206E+01
 7.9752502E+00  4.4302891E+01
 7.9867506E+00  4.4352097E+01
 7.9982505E+00  4.4341930E+01
 8.0097504E+00  4.4179752E+01
 8.0212507E+00  4.4075138E+01
 8.0327501E+00  4.3925892E+01
 8.0442505E+00  4.3861691E+01
 8.0557508E+00  4.3686722E+01
 8.0672503E+00  4.3534531E+01
 8.0787506E+00  4.3464066E+01
 8.0902500E+00  4.3436459E+01
 8.1017504E+00  4.3379410E+01
 8.1132507E+00  4.3323158E+01
 8.1247501E+00  4.3193909E+01
 8.1362505E+00  4.3155609E+01
 8.1477509E+00  4.3016830E+01
 8.1592503E+00  4.2944199E+01
 8.1707506E+00  4.2764366E+01
 8.1822500E+00  4.2577667E+01
 8.1937504E+00  4.2433811E+01
 8.2052507E+00  4.2330444E+01
 8.2167501E+00  4.2279057E+01
 8.2282505E+00  4.2151154E+01
 8.2397509E+00  4.2075047E+01
 8.2512503E+00  4.1981655E+01
 8.2627506E+00  4.1896160E+01
 8.2742500E+00  4.1717400E+01
 8.2857504E+00  4.1549362E+01
 8.2972507E+00  4.1452896E+01
 8.3087502E+00  4.1302910E+01
 8.3202505E+00  4.1212502E+01
 8.3317509E+00  4.0999405E+01
 8.3432503E+00  4.0876076E+01
 8.3547506E+00  4.0644726E+01
 8.3662500E+00  4.0440865E+01
 8.3777504E+00  4.0223763E+01
 8.3892508E+00  4.0076637E+01
 8.4007502E+00  3.9855381E+01
 8.4122505E+00  3.9716560E+01
 8.4237509E+00  3.9488190E+01
 8.4352503E+00  3.9402313E+01
 8.4467506E+00  3.9295887E+01
 8.4582500E+00  3.9161194E+01
 8.4697504E+00  3.9026558E+01
 8.4812508E+00  3.8770287E+01
 8.4927502E+00  3.8537106E+01
 8.5042505E+00  3.8337860E+01
 8.5157509E+00  3.8222050E+01
 8.5272503E+00  3.8152443E+01
 8.5387506E+00  3.8018253E+01
 8.5502501E+00  3.7791454E+01
 8.5617504E+00  3.7667538E+01
 8.5732508E+00  3.7520039E+01
 8.5847502E+00  3.7507793E+01
 8.5962505E+00  3.7289524E+01
 8.6077509E+00  3.7067089E+01
 8.6192503E+00  3.6831112E+01
 8.6307507E+00  3.6671478E+01
 8.6422501E+00  3.6474747E+01
 8.6537504E+00  3.6244606E+01
 8.6652508E+00  3.5953175E+01
 8.6767502E+00  3.5755859E+01
 8.6882505E+00  3.5544201E+01
 8.6997509E+00  3.5377220E+01
 8.7112503E+00  3.5172321E+01
 8.7227507E+00  3.4932808E+01
 8.7342501E+00  3.4771549E+01
 8.7457504E+00  3.4554859E+01
 8.7572508E+00  3.4371010E+01
 8.7687502E+00  3.4234898E+01
 8.7802505E+00  3.4055279E+01
 8.7917500E+00  3.3937706E+01
 8.8032503E+00  3.3696869E+01
 8.8147507E+00  3.3619434E+01
 8.8262501E+00  3.3507484E+01
 8.8377504E+00  3.3474613E+01
 8.8492508E+00  3.3370087E+01
 8.8607502E+00  3.3310562E+01
 8.8722506E+00  3.3146095E+01
 8.8837500E+00  3.3009651E+01
 8.8952503E+00  3.2819412E+01
 8.9067507E+00  3.2674973E+01
 8.9182501E+00  3.2455441E+01
 8.9297504E+00  3.2320091E+01
 8.9412508E+00  3.2122364E+01
 8.9527502E+00  3.1943613E+01
 8.9642506E+00  3.1690552E+01
 8.9757500E+00  3.1436899E+01
 8.9872503E+00  3.1268108E+01
 8.9987507E+00  3.1033033E+01
 9.0102501E+00  3.0880966E+01
 9.0217505E+00  3.0714432E+01
 9.0332508E+00  3.0679173E+01
 9.0447502E+00  3.0608587E+01
 9.0562506E+00  3.0527517E+01
 9.0677500E+00  3.0393097E+01
 9.0792503E+00  3.0303955E+01
 9.0907507E+00  3.0242825E+01
 9.1022501E+00  3.0090857E+01
 9.1137505E+00  2.9967361E+01
 9.1252508E+00  2.9809875E+01
 9.1367502E+00  2.9680323E+01
 9.1482506E+00  2.9534428E+01
 9.1597500E+00  2.9361902E+01
 9.1712503E+00  2.9240484E+01
 9.1827507E+00  2.9104753E+01
 9.1942501E+00  2.8966051E+01
 9.2057505E+00  2.8822723E+01
 9.2172508E+00  2.8771103E+01
 9.2287502E+00  2.8625858E+01
 9.2402506E+00  2.8558987E+01
 9.2517500E+00  2.8335314E+01
 9.2632504E+00  2.8279867E+01
 9.2747507E+00  2.8194262E+01
 9.2862501E+00  2.8121264E+01
 9.2977505E+00  2.8044712E+01
 9.3092508E+00  2.7926228E+01
 9.3207502E+00  2.7931841E+01
 9.3322506E+00  2.7864395E+01
 9.3437500E+00  2.7829641E+01
 9.3552504E+00  2.7756428E+01
 9.3667507E+00  2.7657965E+01
 9.3782501E+00  2.7560719E+01
 9.3897505E+00  2.7478714E+01
 9.4012508E+00  2.7454016E+01
 9.4127502E+00  2.7443993E+01
 9.4242506E+00  2.7346037E+01
 9.4357500E+00  2.7297714E+01
 9.4472504E+00  2.7152098E+01
 9.4587507E+00  2.7055246E+01
 9.4702501E+00  2.6937054E+01
 9.4817505E+00  2.6857246E+01
 9.4932508E+00  2.6781073E+01
 9.5047503E+00  2.6640837E+01
 9.5162506E+00  2.6566828E+01
 9.5277500E+00  2.6451883E+01
 9.5392504E+00  2.6373856E+01
 9.5507507E+00  2.6284010E+01
 9.5622501E+00  2.6259047E+01
 9.5737505E+00  2.6219133E+01
 9.5852509E+00  2.6212629E+01
 9.5967503E+00  2.6187159E+01
 9.6082506E+00  2.6184649E+01
 9.6197500E+00  2.6078590E+01
 9.6312504E+00  2.5968288E+01
 9.6427507E+00  2.5867107E+01
 9.6542501E+00  2.5849545E+01
 9.6657505E+00  2.5776205E+01
 9.6772509E+00  2.5679605E+01
 9.6887503E+00  2.5530615E+01
 9.7002506E+00  2.5425610E+01
 9.7117500E+00  2.5380606E+01
 9.7232504E+00  2.5359573E+01
 9.7347507E+00  2.5347565E+01
 9.7462502E+00  2.5337063E+01
 9.7577505E+00  2.5306765E+01
 9.7692509E+00  2.5311104E+01
 9.7807503E+00  2.5291840E+01
 9.7922506E+00  2.5221437E+01
 9.8037500E+00  2.5128569E+01
 9.8152504E+00  2.5018866E+01
 9.8267508E+00  2.4987251E+01
 9.8382502E+00  2.4949846E+01
 9.8497505E+00  2.4862770E+01
 9.8612509E+00  2.4831850E+01
 9.8727503E+00  2.4811617E+01
 9.8842506E+00  2.4780510E+01
 9.8957500E+00  2.4830530E+01
 9.9072504E+00  2.4831928E+01
 9.9187508E+00  2.4904881E+01
 9.9302502E+00  2.4834557E+01
 9.9417505E+00  2.4805166E+01
 9.9532509E+00  2.4765970E+01
 9.9647503E+00  2.4756594E+01
 9.9762506E+00  2.4732256E+01
 9.9877501E+00  2.4678030E+01
 9.9992504E+00  2.4629328E+01
 1.0010751E+01  2.4508129E+01
 1.0022250E+01  2.4409048E+01
 1.0033751E+01  2.4326414E+01
 1.0045251E+01  2.4340000E+01
 1.0056750E+01  2.4372259E+01
 1.0068251E+01  2.4388685E+01
 1.0079750E+01  2.4386076E+01
 1.0091250E+01  2.4416950E+01
 1.0102751E+01  2.4375273E+01
 1.0114250E+01  2.4385557E+01
 1.0125751E+01  2.4279364E+01
 1.0137251E+01  2.4191687E+01
 1.0148750E+01  2.4126722E+01
 1.0160251E+01  2.4084076E+01
 1.0171750E+01  2.4067911E+01
 1.0183250E+01  2.4054058E+01
 1.0194751E+01  2.4030350E+01
 1.0206250E+01  2.4067043E+01
 1.0217751E+01  2.4074699E+01
 1.0229251E+01  2.4112749E+01
 1.0240750E+01  2.4066917E+01
 1.0252251E+01  2.3955000E+01
 1.0263750E+01  2.3903362E+01
 1.0275250E+01  2.3866098E+01
 1.0286751E+01  2.3829964E+01
 1.0298250E+01  2.3716351E+01
 1.0309751E+01  2.3654310E+01
 1.0321251E+01  2.3544529E+01
 1.0332750E+01  2.3552605E+01
 1.0344251E+01  2.3536140E+01
 1.0355750E+01  2.3585838E+01
 1.0367250E+01  2.3555040E+01
 1.0378751E+01  2.3518747E+01
 1.0390250E+01  2.3603830E+01
 1.0401751E+01  2.3634357E+01
 1.0413251E+01  2.3666279E+01
 1.0424750E+01  2.3609577E+01
 1.0436251E+01  2.3572002E+01
 1.0447750E+01  2.3536156E+01
 1.0459250E+01  2.3484838E+01
 1.0470751E+01  2.3499241E+01
 1.0482250E+01  2.3514286E+01
 1.0493751E+01  2.3504883E+01
 1.0505251E+01  2.3444677E+01
 1.0516750E+01  2.3414305E+01
 1.0528251E+01  2.3362738E+01
 1.0539750E+01  2.3364021E+01
 1.0551250E+01  2.3338806E+01
 1.0562751E+01  2.3354464E+01
 1.0574250E+01  2.3287613E+01
 1.0585751E+01  2.3244946E+01
 1.0597251E+01  2.3156939E+01
 1.0608750E+01  2.3200254E+01
 1.0620251E+01  2.3211178E+01
 1.0631750E+01  2.3261475E+01
 1.0643250E+01  2.3295273E+01
 1.0654751E+01  2.3336758E+01
 1.0666250E+01  2.3343048E+01
 1.0677751E+01  2.3319267E+01
 1.0689251E+01  2.3251341E+01
 1.0700750E+01  2.3285189E+01
 1.0712251E+01  2.3271955E+01
 1.0723750E+01  2.3284470E+01
 1.0735250E+01  2.3170919E+01
 1.0746751E+01  2.3070351E+01
 1.0758250E+01  2.2971792E+01
 1.0769751E+01  2.2931307E+01
 1.0781251E+01  2.2971945E+01
 1.0792750E+01  2.2988174E+01
 1.0804251E+01  2.3053389E+01
 1.0815750E+01  2.3068285E+01
 1.0827250E+01  2.3081650E+01
 1.0838751E+01  2.2994095E+01
 1.0850250E+01  2.2937994E+01
 1.0861751E+01  2.2916346E+01
 1.0873251E+01  2.2976170E+01
 1.0884750E+01  2.2928913E+01
 1.0896251E+01  2.2910053E+01
 1.0907750E+01  2.2875414E+01
 1.0919250E+01  2.2895292E+01
 1.0930751E+01  2.2947409E+01
 1.0942250E+01  2.2955778E+01
 1.0953751E+01  2.3022747E+01
 1.0965251E+01  2.3038372E+01
 1.0976750E+01  2.3056963E+01
 1.0988251E+01  2.2991190E+01
 1.0999750E+01  2.2937853E+01
 1.1011250E+01  2.2886545E+01
 1.1022751E+01  2.2861759E+01
 1.1034250E+01  2.2746048E+01
 1.1045751E+01  2.2734169E+01
 1.1057251E+01  2.2716513E+01
 1.1068750E+01  2.2799051E+01
 1.1080251E+01  2.2823711E+01
 1.1091750E+01  2.2903282E+01
 1.1103251E+01  2.2888233E+01
 1.1114751E+01  2.2892946E+01
 1.1126250E+01  2.2822876E+01
 1.1137751E+01  2.2772429E+01
 1.1149251E+01  2.2745735E+01
 1.1160750E+01  2.2742544E+01
 1.1172251E+01  2.2762533E+01
 1.1183750E+01  2.2745890E+01
 1.1195251E+01  2.2728519E+01
 1.1206751E+01  2.2706375E+01
 1.1218250E+01  2.2709351E+01
 1.1229751E+01  2.2701187E+01
 1.1241251E+01  2.2722031E+01
 1.1252750E+01  2.2708017E+01
 1.1264251E+01  2.2691971E+01
 1.1275750E+01  2.2655890E+01
 1.1287251E+01  2.2633297E+01
 1.1298751E+01  2.2639231E+01
 1.1310250E+01  2.2678736E+01
 1.1321751E+01  2.2691549E+01
 1.1333251E+01  2.2700239E+01
 1.1344750E+01  2.2679996E+01
 1.1356251E+01  2.2662493E+01
 1.1367750E+01  2.2702173E+01
 1.1379251E+01  2.2755140E+01
 1.1390751E+01  2.2829468E+01
 1.1402250E+01  2.2961084E+01
 1.1413751E+01  2.3031450E+01
 1.1425251E+01  2.3097395E+01
 1.1436750E+01  2.3007675E+01
 1.1448251E+01  2.2988022E+01
 1.1459750E+01  2.2979326E+01
 1.1471251E+01  2.3003143E+01
 1.1482751E+01  2.3078201E+01
 1.1494250E+01  2.3185196E+01
 1.1505751E+01  2.3332973E+01
 1.1517251E+01  2.3664865E+01
 1.1528750E+01  2.4253086E+01
 1.1540251E+01  2.5089674E+01
 1.1551750E+01  2.6710917E+01
 1.1563251E+01  2.8658796E+01
 1.1574751E+01  3.0652447E+01
 1.1586250E+01  3.3008041E+01
 1.1597751E+01  3.3518860E+01
 1.1609251E+01  3.3602699E+01
 1.1620750E+01  3.1738596E+01
 1.1632251E+01  2.9809294E+01
 1.1643750E+01  2.7543015E+01
 1.1655251E+01  2.5528040E+01
 1.1666751E+01  2.4513767E+01
 1.1678250E+01  2.3834646E+01
 1.1689751E+01  2.3491335E+01
 1.1701251E+01  2.3374969E+01
 1.1712750E+01  2.3342741E+01
 1.1724251E+01  2.3274902E+01
 1.1735750E+01  2.3271885E+01
 1.1747251E+01  2.3243326E+01
 1.1758751E+01  2.3134733E+01
 1.1770250E+01  2.2962791E+01
 1.1781751E+01  2.2822550E+01
 1.1793251E+01  2.2826527E+01
 1.1804750E+01  2.2830057E+01
 1.1816251E+01  2.2865072E+01
 1.1827750E+01  2.2871796E+01
 1.1839251E+01  2.2870407E+01
 1.1850751E+01  2.2837606E+01
 1.1862250E+01  2.2828518E+01
 1.1873751E+01  2.2811708E+01
 1.1885251E+01  2.2812365E+01
 1.1896750E+01  2.2788761E+01
 1.1908251E+01  2.2802328E+01
 1.1919750E+01  2.2858088E+01
 1.1931251E+01  2.2981220E+01
 1.1942751E+01  2.3167660E+01
 1.1954250E+01  2.3396605E+01
 1.1965751E+01  2.3563099E+01
 1.1977251E+01  2.3727795E+01
 1.1988750E+01  2.3828903E+01
 1.2000251E+01  2.3828959E+01
 1.2011750E+01  2.3676346E+01
 1.2023251E+01  2.3534176E+01
 1.2034751E+01  2.3463764E+01
 1.2046250E+01  2.3577513E+01
 1.2057751E+01  2.3732054E+01
 1.2069251E+01  2.4090317E+01
 1.2080750E+01  2.4483685E+01
 1.2092251E+01  2.4818005E+01
 1.2103750E+01  2.4933851E+01
 1.2115251E+01  2.4868999E+01
 1.2126751E+01  2.4773668E+01
 1.2138250E+01  2.4398235E+01
 1.2149751E+01  2.4175009E+01
 1.2161251E+01  2.3726479E+01
 1.2172750E+01  2.3489511E+01
 1.2184251E+01  2.3128336E+01
 1.2195750E+01  2.2950983E+01
 1.2207251E+01  2.2892109E+01
 1.2218751E+01  2.2812037E+01
 1.2230250E+01  2.2821276E+01
 1.2241751E+01  2.2767302E+01
 1.2253251E+01  2.2745939E+01
 1.2264750E+01  2.2684107E+01
 1.2276251E+01  2.2632822E+01
 1.2287750E+01  2.2594131E+01
 1.2299251E+01  2.2593039E+01
 1.2310751E+01  2.2650126E+01
 1.2322250E+01  2.2639673E+01
 1.2333751E+01  2.2654440E+01
 1.2345250E+01  2.2639742E+01
 1.2356750E+01  2.2705204E+01
 1.2368251E+01  2.2705177E+01
 1.2379750E+01  2.2758818E+01
 1.2391251E+01  2.2762300E+01
 1.2402751E+01  2.2804123E+01
 1.2414250E+01  2.2804800E+01
 1.2425751E+01  2.2807236E+01
 1.2437250E+01  2.2870014E+01
 1.2448750E+01  2.2878822E+01
 1.2460251E+01  2.2920725E+01
 1.2471750E+01  2.2891006E+01
 1.2483251E+01  2.2914711E+01
 1.2494751E+01  2.2936020E+01
 1.2506250E+01  2.2903234E+01
 1.2517751E+01  2.2854099E+01
 1.2529250E+01  2.2799030E+01
 1.2540751E+01  2.2831423E+01
 1.2552251E+01  2.2861015E+01
 1.2563750E+01  2.2839478E+01
 1.2575251E+01  2.2845655E+01
 1.2586751E+01  2.2869013E+01
 1.2598250E+01  2.2938889E+01
 1.2609751E+01  2.2967251E+01
 1.2621250E+01  2.2981499E+01
 1.2632751E+01  2.3000296E+01
 1.2644251E+01  2.2980236E+01
 1.2655750E+01  2.2999142E+01
 1.2667251E+01  2.3012033E+01
 1.2678751E+01  2.3066570E+01
 1.2690250E+01  2.3112366E+01
 1.2701751E+01  2.3211826E+01
 1.2713250E+01  2.3247057E+01
 1.2724751E+01  2.3254530E+01
 1.2736251E+01  2.3237709E+01
 1.2747750E+01  2.3267004E+01
 1.2759251E+01  2.3301235E+01
 1.2770751E+01  2.3302725E+01
 1.2782250E+01  2.3364012E+01
 1.2793751E+01  2.3306448E+01
 1.2805250E+01  2.3395893E+01
 1.2816751E+01  2.3390297E+01
 1.2828251E+01  2.3508509E+01
 1.2839750E+01  2.3505550E+01
 1.2851251E+01  2.3524664E+01
 1.2862751E+01  2.3512768E+01
 1.2874250E+01  2.3506426E+01
 1.2885751E+01  2.3550354E+01
 1.2897250E+01  2.3592459E+01
 1.2908751E+01  2.3661802E+01
 1.2920251E+01  2.3717978E+01
 1.2931750E+01  2.3835890E+01
 1.2943251E+01  2.3912373E+01
 1.2954751E+01  2.4006157E+01
 1.2966250E+01  2.4067812E+01
 1.2977751E+01  2.4135897E+01
 1.2989250E+01  2.4158428E+01
 1.3000751E+01  2.4177402E+01
 1.3012251E+01  2.4271610E+01
 1.3023750E+01  2.4364307E+01
 1.3035251E+01  2.4514414E+01
 1.3046751E+01  2.4610312E+01
 1.3058250E+01  2.4692472E+01
 1.3069751E+01  2.4709650E+01
 1.3081250E+01  2.4702463E+01
 1.3092751E+01  2.4780281E+01
 1.3104251E+01  2.4835308E+01
 1.3115750E+01  2.4937344E+01
 1.3127251E+01  2.5049486E+01
 1.3138751E+01  2.5202101E+01
 1.3150250E+01  2.5362381E+01
 1.3161751E+01  2.5516867E+01
 1.3173250E+01  2.5634039E+01
 1.3184751E+01  2.5691910E+01
 1.3196251E+01  2.5780769E+01
 1.3207750E+01  2.5932550E+01
 1.3219251E+01  2.6114954E+01
 1.3230751E+01  2.6322748E+01
 1.3242250E+01  2.6504717E+01
 1.3253751E+01  2.6659714E+01
 1.3265250E+01  2.6736879E+01
 1.3276751E+01  2.6831495E+01
 1.3288251E+01  2.6973000E+01
 1.3299750E+01  2.7097248E+01
 1.3311251E+01  2.7220339E+01
 1.3322751E+01  2.7389921E+01
 1.3334250E+01  2.7658453E+01
 1.3345751E+01  2.7912598E+01
 1.3357250E+01  2.8116575E+01
 1.3368751E+01  2.8247305E+01
 1.3380251E+01  2.8389420E+01
 1.3391750E+01  2.8497290E+01
 1.3403251E+01  2.8631519E+01
 1.3414751E+01  2.8716478E+01
 1.3426250E+01  2.8768974E+01
 1.3437751E+01  2.8825230E+01
 1.3449250E+01  2.8908840E+01
 1.3460751E+01  2.9050159E+01
 1.3472251E+01  2.9158581E+01
 1.3483750E+01  2.9344849E+01
 1.3495251E+01  2.9383972E+01
 1.3506751E+01  2.9453594E+01
 1.3518250E+01  2.9474747E+01
 1.3529751E+01  2.9596788E+01
 1.3541250E+01  2.9722954E+01
 1.3552751E+01  2.9790106E+01
 1.3564251E+01  2.9899475E+01
 1.3575750E+01  2.9945940E+01
 1.3587251E+01  3.0021212E+01
 1.3598751E+01  3.0063284E+01
 1.3610250E+01  3.0130482E+01
 1.3621751E+01  3.0174683E+01
 1.3633250E+01  3.0133955E+01
 1.3644751E+01  3.0118067E+01
 1.3656251E+01  3.0135658E+01
 1.3667750E+01  3.0199850E+01
 1.3679251E+01  3.0161089E+01
 1.3690751E+01  3.0074453E+01
 1.3702250E+01  2.9926264E+01
 1.3713751E+01  2.9815479E+01
 1.3725250E+01  2.9775602E+01
 1.3736751E+01  2.9753206E+01
 1.3748251E+01  2.9709730E+01
 1.3759750E+01  2.9681484E+01
 1.3771251E+01  2.9652767E+01
 1.3782751E+01  2.9634918E+01
 1.3794250E+01  2.9581625E+01
 1.3805751E+01  2.9528891E+01
 1.3817250E+01  2.9514036E+01
 1.3828751E+01  2.9543230E+01
 1.3840251E+01  2.9613043E+01
 1.3851750E+01  2.9629744E+01
 1.3863251E+01  2.9680084E+01
 1.3874751E+01  2.9866106E+01
 1.3886250E+01  3.0207928E+01
 1.3897751E+01  3.0785206E+01
 1.3909250E+01  3.1480558E+01
 1.3920751E+01  3.2387623E+01
 1.3932251E+01  3.3308582E+01
 1.3943750E+01  3.3859528E+01
 1.3955251E+01  3.4194038E+01
 1.3966751E+01  3.3925423E+01
 1.3978251E+01  3.3460258E+01
 1.3989751E+01  3.2508923E+01
 1.4001250E+01  3.1474018E+01
 1.4012751E+01  3.0540531E+01
 1.4024251E+01  2.9645510E+01
 1.4035750E+01  2.9144407E+01
 1.4047251E+01  2.8792662E+01
 1.4058751E+01  2.8616426E+01
 1.4070251E+01  2.8465513E+01
 1.4081751E+01  2.8219204E+01
 1.4093250E+01  2.8081890E+01
 1.4104751E+01  2.7921265E+01
 1.4116251E+01  2.7740147E+01
 1.4127750E+01  2.7576859E+01
 1.4139251E+01  2.7471161E+01
 1.4150751E+01  2.7375023E+01
 1.4162251E+01  2.7352930E+01
 1.4173751E+01  2.7275131E+01
 1.4185250E+01  2.7261732E+01
 1.4196751E+01  2.7168482E+01
 1.4208251E+01  2.7079268E+01
 1.4219750E+01  2.6998125E+01
 1.4231251E+01  2.6875444E+01
 1.4242751E+01  2.6777342E+01
 1.4254251E+01  2.6627924E+01
 1.4265751E+01  2.6568878E+01
 1.4277250E+01  2.6514366E+01
 1.4288751E+01  2.6556862E+01
 1.4300251E+01  2.6539295E+01
 1.4311750E+01  2.6499010E+01
 1.4323251E+01  2.6444210E+01
 1.4334751E+01  2.6387197E+01
 1.4346251E+01  2.6348240E+01
 1.4357751E+01  2.6298077E+01
 1.4369250E+01  2.6336737E+01
 1.4380751E+01  2.6337839E+01
 1.4392251E+01  2.6323929E+01
 1.4403750E+01  2.6258366E+01
 1.4415251E+01  2.6204777E+01
 1.4426751E+01  2.6125696E+01
 1.4438251E+01  2.6043398E+01
 1.4449751E+01  2.5993540E+01
 1.4461250E+01  2.5968426E+01
 1.4472751E+01  2.5951315E+01
 1.4484251E+01  2.5998266E+01
 1.4495750E+01  2.5967913E+01
 1.4507251E+01  2.5952196E+01
 1.4518751E+01  2.5859436E+01
 1.4530251E+01  2.5795961E+01
 1.4541751E+01  2.5784208E+01
 1.4553250E+01  2.5796545E+01
 1.4564751E+01  2.5824867E+01
 1.4576251E+01  2.5840330E+01
 1.4587750E+01  2.5759262E+01
 1.4599251E+01  2.5717999E+01
 1.4610751E+01  2.5670183E+01
 1.4622251E+01  2.5651962E+01
 1.4633751E+01  2.5598970E+01
 1.4645250E+01  2.5507221E+01
 1.4656751E+01  2.5402464E+01
 1.4668251E+01  2.5372725E+01
 1.4679750E+01  2.5383873E+01
 1.4691251E+01  2.5446907E+01
 1.4702751E+01  2.5424417E+01
 1.4714251E+01  2.5374199E+01
 1.4725751E+01  2.5367018E+01
 1.4737250E+01  2.5373808E+01
 1.4748751E+01  2.5401661E+01
 1.4760251E+01  2.5368460E+01
 1.4771750E+01  2.5389450E+01
 1.4783251E+01  2.5391399E+01
 1.4794751E+01  2.5409176E+01
 1.4806251E+01  2.5325140E+01
 1.4817751E+01  2.5314325E+01
 1.4829250E+01  2.5295193E+01
 1.4840751E+01  2.5339460E+01
 1.4852251E+01  2.5349756E+01
 1.4863750E+01  2.5325935E+01
 1.4875251E+01  2.5325943E+01
 1.4886751E+01  2.5257627E+01
 1.4898251E+01  2.5294899E+01
 1.4909751E+01  2.5238625E+01
 1.4921250E+01  2.5258558E+01
 1.4932751E+01  2.5209406E+01
 1.4944251E+01  2.5193178E+01
 1.4955750E+01  2.5154926E+01
 1.4967251E+01  2.5183550E+01
 1.4978751E+01  2.5143312E+01
 1.4990251E+01  2.5117971E+01
 1.5001751E+01  2.5091814E+01
 1.5013250E+01  2.5148750E+01
 1.5024751E+01  2.5162561E+01
 1.5036251E+01  2.5120031E+01
 1.5047750E+01  2.5059586E+01
 1.5059251E+01  2.5042789E+01
 1.5070751E+01  2.5070013E+01
 1.5082251E+01  2.5107063E+01
 1.5093751E+01  2.5189806E+01
 1.5105250E+01  2.5277576E+01
 1.5116751E+01  2.5553719E+01
 1.5128251E+01  2.5815319E+01
 1.5139750E+01  2.6480703E+01
 1.5151251E+01  2.6998930E+01
 1.5162751E+01  2.8076277E+01
 1.5174251E+01  2.8693737E+01
 1.5185751E+01  2.9560675E+01
 1.5197250E+01  2.9520054E+01
 1.5208751E+01  2.9342623E+01
 1.5220251E+01  2.8820223E+01
 1.5231750E+01  2.8089870E+01
 1.5243251E+01  2.7431988E+01
 1.5254751E+01  2.6630999E+01
 1.5266251E+01  2.6114388E+01
 1.5277751E+01  2.5615183E+01
 1.5289250E+01  2.5348528E+01
 1.5300751E+01  2.5202518E+01
 1.5312251E+01  2.5112942E+01
 1.5323750E+01  2.4986328E+01
 1.5335251E+01  2.4941698E+01
 1.5346751E+01  2.4886518E+01
 1.5358251E+01  2.4870436E+01
 1.5369751E+01  2.4901608E+01
 1.5381250E+01  2.4954874E+01
 1.5392751E+01  2.5044874E+01
 1.5404251E+01  2.5142099E+01
 1.5415751E+01  2.5085005E+01
 1.5427251E+01  2.4931995E+01
 1.5438751E+01  2.4803137E+01
 1.5450251E+01  2.4813766E+01
 1.5461751E+01  2.4880360E+01
 1.5473250E+01  2.4867195E+01
 1.5484751E+01  2.4857916E+01
 1.5496251E+01  2.4824965E+01
 1.5507751E+01  2.4827780E+01
 1.5519251E+01  2.4796200E+01
 1.5530751E+01  2.4793375E+01
 1.5542251E+01  2.4793707E+01
 1.5553751E+01  2.4793549E+01
 1.5565250E+01  2.4808325E+01
 1.5576751E+01  2.4792154E+01
 1.5588251E+01  2.4783476E+01
 1.5599751E+01  2.4687735E+01
 1.5611251E+01  2.4638561E+01
 1.5622751E+01  2.4628275E+01
 1.5634251E+01  2.4689325E+01
 1.5645751E+01  2.4734564E+01
 1.5657250E+01  2.4746521E+01
 1.5668751E+01  2.4786688E+01
 1.5680251E+01  2.4763083E+01
 1.5691751E+01  2.4775824E+01
 1.5703251E+01  2.4719091E+01
 1.5714751E+01  2.4699341E+01
 1.5726251E+01  2.4692980E+01
 1.5737751E+01  2.4680271E+01
 1.5749250E+01  2.4747421E+01
 1.5760751E+01  2.4752434E+01
 1.5772251E+01  2.4825626E+01
 1.5783751E+01  2.4796030E+01
 1.5795251E+01  2.4786167E+01
 1.5806751E+01  2.4829483E+01
 1.5818251E+01  2.4901375E+01
 1.5829751E+01  2.4942091E+01
 1.5841250E+01  2.4929649E+01
 1.5852751E+01  2.4894533E+01
 1.5864251E+01  2.4837238E+01
 1.5875751E+01  2.4829178E+01
 1.5887251E+01  2.4834797E+01
 1.5898750E+01  2.4867220E+01
 1.5910251E+01  2.4841944E+01
 1.5921751E+01  2.4850594E+01
 1.5933250E+01  2.4864157E+01
 1.5944751E+01  2.4820282E+01
 1.5956251E+01  2.4800566E+01
 1.5967751E+01  2.4776619E+01
 1.5979251E+01  2.4833874E+01
 1.5990750E+01  2.4885080E+01
 1.6002251E+01  2.4889868E+01
 1.6013750E+01  2.4866558E+01
 1.6025251E+01  2.4855623E+01
 1.6036751E+01  2.4853531E+01
 1.6048250E+01  2.4854195E+01
 1.6059752E+01  2.4871788E+01
 1.6071251E+01  2.4850027E+01
 1.6082750E+01  2.4911776E+01
 1.6094252E+01  2.4848949E+01
 1.6105751E+01  2.4927767E+01
 1.6117250E+01  2.4924753E+01
 1.6128750E+01  2.5035482E+01
 1.6140251E+01  2.5155144E+01
 1.6151751E+01  2.5224779E+01
 1.6163250E+01  2.5399061E+01
 1.6174751E+01  2.5345646E+01
 1.6186251E+01  2.5783270E+01
 1.6197750E+01  2.5743828E+01
 1.6209251E+01  2.6755178E+01
 1.6220751E+01  2.6840080E+01
 1.6232250E+01  2.8080168E+01
 1.6243752E+01  2.8369341E+01
 1.6255251E+01  2.8849625E+01
 1.6266750E+01  2.8703054E+01
 1.6278252E+01  2.7754683E+01
 1.6289751E+01  2.7407558E+01
 1.6301250E+01  2.6171049E+01
 1.6312750E+01  2.6095942E+01
 1.6324251E+01  2.5396614E+01
 1.6335751E+01  2.5404057E+01
 1.6347250E+01  2.5152523E+01
 1.6358751E+01  2.5130356E+01
 1.6370251E+01  2.5064594E+01
 1.6381750E+01  2.5011993E+01
 1.6393251E+01  2.4989040E+01
 1.6404751E+01  2.4950394E+01
 1.6416250E+01  2.5006521E+01
 1.6427752E+01  2.4977415E+01
 1.6439251E+01  2.5012894E+01
 1.6450750E+01  2.4991249E+01
 1.6462252E+01  2.5021938E+01
 1.6473751E+01  2.4979778E+01
 1.6485250E+01  2.4931059E+01
 1.6496750E+01  2.4854954E+01
 1.6508251E+01  2.4835560E+01
 1.6519751E+01  2.4855518E+01
 1.6531250E+01  2.4905170E+01
 1.6542751E+01  2.5008135E+01
 1.6554251E+01  2.4994801E+01
 1.6565750E+01  2.4981285E+01
 1.6577251E+01  2.4916691E+01
 1.6588751E+01  2.4911976E+01
 1.6600250E+01  2.4862656E+01
 1.6611752E+01  2.4859715E+01
 1.6623251E+01  2.4795036E+01
 1.6634750E+01  2.4818254E+01
 1.6646252E+01  2.4807941E+01
 1.6657751E+01  2.4880495E+01
 1.6669250E+01  2.4899412E+01
 1.6680750E+01  2.4909269E+01
 1.6692251E+01  2.4890596E+01
 1.6703751E+01  2.4843054E+01
 1.6715250E+01  2.4772379E+01
 1.6726751E+01  2.4673737E+01
 1.6738251E+01  2.4626005E+01
 1.6749750E+01  2.4616547E+01
 1.6761251E+01  2.4608471E+01
 1.6772751E+01  2.4586866E+01
 1.6784250E+01  2.4583784E+01
 1.6795752E+01  2.4576385E+01
 1.6807251E+01  2.4617363E+01
 1.6818750E+01  2.4627501E+01
 1.6830252E+01  2.4660404E+01
 1.6841751E+01  2.4627401E+01
 1.6853251E+01  2.4598461E+01
 1.6864750E+01  2.4559307E+01
 1.6876251E+01  2.4559267E+01
 1.6887751E+01  2.4536694E+01
 1.6899250E+01  2.4539825E+01
 1.6910751E+01  2.4591316E+01
 1.6922251E+01  2.4611631E+01
 1.6933750E+01  2.4614355E+01
 1.6945251E+01  2.4621552E+01
 1.6956751E+01  2.4644310E+01
 1.6968250E+01  2.4643005E+01
 1.6979752E+01  2.4620607E+01
 1.6991251E+01  2.4616776E+01
 1.7002750E+01  2.4614012E+01
 1.7014252E+01  2.4608156E+01
 1.7025751E+01  2.4564093E+01
 1.7037251E+01  2.4473429E+01
 1.7048750E+01  2.4433590E+01
 1.7060251E+01  2.4411064E+01
 1.7071751E+01  2.4466600E+01
 1.7083250E+01  2.4476919E+01
 1.7094751E+01  2.4543642E+01
 1.7106251E+01  2.4509539E+01
 1.7117750E+01  2.4448486E+01
 1.7129251E+01  2.4434982E+01
 1.7140751E+01  2.4463636E+01
 1.7152250E+01  2.4449944E+01
 1.7163752E+01  2.4429918E+01
 1.7175251E+01  2.4434986E+01
 1.7186750E+01  2.4457785E+01
 1.7198252E+01  2.4457251E+01
 1.7209751E+01  2.4465992E+01
 1.7221251E+01  2.4445877E+01
 1.7232750E+01  2.4412891E+01
 1.7244251E+01  2.4368145E+01
 1.7255751E+01  2.4337736E+01
 1.7267250E+01  2.4280888E+01
 1.7278751E+01  2.4272249E+01
 1.7290251E+01  2.4314732E+01
 1.7301750E+01  2.4370541E+01
 1.7313251E+01  2.4393618E+01
 1.7324751E+01  2.4388084E+01
 1.7336250E+01  2.4374491E+01
 1.7347752E+01  2.4349165E+01
 1.7359251E+01  2.4290434E+01
 1.7370750E+01  2.4264799E+01
 1.7382252E+01  2.4212210E+01
 1.7393751E+01  2.4211077E+01
 1.7405251E+01  2.4212334E+01
 1.7416750E+01  2.4245394E+01
 1.7428251E+01  2.4227453E+01
 1.7439751E+01  2.4222767E+01
 1.7451250E+01  2.4202353E+01
 1.7462751E+01  2.4231455E+01
 1.7474251E+01  2.4234087E+01
 1.7485750E+01  2.4224501E+01
 1.7497252E+01  2.4180199E+01
 1.7508751E+01  2.4119999E+01
 1.7520250E+01  2.4109512E+01
 1.7531752E+01  2.4093950E+01
 1.7543251E+01  2.4140417E+01
 1.7554750E+01  2.4130037E+01
 1.7566252E+01  2.4079245E+01
 1.7577751E+01  2.4028286E+01
 1.7589251E+01  2.3978649E+01
 1.7600750E+01  2.3992205E+01
 1.7612251E+01  2.4002169E+01
 1.7623751E+01  2.4064026E+01
 1.7635250E+01  2.3999577E+01
 1.7646751E+01  2.3979002E+01
 1.7658251E+01  2.3946524E+01
 1.7669750E+01  2.3951738E+01
 1.7681252E+01  2.3944376E+01
 1.7692751E+01  2.3983025E+01
 1.7704250E+01  2.4068081E+01
 1.7715752E+01  2.4049019E+01
 1.7727251E+01  2.4019495E+01
 1.7738750E+01  2.3959303E+01
 1.7750252E+01  2.3963015E+01
 1.7761751E+01  2.3960157E+01
 1.7773251E+01  2.3955814E+01
 1.7784750E+01  2.3981339E+01
 1.7796251E+01  2.3992527E+01
 1.7807751E+01  2.3987228E+01
 1.7819250E+01  2.3987448E+01
 1.7830751E+01  2.3991285E+01
 1.7842251E+01  2.4043419E+01
 1.7853750E+01  2.4039644E+01
 1.7865252E+01  2.4056776E+01
 1.7876751E+01  2.4089130E+01
 1.7888250E+01  2.4141136E+01
 1.7899752E+01  2.4166409E+01
 1.7911251E+01  2.4215683E+01
 1.7922750E+01  2.4298178E+01
 1.7934252E+01  2.4273851E+01
 1.7945751E+01  2.4260002E+01
 1.7957251E+01  2.4245869E+01
 1.7968750E+01  2.4403858E+01
 1.7980251E+01  2.4588842E+01
 1.7991751E+01  2.4765978E+01
 1.8003250E+01  2.4875973E+01
 1.8014751E+01  2.4892361E+01
 1.8026251E+01  2.4933502E+01
 1.8037750E+01  2.5073292E+01
 1.8049252E+01  2.5427887E+01
 1.8060751E+01  2.5976034E+01
 1.8072250E+01  2.6536810E+01
 1.8083752E+01  2.7163841E+01
 1.8095251E+01  2.7532024E+01
 1.8106750E+01  2.7470722E+01
 1.8118252E+01  2.7242161E+01
 1.8129751E+01  2.7013577E+01
 1.8141251E+01  2.6818380E+01
 1.8152750E+01  2.6502283E+01
 1.8164251E+01  2.5945101E+01
 1.8175751E+01  2.5426741E+01
 1.8187250E+01  2.4867395E+01
 1.8198751E+01  2.4621885E+01
 1.8210251E+01  2.4420902E+01
 1.8221750E+01  2.4248140E+01
 1.8233252E+01  2.4075457E+01
 1.8244751E+01  2.3953075E+01
 1.8256250E+01  2.3921112E+01
 1.8267752E+01  2.3884693E+01
 1.8279251E+01  2.3914022E+01
 1.8290751E+01  2.3927296E+01
 1.8302252E+01  2.3918041E+01
 1.8313751E+01  2.3837837E+01
 1.8325251E+01  2.3824963E+01
 1.8336750E+01  2.3859594E+01
 1.8348251E+01  2.3897654E+01
 1.8359751E+01  2.3921886E+01
 1.8371250E+01  2.3868523E+01
 1.8382751E+01  2.3837557E+01
 1.8394251E+01  2.3813311E+01
 1.8405750E+01  2.3843161E+01
 1.8417252E+01  2.3838440E+01
 1.8428751E+01  2.3820839E+01
 1.8440250E+01  2.3787483E+01
 1.8451752E+01  2.3716797E+01
 1.8463251E+01  2.3705070E+01
 1.8474751E+01  2.3718271E+01
 1.8486252E+01  2.3715487E+01
 1.8497751E+01  2.3707466E+01
 1.8509251E+01  2.3705158E+01
 1.8520750E+01  2.3705276E+01
 1.8532251E+01  2.3698217E+01
 1.8543751E+01  2.3711620E+01
 1.8555250E+01  2.3719994E+01
 1.8566751E+01  2.3670691E+01
 1.8578251E+01  2.3682386E+01
 1.8589750E+01  2.3695065E+01
 1.8601252E+01  2.3739182E+01
 1.8612751E+01  2.3673960E+01
 1.8624250E+01  2.3613405E+01
 1.8635752E+01  2.3565771E+01
 1.8647251E+01  2.3578135E+01
 1.8658751E+01  2.3596537E+01
 1.8670252E+01  2.3620930E+01
 1.8681751E+01  2.3693596E+01
 1.8693251E+01  2.3740210E+01
 1.8704750E+01  2.3760504E+01
 1.8716251E+01  2.3730572E+01
 1.8727751E+01  2.3728392E+01
 1.8739250E+01  2.3696747E+01
 1.8750751E+01  2.3706635E+01
 1.8762251E+01  2.3684256E+01
 1.8773750E+01  2.3722603E+01
 1.8785252E+01  2.3708057E+01
 1.8796751E+01  2.3722252E+01
 1.8808250E+01  2.3678787E+01
 1.8819752E+01  2.3671135E+01
 1.8831251E+01  2.3631132E+01
 1.8842751E+01  2.3632309E+01
 1.8854252E+01  2.3607973E+01
 1.8865751E+01  2.3594151E+01
 1.8877251E+01  2.3598909E+01
 1.8888750E+01  2.3636683E+01
 1.8900251E+01  2.3674158E+01
 1.8911751E+01  2.3694593E+01
 1.8923250E+01  2.3714821E+01
 1.8934752E+01  2.3781588E+01
 1.8946251E+01  2.3816040E+01
 1.8957750E+01  2.3781073E+01
 1.8969252E+01  2.3702868E+01
 1.8980751E+01  2.3753653E+01
 1.8992250E+01  2.3737928E+01
 1.9003752E+01  2.3755295E+01
 1.9015251E+01  2.3672714E+01
 1.9026751E+01  2.3669029E+01
 1.9038252E+01  2.3667105E+01
 1.9049751E+01  2.3685286E+01
 1.9061251E+01  2.3715994E+01
 1.9072750E+01  2.3731949E+01
 1.9084251E+01  2.3779966E+01
 1.9095751E+01  2.3758257E+01
 1.9107250E+01  2.3734097E+01
 1.9118752E+01  2.3644480E+01
 1.9130251E+01  2.3640224E+01
 1.9141750E+01  2.3631002E+01
 1.9153252E+01  2.3687220E+01
 1.9164751E+01  2.3710749E+01
 1.9176250E+01  2.3751415E+01
 1.9187752E+01  2.3781340E+01
 1.9199251E+01  2.3796484E+01
 1.9210751E+01  2.3841084E+01
 1.9222252E+01  2.3789476E+01
 1.9233751E+01  2.3737015E+01
 1.9245251E+01  2.3741390E+01
 1.9256750E+01  2.3774784E+01
 1.9268251E+01  2.3798201E+01
 1.9279751E+01  2.3751989E+01
 1.9291250E+01  2.3732409E+01
 1.9302752E+01  2.3731625E+01
 1.9314251E+01  2.3758526E+01
 1.9325750E+01  2.3790375E+01
 1.9337252E+01  2.3794752E+01
 1.9348751E+01  2.3766478E+01
 1.9360250E+01  2.3732054E+01
 1.9371752E+01  2.3747099E+01
 1.9383251E+01  2.3782122E+01
 1.9394751E+01  2.3858877E+01
 1.9406250E+01  2.3827021E+01
 1.9417751E+01  2.3787134E+01
 1.9429251E+01  2.3711946E+01
 1.9440750E+01  2.3650793E+01
 1.9452251E+01  2.3611530E+01
 1.9463751E+01  2.3642719E+01
 1.9475250E+01  2.3719501E+01
 1.9486752E+01  2.3775888E+01
 1.9498251E+01  2.3809465E+01
 1.9509750E+01  2.3817635E+01
 1.9521252E+01  2.3828672E+01
 1.9532751E+01  2.3895916E+01
 1.9544250E+01  2.3963482E+01
 1.9555752E+01  2.3938938E+01
 1.9567251E+01  2.3881969E+01
 1.9578751E+01  2.3881910E+01
 1.9590250E+01  2.3914934E+01
 1.9601751E+01  2.3959427E+01
 1.9613251E+01  2.4029181E+01
 1.9624750E+01  2.4095291E+01
 1.9636251E+01  2.4230890E+01
 1.9647751E+01  2.4342081E+01
 1.9659250E+01  2.4547859E+01
 1.9670752E+01  2.4822910E+01
 1.9682251E+01  2.5166430E+01
 1.9693750E+01  2.5590740E+01
 1.9705252E+01  2.5937445E+01
 1.9716751E+01  2.6387228E+01
 1.9728251E+01  2.6788229E+01
 1.9739752E+01  2.6897007E+01
 1.9751251E+01  2.6898006E+01
 1.9762751E+01  2.6547020E+01
 1.9774250E+01  2.6424704E+01
 1.9785751E+01  2.6171633E+01
 1.9797251E+01  2.6242437E+01
 1.9808750E+01  2.6516270E+01
 1.9820251E+01  2.6871035E+01
 1.9831751E+01  2.7518116E+01
 1.9843250E+01  2.8274633E+01
 1.9854752E+01  2.8687008E+01
 1.9866251E+01  2.9345400E+01
 1.9877750E+01  2.9217875E+01
 1.9889252E+01  2.8751947E+01
 1.9900751E+01  2.7913626E+01
 1.9912251E+01  2.7163651E+01
 1.9923752E+01  2.6341402E+01
 1.9935251E+01  2.5319071E+01
 1.9946751E+01  2.4913353E+01
 1.9958250E+01  2.4625420E+01
 1.9969751E+01  2.4493626E+01
 1.9981251E+01  2.4376558E+01
 1.9992750E+01  2.4266972E+01
 2.0004251E+01  2.4171215E+01
 2.0015751E+01  2.4086744E+01
 2.0027250E+01  2.4065950E+01
 2.0038752E+01  2.4083231E+01
 2.0050251E+01  2.4159765E+01
 2.0061750E+01  2.4150703E+01
 2.0073252E+01  2.4147432E+01
 2.0084751E+01  2.4105179E+01
 2.0096251E+01  2.4112595E+01
 2.0107752E+01  2.4023239E+01
 2.0119251E+01  2.3988939E+01
 2.0130751E+01  2.3936548E+01
 2.0142250E+01  2.3946192E+01
 2.0153751E+01  2.3958233E+01
 2.0165251E+01  2.3974449E+01
 2.0176750E+01  2.3993692E+01
 2.0188251E+01  2.3947220E+01
 2.0199751E+01  2.3907129E+01
 2.0211250E+01  2.3924635E+01
 2.0222752E+01  2.3973246E+01
 2.0234251E+01  2.4003050E+01
 2.0245750E+01  2.3998964E+01
 2.0257252E+01  2.4046560E+01
 2.0268751E+01  2.4046627E+01
 2.0280251E+01  2.4062042E+01
 2.0291752E+01  2.4002573E+01
 2.0303251E+01  2.3922983E+01
 2.0314751E+01  2.3803476E+01
 2.0326250E+01  2.3841555E+01
 2.0337751E+01  2.3853125E+01
 2.0349251E+01  2.3919765E+01
 2.0360750E+01  2.3943506E+01
 2.0372252E+01  2.3973726E+01
 2.0383751E+01  2.3933426E+01
 2.0395250E+01  2.3947783E+01
 2.0406752E+01  2.3956739E+01
 2.0418251E+01  2.3985331E+01
 2.0429750E+01  2.4032146E+01
 2.0441252E+01  2.4060160E+01
 2.0452751E+01  2.4052456E+01
 2.0464251E+01  2.4059244E+01
 2.0475752E+01  2.4084309E+01
 2.0487251E+01  2.4110996E+01
 2.0498751E+01  2.4136726E+01
 2.0510250E+01  2.4169277E+01
 2.0521751E+01  2.4117455E+01
 2.0533251E+01  2.4066090E+01
 2.0544750E+01  2.4066175E+01
 2.0556252E+01  2.4120859E+01
 2.0567751E+01  2.4152969E+01
 2.0579250E+01  2.4213591E+01
 2.0590752E+01  2.4278730E+01
 2.0602251E+01  2.4328657E+01
 2.0613750E+01  2.4311066E+01
 2.0625252E+01  2.4339737E+01
 2.0636751E+01  2.4398849E+01
 2.0648251E+01  2.4496704E+01
 2.0659752E+01  2.4625610E+01
 2.0671251E+01  2.4838594E+01
 2.0682751E+01  2.5079771E+01
 2.0694250E+01  2.5522137E+01
 2.0705751E+01  2.6063477E+01
 2.0717251E+01  2.7041952E+01
 2.0728750E+01  2.8403303E+01
 2.0740252E+01  2.9337219E+01
 2.0751751E+01  3.1301098E+01
 2.0763250E+01  3.1499619E+01
 2.0774752E+01  3.2206379E+01
 2.0786251E+01  3.0926905E+01
 2.0797750E+01  3.0145891E+01
 2.0809252E+01  2.8325878E+01
 2.0820751E+01  2.7209408E+01
 2.0832251E+01  2.6256304E+01
 2.0843752E+01  2.5447109E+01
 2.0855251E+01  2.5117298E+01
 2.0866751E+01  2.4738169E+01
 2.0878250E+01  2.4541862E+01
 2.0889751E+01  2.4368929E+01
 2.0901251E+01  2.4291565E+01
 2.0912750E+01  2.4315201E+01
 2.0924252E+01  2.4337517E+01
 2.0935751E+01  2.4387516E+01
 2.0947250E+01  2.4386301E+01
 2.0958752E+01  2.4344166E+01
 2.0970251E+01  2.4306719E+01
 2.0981750E+01  2.4302847E+01
 2.0993252E+01  2.4305304E+01
 2.1004751E+01  2.4254173E+01
 2.1016251E+01  2.4169287E+01
 2.1027752E+01  2.4115608E+01
 2.1039251E+01  2.4079855E+01
 2.1050751E+01  2.4047995E+01
 2.1062250E+01  2.4035835E+01
 2.1073751E+01  2.4067072E+01
 2.1085251E+01  2.4039610E+01
 2.1096750E+01  2.4042677E+01
 2.1108252E+01  2.4050549E+01
 2.1119751E+01  2.4092056E+01
 2.1131250E+01  2.4104542E+01
 2.1142752E+01  2.4048223E+01
 2.1154251E+01  2.3975571E+01
 2.1165751E+01  2.3935623E+01
 2.1177252E+01  2.4048370E+01
 2.1188751E+01  2.4108091E+01
 2.1200251E+01  2.4160223E+01
 2.1211752E+01  2.4135956E+01
 2.1223251E+01  2.4121973E+01
 2.1234751E+01  2.4104824E+01
 2.1246250E+01  2.4139885E+01
 2.1257751E+01  2.4159174E+01
 2.1269251E+01  2.4157860E+01
 2.1280750E+01  2.4129930E+01
 2.1292252E+01  2.4087351E+01
 2.1303751E+01  2.4004419E+01
 2.1315250E+01  2.3936480E+01
 2.1326752E+01  2.3937603E+01
 2.1338251E+01  2.3969923E+01
 2.1349751E+01  2.4017544E+01
 2.1361252E+01  2.4090916E+01
 2.1372751E+01  2.4142017E+01
 2.1384251E+01  2.4140985E+01
 2.1395752E+01  2.4142956E+01
 2.1407251E+01  2.4105667E+01
 2.1418751E+01  2.4100636E+01
 2.1430250E+01  2.4074940E+01
 2.1441751E+01  2.4036524E+01
 2.1453251E+01  2.4010778E+01
 2.1464750E+01  2.4007225E+01
 2.1476252E+01  2.4008856E+01
 2.1487751E+01  2.4057343E+01
 2.1499250E+01  2.4079891E+01
 2.1510752E+01  2.4066597E+01
 2.1522251E+01  2.4049931E+01
 2.1533751E+01  2.4024950E+01
 2.1545252E+01  2.4055035E+01
 2.1556751E+01  2.4085369E+01
 2.1568251E+01  2.4129992E+01
 2.1579752E+01  2.4166691E+01
 2.1591251E+01  2.4204975E+01
 2.1602751E+01  2.4235800E+01
 2.1614250E+01  2.4263411E+01
 2.1625751E+01  2.4276825E+01
 2.1637251E+01  2.4285021E+01
 2.1648750E+01  2.4277441E+01
 2.1660252E+01  2.4290445E+01
 2.1671751E+01  2.4269207E+01
 2.1683250E+01  2.4258324E+01
 2.1694752E+01  2.4205481E+01
 2.1706251E+01  2.4221731E+01
 2.1717751E+01  2.4222729E+01
 2.1729252E+01  2.4270510E+01
 2.1740751E+01  2.4304764E+01
 2.1752251E+01  2.4305382E+01
 2.1763752E+01  2.4299896E+01
 2.1775251E+01  2.4303902E+01
 2.1786751E+01  2.4235912E+01
 2.1798250E+01  2.4226852E+01
 2.1809752E+01  2.4227118E+01
 2.1821251E+01  2.4259508E+01
 2.1832750E+01  2.4246223E+01
 2.1844252E+01  2.4251577E+01
 2.1855751E+01  2.4301453E+01
 2.1867250E+01  2.4277626E+01
 2.1878752E+01  2.4246809E+01
 2.1890251E+01  2.4236797E+01
 2.1901751E+01  2.4333611E+01
 2.1913252E+01  2.4400183E+01
 2.1924751E+01  2.4384901E+01
 2.1936251E+01  2.4309761E+01
 2.1947752E+01  2.4275614E+01
 2.1959251E+01  2.4325960E+01
 2.1970751E+01  2.4347553E+01
 2.1982250E+01  2.4367687E+01
 2.1993752E+01  2.4351755E+01
 2.2005251E+01  2.4349123E+01
 2.2016750E+01  2.4350048E+01
 2.2028252E+01  2.4375280E+01
 2.2039751E+01  2.4387999E+01
 2.2051250E+01  2.4341536E+01
 2.2062752E+01  2.4266392E+01
 2.2074251E+01  2.4277750E+01
 2.2085751E+01  2.4296728E+01
 2.2097252E+01  2.4328287E+01
 2.2108751E+01  2.4372612E+01
 2.2120251E+01  2.4483232E+01
 2.2131752E+01  2.4529608E+01
 2.2143251E+01  2.4524586E+01
 2.2154751E+01  2.4507885E+01
 2.2166250E+01  2.4505264E+01
 2.2177752E+01  2.4468168E+01
 2.2189251E+01  2.4466513E+01
 2.2200750E+01  2.4481131E+01
 2.2212252E+01  2.4453320E+01
 2.2223751E+01  2.4484962E+01
 2.2235250E+01  2.4547438E+01
 2.2246752E+01  2.4624779E+01
 2.2258251E+01  2.4644484E+01
 2.2269751E+01  2.4634172E+01
 2.2281252E+01  2.4669495E+01
 2.2292751E+01  2.4700756E+01
 2.2304251E+01  2.4763784E+01
 2.2315752E+01  2.4765261E+01
 2.2327251E+01  2.4797958E+01
 2.2338751E+01  2.4792351E+01
 2.2350250E+01  2.4796412E+01
 2.2361752E+01  2.4741716E+01
 2.2373251E+01  2.4699560E+01
 2.2384750E+01  2.4599730E+01
 2.2396252E+01  2.4588060E+01
 2.2407751E+01  2.4581690E+01
 2.2419250E+01  2.4623991E+01
 2.2430752E+01  2.4680473E+01
 2.2442251E+01  2.4723648E+01
 2.2453751E+01  2.4793518E+01
 2.2465252E+01  2.4808187E+01
 2.2476751E+01  2.4838442E+01
 2.2488251E+01  2.4842726E+01
 2.2499752E+01  2.4861700E+01
 2.2511251E+01  2.4856892E+01
 2.2522751E+01  2.4897129E+01
 2.2534250E+01  2.4938231E+01
 2.2545752E+01  2.4910952E+01
 2.2557251E+01  2.4868986E+01
 2.2568750E+01  2.4811556E+01
 2.2580252E+01  2.4821463E+01
 2.2591751E+01  2.4852188E+01
 2.2603251E+01  2.4921318E+01
 2.2614752E+01  2.4974409E+01
 2.2626251E+01  2.5046513E+01
 2.2637751E+01  2.5100000E+01
 2.2649252E+01  2.5173027E+01
 2.2660751E+01  2.5212749E+01
 2.2672251E+01  2.5286816E+01
 2.2683752E+01  2.5333345E+01
 2.2695251E+01  2.5419762E+01
 2.2706751E+01  2.5391386E+01
 2.2718250E+01  2.5392883E+01
 2.2729752E+01  2.5352316E+01
 2.2741251E+01  2.5375843E+01
 2.2752750E+01  2.5421276E+01
 2.2764252E+01  2.5461704E+01
 2.2775751E+01  2.5506550E+01
 2.2787251E+01  2.5483313E+01
 2.2798752E+01  2.5476566E+01
 2.2810251E+01  2.5528248E+01
 2.2821751E+01  2.5627972E+01
 2.2833252E+01  2.5682013E+01
 2.2844751E+01  2.5763443E+01
 2.2856251E+01  2.5745167E+01
 2.2867750E+01  2.5826851E+01
 2.2879251E+01  2.5867382E+01
 2.2890751E+01  2.6009573E+01
 2.2902250E+01  2.6023275E+01
 2.2913752E+01  2.6130520E+01
 2.2925251E+01  2.6182987E+01
 2.2936750E+01  2.6192324E+01
 2.2948252E+01  2.6210270E+01
 2.2959751E+01  2.6247787E+01
 2.2971251E+01  2.6360901E+01
 2.2982752E+01  2.6436474E+01
 2.2994251E+01  2.6519827E+01
