F:\20151113_APS_34IDE\\Brian\Particle1\OCV\Data_0043.tif
2-Theta Angle (Degrees)
Intensity
       2000
 5.7500005E-03  0.0000000E+00
 1.7250001E-02  0.0000000E+00
 2.8750001E-02  0.0000000E+00
 4.0250003E-02  0.0000000E+00
 5.1750004E-02  0.0000000E+00
 6.3250005E-02  0.0000000E+00
 7.4750006E-02  0.0000000E+00
 8.6250007E-02  0.0000000E+00
 9.7750008E-02  0.0000000E+00
 1.0925001E-01  0.0000000E+00
 1.2075000E-01  0.0000000E+00
 1.3225001E-01  0.0000000E+00
 1.4375001E-01  0.0000000E+00
 1.5525001E-01  0.0000000E+00
 1.6675001E-01  0.0000000E+00
 1.7825001E-01  0.0000000E+00
 1.8975002E-01  0.0000000E+00
 2.0125002E-01  0.0000000E+00
 2.1275002E-01  0.0000000E+00
 2.2425000E-01  0.0000000E+00
 2.3575000E-01  0.0000000E+00
 2.4725001E-01  0.0000000E+00
 2.5875002E-01  0.0000000E+00
 2.7025002E-01  0.0000000E+00
 2.8175002E-01  0.0000000E+00
 2.9325002E-01  0.0000000E+00
 3.0475003E-01  0.0000000E+00
 3.1625003E-01  0.0000000E+00
 3.2775003E-01  0.0000000E+00
 3.3925003E-01  0.0000000E+00
 3.5075003E-01  0.0000000E+00
 3.6225003E-01  0.0000000E+00
 3.7375003E-01  0.0000000E+00
 3.8525003E-01  0.0000000E+00
 3.9675003E-01  0.0000000E+00
 4.0825003E-01  0.0000000E+00
 4.1975003E-01  0.0000000E+00
 4.3125004E-01  0.0000000E+00
 4.4275001E-01  0.0000000E+00
 4.5425001E-01  0.0000000E+00
 4.6575001E-01  0.0000000E+00
 4.7725001E-01  0.0000000E+00
 4.8875001E-01  0.0000000E+00
 5.0025004E-01  0.0000000E+00
 5.1175004E-01  0.0000000E+00
 5.2325004E-01  0.0000000E+00
 5.3475004E-01  0.0000000E+00
 5.4625005E-01  0.0000000E+00
 5.5775005E-01  0.0000000E+00
 5.6925005E-01  0.0000000E+00
 5.8075005E-01  0.0000000E+00
 5.9225005E-01  0.0000000E+00
 6.0375005E-01  0.0000000E+00
 6.1525005E-01  0.0000000E+00
 6.2675005E-01  0.0000000E+00
 6.3825005E-01  0.0000000E+00
 6.4975005E-01  0.0000000E+00
 6.6125005E-01  0.0000000E+00
 6.7275006E-01  0.0000000E+00
 6.8425006E-01  0.0000000E+00
 6.9575006E-01  0.0000000E+00
 7.0725006E-01  0.0000000E+00
 7.1875006E-01  0.0000000E+00
 7.3025006E-01  0.0000000E+00
 7.4175006E-01  0.0000000E+00
 7.5325006E-01  0.0000000E+00
 7.6475006E-01  0.0000000E+00
 7.7625006E-01  0.0000000E+00
 7.8775007E-01  0.0000000E+00
 7.9925007E-01  0.0000000E+00
 8.1075007E-01  0.0000000E+00
 8.2225007E-01  0.0000000E+00
 8.3375007E-01  0.0000000E+00
 8.4525007E-01  0.0000000E+00
 8.5675007E-01  0.0000000E+00
 8.6825007E-01  0.0000000E+00
 8.7975001E-01  0.0000000E+00
 8.9125001E-01  0.0000000E+00
 9.0275002E-01  0.0000000E+00
 9.1425002E-01  0.0000000E+00
 9.2575002E-01  0.0000000E+00
 9.3725002E-01  0.0000000E+00
 9.4875002E-01  0.0000000E+00
 9.6025002E-01  0.0000000E+00
 9.7175002E-01  0.0000000E+00
 9.8325002E-01  0.0000000E+00
 9.9475002E-01  0.0000000E+00
 1.0062500E+00  0.0000000E+00
 1.0177500E+00  0.0000000E+00
 1.0292500E+00  0.0000000E+00
 1.0407500E+00  0.0000000E+00
 1.0522500E+00  0.0000000E+00
 1.0637500E+00  0.0000000E+00
 1.0752500E+00  0.0000000E+00
 1.0867500E+00  0.0000000E+00
 1.0982500E+00  0.0000000E+00
 1.1097500E+00  0.0000000E+00
 1.1212500E+00  0.0000000E+00
 1.1327500E+00  0.0000000E+00
 1.1442500E+00  0.0000000E+00
 1.1557500E+00  0.0000000E+00
 1.1672500E+00  0.0000000E+00
 1.1787500E+00  0.0000000E+00
 1.1902500E+00  0.0000000E+00
 1.2017500E+00  0.0000000E+00
 1.2132500E+00  0.0000000E+00
 1.2247500E+00  0.0000000E+00
 1.2362500E+00  0.0000000E+00
 1.2477500E+00  0.0000000E+00
 1.2592500E+00  0.0000000E+00
 1.2707500E+00  0.0000000E+00
 1.2822500E+00  0.0000000E+00
 1.2937500E+00  0.0000000E+00
 1.3052500E+00  0.0000000E+00
 1.3167500E+00  0.0000000E+00
 1.3282501E+00  0.0000000E+00
 1.3397501E+00  0.0000000E+00
 1.3512501E+00  0.0000000E+00
 1.3627501E+00  0.0000000E+00
 1.3742501E+00  0.0000000E+00
 1.3857501E+00  0.0000000E+00
 1.3972501E+00  0.0000000E+00
 1.4087501E+00  0.0000000E+00
 1.4202501E+00  0.0000000E+00
 1.4317501E+00  0.0000000E+00
 1.4432501E+00  0.0000000E+00
 1.4547501E+00  0.0000000E+00
 1.4662501E+00  0.0000000E+00
 1.4777501E+00  0.0000000E+00
 1.4892501E+00  0.0000000E+00
 1.5007501E+00  0.0000000E+00
 1.5122501E+00  0.0000000E+00
 1.5237501E+00  0.0000000E+00
 1.5352501E+00  0.0000000E+00
 1.5467501E+00  0.0000000E+00
 1.5582501E+00  0.0000000E+00
 1.5697501E+00  0.0000000E+00
 1.5812501E+00  0.0000000E+00
 1.5927501E+00  0.0000000E+00
 1.6042501E+00  0.0000000E+00
 1.6157501E+00  0.0000000E+00
 1.6272501E+00  0.0000000E+00
 1.6387501E+00  0.0000000E+00
 1.6502501E+00  0.0000000E+00
 1.6617501E+00  0.0000000E+00
 1.6732501E+00  0.0000000E+00
 1.6847501E+00  0.0000000E+00
 1.6962501E+00  0.0000000E+00
 1.7077501E+00  0.0000000E+00
 1.7192501E+00  0.0000000E+00
 1.7307501E+00  0.0000000E+00
 1.7422501E+00  0.0000000E+00
 1.7537501E+00  0.0000000E+00
 1.7652501E+00  0.0000000E+00
 1.7767501E+00  0.0000000E+00
 1.7882501E+00  0.0000000E+00
 1.7997501E+00  0.0000000E+00
 1.8112501E+00  0.0000000E+00
 1.8227501E+00  0.0000000E+00
 1.8342501E+00  0.0000000E+00
 1.8457501E+00  0.0000000E+00
 1.8572501E+00  0.0000000E+00
 1.8687501E+00  0.0000000E+00
 1.8802501E+00  0.0000000E+00
 1.8917501E+00  0.0000000E+00
 1.9032501E+00  0.0000000E+00
 1.9147501E+00  0.0000000E+00
 1.9262501E+00  0.0000000E+00
 1.9377501E+00  0.0000000E+00
 1.9492501E+00  0.0000000E+00
 1.9607501E+00  0.0000000E+00
 1.9722501E+00  0.0000000E+00
 1.9837501E+00  0.0000000E+00
 1.9952501E+00  0.0000000E+00
 2.0067501E+00  0.0000000E+00
 2.0182500E+00  0.0000000E+00
 2.0297501E+00  0.0000000E+00
 2.0412500E+00  0.0000000E+00
 2.0527501E+00  0.0000000E+00
 2.0642500E+00  0.0000000E+00
 2.0757501E+00  0.0000000E+00
 2.0872500E+00  0.0000000E+00
 2.0987501E+00  0.0000000E+00
 2.1102500E+00  0.0000000E+00
 2.1217501E+00  0.0000000E+00
 2.1332500E+00  0.0000000E+00
 2.1447501E+00  0.0000000E+00
 2.1562500E+00  0.0000000E+00
 2.1677501E+00  0.0000000E+00
 2.1792500E+00  0.0000000E+00
 2.1907501E+00  0.0000000E+00
 2.2022500E+00  0.0000000E+00
 2.2137501E+00  0.0000000E+00
 2.2252500E+00  0.0000000E+00
 2.2367501E+00  0.0000000E+00
 2.2482500E+00  0.0000000E+00
 2.2597501E+00  0.0000000E+00
 2.2712500E+00  0.0000000E+00
 2.2827501E+00  0.0000000E+00
 2.2942500E+00  0.0000000E+00
 2.3057501E+00  0.0000000E+00
 2.3172500E+00  0.0000000E+00
 2.3287501E+00  0.0000000E+00
 2.3402500E+00  0.0000000E+00
 2.3517501E+00  0.0000000E+00
 2.3632500E+00  0.0000000E+00
 2.3747501E+00  0.0000000E+00
 2.3862500E+00  0.0000000E+00
 2.3977501E+00  0.0000000E+00
 2.4092500E+00  0.0000000E+00
 2.4207501E+00  0.0000000E+00
 2.4322500E+00  0.0000000E+00
 2.4437501E+00  0.0000000E+00
 2.4552500E+00  0.0000000E+00
 2.4667501E+00  0.0000000E+00
 2.4782500E+00  0.0000000E+00
 2.4897501E+00  0.0000000E+00
 2.5012500E+00  0.0000000E+00
 2.5127501E+00  0.0000000E+00
 2.5242500E+00  0.0000000E+00
 2.5357502E+00  0.0000000E+00
 2.5472500E+00  0.0000000E+00
 2.5587502E+00  0.0000000E+00
 2.5702500E+00  0.0000000E+00
 2.5817502E+00  0.0000000E+00
 2.5932500E+00  0.0000000E+00
 2.6047502E+00  0.0000000E+00
 2.6162500E+00  0.0000000E+00
 2.6277502E+00  0.0000000E+00
 2.6392500E+00  0.0000000E+00
 2.6507502E+00  0.0000000E+00
 2.6622500E+00  0.0000000E+00
 2.6737502E+00  0.0000000E+00
 2.6852500E+00  0.0000000E+00
 2.6967502E+00  0.0000000E+00
 2.7082500E+00  0.0000000E+00
 2.7197502E+00  0.0000000E+00
 2.7312500E+00  0.0000000E+00
 2.7427502E+00  0.0000000E+00
 2.7542500E+00  0.0000000E+00
 2.7657502E+00  0.0000000E+00
 2.7772501E+00  0.0000000E+00
 2.7887502E+00  0.0000000E+00
 2.8002501E+00  0.0000000E+00
 2.8117502E+00  0.0000000E+00
 2.8232501E+00  3.0906105E+01
 2.8347502E+00  3.1074490E+01
 2.8462501E+00  3.1498463E+01
 2.8577502E+00  3.2065411E+01
 2.8692501E+00  3.2563637E+01
 2.8807502E+00  3.3307163E+01
 2.8922501E+00  3.3318623E+01
 2.9037502E+00  3.3707878E+01
 2.9152501E+00  3.4322922E+01
 2.9267502E+00  3.5182465E+01
 2.9382501E+00  3.6222973E+01
 2.9497502E+00  3.6664921E+01
 2.9612501E+00  3.6672493E+01
 2.9727502E+00  3.6173847E+01
 2.9842501E+00  3.5655937E+01
 2.9957502E+00  3.5624935E+01
 3.0072501E+00  3.5686752E+01
 3.0187502E+00  3.5801716E+01
 3.0302501E+00  3.5757572E+01
 3.0417502E+00  3.5751286E+01
 3.0532501E+00  3.5739712E+01
 3.0647502E+00  3.5448040E+01
 3.0762501E+00  3.5501396E+01
 3.0877502E+00  3.5394600E+01
 3.0992501E+00  3.5443508E+01
 3.1107502E+00  3.5124039E+01
 3.1222501E+00  3.5066349E+01
 3.1337502E+00  3.5035343E+01
 3.1452501E+00  3.5177864E+01
 3.1567502E+00  3.5224060E+01
 3.1682501E+00  3.5307518E+01
 3.1797502E+00  3.5480930E+01
 3.1912501E+00  3.5346798E+01
 3.2027502E+00  3.5134850E+01
 3.2142501E+00  3.4860767E+01
 3.2257502E+00  3.4738247E+01
 3.2372501E+00  3.4194290E+01
 3.2487502E+00  3.3923504E+01
 3.2602501E+00  3.3761478E+01
 3.2717502E+00  3.4119537E+01
 3.2832501E+00  3.4238621E+01
 3.2947502E+00  3.4296295E+01
 3.3062501E+00  3.4558907E+01
 3.3177502E+00  3.4797852E+01
 3.3292501E+00  3.5127441E+01
 3.3407502E+00  3.5352413E+01
 3.3522501E+00  3.5264591E+01
 3.3637502E+00  3.4994896E+01
 3.3752501E+00  3.4642658E+01
 3.3867502E+00  3.4454952E+01
 3.3982501E+00  3.3832348E+01
 3.4097502E+00  3.3877716E+01
 3.4212501E+00  3.3831951E+01
 3.4327502E+00  3.4112946E+01
 3.4442501E+00  3.4211361E+01
 3.4557502E+00  3.4420685E+01
 3.4672501E+00  3.4653049E+01
 3.4787502E+00  3.4898888E+01
 3.4902501E+00  3.4598618E+01
 3.5017502E+00  3.4847351E+01
 3.5132501E+00  3.4398731E+01
 3.5247502E+00  3.4202805E+01
 3.5362501E+00  3.4245598E+01
 3.5477502E+00  3.4091980E+01
 3.5592501E+00  3.3845814E+01
 3.5707502E+00  3.3367901E+01
 3.5822501E+00  3.3187721E+01
 3.5937502E+00  3.3307186E+01
 3.6052501E+00  3.3246822E+01
 3.6167502E+00  3.3227966E+01
 3.6282501E+00  3.3342991E+01
 3.6397502E+00  3.3383549E+01
 3.6512501E+00  3.3559883E+01
 3.6627502E+00  3.3674553E+01
 3.6742501E+00  3.3638432E+01
 3.6857502E+00  3.3603294E+01
 3.6972501E+00  3.3536636E+01
 3.7087502E+00  3.3381260E+01
 3.7202501E+00  3.3278011E+01
 3.7317502E+00  3.3071751E+01
 3.7432501E+00  3.3181133E+01
 3.7547503E+00  3.3270111E+01
 3.7662501E+00  3.3289116E+01
 3.7777503E+00  3.3325459E+01
 3.7892501E+00  3.3201832E+01
 3.8007503E+00  3.2951958E+01
 3.8122501E+00  3.2967152E+01
 3.8237503E+00  3.2954571E+01
 3.8352501E+00  3.3066647E+01
 3.8467503E+00  3.2933666E+01
 3.8582501E+00  3.2895649E+01
 3.8697503E+00  3.2937782E+01
 3.8812501E+00  3.2974159E+01
 3.8927503E+00  3.2841423E+01
 3.9042501E+00  3.2790638E+01
 3.9157503E+00  3.2879147E+01
 3.9272501E+00  3.2873199E+01
 3.9387503E+00  3.2894173E+01
 3.9502501E+00  3.2726631E+01
 3.9617503E+00  3.2760014E+01
 3.9732502E+00  3.2833973E+01
 3.9847503E+00  3.2818954E+01
 3.9962502E+00  3.2769871E+01
 4.0077500E+00  3.2578995E+01
 4.0192504E+00  3.2538559E+01
 4.0307503E+00  3.2474762E+01
 4.0422502E+00  3.2457806E+01
 4.0537500E+00  3.2592171E+01
 4.0652504E+00  3.2523842E+01
 4.0767503E+00  3.2460522E+01
 4.0882502E+00  3.2405636E+01
 4.0997500E+00  3.2502655E+01
 4.1112504E+00  3.2574917E+01
 4.1227503E+00  3.2378754E+01
 4.1342502E+00  3.2401680E+01
 4.1457500E+00  3.2472675E+01
 4.1572504E+00  3.2621941E+01
 4.1687503E+00  3.2629856E+01
 4.1802502E+00  3.2576805E+01
 4.1917500E+00  3.2662041E+01
 4.2032504E+00  3.2658844E+01
 4.2147503E+00  3.2709930E+01
 4.2262502E+00  3.2819569E+01
 4.2377501E+00  3.2790882E+01
 4.2492504E+00  3.2866016E+01
 4.2607503E+00  3.2829529E+01
 4.2722502E+00  3.2640430E+01
 4.2837501E+00  3.2656059E+01
 4.2952504E+00  3.2430080E+01
 4.3067503E+00  3.2545670E+01
 4.3182502E+00  3.2541180E+01
 4.3297501E+00  3.2555088E+01
 4.3412504E+00  3.2549702E+01
 4.3527503E+00  3.2570606E+01
 4.3642502E+00  3.2551788E+01
 4.3757501E+00  3.2584209E+01
 4.3872504E+00  3.2489513E+01
 4.3987503E+00  3.2406193E+01
 4.4102502E+00  3.2431355E+01
 4.4217501E+00  3.2382637E+01
 4.4332504E+00  3.2537155E+01
 4.4447503E+00  3.2574574E+01
 4.4562502E+00  3.2767727E+01
 4.4677501E+00  3.3050289E+01
 4.4792504E+00  3.3369370E+01
 4.4907503E+00  3.3331818E+01
 4.5022502E+00  3.3281174E+01
 4.5137501E+00  3.2954197E+01
 4.5252504E+00  3.2800060E+01
 4.5367503E+00  3.2676685E+01
 4.5482502E+00  3.2701046E+01
 4.5597501E+00  3.2780762E+01
 4.5712504E+00  3.2806644E+01
 4.5827503E+00  3.2780857E+01
 4.5942502E+00  3.2950760E+01
 4.6057501E+00  3.2998348E+01
 4.6172504E+00  3.3046715E+01
 4.6287503E+00  3.2860199E+01
 4.6402502E+00  3.2814690E+01
 4.6517501E+00  3.2793423E+01
 4.6632504E+00  3.3036934E+01
 4.6747503E+00  3.3058281E+01
 4.6862502E+00  3.3075901E+01
 4.6977501E+00  3.3096859E+01
 4.7092505E+00  3.3074417E+01
 4.7207503E+00  3.3149624E+01
 4.7322502E+00  3.3021519E+01
 4.7437501E+00  3.2937744E+01
 4.7552505E+00  3.2880157E+01
 4.7667503E+00  3.3002857E+01
 4.7782502E+00  3.2969326E+01
 4.7897501E+00  3.3010166E+01
 4.8012505E+00  3.2759129E+01
 4.8127503E+00  3.2645638E+01
 4.8242502E+00  3.2380600E+01
 4.8357501E+00  3.2360653E+01
 4.8472505E+00  3.2416576E+01
 4.8587503E+00  3.2598576E+01
 4.8702502E+00  3.2608349E+01
 4.8817501E+00  3.2682053E+01
 4.8932505E+00  3.2747440E+01
 4.9047503E+00  3.2794052E+01
 4.9162502E+00  3.2805798E+01
 4.9277501E+00  3.2878212E+01
 4.9392505E+00  3.2991165E+01
 4.9507504E+00  3.3077621E+01
 4.9622502E+00  3.3217091E+01
 4.9737501E+00  3.3257683E+01
 4.9852505E+00  3.3354870E+01
 4.9967504E+00  3.3306320E+01
 5.0082502E+00  3.3384262E+01
 5.0197501E+00  3.3432102E+01
 5.0312505E+00  3.3352268E+01
 5.0427504E+00  3.3371040E+01
 5.0542502E+00  3.3231415E+01
 5.0657501E+00  3.3380169E+01
 5.0772505E+00  3.3397095E+01
 5.0887504E+00  3.3429352E+01
 5.1002502E+00  3.3404842E+01
 5.1117501E+00  3.3279903E+01
 5.1232505E+00  3.3327480E+01
 5.1347504E+00  3.3415443E+01
 5.1462502E+00  3.3510838E+01
 5.1577501E+00  3.3678337E+01
 5.1692505E+00  3.3821648E+01
 5.1807504E+00  3.3921333E+01
 5.1922503E+00  3.3969402E+01
 5.2037501E+00  3.3889973E+01
 5.2152505E+00  3.3947796E+01
 5.2267504E+00  3.4051186E+01
 5.2382503E+00  3.4188953E+01
 5.2497501E+00  3.4292992E+01
 5.2612505E+00  3.4351326E+01
 5.2727504E+00  3.4304161E+01
 5.2842503E+00  3.4250973E+01
 5.2957501E+00  3.4162205E+01
 5.3072500E+00  3.4189175E+01
 5.3187504E+00  3.4355015E+01
 5.3302503E+00  3.4457588E+01
 5.3417501E+00  3.4578312E+01
 5.3532500E+00  3.4681461E+01
 5.3647504E+00  3.4729683E+01
 5.3762503E+00  3.4791538E+01
 5.3877501E+00  3.4805836E+01
 5.3992500E+00  3.4856018E+01
 5.4107504E+00  3.4665924E+01
 5.4222503E+00  3.4586208E+01
 5.4337502E+00  3.4439747E+01
 5.4452500E+00  3.4581497E+01
 5.4567504E+00  3.4597237E+01
 5.4682503E+00  3.4540951E+01
 5.4797502E+00  3.4631828E+01
 5.4912500E+00  3.4601566E+01
 5.5027504E+00  3.4743294E+01
 5.5142503E+00  3.4767319E+01
 5.5257502E+00  3.4814037E+01
 5.5372500E+00  3.4877205E+01
 5.5487504E+00  3.4858856E+01
 5.5602503E+00  3.4943008E+01
 5.5717502E+00  3.4979733E+01
 5.5832500E+00  3.4964504E+01
 5.5947504E+00  3.4997807E+01
 5.6062503E+00  3.4986706E+01
 5.6177502E+00  3.4960304E+01
 5.6292500E+00  3.5040955E+01
 5.6407504E+00  3.5145824E+01
 5.6522503E+00  3.5283005E+01
 5.6637502E+00  3.5349480E+01
 5.6752501E+00  3.5368412E+01
 5.6867504E+00  3.5381081E+01
 5.6982503E+00  3.5348465E+01
 5.7097502E+00  3.5398220E+01
 5.7212501E+00  3.5578758E+01
 5.7327504E+00  3.5593029E+01
 5.7442503E+00  3.5721512E+01
 5.7557502E+00  3.5726635E+01
 5.7672501E+00  3.5706921E+01
 5.7787504E+00  3.5665150E+01
 5.7902503E+00  3.5609695E+01
 5.8017502E+00  3.5611809E+01
 5.8132501E+00  3.5545853E+01
 5.8247504E+00  3.5441463E+01
 5.8362503E+00  3.5541206E+01
 5.8477502E+00  3.5622971E+01
 5.8592501E+00  3.5603153E+01
 5.8707504E+00  3.5744091E+01
 5.8822503E+00  3.5756001E+01
 5.8937502E+00  3.6007915E+01
 5.9052501E+00  3.6083130E+01
 5.9167504E+00  3.6234844E+01
 5.9282503E+00  3.6601116E+01
 5.9397502E+00  3.7098267E+01
 5.9512501E+00  3.7796654E+01
 5.9627504E+00  3.8606888E+01
 5.9742503E+00  3.9184223E+01
 5.9857502E+00  3.9555359E+01
 5.9972501E+00  3.9331314E+01
 6.0087504E+00  3.8941200E+01
 6.0202503E+00  3.8233707E+01
 6.0317502E+00  3.7629944E+01
 6.0432501E+00  3.7100235E+01
 6.0547504E+00  3.6783642E+01
 6.0662503E+00  3.6714397E+01
 6.0777502E+00  3.6677948E+01
 6.0892501E+00  3.6665829E+01
 6.1007504E+00  3.6625191E+01
 6.1122503E+00  3.6618870E+01
 6.1237502E+00  3.6689930E+01
 6.1352501E+00  3.6641029E+01
 6.1467505E+00  3.6598091E+01
 6.1582503E+00  3.6586796E+01
 6.1697502E+00  3.6593967E+01
 6.1812501E+00  3.6730305E+01
 6.1927505E+00  3.6894199E+01
 6.2042503E+00  3.7015190E+01
 6.2157502E+00  3.7157509E+01
 6.2272501E+00  3.7254810E+01
 6.2387505E+00  3.7339596E+01
 6.2502503E+00  3.7491386E+01
 6.2617502E+00  3.7532944E+01
 6.2732501E+00  3.7658775E+01
 6.2847505E+00  3.7736740E+01
 6.2962503E+00  3.7754520E+01
 6.3077502E+00  3.7870911E+01
 6.3192501E+00  3.7890312E+01
 6.3307505E+00  3.8007278E+01
 6.3422503E+00  3.8132385E+01
 6.3537502E+00  3.8212872E+01
 6.3652501E+00  3.8331738E+01
 6.3767505E+00  3.8383228E+01
 6.3882504E+00  3.8407963E+01
 6.3997502E+00  3.8404648E+01
 6.4112501E+00  3.8457294E+01
 6.4227505E+00  3.8335018E+01
 6.4342504E+00  3.8355526E+01
 6.4457502E+00  3.8273361E+01
 6.4572501E+00  3.8363811E+01
 6.4687505E+00  3.8398834E+01
 6.4802504E+00  3.8425854E+01
 6.4917502E+00  3.8547626E+01
 6.5032501E+00  3.8749180E+01
 6.5147505E+00  3.8850716E+01
 6.5262504E+00  3.8915840E+01
 6.5377502E+00  3.8913174E+01
 6.5492501E+00  3.9005432E+01
 6.5607505E+00  3.9153450E+01
 6.5722504E+00  3.9335381E+01
 6.5837502E+00  3.9503296E+01
 6.5952501E+00  3.9726257E+01
 6.6067505E+00  3.9862202E+01
 6.6182504E+00  4.0056187E+01
 6.6297503E+00  4.0130714E+01
 6.6412501E+00  4.0262127E+01
 6.6527505E+00  4.0278240E+01
 6.6642504E+00  4.0384323E+01
 6.6757503E+00  4.0371590E+01
 6.6872501E+00  4.0472691E+01
 6.6987505E+00  4.0528419E+01
 6.7102504E+00  4.0688332E+01
 6.7217503E+00  4.0738655E+01
 6.7332501E+00  4.0781101E+01
 6.7447505E+00  4.0759964E+01
 6.7562504E+00  4.0886795E+01
 6.7677503E+00  4.1013023E+01
 6.7792501E+00  4.1127003E+01
 6.7907505E+00  4.1184994E+01
 6.8022504E+00  4.1203026E+01
 6.8137503E+00  4.1202179E+01
 6.8252501E+00  4.1240261E+01
 6.8367505E+00  4.1287308E+01
 6.8482504E+00  4.1364120E+01
 6.8597503E+00  4.1445969E+01
 6.8712502E+00  4.1516045E+01
 6.8827505E+00  4.1692432E+01
 6.8942504E+00  4.1828194E+01
 6.9057503E+00  4.1917995E+01
 6.9172502E+00  4.2057507E+01
 6.9287505E+00  4.2058792E+01
 6.9402504E+00  4.2137478E+01
 6.9517503E+00  4.2074909E+01
 6.9632502E+00  4.2024948E+01
 6.9747505E+00  4.2008141E+01
 6.9862504E+00  4.1985065E+01
 6.9977503E+00  4.2108112E+01
 7.0092502E+00  4.2205654E+01
 7.0207505E+00  4.2267609E+01
 7.0322504E+00  4.2378578E+01
 7.0437503E+00  4.2434509E+01
 7.0552502E+00  4.2517986E+01
 7.0667505E+00  4.2624943E+01
 7.0782504E+00  4.2632961E+01
 7.0897503E+00  4.2830437E+01
 7.1012502E+00  4.2820812E+01
 7.1127505E+00  4.2880016E+01
 7.1242504E+00  4.2907654E+01
 7.1357503E+00  4.2911427E+01
 7.1472502E+00  4.2997322E+01
 7.1587505E+00  4.3042439E+01
 7.1702504E+00  4.3098747E+01
 7.1817503E+00  4.3062035E+01
 7.1932502E+00  4.3178627E+01
 7.2047505E+00  4.3196503E+01
 7.2162504E+00  4.3337822E+01
 7.2277503E+00  4.3358955E+01
 7.2392502E+00  4.3498711E+01
 7.2507505E+00  4.3665565E+01
 7.2622504E+00  4.3732338E+01
 7.2737503E+00  4.3760860E+01
 7.2852502E+00  4.3696766E+01
 7.2967505E+00  4.3660862E+01
 7.3082504E+00  4.3677811E+01
 7.3197503E+00  4.3716217E+01
 7.3312502E+00  4.3760113E+01
 7.3427505E+00  4.3781860E+01
 7.3542504E+00  4.3822727E+01
 7.3657503E+00  4.3843708E+01
 7.3772502E+00  4.3853367E+01
 7.3887506E+00  4.3847027E+01
 7.4002504E+00  4.3963543E+01
 7.4117503E+00  4.3990108E+01
 7.4232502E+00  4.4084332E+01
 7.4347506E+00  4.4158504E+01
 7.4462504E+00  4.4258080E+01
 7.4577503E+00  4.4339798E+01
 7.4692502E+00  4.4294533E+01
 7.4807506E+00  4.4315880E+01
 7.4922504E+00  4.4288288E+01
 7.5037503E+00  4.4253510E+01
 7.5152502E+00  4.4230694E+01
 7.5267506E+00  4.4198048E+01
 7.5382504E+00  4.4224518E+01
 7.5497503E+00  4.4173565E+01
 7.5612502E+00  4.4175045E+01
 7.5727506E+00  4.4215542E+01
 7.5842505E+00  4.4277096E+01
 7.5957503E+00  4.4360981E+01
 7.6072502E+00  4.4450832E+01
 7.6187506E+00  4.4412960E+01
 7.6302505E+00  4.4293594E+01
 7.6417503E+00  4.4130859E+01
 7.6532502E+00  4.4074009E+01
 7.6647506E+00  4.4040161E+01
 7.6762505E+00  4.4066166E+01
 7.6877503E+00  4.4015354E+01
 7.6992502E+00  4.3976727E+01
 7.7107506E+00  4.3911568E+01
 7.7222505E+00  4.3910347E+01
 7.7337503E+00  4.3861652E+01
 7.7452502E+00  4.3866577E+01
 7.7567506E+00  4.3842693E+01
 7.7682505E+00  4.3886528E+01
 7.7797503E+00  4.3818039E+01
 7.7912502E+00  4.3829479E+01
 7.8027506E+00  4.3938705E+01
 7.8142505E+00  4.3960552E+01
 7.8257504E+00  4.3986351E+01
 7.8372502E+00  4.3950272E+01
 7.8487506E+00  4.4048267E+01
 7.8602505E+00  4.4177540E+01
 7.8717504E+00  4.4220257E+01
 7.8832502E+00  4.4145725E+01
 7.8947506E+00  4.4055237E+01
 7.9062505E+00  4.3926685E+01
 7.9177504E+00  4.3866199E+01
 7.9292502E+00  4.3761040E+01
 7.9407506E+00  4.3658844E+01
 7.9522505E+00  4.3527424E+01
 7.9637504E+00  4.3367130E+01
 7.9752502E+00  4.3322102E+01
 7.9867506E+00  4.3396828E+01
 7.9982505E+00  4.3504692E+01
 8.0097504E+00  4.3548431E+01
 8.0212507E+00  4.3587528E+01
 8.0327501E+00  4.3588184E+01
 8.0442505E+00  4.3501484E+01
 8.0557508E+00  4.3275986E+01
 8.0672503E+00  4.3050369E+01
 8.0787506E+00  4.2886208E+01
 8.0902500E+00  4.2816875E+01
 8.1017504E+00  4.2759747E+01
 8.1132507E+00  4.2668774E+01
 8.1247501E+00  4.2632256E+01
 8.1362505E+00  4.2440540E+01
 8.1477509E+00  4.2345695E+01
 8.1592503E+00  4.2143921E+01
 8.1707506E+00  4.2077290E+01
 8.1822500E+00  4.1974209E+01
 8.1937504E+00  4.1941772E+01
 8.2052507E+00  4.1895149E+01
 8.2167501E+00  4.1807720E+01
 8.2282505E+00  4.1654831E+01
 8.2397509E+00  4.1482956E+01
 8.2512503E+00  4.1288254E+01
 8.2627506E+00  4.1082458E+01
 8.2742500E+00  4.0845055E+01
 8.2857504E+00  4.0777103E+01
 8.2972507E+00  4.0702896E+01
 8.3087502E+00  4.0611176E+01
 8.3202505E+00  4.0481247E+01
 8.3317509E+00  4.0311958E+01
 8.3432503E+00  4.0125904E+01
 8.3547506E+00  3.9875988E+01
 8.3662500E+00  3.9674091E+01
 8.3777504E+00  3.9401264E+01
 8.3892508E+00  3.9205776E+01
 8.4007502E+00  3.9025303E+01
 8.4122505E+00  3.9023075E+01
 8.4237509E+00  3.8990009E+01
 8.4352503E+00  3.8877323E+01
 8.4467506E+00  3.8792431E+01
 8.4582500E+00  3.8543591E+01
 8.4697504E+00  3.8363632E+01
 8.4812508E+00  3.8085491E+01
 8.4927502E+00  3.7873573E+01
 8.5042505E+00  3.7660816E+01
 8.5157509E+00  3.7521740E+01
 8.5272503E+00  3.7340809E+01
 8.5387506E+00  3.7201008E+01
 8.5502501E+00  3.6934971E+01
 8.5617504E+00  3.6750580E+01
 8.5732508E+00  3.6562096E+01
 8.5847502E+00  3.6442711E+01
 8.5962505E+00  3.6333576E+01
 8.6077509E+00  3.6296696E+01
 8.6192503E+00  3.6251877E+01
 8.6307507E+00  3.6207500E+01
 8.6422501E+00  3.6034439E+01
 8.6537504E+00  3.5778969E+01
 8.6652508E+00  3.5544807E+01
 8.6767502E+00  3.5295639E+01
 8.6882505E+00  3.5128651E+01
 8.6997509E+00  3.4946560E+01
 8.7112503E+00  3.4692638E+01
 8.7227507E+00  3.4524044E+01
 8.7342501E+00  3.4317722E+01
 8.7457504E+00  3.4138287E+01
 8.7572508E+00  3.3879776E+01
 8.7687502E+00  3.3770859E+01
 8.7802505E+00  3.3578533E+01
 8.7917500E+00  3.3438942E+01
 8.8032503E+00  3.3198555E+01
 8.8147507E+00  3.3101593E+01
 8.8262501E+00  3.2940166E+01
 8.8377504E+00  3.2826275E+01
 8.8492508E+00  3.2682270E+01
 8.8607502E+00  3.2554768E+01
 8.8722506E+00  3.2434723E+01
 8.8837500E+00  3.2214314E+01
 8.8952503E+00  3.2095566E+01
 8.9067507E+00  3.1878349E+01
 8.9182501E+00  3.1791601E+01
 8.9297504E+00  3.1596569E+01
 8.9412508E+00  3.1394230E+01
 8.9527502E+00  3.1190147E+01
 8.9642506E+00  3.1024590E+01
 8.9757500E+00  3.0901098E+01
 8.9872503E+00  3.0808115E+01
 8.9987507E+00  3.0633905E+01
 9.0102501E+00  3.0460312E+01
 9.0217505E+00  3.0280130E+01
 9.0332508E+00  3.0130165E+01
 9.0447502E+00  2.9966248E+01
 9.0562506E+00  2.9774811E+01
 9.0677500E+00  2.9691479E+01
 9.0792503E+00  2.9617226E+01
 9.0907507E+00  2.9571480E+01
 9.1022501E+00  2.9498596E+01
 9.1137505E+00  2.9465170E+01
 9.1252508E+00  2.9329166E+01
 9.1367502E+00  2.9242632E+01
 9.1482506E+00  2.9100071E+01
 9.1597500E+00  2.9036896E+01
 9.1712503E+00  2.8947382E+01
 9.1827507E+00  2.8945578E+01
 9.1942501E+00  2.8853312E+01
 9.2057505E+00  2.8718603E+01
 9.2172508E+00  2.8525753E+01
 9.2287502E+00  2.8297791E+01
 9.2402506E+00  2.8148245E+01
 9.2517500E+00  2.7922781E+01
 9.2632504E+00  2.7891474E+01
 9.2747507E+00  2.7862568E+01
 9.2862501E+00  2.7835003E+01
 9.2977505E+00  2.7802471E+01
 9.3092508E+00  2.7709547E+01
 9.3207502E+00  2.7646074E+01
 9.3322506E+00  2.7593861E+01
 9.3437500E+00  2.7445206E+01
 9.3552504E+00  2.7392250E+01
 9.3667507E+00  2.7241898E+01
 9.3782501E+00  2.7187279E+01
 9.3897505E+00  2.7084957E+01
 9.4012508E+00  2.7012960E+01
 9.4127502E+00  2.6923067E+01
 9.4242506E+00  2.6772383E+01
 9.4357500E+00  2.6589691E+01
 9.4472504E+00  2.6468370E+01
 9.4587507E+00  2.6470566E+01
 9.4702501E+00  2.6494883E+01
 9.4817505E+00  2.6523945E+01
 9.4932508E+00  2.6414061E+01
 9.5047503E+00  2.6347481E+01
 9.5162506E+00  2.6272243E+01
 9.5277500E+00  2.6253977E+01
 9.5392504E+00  2.6249352E+01
 9.5507507E+00  2.6104055E+01
 9.5622501E+00  2.6024401E+01
 9.5737505E+00  2.5872505E+01
 9.5852509E+00  2.5793642E+01
 9.5967503E+00  2.5757860E+01
 9.6082506E+00  2.5696394E+01
 9.6197500E+00  2.5650814E+01
 9.6312504E+00  2.5570078E+01
 9.6427507E+00  2.5453829E+01
 9.6542501E+00  2.5357523E+01
 9.6657505E+00  2.5280733E+01
 9.6772509E+00  2.5201122E+01
 9.6887503E+00  2.5143383E+01
 9.7002506E+00  2.5074823E+01
 9.7117500E+00  2.5097466E+01
 9.7232504E+00  2.5070585E+01
 9.7347507E+00  2.5019882E+01
 9.7462502E+00  2.4954302E+01
 9.7577505E+00  2.4906546E+01
 9.7692509E+00  2.4912233E+01
 9.7807503E+00  2.4890905E+01
 9.7922506E+00  2.4886267E+01
 9.8037500E+00  2.4819143E+01
 9.8152504E+00  2.4782822E+01
 9.8267508E+00  2.4660622E+01
 9.8382502E+00  2.4614645E+01
 9.8497505E+00  2.4511227E+01
 9.8612509E+00  2.4463436E+01
 9.8727503E+00  2.4397985E+01
 9.8842506E+00  2.4374435E+01
 9.8957500E+00  2.4373466E+01
 9.9072504E+00  2.4357803E+01
 9.9187508E+00  2.4344223E+01
 9.9302502E+00  2.4336380E+01
 9.9417505E+00  2.4264688E+01
 9.9532509E+00  2.4223829E+01
 9.9647503E+00  2.4198633E+01
 9.9762506E+00  2.4211605E+01
 9.9877501E+00  2.4169350E+01
 9.9992504E+00  2.4140635E+01
 1.0010751E+01  2.4047628E+01
 1.0022250E+01  2.3985472E+01
 1.0033751E+01  2.3964075E+01
 1.0045251E+01  2.3962139E+01
 1.0056750E+01  2.3925896E+01
 1.0068251E+01  2.3881264E+01
 1.0079750E+01  2.3877415E+01
 1.0091250E+01  2.3908623E+01
 1.0102751E+01  2.3918673E+01
 1.0114250E+01  2.3917625E+01
 1.0125751E+01  2.3951803E+01
 1.0137251E+01  2.3903366E+01
 1.0148750E+01  2.3855595E+01
 1.0160251E+01  2.3772461E+01
 1.0171750E+01  2.3712912E+01
 1.0183250E+01  2.3663977E+01
 1.0194751E+01  2.3594212E+01
 1.0206250E+01  2.3563902E+01
 1.0217751E+01  2.3565218E+01
 1.0229251E+01  2.3597124E+01
 1.0240750E+01  2.3611780E+01
 1.0252251E+01  2.3551580E+01
 1.0263750E+01  2.3497427E+01
 1.0275250E+01  2.3451698E+01
 1.0286751E+01  2.3422817E+01
 1.0298250E+01  2.3423542E+01
 1.0309751E+01  2.3386112E+01
 1.0321251E+01  2.3342827E+01
 1.0332750E+01  2.3315363E+01
 1.0344251E+01  2.3302374E+01
 1.0355750E+01  2.3313301E+01
 1.0367250E+01  2.3286907E+01
 1.0378751E+01  2.3308464E+01
 1.0390250E+01  2.3409334E+01
 1.0401751E+01  2.3444023E+01
 1.0413251E+01  2.3435997E+01
 1.0424750E+01  2.3286894E+01
 1.0436251E+01  2.3171278E+01
 1.0447750E+01  2.3070580E+01
 1.0459250E+01  2.3006733E+01
 1.0470751E+01  2.3019554E+01
 1.0482250E+01  2.3040119E+01
 1.0493751E+01  2.3105839E+01
 1.0505251E+01  2.3115635E+01
 1.0516750E+01  2.3161648E+01
 1.0528251E+01  2.3091171E+01
 1.0539750E+01  2.3051208E+01
 1.0551250E+01  2.2999258E+01
 1.0562751E+01  2.3015148E+01
 1.0574250E+01  2.2937847E+01
 1.0585751E+01  2.2866629E+01
 1.0597251E+01  2.2821539E+01
 1.0608750E+01  2.2781187E+01
 1.0620251E+01  2.2741352E+01
 1.0631750E+01  2.2732674E+01
 1.0643250E+01  2.2752289E+01
 1.0654751E+01  2.2793955E+01
 1.0666250E+01  2.2791723E+01
 1.0677751E+01  2.2797260E+01
 1.0689251E+01  2.2759529E+01
 1.0700750E+01  2.2745287E+01
 1.0712251E+01  2.2679211E+01
 1.0723750E+01  2.2693535E+01
 1.0735250E+01  2.2649334E+01
 1.0746751E+01  2.2708622E+01
 1.0758250E+01  2.2669903E+01
 1.0769751E+01  2.2674397E+01
 1.0781251E+01  2.2668980E+01
 1.0792750E+01  2.2659277E+01
 1.0804251E+01  2.2690269E+01
 1.0815750E+01  2.2713543E+01
 1.0827250E+01  2.2758970E+01
 1.0838751E+01  2.2775024E+01
 1.0850250E+01  2.2772043E+01
 1.0861751E+01  2.2743891E+01
 1.0873251E+01  2.2661390E+01
 1.0884750E+01  2.2522612E+01
 1.0896251E+01  2.2444019E+01
 1.0907750E+01  2.2453583E+01
 1.0919250E+01  2.2467150E+01
 1.0930751E+01  2.2482386E+01
 1.0942250E+01  2.2498062E+01
 1.0953751E+01  2.2520720E+01
 1.0965251E+01  2.2580969E+01
 1.0976750E+01  2.2595175E+01
 1.0988251E+01  2.2715784E+01
 1.0999750E+01  2.2720390E+01
 1.1011250E+01  2.2738575E+01
 1.1022751E+01  2.2597935E+01
 1.1034250E+01  2.2514868E+01
 1.1045751E+01  2.2396940E+01
 1.1057251E+01  2.2327915E+01
 1.1068750E+01  2.2307724E+01
 1.1080251E+01  2.2307310E+01
 1.1091750E+01  2.2433678E+01
 1.1103251E+01  2.2451433E+01
 1.1114751E+01  2.2695623E+01
 1.1126250E+01  2.2721245E+01
 1.1137751E+01  2.2751858E+01
 1.1149251E+01  2.2617085E+01
 1.1160750E+01  2.2535162E+01
 1.1172251E+01  2.2499231E+01
 1.1183750E+01  2.2412500E+01
 1.1195251E+01  2.2394941E+01
 1.1206751E+01  2.2374750E+01
 1.1218250E+01  2.2289562E+01
 1.1229751E+01  2.2283009E+01
 1.1241251E+01  2.2260775E+01
 1.1252750E+01  2.2401247E+01
 1.1264251E+01  2.2410261E+01
 1.1275750E+01  2.2548771E+01
 1.1287251E+01  2.2420015E+01
 1.1298751E+01  2.2419872E+01
 1.1310250E+01  2.2273010E+01
 1.1321751E+01  2.2322546E+01
 1.1333251E+01  2.2274570E+01
 1.1344750E+01  2.2297451E+01
 1.1356251E+01  2.2289158E+01
 1.1367750E+01  2.2374016E+01
 1.1379251E+01  2.2415607E+01
 1.1390751E+01  2.2519436E+01
 1.1402250E+01  2.2659191E+01
 1.1413751E+01  2.2646961E+01
 1.1425251E+01  2.2636185E+01
 1.1436750E+01  2.2479164E+01
 1.1448251E+01  2.2415188E+01
 1.1459750E+01  2.2308727E+01
 1.1471251E+01  2.2237366E+01
 1.1482751E+01  2.2195627E+01
 1.1494250E+01  2.2217258E+01
 1.1505751E+01  2.2266554E+01
 1.1517251E+01  2.2386288E+01
 1.1528750E+01  2.2552071E+01
 1.1540251E+01  2.2776470E+01
 1.1551750E+01  2.3115961E+01
 1.1563251E+01  2.3476542E+01
 1.1574751E+01  2.3720570E+01
 1.1586250E+01  2.4008102E+01
 1.1597751E+01  2.4183689E+01
 1.1609251E+01  2.4112562E+01
 1.1620750E+01  2.4066153E+01
 1.1632251E+01  2.3758909E+01
 1.1643750E+01  2.3482800E+01
 1.1655251E+01  2.3051100E+01
 1.1666751E+01  2.2691360E+01
 1.1678250E+01  2.2536522E+01
 1.1689751E+01  2.2330601E+01
 1.1701251E+01  2.2291992E+01
 1.1712750E+01  2.2287086E+01
 1.1724251E+01  2.2305990E+01
 1.1735750E+01  2.2306944E+01
 1.1747251E+01  2.2315189E+01
 1.1758751E+01  2.2289837E+01
 1.1770250E+01  2.2227076E+01
 1.1781751E+01  2.2225466E+01
 1.1793251E+01  2.2162247E+01
 1.1804750E+01  2.2216864E+01
 1.1816251E+01  2.2195202E+01
 1.1827750E+01  2.2197893E+01
 1.1839251E+01  2.2180477E+01
 1.1850751E+01  2.2163208E+01
 1.1862250E+01  2.2184406E+01
 1.1873751E+01  2.2137243E+01
 1.1885251E+01  2.2130476E+01
 1.1896750E+01  2.2131233E+01
 1.1908251E+01  2.2134474E+01
 1.1919750E+01  2.2218136E+01
 1.1931251E+01  2.2260183E+01
 1.1942751E+01  2.2355362E+01
 1.1954250E+01  2.2384956E+01
 1.1965751E+01  2.2448442E+01
 1.1977251E+01  2.2476952E+01
 1.1988750E+01  2.2527256E+01
 1.2000251E+01  2.2544825E+01
 1.2011750E+01  2.2586473E+01
 1.2023251E+01  2.2556351E+01
 1.2034751E+01  2.2547316E+01
 1.2046250E+01  2.2573179E+01
 1.2057751E+01  2.2595642E+01
 1.2069251E+01  2.2658617E+01
 1.2080750E+01  2.2731312E+01
 1.2092251E+01  2.2791574E+01
 1.2103750E+01  2.2877129E+01
 1.2115251E+01  2.2868898E+01
 1.2126751E+01  2.2891872E+01
 1.2138250E+01  2.2855608E+01
 1.2149751E+01  2.2766460E+01
 1.2161251E+01  2.2675268E+01
 1.2172750E+01  2.2518045E+01
 1.2184251E+01  2.2450247E+01
 1.2195750E+01  2.2370047E+01
 1.2207251E+01  2.2357250E+01
 1.2218751E+01  2.2282150E+01
 1.2230250E+01  2.2278326E+01
 1.2241751E+01  2.2239115E+01
 1.2253251E+01  2.2269360E+01
 1.2264750E+01  2.2283642E+01
 1.2276251E+01  2.2287907E+01
 1.2287750E+01  2.2347698E+01
 1.2299251E+01  2.2359516E+01
 1.2310751E+01  2.2442804E+01
 1.2322250E+01  2.2407272E+01
 1.2333751E+01  2.2444283E+01
 1.2345250E+01  2.2412022E+01
 1.2356750E+01  2.2463772E+01
 1.2368251E+01  2.2421913E+01
 1.2379750E+01  2.2455776E+01
 1.2391251E+01  2.2417946E+01
 1.2402751E+01  2.2386309E+01
 1.2414250E+01  2.2382286E+01
 1.2425751E+01  2.2362577E+01
 1.2437250E+01  2.2413441E+01
 1.2448750E+01  2.2394810E+01
 1.2460251E+01  2.2422522E+01
 1.2471750E+01  2.2438900E+01
 1.2483251E+01  2.2466417E+01
 1.2494751E+01  2.2404995E+01
 1.2506250E+01  2.2359499E+01
 1.2517751E+01  2.2323597E+01
 1.2529250E+01  2.2430204E+01
 1.2540751E+01  2.2496326E+01
 1.2552251E+01  2.2559280E+01
 1.2563750E+01  2.2548906E+01
 1.2575251E+01  2.2569925E+01
 1.2586751E+01  2.2588251E+01
 1.2598250E+01  2.2625629E+01
 1.2609751E+01  2.2626671E+01
 1.2621250E+01  2.2667284E+01
 1.2632751E+01  2.2678631E+01
 1.2644251E+01  2.2624256E+01
 1.2655750E+01  2.2565834E+01
 1.2667251E+01  2.2505201E+01
 1.2678751E+01  2.2514833E+01
 1.2690250E+01  2.2520994E+01
 1.2701751E+01  2.2571260E+01
 1.2713250E+01  2.2627300E+01
 1.2724751E+01  2.2647196E+01
 1.2736251E+01  2.2687399E+01
 1.2747750E+01  2.2663363E+01
 1.2759251E+01  2.2699587E+01
 1.2770751E+01  2.2698025E+01
 1.2782250E+01  2.2742262E+01
 1.2793751E+01  2.2727947E+01
 1.2805250E+01  2.2769836E+01
 1.2816751E+01  2.2849745E+01
 1.2828251E+01  2.2916552E+01
 1.2839750E+01  2.2947641E+01
 1.2851251E+01  2.2972097E+01
 1.2862751E+01  2.3007311E+01
 1.2874250E+01  2.3095974E+01
 1.2885751E+01  2.3144175E+01
 1.2897250E+01  2.3221027E+01
 1.2908751E+01  2.3295177E+01
 1.2920251E+01  2.3406023E+01
 1.2931750E+01  2.3457920E+01
 1.2943251E+01  2.3466442E+01
 1.2954751E+01  2.3468494E+01
 1.2966250E+01  2.3566160E+01
 1.2977751E+01  2.3655872E+01
 1.2989250E+01  2.3659557E+01
 1.3000751E+01  2.3662628E+01
 1.3012251E+01  2.3703222E+01
 1.3023750E+01  2.3787041E+01
 1.3035251E+01  2.3905380E+01
 1.3046751E+01  2.4010551E+01
 1.3058250E+01  2.4189852E+01
 1.3069751E+01  2.4279682E+01
 1.3081250E+01  2.4299685E+01
 1.3092751E+01  2.4340830E+01
 1.3104251E+01  2.4414719E+01
 1.3115750E+01  2.4494598E+01
 1.3127251E+01  2.4633141E+01
 1.3138751E+01  2.4746649E+01
 1.3150250E+01  2.4960524E+01
 1.3161751E+01  2.5094233E+01
 1.3173250E+01  2.5249908E+01
 1.3184751E+01  2.5370308E+01
 1.3196251E+01  2.5446070E+01
 1.3207750E+01  2.5547842E+01
 1.3219251E+01  2.5695135E+01
 1.3230751E+01  2.5844383E+01
 1.3242250E+01  2.6029678E+01
 1.3253751E+01  2.6151806E+01
 1.3265250E+01  2.6295349E+01
 1.3276751E+01  2.6411366E+01
 1.3288251E+01  2.6513140E+01
 1.3299750E+01  2.6613037E+01
 1.3311251E+01  2.6653557E+01
 1.3322751E+01  2.6754150E+01
 1.3334250E+01  2.6949568E+01
 1.3345751E+01  2.7101297E+01
 1.3357250E+01  2.7350414E+01
 1.3368751E+01  2.7496626E+01
 1.3380251E+01  2.7799004E+01
 1.3391750E+01  2.7947918E+01
 1.3403251E+01  2.8098835E+01
 1.3414751E+01  2.8204117E+01
 1.3426250E+01  2.8267126E+01
 1.3437751E+01  2.8362213E+01
 1.3449250E+01  2.8327555E+01
 1.3460751E+01  2.8458687E+01
 1.3472251E+01  2.8563829E+01
 1.3483750E+01  2.8755116E+01
 1.3495251E+01  2.8874763E+01
 1.3506751E+01  2.9004713E+01
 1.3518250E+01  2.9167450E+01
 1.3529751E+01  2.9244923E+01
 1.3541250E+01  2.9288363E+01
 1.3552751E+01  2.9292500E+01
 1.3564251E+01  2.9343910E+01
 1.3575750E+01  2.9419035E+01
 1.3587251E+01  2.9405539E+01
 1.3598751E+01  2.9392229E+01
 1.3610250E+01  2.9304525E+01
 1.3621751E+01  2.9363039E+01
 1.3633250E+01  2.9382492E+01
 1.3644751E+01  2.9427713E+01
 1.3656251E+01  2.9414930E+01
 1.3667750E+01  2.9465139E+01
 1.3679251E+01  2.9451462E+01
 1.3690751E+01  2.9361555E+01
 1.3702250E+01  2.9240192E+01
 1.3713751E+01  2.9137020E+01
 1.3725250E+01  2.9078869E+01
 1.3736751E+01  2.9077850E+01
 1.3748251E+01  2.9095278E+01
 1.3759750E+01  2.9082392E+01
 1.3771251E+01  2.9027403E+01
 1.3782751E+01  2.8986254E+01
 1.3794250E+01  2.8921036E+01
 1.3805751E+01  2.8826765E+01
 1.3817250E+01  2.8760069E+01
 1.3828751E+01  2.8690475E+01
 1.3840251E+01  2.8653080E+01
 1.3851750E+01  2.8617035E+01
 1.3863251E+01  2.8640385E+01
 1.3874751E+01  2.8652977E+01
 1.3886250E+01  2.8776154E+01
 1.3897751E+01  2.8959352E+01
 1.3909250E+01  2.9224089E+01
 1.3920751E+01  2.9504246E+01
 1.3932251E+01  2.9827131E+01
 1.3943750E+01  2.9979977E+01
 1.3955251E+01  3.0220470E+01
 1.3966751E+01  3.0156010E+01
 1.3978251E+01  3.0067060E+01
 1.3989751E+01  2.9545832E+01
 1.4001250E+01  2.9102875E+01
 1.4012751E+01  2.8558577E+01
 1.4024251E+01  2.8162893E+01
 1.4035750E+01  2.7825447E+01
 1.4047251E+01  2.7636475E+01
 1.4058751E+01  2.7497124E+01
 1.4070251E+01  2.7451128E+01
 1.4081751E+01  2.7305862E+01
 1.4093250E+01  2.7268873E+01
 1.4104751E+01  2.7155090E+01
 1.4116251E+01  2.7152399E+01
 1.4127750E+01  2.7049623E+01
 1.4139251E+01  2.6995329E+01
 1.4150751E+01  2.6890499E+01
 1.4162251E+01  2.6829058E+01
 1.4173751E+01  2.6706259E+01
 1.4185250E+01  2.6658339E+01
 1.4196751E+01  2.6544870E+01
 1.4208251E+01  2.6511003E+01
 1.4219750E+01  2.6357359E+01
 1.4231251E+01  2.6277821E+01
 1.4242751E+01  2.6197687E+01
 1.4254251E+01  2.6219772E+01
 1.4265751E+01  2.6246925E+01
 1.4277250E+01  2.6235456E+01
 1.4288751E+01  2.6278896E+01
 1.4300251E+01  2.6210443E+01
 1.4311750E+01  2.6238688E+01
 1.4323251E+01  2.6127388E+01
 1.4334751E+01  2.6076025E+01
 1.4346251E+01  2.5989189E+01
 1.4357751E+01  2.5941809E+01
 1.4369250E+01  2.5925814E+01
 1.4380751E+01  2.5900234E+01
 1.4392251E+01  2.5872673E+01
 1.4403750E+01  2.5813076E+01
 1.4415251E+01  2.5743540E+01
 1.4426751E+01  2.5727467E+01
 1.4438251E+01  2.5701715E+01
 1.4449751E+01  2.5717600E+01
 1.4461250E+01  2.5656717E+01
 1.4472751E+01  2.5640463E+01
 1.4484251E+01  2.5577934E+01
 1.4495750E+01  2.5586533E+01
 1.4507251E+01  2.5596321E+01
 1.4518751E+01  2.5629707E+01
 1.4530251E+01  2.5588270E+01
 1.4541751E+01  2.5526554E+01
 1.4553250E+01  2.5453598E+01
 1.4564751E+01  2.5427700E+01
 1.4576251E+01  2.5380032E+01
 1.4587750E+01  2.5328407E+01
 1.4599251E+01  2.5246756E+01
 1.4610751E+01  2.5228054E+01
 1.4622251E+01  2.5201567E+01
 1.4633751E+01  2.5238331E+01
 1.4645250E+01  2.5227686E+01
 1.4656751E+01  2.5196047E+01
 1.4668251E+01  2.5200518E+01
 1.4679750E+01  2.5141830E+01
 1.4691251E+01  2.5133650E+01
 1.4702751E+01  2.5093695E+01
 1.4714251E+01  2.5075930E+01
 1.4725751E+01  2.4988190E+01
 1.4737250E+01  2.4926004E+01
 1.4748751E+01  2.4929338E+01
 1.4760251E+01  2.4949835E+01
 1.4771750E+01  2.4978943E+01
 1.4783251E+01  2.4936255E+01
 1.4794751E+01  2.4905071E+01
 1.4806251E+01  2.4872160E+01
 1.4817751E+01  2.4899294E+01
 1.4829250E+01  2.4927416E+01
 1.4840751E+01  2.4941338E+01
 1.4852251E+01  2.4952587E+01
 1.4863750E+01  2.4907001E+01
 1.4875251E+01  2.4870817E+01
 1.4886751E+01  2.4811407E+01
 1.4898251E+01  2.4802254E+01
 1.4909751E+01  2.4759310E+01
 1.4921250E+01  2.4745094E+01
 1.4932751E+01  2.4733187E+01
 1.4944251E+01  2.4685667E+01
 1.4955750E+01  2.4650749E+01
 1.4967251E+01  2.4597126E+01
 1.4978751E+01  2.4557726E+01
 1.4990251E+01  2.4566502E+01
 1.5001751E+01  2.4566008E+01
 1.5013250E+01  2.4651878E+01
 1.5024751E+01  2.4662746E+01
 1.5036251E+01  2.4657858E+01
 1.5047750E+01  2.4609802E+01
 1.5059251E+01  2.4601032E+01
 1.5070751E+01  2.4597054E+01
 1.5082251E+01  2.4568268E+01
 1.5093751E+01  2.4524027E+01
 1.5105250E+01  2.4582544E+01
 1.5116751E+01  2.4594250E+01
 1.5128251E+01  2.4648029E+01
 1.5139750E+01  2.4725136E+01
 1.5151251E+01  2.4821053E+01
 1.5162751E+01  2.5001226E+01
 1.5174251E+01  2.5072710E+01
 1.5185751E+01  2.5188477E+01
 1.5197250E+01  2.5186821E+01
 1.5208751E+01  2.5186314E+01
 1.5220251E+01  2.5112986E+01
 1.5231750E+01  2.4982986E+01
 1.5243251E+01  2.4891232E+01
 1.5254751E+01  2.4767296E+01
 1.5266251E+01  2.4653559E+01
 1.5277751E+01  2.4562078E+01
 1.5289250E+01  2.4554993E+01
 1.5300751E+01  2.4568354E+01
 1.5312251E+01  2.4531998E+01
 1.5323750E+01  2.4460669E+01
 1.5335251E+01  2.4379278E+01
 1.5346751E+01  2.4359701E+01
 1.5358251E+01  2.4356827E+01
 1.5369751E+01  2.4369209E+01
 1.5381250E+01  2.4338179E+01
 1.5392751E+01  2.4331976E+01
 1.5404251E+01  2.4298292E+01
 1.5415751E+01  2.4288809E+01
 1.5427251E+01  2.4254831E+01
 1.5438751E+01  2.4305758E+01
 1.5450251E+01  2.4333200E+01
 1.5461751E+01  2.4369606E+01
 1.5473250E+01  2.4333788E+01
 1.5484751E+01  2.4319189E+01
 1.5496251E+01  2.4333652E+01
 1.5507751E+01  2.4398911E+01
 1.5519251E+01  2.4457640E+01
 1.5530751E+01  2.4493248E+01
 1.5542251E+01  2.4442274E+01
 1.5553751E+01  2.4411734E+01
 1.5565250E+01  2.4389204E+01
 1.5576751E+01  2.4392300E+01
 1.5588251E+01  2.4346304E+01
 1.5599751E+01  2.4280605E+01
 1.5611251E+01  2.4276701E+01
 1.5622751E+01  2.4301706E+01
 1.5634251E+01  2.4327276E+01
 1.5645751E+01  2.4362652E+01
 1.5657250E+01  2.4396431E+01
 1.5668751E+01  2.4441170E+01
 1.5680251E+01  2.4423740E+01
 1.5691751E+01  2.4393513E+01
 1.5703251E+01  2.4391121E+01
 1.5714751E+01  2.4379324E+01
 1.5726251E+01  2.4369839E+01
 1.5737751E+01  2.4356592E+01
 1.5749250E+01  2.4405752E+01
 1.5760751E+01  2.4409986E+01
 1.5772251E+01  2.4405651E+01
 1.5783751E+01  2.4333197E+01
 1.5795251E+01  2.4325909E+01
 1.5806751E+01  2.4276093E+01
 1.5818251E+01  2.4235096E+01
 1.5829751E+01  2.4216003E+01
 1.5841250E+01  2.4201971E+01
 1.5852751E+01  2.4262894E+01
 1.5864251E+01  2.4262445E+01
 1.5875751E+01  2.4323025E+01
 1.5887251E+01  2.4349758E+01
 1.5898750E+01  2.4396158E+01
 1.5910251E+01  2.4429895E+01
 1.5921751E+01  2.4459238E+01
 1.5933250E+01  2.4454105E+01
 1.5944751E+01  2.4449987E+01
 1.5956251E+01  2.4483406E+01
 1.5967751E+01  2.4503881E+01
 1.5979251E+01  2.4505301E+01
 1.5990750E+01  2.4525995E+01
 1.6002251E+01  2.4527061E+01
 1.6013750E+01  2.4522017E+01
 1.6025251E+01  2.4497147E+01
 1.6036751E+01  2.4507303E+01
 1.6048250E+01  2.4515762E+01
 1.6059752E+01  2.4498295E+01
 1.6071251E+01  2.4426817E+01
 1.6082750E+01  2.4412268E+01
 1.6094252E+01  2.4418989E+01
 1.6105751E+01  2.4476879E+01
 1.6117250E+01  2.4483932E+01
 1.6128750E+01  2.4433722E+01
 1.6140251E+01  2.4460781E+01
 1.6151751E+01  2.4456322E+01
 1.6163250E+01  2.4535749E+01
 1.6174751E+01  2.4524752E+01
 1.6186251E+01  2.4602598E+01
 1.6197750E+01  2.4525522E+01
 1.6209251E+01  2.4661764E+01
 1.6220751E+01  2.4668100E+01
 1.6232250E+01  2.4846861E+01
 1.6243752E+01  2.4906967E+01
 1.6255251E+01  2.4991951E+01
 1.6266750E+01  2.5099825E+01
 1.6278252E+01  2.5001154E+01
 1.6289751E+01  2.5119949E+01
 1.6301250E+01  2.4859667E+01
 1.6312750E+01  2.4944914E+01
 1.6324251E+01  2.4720274E+01
 1.6335751E+01  2.4730225E+01
 1.6347250E+01  2.4547613E+01
 1.6358751E+01  2.4470503E+01
 1.6370251E+01  2.4422178E+01
 1.6381750E+01  2.4441496E+01
 1.6393251E+01  2.4477146E+01
 1.6404751E+01  2.4522509E+01
 1.6416250E+01  2.4542540E+01
 1.6427752E+01  2.4542042E+01
 1.6439251E+01  2.4482731E+01
 1.6450750E+01  2.4423815E+01
 1.6462252E+01  2.4392427E+01
 1.6473751E+01  2.4420835E+01
 1.6485250E+01  2.4465509E+01
 1.6496750E+01  2.4479620E+01
 1.6508251E+01  2.4418270E+01
 1.6519751E+01  2.4392534E+01
 1.6531250E+01  2.4354546E+01
 1.6542751E+01  2.4385584E+01
 1.6554251E+01  2.4399881E+01
 1.6565750E+01  2.4449268E+01
 1.6577251E+01  2.4496712E+01
 1.6588751E+01  2.4505789E+01
 1.6600250E+01  2.4466244E+01
 1.6611752E+01  2.4433666E+01
 1.6623251E+01  2.4360283E+01
 1.6634750E+01  2.4313339E+01
 1.6646252E+01  2.4240868E+01
 1.6657751E+01  2.4228279E+01
 1.6669250E+01  2.4208082E+01
 1.6680750E+01  2.4214260E+01
 1.6692251E+01  2.4240341E+01
 1.6703751E+01  2.4256947E+01
 1.6715250E+01  2.4283798E+01
 1.6726751E+01  2.4257193E+01
 1.6738251E+01  2.4252302E+01
 1.6749750E+01  2.4247320E+01
 1.6761251E+01  2.4234310E+01
 1.6772751E+01  2.4272066E+01
 1.6784250E+01  2.4249384E+01
 1.6795752E+01  2.4263733E+01
 1.6807251E+01  2.4209681E+01
 1.6818750E+01  2.4176975E+01
 1.6830252E+01  2.4152313E+01
 1.6841751E+01  2.4164164E+01
 1.6853251E+01  2.4167572E+01
 1.6864750E+01  2.4184566E+01
 1.6876251E+01  2.4188196E+01
 1.6887751E+01  2.4182816E+01
 1.6899250E+01  2.4166023E+01
 1.6910751E+01  2.4145182E+01
 1.6922251E+01  2.4158356E+01
 1.6933750E+01  2.4159208E+01
 1.6945251E+01  2.4170269E+01
 1.6956751E+01  2.4143974E+01
 1.6968250E+01  2.4115955E+01
 1.6979752E+01  2.4110147E+01
 1.6991251E+01  2.4120007E+01
 1.7002750E+01  2.4129412E+01
 1.7014252E+01  2.4113424E+01
 1.7025751E+01  2.4077309E+01
 1.7037251E+01  2.4065884E+01
 1.7048750E+01  2.4054438E+01
 1.7060251E+01  2.4063517E+01
 1.7071751E+01  2.4043858E+01
 1.7083250E+01  2.4061068E+01
 1.7094751E+01  2.4034555E+01
 1.7106251E+01  2.4036947E+01
 1.7117750E+01  2.3984901E+01
 1.7129251E+01  2.4051357E+01
 1.7140751E+01  2.4029320E+01
 1.7152250E+01  2.4046501E+01
 1.7163752E+01  2.3960335E+01
 1.7175251E+01  2.3990324E+01
 1.7186750E+01  2.4011700E+01
 1.7198252E+01  2.4027292E+01
 1.7209751E+01  2.3991249E+01
 1.7221251E+01  2.3933172E+01
 1.7232750E+01  2.3927361E+01
 1.7244251E+01  2.3894274E+01
 1.7255751E+01  2.3851959E+01
 1.7267250E+01  2.3837681E+01
 1.7278751E+01  2.3862143E+01
 1.7290251E+01  2.3883432E+01
 1.7301750E+01  2.3928061E+01
 1.7313251E+01  2.3913130E+01
 1.7324751E+01  2.3942833E+01
 1.7336250E+01  2.3945942E+01
 1.7347752E+01  2.3931910E+01
 1.7359251E+01  2.3880003E+01
 1.7370750E+01  2.3832329E+01
 1.7382252E+01  2.3782835E+01
 1.7393751E+01  2.3749472E+01
 1.7405251E+01  2.3716295E+01
 1.7416750E+01  2.3714897E+01
 1.7428251E+01  2.3689047E+01
 1.7439751E+01  2.3707594E+01
 1.7451250E+01  2.3713001E+01
 1.7462751E+01  2.3720991E+01
 1.7474251E+01  2.3765244E+01
 1.7485750E+01  2.3814173E+01
 1.7497252E+01  2.3810707E+01
 1.7508751E+01  2.3741537E+01
 1.7520250E+01  2.3684399E+01
 1.7531752E+01  2.3632652E+01
 1.7543251E+01  2.3632414E+01
 1.7554750E+01  2.3628475E+01
 1.7566252E+01  2.3611345E+01
 1.7577751E+01  2.3571066E+01
 1.7589251E+01  2.3510675E+01
 1.7600750E+01  2.3521460E+01
 1.7612251E+01  2.3577160E+01
 1.7623751E+01  2.3640421E+01
 1.7635250E+01  2.3646788E+01
 1.7646751E+01  2.3597820E+01
 1.7658251E+01  2.3552887E+01
 1.7669750E+01  2.3537271E+01
 1.7681252E+01  2.3550558E+01
 1.7692751E+01  2.3570248E+01
 1.7704250E+01  2.3550814E+01
 1.7715752E+01  2.3510853E+01
 1.7727251E+01  2.3525766E+01
 1.7738750E+01  2.3540781E+01
 1.7750252E+01  2.3521524E+01
 1.7761751E+01  2.3506742E+01
 1.7773251E+01  2.3510561E+01
 1.7784750E+01  2.3539986E+01
 1.7796251E+01  2.3598976E+01
 1.7807751E+01  2.3593590E+01
 1.7819250E+01  2.3556406E+01
 1.7830751E+01  2.3486031E+01
 1.7842251E+01  2.3448200E+01
 1.7853750E+01  2.3425453E+01
 1.7865252E+01  2.3400644E+01
 1.7876751E+01  2.3443041E+01
 1.7888250E+01  2.3497612E+01
 1.7899752E+01  2.3573643E+01
 1.7911251E+01  2.3609472E+01
 1.7922750E+01  2.3572062E+01
 1.7934252E+01  2.3520790E+01
 1.7945751E+01  2.3479715E+01
 1.7957251E+01  2.3456184E+01
 1.7968750E+01  2.3414030E+01
 1.7980251E+01  2.3450193E+01
 1.7991751E+01  2.3506758E+01
 1.8003250E+01  2.3642990E+01
 1.8014751E+01  2.3693096E+01
 1.8026251E+01  2.3721687E+01
 1.8037750E+01  2.3692089E+01
 1.8049252E+01  2.3694321E+01
 1.8060751E+01  2.3712971E+01
 1.8072250E+01  2.3671049E+01
 1.8083752E+01  2.3653868E+01
 1.8095251E+01  2.3617205E+01
 1.8106750E+01  2.3599749E+01
 1.8118252E+01  2.3585569E+01
 1.8129751E+01  2.3575094E+01
 1.8141251E+01  2.3581902E+01
 1.8152750E+01  2.3542463E+01
 1.8164251E+01  2.3526440E+01
 1.8175751E+01  2.3434473E+01
 1.8187250E+01  2.3335785E+01
 1.8198751E+01  2.3251383E+01
 1.8210251E+01  2.3288412E+01
 1.8221750E+01  2.3302744E+01
 1.8233252E+01  2.3346052E+01
 1.8244751E+01  2.3388391E+01
 1.8256250E+01  2.3453436E+01
 1.8267752E+01  2.3389372E+01
 1.8279251E+01  2.3338358E+01
 1.8290751E+01  2.3293896E+01
 1.8302252E+01  2.3303869E+01
 1.8313751E+01  2.3261593E+01
 1.8325251E+01  2.3256376E+01
 1.8336750E+01  2.3309637E+01
 1.8348251E+01  2.3332209E+01
 1.8359751E+01  2.3352732E+01
 1.8371250E+01  2.3308430E+01
 1.8382751E+01  2.3337162E+01
 1.8394251E+01  2.3338686E+01
 1.8405750E+01  2.3387001E+01
 1.8417252E+01  2.3377771E+01
 1.8428751E+01  2.3365343E+01
 1.8440250E+01  2.3298948E+01
 1.8451752E+01  2.3283979E+01
 1.8463251E+01  2.3287329E+01
 1.8474751E+01  2.3311386E+01
 1.8486252E+01  2.3388550E+01
 1.8497751E+01  2.3386253E+01
 1.8509251E+01  2.3364614E+01
 1.8520750E+01  2.3273001E+01
 1.8532251E+01  2.3251757E+01
 1.8543751E+01  2.3206417E+01
 1.8555250E+01  2.3199863E+01
 1.8566751E+01  2.3190111E+01
 1.8578251E+01  2.3225924E+01
 1.8589750E+01  2.3252007E+01
 1.8601252E+01  2.3296007E+01
 1.8612751E+01  2.3288834E+01
 1.8624250E+01  2.3264694E+01
 1.8635752E+01  2.3272358E+01
 1.8647251E+01  2.3261627E+01
 1.8658751E+01  2.3233906E+01
 1.8670252E+01  2.3200706E+01
 1.8681751E+01  2.3214323E+01
 1.8693251E+01  2.3224642E+01
 1.8704750E+01  2.3219704E+01
 1.8716251E+01  2.3204063E+01
 1.8727751E+01  2.3173952E+01
 1.8739250E+01  2.3153194E+01
 1.8750751E+01  2.3133888E+01
 1.8762251E+01  2.3122210E+01
 1.8773750E+01  2.3104504E+01
 1.8785252E+01  2.3144974E+01
 1.8796751E+01  2.3236170E+01
 1.8808250E+01  2.3248129E+01
 1.8819752E+01  2.3238651E+01
 1.8831251E+01  2.3197395E+01
 1.8842751E+01  2.3218651E+01
 1.8854252E+01  2.3213108E+01
 1.8865751E+01  2.3193686E+01
 1.8877251E+01  2.3152613E+01
 1.8888750E+01  2.3170429E+01
 1.8900251E+01  2.3165264E+01
 1.8911751E+01  2.3217806E+01
 1.8923250E+01  2.3275488E+01
 1.8934752E+01  2.3369394E+01
 1.8946251E+01  2.3429585E+01
 1.8957750E+01  2.3435875E+01
 1.8969252E+01  2.3348671E+01
 1.8980751E+01  2.3258108E+01
 1.8992250E+01  2.3166567E+01
 1.9003752E+01  2.3187212E+01
 1.9015251E+01  2.3241848E+01
 1.9026751E+01  2.3343109E+01
 1.9038252E+01  2.3376823E+01
 1.9049751E+01  2.3373949E+01
 1.9061251E+01  2.3361824E+01
 1.9072750E+01  2.3409197E+01
 1.9084251E+01  2.3417637E+01
 1.9095751E+01  2.3397535E+01
 1.9107250E+01  2.3343094E+01
 1.9118752E+01  2.3332350E+01
 1.9130251E+01  2.3359093E+01
 1.9141750E+01  2.3359241E+01
 1.9153252E+01  2.3347448E+01
 1.9164751E+01  2.3275528E+01
 1.9176250E+01  2.3202763E+01
 1.9187752E+01  2.3242542E+01
 1.9199251E+01  2.3271811E+01
 1.9210751E+01  2.3351591E+01
 1.9222252E+01  2.3361536E+01
 1.9233751E+01  2.3414244E+01
 1.9245251E+01  2.3425863E+01
 1.9256750E+01  2.3431767E+01
 1.9268251E+01  2.3417492E+01
 1.9279751E+01  2.3363033E+01
 1.9291250E+01  2.3333342E+01
 1.9302752E+01  2.3341452E+01
 1.9314251E+01  2.3317099E+01
 1.9325750E+01  2.3300249E+01
 1.9337252E+01  2.3319056E+01
 1.9348751E+01  2.3303524E+01
 1.9360250E+01  2.3253967E+01
 1.9371752E+01  2.3234335E+01
 1.9383251E+01  2.3247562E+01
 1.9394751E+01  2.3315483E+01
 1.9406250E+01  2.3293846E+01
 1.9417751E+01  2.3294634E+01
 1.9429251E+01  2.3295361E+01
 1.9440750E+01  2.3304003E+01
 1.9452251E+01  2.3320431E+01
 1.9463751E+01  2.3333790E+01
 1.9475250E+01  2.3354630E+01
 1.9486752E+01  2.3355860E+01
 1.9498251E+01  2.3336220E+01
 1.9509750E+01  2.3365711E+01
 1.9521252E+01  2.3375437E+01
 1.9532751E+01  2.3409391E+01
 1.9544250E+01  2.3406450E+01
 1.9555752E+01  2.3362474E+01
 1.9567251E+01  2.3292030E+01
 1.9578751E+01  2.3296078E+01
 1.9590250E+01  2.3294437E+01
 1.9601751E+01  2.3330620E+01
 1.9613251E+01  2.3343473E+01
 1.9624750E+01  2.3405275E+01
 1.9636251E+01  2.3453564E+01
 1.9647751E+01  2.3504820E+01
 1.9659250E+01  2.3588768E+01
 1.9670752E+01  2.3628340E+01
 1.9682251E+01  2.3685007E+01
 1.9693750E+01  2.3771616E+01
 1.9705252E+01  2.3819763E+01
 1.9716751E+01  2.3855558E+01
 1.9728251E+01  2.3807476E+01
 1.9739752E+01  2.3723427E+01
 1.9751251E+01  2.3607210E+01
 1.9762751E+01  2.3566998E+01
 1.9774250E+01  2.3587236E+01
 1.9785751E+01  2.3611460E+01
 1.9797251E+01  2.3636353E+01
 1.9808750E+01  2.3634039E+01
 1.9820251E+01  2.3694544E+01
 1.9831751E+01  2.3852579E+01
 1.9843250E+01  2.3932285E+01
 1.9854752E+01  2.3997166E+01
 1.9866251E+01  2.3978104E+01
 1.9877750E+01  2.4019003E+01
 1.9889252E+01  2.3954994E+01
 1.9900751E+01  2.3942337E+01
 1.9912251E+01  2.3931280E+01
 1.9923752E+01  2.3880648E+01
 1.9935251E+01  2.3746332E+01
 1.9946751E+01  2.3601559E+01
 1.9958250E+01  2.3445402E+01
 1.9969751E+01  2.3369339E+01
 1.9981251E+01  2.3329193E+01
 1.9992750E+01  2.3377876E+01
 2.0004251E+01  2.3378441E+01
 2.0015751E+01  2.3357620E+01
 2.0027250E+01  2.3315136E+01
 2.0038752E+01  2.3325853E+01
 2.0050251E+01  2.3340303E+01
 2.0061750E+01  2.3347685E+01
 2.0073252E+01  2.3355768E+01
 2.0084751E+01  2.3366438E+01
 2.0096251E+01  2.3412743E+01
 2.0107752E+01  2.3449326E+01
 2.0119251E+01  2.3485569E+01
 2.0130751E+01  2.3469425E+01
 2.0142250E+01  2.3461546E+01
 2.0153751E+01  2.3435669E+01
 2.0165251E+01  2.3426481E+01
 2.0176750E+01  2.3403835E+01
 2.0188251E+01  2.3401667E+01
 2.0199751E+01  2.3442373E+01
 2.0211250E+01  2.3480200E+01
 2.0222752E+01  2.3546812E+01
 2.0234251E+01  2.3547407E+01
 2.0245750E+01  2.3529123E+01
 2.0257252E+01  2.3459270E+01
 2.0268751E+01  2.3446821E+01
 2.0280251E+01  2.3447060E+01
 2.0291752E+01  2.3422573E+01
 2.0303251E+01  2.3314011E+01
 2.0314751E+01  2.3266178E+01
 2.0326250E+01  2.3289953E+01
 2.0337751E+01  2.3344635E+01
 2.0349251E+01  2.3380728E+01
 2.0360750E+01  2.3399958E+01
 2.0372252E+01  2.3416351E+01
 2.0383751E+01  2.3393646E+01
 2.0395250E+01  2.3406967E+01
 2.0406752E+01  2.3415787E+01
 2.0418251E+01  2.3425816E+01
 2.0429750E+01  2.3398094E+01
 2.0441252E+01  2.3361288E+01
 2.0452751E+01  2.3332800E+01
 2.0464251E+01  2.3344702E+01
 2.0475752E+01  2.3387341E+01
 2.0487251E+01  2.3411722E+01
 2.0498751E+01  2.3441006E+01
 2.0510250E+01  2.3436577E+01
 2.0521751E+01  2.3454786E+01
 2.0533251E+01  2.3426102E+01
 2.0544750E+01  2.3439442E+01
 2.0556252E+01  2.3481670E+01
 2.0567751E+01  2.3492149E+01
 2.0579250E+01  2.3494175E+01
 2.0590752E+01  2.3495611E+01
 2.0602251E+01  2.3530714E+01
 2.0613750E+01  2.3509590E+01
 2.0625252E+01  2.3511955E+01
 2.0636751E+01  2.3524822E+01
 2.0648251E+01  2.3536036E+01
 2.0659752E+01  2.3565224E+01
 2.0671251E+01  2.3576523E+01
 2.0682751E+01  2.3600393E+01
 2.0694250E+01  2.3669271E+01
 2.0705751E+01  2.3762154E+01
 2.0717251E+01  2.3813967E+01
 2.0728750E+01  2.3833458E+01
 2.0740252E+01  2.3886351E+01
 2.0751751E+01  2.3960279E+01
 2.0763250E+01  2.4035839E+01
 2.0774752E+01  2.4012856E+01
 2.0786251E+01  2.3966700E+01
 2.0797750E+01  2.3858404E+01
 2.0809252E+01  2.3797863E+01
 2.0820751E+01  2.3715197E+01
 2.0832251E+01  2.3679398E+01
 2.0843752E+01  2.3654968E+01
 2.0855251E+01  2.3651525E+01
 2.0866751E+01  2.3629837E+01
 2.0878250E+01  2.3612720E+01
 2.0889751E+01  2.3599840E+01
 2.0901251E+01  2.3604082E+01
 2.0912750E+01  2.3580580E+01
 2.0924252E+01  2.3549568E+01
 2.0935751E+01  2.3540260E+01
 2.0947250E+01  2.3534502E+01
 2.0958752E+01  2.3481314E+01
 2.0970251E+01  2.3478476E+01
 2.0981750E+01  2.3554504E+01
 2.0993252E+01  2.3584181E+01
 2.1004751E+01  2.3597355E+01
 2.1016251E+01  2.3548010E+01
 2.1027752E+01  2.3535967E+01
 2.1039251E+01  2.3543217E+01
 2.1050751E+01  2.3499243E+01
 2.1062250E+01  2.3484146E+01
 2.1073751E+01  2.3499172E+01
 2.1085251E+01  2.3553822E+01
 2.1096750E+01  2.3540951E+01
 2.1108252E+01  2.3570902E+01
 2.1119751E+01  2.3644369E+01
 2.1131250E+01  2.3675014E+01
 2.1142752E+01  2.3657757E+01
 2.1154251E+01  2.3575441E+01
 2.1165751E+01  2.3505116E+01
 2.1177252E+01  2.3503939E+01
 2.1188751E+01  2.3534548E+01
 2.1200251E+01  2.3556152E+01
 2.1211752E+01  2.3580221E+01
 2.1223251E+01  2.3572792E+01
 2.1234751E+01  2.3594440E+01
 2.1246250E+01  2.3621183E+01
 2.1257751E+01  2.3669813E+01
 2.1269251E+01  2.3707376E+01
 2.1280750E+01  2.3710732E+01
 2.1292252E+01  2.3680363E+01
 2.1303751E+01  2.3628853E+01
 2.1315250E+01  2.3632378E+01
 2.1326752E+01  2.3659895E+01
 2.1338251E+01  2.3699408E+01
 2.1349751E+01  2.3741892E+01
 2.1361252E+01  2.3766996E+01
 2.1372751E+01  2.3776752E+01
 2.1384251E+01  2.3719595E+01
 2.1395752E+01  2.3684958E+01
 2.1407251E+01  2.3652445E+01
 2.1418751E+01  2.3631430E+01
 2.1430250E+01  2.3636858E+01
 2.1441751E+01  2.3610300E+01
 2.1453251E+01  2.3594154E+01
 2.1464750E+01  2.3564503E+01
 2.1476252E+01  2.3588263E+01
 2.1487751E+01  2.3662657E+01
 2.1499250E+01  2.3675337E+01
 2.1510752E+01  2.3665512E+01
 2.1522251E+01  2.3679457E+01
 2.1533751E+01  2.3707058E+01
 2.1545252E+01  2.3692940E+01
 2.1556751E+01  2.3698044E+01
 2.1568251E+01  2.3733297E+01
 2.1579752E+01  2.3809080E+01
 2.1591251E+01  2.3809950E+01
 2.1602751E+01  2.3833475E+01
 2.1614250E+01  2.3806025E+01
 2.1625751E+01  2.3802443E+01
 2.1637251E+01  2.3754169E+01
 2.1648750E+01  2.3775011E+01
 2.1660252E+01  2.3836025E+01
 2.1671751E+01  2.3874243E+01
 2.1683250E+01  2.3872654E+01
 2.1694752E+01  2.3885157E+01
 2.1706251E+01  2.3886415E+01
 2.1717751E+01  2.3872318E+01
 2.1729252E+01  2.3826056E+01
 2.1740751E+01  2.3842024E+01
 2.1752251E+01  2.3805304E+01
 2.1763752E+01  2.3794634E+01
 2.1775251E+01  2.3791349E+01
 2.1786751E+01  2.3876860E+01
 2.1798250E+01  2.3952902E+01
 2.1809752E+01  2.3949574E+01
 2.1821251E+01  2.3949905E+01
 2.1832750E+01  2.3946774E+01
 2.1844252E+01  2.3930195E+01
 2.1855751E+01  2.3876179E+01
 2.1867250E+01  2.3845579E+01
 2.1878752E+01  2.3834486E+01
 2.1890251E+01  2.3818447E+01
 2.1901751E+01  2.3888670E+01
 2.1913252E+01  2.3958307E+01
 2.1924751E+01  2.3991768E+01
 2.1936251E+01  2.3953255E+01
 2.1947752E+01  2.3951624E+01
 2.1959251E+01  2.3926945E+01
 2.1970751E+01  2.3939190E+01
 2.1982250E+01  2.3929232E+01
 2.1993752E+01  2.3964840E+01
 2.2005251E+01  2.4011972E+01
 2.2016750E+01  2.4060446E+01
 2.2028252E+01  2.4101032E+01
 2.2039751E+01  2.4059973E+01
 2.2051250E+01  2.4095364E+01
 2.2062752E+01  2.4058723E+01
 2.2074251E+01  2.4092461E+01
 2.2085751E+01  2.4040697E+01
 2.2097252E+01  2.3984114E+01
 2.2108751E+01  2.3948090E+01
 2.2120251E+01  2.4022243E+01
 2.2131752E+01  2.4087900E+01
 2.2143251E+01  2.4149015E+01
 2.2154751E+01  2.4169868E+01
 2.2166250E+01  2.4147039E+01
 2.2177752E+01  2.4109528E+01
 2.2189251E+01  2.4089073E+01
 2.2200750E+01  2.4086535E+01
 2.2212252E+01  2.4099810E+01
 2.2223751E+01  2.4087038E+01
 2.2235250E+01  2.4078857E+01
 2.2246752E+01  2.4101242E+01
 2.2258251E+01  2.4139446E+01
 2.2269751E+01  2.4158434E+01
 2.2281252E+01  2.4188570E+01
 2.2292751E+01  2.4224329E+01
 2.2304251E+01  2.4319794E+01
 2.2315752E+01  2.4433426E+01
 2.2327251E+01  2.4503998E+01
 2.2338751E+01  2.4506201E+01
 2.2350250E+01  2.4428823E+01
 2.2361752E+01  2.4328558E+01
 2.2373251E+01  2.4357906E+01
 2.2384750E+01  2.4336660E+01
 2.2396252E+01  2.4277269E+01
 2.2407751E+01  2.4254482E+01
 2.2419250E+01  2.4282684E+01
 2.2430752E+01  2.4352455E+01
 2.2442251E+01  2.4391912E+01
 2.2453751E+01  2.4419125E+01
 2.2465252E+01  2.4393881E+01
 2.2476751E+01  2.4366131E+01
 2.2488251E+01  2.4363487E+01
 2.2499752E+01  2.4370806E+01
 2.2511251E+01  2.4435589E+01
 2.2522751E+01  2.4498775E+01
 2.2534250E+01  2.4494135E+01
 2.2545752E+01  2.4505280E+01
 2.2557251E+01  2.4495388E+01
 2.2568750E+01  2.4509167E+01
 2.2580252E+01  2.4492937E+01
 2.2591751E+01  2.4497692E+01
 2.2603251E+01  2.4539680E+01
 2.2614752E+01  2.4602907E+01
 2.2626251E+01  2.4647209E+01
 2.2637751E+01  2.4655485E+01
 2.2649252E+01  2.4626574E+01
 2.2660751E+01  2.4623369E+01
 2.2672251E+01  2.4651941E+01
 2.2683752E+01  2.4718702E+01
 2.2695251E+01  2.4774036E+01
 2.2706751E+01  2.4809122E+01
 2.2718250E+01  2.4837809E+01
 2.2729752E+01  2.4884586E+01
 2.2741251E+01  2.4967690E+01
 2.2752750E+01  2.5011261E+01
 2.2764252E+01  2.4958200E+01
 2.2775751E+01  2.4943565E+01
 2.2787251E+01  2.4896935E+01
 2.2798752E+01  2.4915607E+01
 2.2810251E+01  2.4975094E+01
 2.2821751E+01  2.5022511E+01
 2.2833252E+01  2.5106073E+01
 2.2844751E+01  2.5146385E+01
 2.2856251E+01  2.5195704E+01
 2.2867750E+01  2.5256144E+01
 2.2879251E+01  2.5324781E+01
 2.2890751E+01  2.5418085E+01
 2.2902250E+01  2.5421974E+01
 2.2913752E+01  2.5475540E+01
 2.2925251E+01  2.5509159E+01
 2.2936750E+01  2.5582132E+01
 2.2948252E+01  2.5653393E+01
 2.2959751E+01  2.5717884E+01
 2.2971251E+01  2.5833857E+01
 2.2982752E+01  2.5908619E+01
 2.2994251E+01  2.5965811E+01
