F:\20151113_APS_34IDE\\Brian\Particle1\OCV\Data_0110.tif
2-Theta Angle (Degrees)
Intensity
       2000
 5.7500005E-03  0.0000000E+00
 1.7250001E-02  0.0000000E+00
 2.8750001E-02  0.0000000E+00
 4.0250003E-02  0.0000000E+00
 5.1750004E-02  0.0000000E+00
 6.3250005E-02  0.0000000E+00
 7.4750006E-02  0.0000000E+00
 8.6250007E-02  0.0000000E+00
 9.7750008E-02  0.0000000E+00
 1.0925001E-01  0.0000000E+00
 1.2075000E-01  0.0000000E+00
 1.3225001E-01  0.0000000E+00
 1.4375001E-01  0.0000000E+00
 1.5525001E-01  0.0000000E+00
 1.6675001E-01  0.0000000E+00
 1.7825001E-01  0.0000000E+00
 1.8975002E-01  0.0000000E+00
 2.0125002E-01  0.0000000E+00
 2.1275002E-01  0.0000000E+00
 2.2425000E-01  0.0000000E+00
 2.3575000E-01  0.0000000E+00
 2.4725001E-01  0.0000000E+00
 2.5875002E-01  0.0000000E+00
 2.7025002E-01  0.0000000E+00
 2.8175002E-01  0.0000000E+00
 2.9325002E-01  0.0000000E+00
 3.0475003E-01  0.0000000E+00
 3.1625003E-01  0.0000000E+00
 3.2775003E-01  0.0000000E+00
 3.3925003E-01  0.0000000E+00
 3.5075003E-01  0.0000000E+00
 3.6225003E-01  0.0000000E+00
 3.7375003E-01  0.0000000E+00
 3.8525003E-01  0.0000000E+00
 3.9675003E-01  0.0000000E+00
 4.0825003E-01  0.0000000E+00
 4.1975003E-01  0.0000000E+00
 4.3125004E-01  0.0000000E+00
 4.4275001E-01  0.0000000E+00
 4.5425001E-01  0.0000000E+00
 4.6575001E-01  0.0000000E+00
 4.7725001E-01  0.0000000E+00
 4.8875001E-01  0.0000000E+00
 5.0025004E-01  0.0000000E+00
 5.1175004E-01  0.0000000E+00
 5.2325004E-01  0.0000000E+00
 5.3475004E-01  0.0000000E+00
 5.4625005E-01  0.0000000E+00
 5.5775005E-01  0.0000000E+00
 5.6925005E-01  0.0000000E+00
 5.8075005E-01  0.0000000E+00
 5.9225005E-01  0.0000000E+00
 6.0375005E-01  0.0000000E+00
 6.1525005E-01  0.0000000E+00
 6.2675005E-01  0.0000000E+00
 6.3825005E-01  0.0000000E+00
 6.4975005E-01  0.0000000E+00
 6.6125005E-01  0.0000000E+00
 6.7275006E-01  0.0000000E+00
 6.8425006E-01  0.0000000E+00
 6.9575006E-01  0.0000000E+00
 7.0725006E-01  0.0000000E+00
 7.1875006E-01  0.0000000E+00
 7.3025006E-01  0.0000000E+00
 7.4175006E-01  0.0000000E+00
 7.5325006E-01  0.0000000E+00
 7.6475006E-01  0.0000000E+00
 7.7625006E-01  0.0000000E+00
 7.8775007E-01  0.0000000E+00
 7.9925007E-01  0.0000000E+00
 8.1075007E-01  0.0000000E+00
 8.2225007E-01  0.0000000E+00
 8.3375007E-01  0.0000000E+00
 8.4525007E-01  0.0000000E+00
 8.5675007E-01  0.0000000E+00
 8.6825007E-01  0.0000000E+00
 8.7975001E-01  0.0000000E+00
 8.9125001E-01  0.0000000E+00
 9.0275002E-01  0.0000000E+00
 9.1425002E-01  0.0000000E+00
 9.2575002E-01  0.0000000E+00
 9.3725002E-01  0.0000000E+00
 9.4875002E-01  0.0000000E+00
 9.6025002E-01  0.0000000E+00
 9.7175002E-01  0.0000000E+00
 9.8325002E-01  0.0000000E+00
 9.9475002E-01  0.0000000E+00
 1.0062500E+00  0.0000000E+00
 1.0177500E+00  0.0000000E+00
 1.0292500E+00  0.0000000E+00
 1.0407500E+00  0.0000000E+00
 1.0522500E+00  0.0000000E+00
 1.0637500E+00  0.0000000E+00
 1.0752500E+00  0.0000000E+00
 1.0867500E+00  0.0000000E+00
 1.0982500E+00  0.0000000E+00
 1.1097500E+00  0.0000000E+00
 1.1212500E+00  0.0000000E+00
 1.1327500E+00  0.0000000E+00
 1.1442500E+00  0.0000000E+00
 1.1557500E+00  0.0000000E+00
 1.1672500E+00  0.0000000E+00
 1.1787500E+00  0.0000000E+00
 1.1902500E+00  0.0000000E+00
 1.2017500E+00  0.0000000E+00
 1.2132500E+00  0.0000000E+00
 1.2247500E+00  0.0000000E+00
 1.2362500E+00  0.0000000E+00
 1.2477500E+00  0.0000000E+00
 1.2592500E+00  0.0000000E+00
 1.2707500E+00  0.0000000E+00
 1.2822500E+00  0.0000000E+00
 1.2937500E+00  0.0000000E+00
 1.3052500E+00  0.0000000E+00
 1.3167500E+00  0.0000000E+00
 1.3282501E+00  0.0000000E+00
 1.3397501E+00  0.0000000E+00
 1.3512501E+00  0.0000000E+00
 1.3627501E+00  0.0000000E+00
 1.3742501E+00  0.0000000E+00
 1.3857501E+00  0.0000000E+00
 1.3972501E+00  0.0000000E+00
 1.4087501E+00  0.0000000E+00
 1.4202501E+00  0.0000000E+00
 1.4317501E+00  0.0000000E+00
 1.4432501E+00  0.0000000E+00
 1.4547501E+00  0.0000000E+00
 1.4662501E+00  0.0000000E+00
 1.4777501E+00  0.0000000E+00
 1.4892501E+00  0.0000000E+00
 1.5007501E+00  0.0000000E+00
 1.5122501E+00  0.0000000E+00
 1.5237501E+00  0.0000000E+00
 1.5352501E+00  0.0000000E+00
 1.5467501E+00  0.0000000E+00
 1.5582501E+00  0.0000000E+00
 1.5697501E+00  0.0000000E+00
 1.5812501E+00  0.0000000E+00
 1.5927501E+00  0.0000000E+00
 1.6042501E+00  0.0000000E+00
 1.6157501E+00  0.0000000E+00
 1.6272501E+00  0.0000000E+00
 1.6387501E+00  0.0000000E+00
 1.6502501E+00  0.0000000E+00
 1.6617501E+00  0.0000000E+00
 1.6732501E+00  0.0000000E+00
 1.6847501E+00  0.0000000E+00
 1.6962501E+00  0.0000000E+00
 1.7077501E+00  0.0000000E+00
 1.7192501E+00  0.0000000E+00
 1.7307501E+00  0.0000000E+00
 1.7422501E+00  0.0000000E+00
 1.7537501E+00  0.0000000E+00
 1.7652501E+00  0.0000000E+00
 1.7767501E+00  0.0000000E+00
 1.7882501E+00  0.0000000E+00
 1.7997501E+00  0.0000000E+00
 1.8112501E+00  0.0000000E+00
 1.8227501E+00  0.0000000E+00
 1.8342501E+00  0.0000000E+00
 1.8457501E+00  0.0000000E+00
 1.8572501E+00  0.0000000E+00
 1.8687501E+00  0.0000000E+00
 1.8802501E+00  0.0000000E+00
 1.8917501E+00  0.0000000E+00
 1.9032501E+00  0.0000000E+00
 1.9147501E+00  0.0000000E+00
 1.9262501E+00  0.0000000E+00
 1.9377501E+00  0.0000000E+00
 1.9492501E+00  0.0000000E+00
 1.9607501E+00  0.0000000E+00
 1.9722501E+00  0.0000000E+00
 1.9837501E+00  0.0000000E+00
 1.9952501E+00  0.0000000E+00
 2.0067501E+00  0.0000000E+00
 2.0182500E+00  0.0000000E+00
 2.0297501E+00  0.0000000E+00
 2.0412500E+00  0.0000000E+00
 2.0527501E+00  0.0000000E+00
 2.0642500E+00  0.0000000E+00
 2.0757501E+00  0.0000000E+00
 2.0872500E+00  0.0000000E+00
 2.0987501E+00  0.0000000E+00
 2.1102500E+00  0.0000000E+00
 2.1217501E+00  0.0000000E+00
 2.1332500E+00  0.0000000E+00
 2.1447501E+00  0.0000000E+00
 2.1562500E+00  0.0000000E+00
 2.1677501E+00  0.0000000E+00
 2.1792500E+00  0.0000000E+00
 2.1907501E+00  0.0000000E+00
 2.2022500E+00  0.0000000E+00
 2.2137501E+00  0.0000000E+00
 2.2252500E+00  0.0000000E+00
 2.2367501E+00  0.0000000E+00
 2.2482500E+00  0.0000000E+00
 2.2597501E+00  0.0000000E+00
 2.2712500E+00  0.0000000E+00
 2.2827501E+00  0.0000000E+00
 2.2942500E+00  0.0000000E+00
 2.3057501E+00  0.0000000E+00
 2.3172500E+00  0.0000000E+00
 2.3287501E+00  0.0000000E+00
 2.3402500E+00  0.0000000E+00
 2.3517501E+00  0.0000000E+00
 2.3632500E+00  0.0000000E+00
 2.3747501E+00  0.0000000E+00
 2.3862500E+00  0.0000000E+00
 2.3977501E+00  0.0000000E+00
 2.4092500E+00  0.0000000E+00
 2.4207501E+00  0.0000000E+00
 2.4322500E+00  0.0000000E+00
 2.4437501E+00  0.0000000E+00
 2.4552500E+00  0.0000000E+00
 2.4667501E+00  0.0000000E+00
 2.4782500E+00  0.0000000E+00
 2.4897501E+00  0.0000000E+00
 2.5012500E+00  0.0000000E+00
 2.5127501E+00  0.0000000E+00
 2.5242500E+00  0.0000000E+00
 2.5357502E+00  0.0000000E+00
 2.5472500E+00  0.0000000E+00
 2.5587502E+00  0.0000000E+00
 2.5702500E+00  0.0000000E+00
 2.5817502E+00  0.0000000E+00
 2.5932500E+00  0.0000000E+00
 2.6047502E+00  0.0000000E+00
 2.6162500E+00  0.0000000E+00
 2.6277502E+00  0.0000000E+00
 2.6392500E+00  0.0000000E+00
 2.6507502E+00  0.0000000E+00
 2.6622500E+00  0.0000000E+00
 2.6737502E+00  0.0000000E+00
 2.6852500E+00  0.0000000E+00
 2.6967502E+00  0.0000000E+00
 2.7082500E+00  0.0000000E+00
 2.7197502E+00  0.0000000E+00
 2.7312500E+00  0.0000000E+00
 2.7427502E+00  0.0000000E+00
 2.7542500E+00  0.0000000E+00
 2.7657502E+00  0.0000000E+00
 2.7772501E+00  0.0000000E+00
 2.7887502E+00  0.0000000E+00
 2.8002501E+00  0.0000000E+00
 2.8117502E+00  0.0000000E+00
 2.8232501E+00  3.2351707E+01
 2.8347502E+00  3.3489742E+01
 2.8462501E+00  3.3360363E+01
 2.8577502E+00  3.3650761E+01
 2.8692501E+00  3.3971897E+01
 2.8807502E+00  3.4842537E+01
 2.8922501E+00  3.5394474E+01
 2.9037502E+00  3.5745842E+01
 2.9152501E+00  3.6046253E+01
 2.9267502E+00  3.5946434E+01
 2.9382501E+00  3.5921024E+01
 2.9497502E+00  3.5499149E+01
 2.9612501E+00  3.5069885E+01
 2.9727502E+00  3.4952797E+01
 2.9842501E+00  3.4566807E+01
 2.9957502E+00  3.4641144E+01
 3.0072501E+00  3.5078945E+01
 3.0187502E+00  3.5825188E+01
 3.0302501E+00  3.6194359E+01
 3.0417502E+00  3.6074642E+01
 3.0532501E+00  3.5675018E+01
 3.0647502E+00  3.5189537E+01
 3.0762501E+00  3.4642994E+01
 3.0877502E+00  3.4530052E+01
 3.0992501E+00  3.5012573E+01
 3.1107502E+00  3.5517006E+01
 3.1222501E+00  3.5847481E+01
 3.1337502E+00  3.5962059E+01
 3.1452501E+00  3.6444054E+01
 3.1567502E+00  3.6324257E+01
 3.1682501E+00  3.6294930E+01
 3.1797502E+00  3.6006119E+01
 3.1912501E+00  3.5948437E+01
 3.2027502E+00  3.5884548E+01
 3.2142501E+00  3.5492027E+01
 3.2257502E+00  3.5580505E+01
 3.2372501E+00  3.5317638E+01
 3.2487502E+00  3.5221413E+01
 3.2602501E+00  3.5150105E+01
 3.2717502E+00  3.5068233E+01
 3.2832501E+00  3.5006115E+01
 3.2947502E+00  3.4813709E+01
 3.3062501E+00  3.4542870E+01
 3.3177502E+00  3.4383350E+01
 3.3292501E+00  3.4040825E+01
 3.3407502E+00  3.4278996E+01
 3.3522501E+00  3.4111263E+01
 3.3637502E+00  3.4386784E+01
 3.3752501E+00  3.4120770E+01
 3.3867502E+00  3.4074944E+01
 3.3982501E+00  3.4133354E+01
 3.4097502E+00  3.4285786E+01
 3.4212501E+00  3.4403824E+01
 3.4327502E+00  3.4194031E+01
 3.4442501E+00  3.3945404E+01
 3.4557502E+00  3.3811768E+01
 3.4672501E+00  3.3788033E+01
 3.4787502E+00  3.3871399E+01
 3.4902501E+00  3.4071434E+01
 3.5017502E+00  3.4234352E+01
 3.5132501E+00  3.4243046E+01
 3.5247502E+00  3.4210064E+01
 3.5362501E+00  3.4141266E+01
 3.5477502E+00  3.4008057E+01
 3.5592501E+00  3.3932285E+01
 3.5707502E+00  3.3903591E+01
 3.5822501E+00  3.3865803E+01
 3.5937502E+00  3.3968704E+01
 3.6052501E+00  3.3955849E+01
 3.6167502E+00  3.3965923E+01
 3.6282501E+00  3.3988674E+01
 3.6397502E+00  3.3862148E+01
 3.6512501E+00  3.3870552E+01
 3.6627502E+00  3.3841042E+01
 3.6742501E+00  3.3746620E+01
 3.6857502E+00  3.3743042E+01
 3.6972501E+00  3.3767483E+01
 3.7087502E+00  3.3636829E+01
 3.7202501E+00  3.3538231E+01
 3.7317502E+00  3.3309879E+01
 3.7432501E+00  3.3286068E+01
 3.7547503E+00  3.3240490E+01
 3.7662501E+00  3.3101879E+01
 3.7777503E+00  3.2937626E+01
 3.7892501E+00  3.2613838E+01
 3.8007503E+00  3.2274799E+01
 3.8122501E+00  3.2322998E+01
 3.8237503E+00  3.2354488E+01
 3.8352501E+00  3.2621269E+01
 3.8467503E+00  3.2667046E+01
 3.8582501E+00  3.2849411E+01
 3.8697503E+00  3.3112747E+01
 3.8812501E+00  3.3133366E+01
 3.8927503E+00  3.3037685E+01
 3.9042501E+00  3.2682251E+01
 3.9157503E+00  3.2420727E+01
 3.9272501E+00  3.2376125E+01
 3.9387503E+00  3.2518219E+01
 3.9502501E+00  3.2710304E+01
 3.9617503E+00  3.2756683E+01
 3.9732502E+00  3.2903133E+01
 3.9847503E+00  3.2905312E+01
 3.9962502E+00  3.3003273E+01
 4.0077500E+00  3.2980343E+01
 4.0192504E+00  3.2886803E+01
 4.0307503E+00  3.2798073E+01
 4.0422502E+00  3.2539909E+01
 4.0537500E+00  3.2419445E+01
 4.0652504E+00  3.2116043E+01
 4.0767503E+00  3.2140312E+01
 4.0882502E+00  3.2176624E+01
 4.0997500E+00  3.2304592E+01
 4.1112504E+00  3.2375935E+01
 4.1227503E+00  3.2357704E+01
 4.1342502E+00  3.2540352E+01
 4.1457500E+00  3.2579281E+01
 4.1572504E+00  3.2588470E+01
 4.1687503E+00  3.2311958E+01
 4.1802502E+00  3.2152386E+01
 4.1917500E+00  3.2116512E+01
 4.2032504E+00  3.2038330E+01
 4.2147503E+00  3.2096123E+01
 4.2262502E+00  3.2057533E+01
 4.2377501E+00  3.2223392E+01
 4.2492504E+00  3.2326298E+01
 4.2607503E+00  3.2495213E+01
 4.2722502E+00  3.2710255E+01
 4.2837501E+00  3.2804779E+01
 4.2952504E+00  3.2764450E+01
 4.3067503E+00  3.2619183E+01
 4.3182502E+00  3.2508072E+01
 4.3297501E+00  3.2328644E+01
 4.3412504E+00  3.2153702E+01
 4.3527503E+00  3.2121002E+01
 4.3642502E+00  3.2056988E+01
 4.3757501E+00  3.2092056E+01
 4.3872504E+00  3.2142971E+01
 4.3987503E+00  3.2255730E+01
 4.4102502E+00  3.2433022E+01
 4.4217501E+00  3.2337360E+01
 4.4332504E+00  3.2325016E+01
 4.4447503E+00  3.2180412E+01
 4.4562502E+00  3.2303005E+01
 4.4677501E+00  3.2316418E+01
 4.4792504E+00  3.2381096E+01
 4.4907503E+00  3.2319553E+01
 4.5022502E+00  3.2291862E+01
 4.5137501E+00  3.2321953E+01
 4.5252504E+00  3.2452015E+01
 4.5367503E+00  3.2443581E+01
 4.5482502E+00  3.2544945E+01
 4.5597501E+00  3.2520859E+01
 4.5712504E+00  3.2823586E+01
 4.5827503E+00  3.2917393E+01
 4.5942502E+00  3.3130928E+01
 4.6057501E+00  3.3005348E+01
 4.6172504E+00  3.2866726E+01
 4.6287503E+00  3.2688965E+01
 4.6402502E+00  3.2722721E+01
 4.6517501E+00  3.2898903E+01
 4.6632504E+00  3.3110352E+01
 4.6747503E+00  3.3181374E+01
 4.6862502E+00  3.3223427E+01
 4.6977501E+00  3.3118099E+01
 4.7092505E+00  3.3151424E+01
 4.7207503E+00  3.3041042E+01
 4.7322502E+00  3.2912109E+01
 4.7437501E+00  3.2750378E+01
 4.7552505E+00  3.2609234E+01
 4.7667503E+00  3.2516422E+01
 4.7782502E+00  3.2372612E+01
 4.7897501E+00  3.2307178E+01
 4.8012505E+00  3.2327679E+01
 4.8127503E+00  3.2434200E+01
 4.8242502E+00  3.2503143E+01
 4.8357501E+00  3.2563179E+01
 4.8472505E+00  3.2548618E+01
 4.8587503E+00  3.2611252E+01
 4.8702502E+00  3.2610409E+01
 4.8817501E+00  3.2766754E+01
 4.8932505E+00  3.2808384E+01
 4.9047503E+00  3.2845436E+01
 4.9162502E+00  3.2829880E+01
 4.9277501E+00  3.2697514E+01
 4.9392505E+00  3.2657372E+01
 4.9507504E+00  3.2464989E+01
 4.9622502E+00  3.2400356E+01
 4.9737501E+00  3.2513969E+01
 4.9852505E+00  3.2677357E+01
 4.9967504E+00  3.2834866E+01
 5.0082502E+00  3.2870239E+01
 5.0197501E+00  3.2902798E+01
 5.0312505E+00  3.3074551E+01
 5.0427504E+00  3.3217087E+01
 5.0542502E+00  3.3307091E+01
 5.0657501E+00  3.3446743E+01
 5.0772505E+00  3.3376938E+01
 5.0887504E+00  3.3421459E+01
 5.1002502E+00  3.3414497E+01
 5.1117501E+00  3.3505871E+01
 5.1232505E+00  3.3507389E+01
 5.1347504E+00  3.3536316E+01
 5.1462502E+00  3.3624298E+01
 5.1577501E+00  3.3734486E+01
 5.1692505E+00  3.3812981E+01
 5.1807504E+00  3.3807961E+01
 5.1922503E+00  3.3923641E+01
 5.2037501E+00  3.3847626E+01
 5.2152505E+00  3.3809746E+01
 5.2267504E+00  3.3720070E+01
 5.2382503E+00  3.3767548E+01
 5.2497501E+00  3.3821411E+01
 5.2612505E+00  3.3866978E+01
 5.2727504E+00  3.3961399E+01
 5.2842503E+00  3.4140259E+01
 5.2957501E+00  3.4226273E+01
 5.3072500E+00  3.4192345E+01
 5.3187504E+00  3.4036594E+01
 5.3302503E+00  3.3971951E+01
 5.3417501E+00  3.3944000E+01
 5.3532500E+00  3.3957699E+01
 5.3647504E+00  3.4054005E+01
 5.3762503E+00  3.4174263E+01
 5.3877501E+00  3.4377071E+01
 5.3992500E+00  3.4452579E+01
 5.4107504E+00  3.4388008E+01
 5.4222503E+00  3.4323013E+01
 5.4337502E+00  3.4157005E+01
 5.4452500E+00  3.4238953E+01
 5.4567504E+00  3.4241131E+01
 5.4682503E+00  3.4374603E+01
 5.4797502E+00  3.4469391E+01
 5.4912500E+00  3.4449780E+01
 5.5027504E+00  3.4478943E+01
 5.5142503E+00  3.4578308E+01
 5.5257502E+00  3.4700329E+01
 5.5372500E+00  3.4765812E+01
 5.5487504E+00  3.4695938E+01
 5.5602503E+00  3.4714966E+01
 5.5717502E+00  3.4755955E+01
 5.5832500E+00  3.4768276E+01
 5.5947504E+00  3.4847775E+01
 5.6062503E+00  3.4888420E+01
 5.6177502E+00  3.4964703E+01
 5.6292500E+00  3.5011364E+01
 5.6407504E+00  3.5104553E+01
 5.6522503E+00  3.5201077E+01
 5.6637502E+00  3.5363941E+01
 5.6752501E+00  3.5321457E+01
 5.6867504E+00  3.5259403E+01
 5.6982503E+00  3.5071400E+01
 5.7097502E+00  3.5040314E+01
 5.7212501E+00  3.5059925E+01
 5.7327504E+00  3.5196033E+01
 5.7442503E+00  3.5216602E+01
 5.7557502E+00  3.5319317E+01
 5.7672501E+00  3.5343056E+01
 5.7787504E+00  3.5409191E+01
 5.7902503E+00  3.5435257E+01
 5.8017502E+00  3.5429585E+01
 5.8132501E+00  3.5570175E+01
 5.8247504E+00  3.5666275E+01
 5.8362503E+00  3.5726849E+01
 5.8477502E+00  3.5796055E+01
 5.8592501E+00  3.5872379E+01
 5.8707504E+00  3.6066277E+01
 5.8822503E+00  3.6159889E+01
 5.8937502E+00  3.6308464E+01
 5.9052501E+00  3.6465160E+01
 5.9167504E+00  3.6609341E+01
 5.9282503E+00  3.6982262E+01
 5.9397502E+00  3.7372604E+01
 5.9512501E+00  3.8062195E+01
 5.9627504E+00  3.8726467E+01
 5.9742503E+00  3.9093468E+01
 5.9857502E+00  3.8981609E+01
 5.9972501E+00  3.8485016E+01
 6.0087504E+00  3.7932198E+01
 6.0202503E+00  3.7393463E+01
 6.0317502E+00  3.6908730E+01
 6.0432501E+00  3.6540058E+01
 6.0547504E+00  3.6367100E+01
 6.0662503E+00  3.6427536E+01
 6.0777502E+00  3.6524822E+01
 6.0892501E+00  3.6537193E+01
 6.1007504E+00  3.6548382E+01
 6.1122503E+00  3.6494095E+01
 6.1237502E+00  3.6573330E+01
 6.1352501E+00  3.6523315E+01
 6.1467505E+00  3.6502552E+01
 6.1582503E+00  3.6580391E+01
 6.1697502E+00  3.6674004E+01
 6.1812501E+00  3.6725769E+01
 6.1927505E+00  3.6710789E+01
 6.2042503E+00  3.6669174E+01
 6.2157502E+00  3.6709866E+01
 6.2272501E+00  3.6813637E+01
 6.2387505E+00  3.6873985E+01
 6.2502503E+00  3.6952225E+01
 6.2617502E+00  3.6981602E+01
 6.2732501E+00  3.7190506E+01
 6.2847505E+00  3.7345058E+01
 6.2962503E+00  3.7449131E+01
 6.3077502E+00  3.7491817E+01
 6.3192501E+00  3.7515461E+01
 6.3307505E+00  3.7635017E+01
 6.3422503E+00  3.7687737E+01
 6.3537502E+00  3.7800613E+01
 6.3652501E+00  3.7986549E+01
 6.3767505E+00  3.8077000E+01
 6.3882504E+00  3.8163906E+01
 6.3997502E+00  3.8115841E+01
 6.4112501E+00  3.8218185E+01
 6.4227505E+00  3.8242821E+01
 6.4342504E+00  3.8261639E+01
 6.4457502E+00  3.8304916E+01
 6.4572501E+00  3.8377537E+01
 6.4687505E+00  3.8494068E+01
 6.4802504E+00  3.8599979E+01
 6.4917502E+00  3.8709942E+01
 6.5032501E+00  3.8879955E+01
 6.5147505E+00  3.9023296E+01
 6.5262504E+00  3.9108242E+01
 6.5377502E+00  3.9215446E+01
 6.5492501E+00  3.9200256E+01
 6.5607505E+00  3.9193409E+01
 6.5722504E+00  3.9222069E+01
 6.5837502E+00  3.9329674E+01
 6.5952501E+00  3.9405128E+01
 6.6067505E+00  3.9568336E+01
 6.6182504E+00  3.9679966E+01
 6.6297503E+00  3.9811199E+01
 6.6412501E+00  3.9885254E+01
 6.6527505E+00  3.9932213E+01
 6.6642504E+00  3.9984623E+01
 6.6757503E+00  3.9930416E+01
 6.6872501E+00  3.9881393E+01
 6.6987505E+00  3.9982403E+01
 6.7102504E+00  4.0058186E+01
 6.7217503E+00  4.0214832E+01
 6.7332501E+00  4.0319065E+01
 6.7447505E+00  4.0568810E+01
 6.7562504E+00  4.0688194E+01
 6.7677503E+00  4.0815567E+01
 6.7792501E+00  4.0872112E+01
 6.7907505E+00  4.0939995E+01
 6.8022504E+00  4.0996597E+01
 6.8137503E+00  4.1082649E+01
 6.8252501E+00  4.1197254E+01
 6.8367505E+00  4.1320580E+01
 6.8482504E+00  4.1439201E+01
 6.8597503E+00  4.1544788E+01
 6.8712502E+00  4.1555611E+01
 6.8827505E+00  4.1715645E+01
 6.8942504E+00  4.1835640E+01
 6.9057503E+00  4.1976231E+01
 6.9172502E+00  4.2031555E+01
 6.9287505E+00  4.1979214E+01
 6.9402504E+00  4.2082600E+01
 6.9517503E+00  4.2019947E+01
 6.9632502E+00  4.2180836E+01
 6.9747505E+00  4.2301506E+01
 6.9862504E+00  4.2377617E+01
 6.9977503E+00  4.2338940E+01
 7.0092502E+00  4.2403976E+01
 7.0207505E+00  4.2431797E+01
 7.0322504E+00  4.2487381E+01
 7.0437503E+00  4.2498833E+01
 7.0552502E+00  4.2548603E+01
 7.0667505E+00  4.2566948E+01
 7.0782504E+00  4.2430973E+01
 7.0897503E+00  4.2553383E+01
 7.1012502E+00  4.2646584E+01
 7.1127505E+00  4.2776100E+01
 7.1242504E+00  4.2794804E+01
 7.1357503E+00  4.2864956E+01
 7.1472502E+00  4.2892262E+01
 7.1587505E+00  4.3027313E+01
 7.1702504E+00  4.3028301E+01
 7.1817503E+00  4.3095676E+01
 7.1932502E+00  4.3085571E+01
 7.2047505E+00  4.3157162E+01
 7.2162504E+00  4.3260906E+01
 7.2277503E+00  4.3203484E+01
 7.2392502E+00  4.3260300E+01
 7.2507505E+00  4.3289318E+01
 7.2622504E+00  4.3376526E+01
 7.2737503E+00  4.3409847E+01
 7.2852502E+00  4.3476242E+01
 7.2967505E+00  4.3417938E+01
 7.3082504E+00  4.3400963E+01
 7.3197503E+00  4.3367870E+01
 7.3312502E+00  4.3430904E+01
 7.3427505E+00  4.3526608E+01
 7.3542504E+00  4.3577938E+01
 7.3657503E+00  4.3719650E+01
 7.3772502E+00  4.3757271E+01
 7.3887506E+00  4.3939644E+01
 7.4002504E+00  4.4149506E+01
 7.4117503E+00  4.4427006E+01
 7.4232502E+00  4.4443295E+01
 7.4347506E+00  4.4534359E+01
 7.4462504E+00  4.4469723E+01
 7.4577503E+00  4.4448277E+01
 7.4692502E+00  4.4345959E+01
 7.4807506E+00  4.4315964E+01
 7.4922504E+00  4.4299458E+01
 7.5037503E+00  4.4306782E+01
 7.5152502E+00  4.4288288E+01
 7.5267506E+00  4.4330921E+01
 7.5382504E+00  4.4404827E+01
 7.5497503E+00  4.4403358E+01
 7.5612502E+00  4.4487141E+01
 7.5727506E+00  4.4367069E+01
 7.5842505E+00  4.4299927E+01
 7.5957503E+00  4.4176926E+01
 7.6072502E+00  4.4127636E+01
 7.6187506E+00  4.4099190E+01
 7.6302505E+00  4.4089592E+01
 7.6417503E+00  4.4109493E+01
 7.6532502E+00  4.4064388E+01
 7.6647506E+00  4.4040852E+01
 7.6762505E+00  4.3961170E+01
 7.6877503E+00  4.4029148E+01
 7.6992502E+00  4.4108669E+01
 7.7107506E+00  4.4236355E+01
 7.7222505E+00  4.4313931E+01
 7.7337503E+00  4.4242172E+01
 7.7452502E+00  4.4121323E+01
 7.7567506E+00  4.3984364E+01
 7.7682505E+00  4.3965816E+01
 7.7797503E+00  4.3972672E+01
 7.7912502E+00  4.3988014E+01
 7.8027506E+00  4.3977085E+01
 7.8142505E+00  4.3983700E+01
 7.8257504E+00  4.3961857E+01
 7.8372502E+00  4.3916103E+01
 7.8487506E+00  4.3933533E+01
 7.8602505E+00  4.3957581E+01
 7.8717504E+00  4.3896084E+01
 7.8832502E+00  4.3792656E+01
 7.8947506E+00  4.3686558E+01
 7.9062505E+00  4.3733086E+01
 7.9177504E+00  4.3731224E+01
 7.9292502E+00  4.3744549E+01
 7.9407506E+00  4.3678661E+01
 7.9522505E+00  4.3672569E+01
 7.9637504E+00  4.3638466E+01
 7.9752502E+00  4.3618969E+01
 7.9867506E+00  4.3611485E+01
 7.9982505E+00  4.3517075E+01
 8.0097504E+00  4.3439789E+01
 8.0212507E+00  4.3392784E+01
 8.0327501E+00  4.3340374E+01
 8.0442505E+00  4.3222137E+01
 8.0557508E+00  4.3080921E+01
 8.0672503E+00  4.2862659E+01
 8.0787506E+00  4.2705002E+01
 8.0902500E+00  4.2646366E+01
 8.1017504E+00  4.2641705E+01
 8.1132507E+00  4.2715313E+01
 8.1247501E+00  4.2568085E+01
 8.1362505E+00  4.2452930E+01
 8.1477509E+00  4.2271591E+01
 8.1592503E+00  4.2146515E+01
 8.1707506E+00  4.2026905E+01
 8.1822500E+00  4.1914680E+01
 8.1937504E+00  4.1872051E+01
 8.2052507E+00  4.1739697E+01
 8.2167501E+00  4.1576481E+01
 8.2282505E+00  4.1413361E+01
 8.2397509E+00  4.1360821E+01
 8.2512503E+00  4.1389660E+01
 8.2627506E+00  4.1277821E+01
 8.2742500E+00  4.1114849E+01
 8.2857504E+00  4.0818497E+01
 8.2972507E+00  4.0615036E+01
 8.3087502E+00  4.0439205E+01
 8.3202505E+00  4.0362137E+01
 8.3317509E+00  4.0229115E+01
 8.3432503E+00  4.0084278E+01
 8.3547506E+00  3.9971329E+01
 8.3662500E+00  3.9864922E+01
 8.3777504E+00  3.9728432E+01
 8.3892508E+00  3.9473370E+01
 8.4007502E+00  3.9195244E+01
 8.4122505E+00  3.8965744E+01
 8.4237509E+00  3.8790661E+01
 8.4352503E+00  3.8584476E+01
 8.4467506E+00  3.8462704E+01
 8.4582500E+00  3.8343071E+01
 8.4697504E+00  3.8346581E+01
 8.4812508E+00  3.8135315E+01
 8.4927502E+00  3.7947147E+01
 8.5042505E+00  3.7702003E+01
 8.5157509E+00  3.7533028E+01
 8.5272503E+00  3.7372414E+01
 8.5387506E+00  3.7211624E+01
 8.5502501E+00  3.7034222E+01
 8.5617504E+00  3.6826195E+01
 8.5732508E+00  3.6635754E+01
 8.5847502E+00  3.6456928E+01
 8.5962505E+00  3.6326092E+01
 8.6077509E+00  3.6152313E+01
 8.6192503E+00  3.6050083E+01
 8.6307507E+00  3.5929745E+01
 8.6422501E+00  3.5768639E+01
 8.6537504E+00  3.5540165E+01
 8.6652508E+00  3.5406517E+01
 8.6767502E+00  3.5199589E+01
 8.6882505E+00  3.5083122E+01
 8.6997509E+00  3.4862186E+01
 8.7112503E+00  3.4624874E+01
 8.7227507E+00  3.4377758E+01
 8.7342501E+00  3.4166348E+01
 8.7457504E+00  3.3973949E+01
 8.7572508E+00  3.3850151E+01
 8.7687502E+00  3.3701393E+01
 8.7802505E+00  3.3654892E+01
 8.7917500E+00  3.3482281E+01
 8.8032503E+00  3.3277493E+01
 8.8147507E+00  3.3079185E+01
 8.8262501E+00  3.2936100E+01
 8.8377504E+00  3.2797714E+01
 8.8492508E+00  3.2656303E+01
 8.8607502E+00  3.2508419E+01
 8.8722506E+00  3.2445896E+01
 8.8837500E+00  3.2317600E+01
 8.8952503E+00  3.2220196E+01
 8.9067507E+00  3.2030426E+01
 8.9182501E+00  3.1862284E+01
 8.9297504E+00  3.1680975E+01
 8.9412508E+00  3.1459484E+01
 8.9527502E+00  3.1276230E+01
 8.9642506E+00  3.1084915E+01
 8.9757500E+00  3.0958216E+01
 8.9872503E+00  3.0873529E+01
 8.9987507E+00  3.0719332E+01
 9.0102501E+00  3.0552673E+01
 9.0217505E+00  3.0397757E+01
 9.0332508E+00  3.0279455E+01
 9.0447502E+00  3.0225941E+01
 9.0562506E+00  3.0057423E+01
 9.0677500E+00  2.9995092E+01
 9.0792503E+00  2.9846502E+01
 9.0907507E+00  2.9777214E+01
 9.1022501E+00  2.9589886E+01
 9.1137505E+00  2.9493111E+01
 9.1252508E+00  2.9331245E+01
 9.1367502E+00  2.9213184E+01
 9.1482506E+00  2.9081678E+01
 9.1597500E+00  2.8971535E+01
 9.1712503E+00  2.8878138E+01
 9.1827507E+00  2.8772923E+01
 9.1942501E+00  2.8663446E+01
 9.2057505E+00  2.8542566E+01
 9.2172508E+00  2.8387243E+01
 9.2287502E+00  2.8232632E+01
 9.2402506E+00  2.8085943E+01
 9.2517500E+00  2.8005508E+01
 9.2632504E+00  2.7913765E+01
 9.2747507E+00  2.7855907E+01
 9.2862501E+00  2.7764685E+01
 9.2977505E+00  2.7739939E+01
 9.3092508E+00  2.7619184E+01
 9.3207502E+00  2.7497135E+01
 9.3322506E+00  2.7379429E+01
 9.3437500E+00  2.7245880E+01
 9.3552504E+00  2.7125687E+01
 9.3667507E+00  2.7046631E+01
 9.3782501E+00  2.7023520E+01
 9.3897505E+00  2.6952040E+01
 9.4012508E+00  2.6841358E+01
 9.4127502E+00  2.6803873E+01
 9.4242506E+00  2.6763502E+01
 9.4357500E+00  2.6759008E+01
 9.4472504E+00  2.6673717E+01
 9.4587507E+00  2.6636196E+01
 9.4702501E+00  2.6581303E+01
 9.4817505E+00  2.6500277E+01
 9.4932508E+00  2.6457745E+01
 9.5047503E+00  2.6325806E+01
 9.5162506E+00  2.6258171E+01
 9.5277500E+00  2.6099783E+01
 9.5392504E+00  2.6027164E+01
 9.5507507E+00  2.5852945E+01
 9.5622501E+00  2.5750933E+01
 9.5737505E+00  2.5596766E+01
 9.5852509E+00  2.5565891E+01
 9.5967503E+00  2.5520796E+01
 9.6082506E+00  2.5525656E+01
 9.6197500E+00  2.5511351E+01
 9.6312504E+00  2.5525616E+01
 9.6427507E+00  2.5506115E+01
 9.6542501E+00  2.5435411E+01
 9.6657505E+00  2.5360115E+01
 9.6772509E+00  2.5276781E+01
 9.6887503E+00  2.5193146E+01
 9.7002506E+00  2.5152477E+01
 9.7117500E+00  2.5136000E+01
 9.7232504E+00  2.5106508E+01
 9.7347507E+00  2.5015268E+01
 9.7462502E+00  2.4925129E+01
 9.7577505E+00  2.4806355E+01
 9.7692509E+00  2.4783581E+01
 9.7807503E+00  2.4742340E+01
 9.7922506E+00  2.4834839E+01
 9.8037500E+00  2.4833054E+01
 9.8152504E+00  2.4836292E+01
 9.8267508E+00  2.4793440E+01
 9.8382502E+00  2.4768940E+01
 9.8497505E+00  2.4740601E+01
 9.8612509E+00  2.4671806E+01
 9.8727503E+00  2.4621956E+01
 9.8842506E+00  2.4535265E+01
 9.8957500E+00  2.4548534E+01
 9.9072504E+00  2.4468426E+01
 9.9187508E+00  2.4399891E+01
 9.9302502E+00  2.4294256E+01
 9.9417505E+00  2.4233461E+01
 9.9532509E+00  2.4191145E+01
 9.9647503E+00  2.4124861E+01
 9.9762506E+00  2.4147158E+01
 9.9877501E+00  2.4119255E+01
 9.9992504E+00  2.4078907E+01
 1.0010751E+01  2.3981325E+01
 1.0022250E+01  2.3925766E+01
 1.0033751E+01  2.3930927E+01
 1.0045251E+01  2.3929977E+01
 1.0056750E+01  2.3889172E+01
 1.0068251E+01  2.3840733E+01
 1.0079750E+01  2.3749767E+01
 1.0091250E+01  2.3693880E+01
 1.0102751E+01  2.3604832E+01
 1.0114250E+01  2.3567347E+01
 1.0125751E+01  2.3591043E+01
 1.0137251E+01  2.3610449E+01
 1.0148750E+01  2.3707354E+01
 1.0160251E+01  2.3743874E+01
 1.0171750E+01  2.3757524E+01
 1.0183250E+01  2.3746540E+01
 1.0194751E+01  2.3709890E+01
 1.0206250E+01  2.3694962E+01
 1.0217751E+01  2.3617577E+01
 1.0229251E+01  2.3589106E+01
 1.0240750E+01  2.3489491E+01
 1.0252251E+01  2.3429737E+01
 1.0263750E+01  2.3307634E+01
 1.0275250E+01  2.3313036E+01
 1.0286751E+01  2.3287264E+01
 1.0298250E+01  2.3318207E+01
 1.0309751E+01  2.3363991E+01
 1.0321251E+01  2.3347610E+01
 1.0332750E+01  2.3364056E+01
 1.0344251E+01  2.3291515E+01
 1.0355750E+01  2.3234209E+01
 1.0367250E+01  2.3094278E+01
 1.0378751E+01  2.3072857E+01
 1.0390250E+01  2.3117205E+01
 1.0401751E+01  2.3242327E+01
 1.0413251E+01  2.3262991E+01
 1.0424750E+01  2.3252420E+01
 1.0436251E+01  2.3144936E+01
 1.0447750E+01  2.3100628E+01
 1.0459250E+01  2.3042444E+01
 1.0470751E+01  2.3008787E+01
 1.0482250E+01  2.2996233E+01
 1.0493751E+01  2.3021433E+01
 1.0505251E+01  2.3047775E+01
 1.0516750E+01  2.3088051E+01
 1.0528251E+01  2.3028004E+01
 1.0539750E+01  2.3052517E+01
 1.0551250E+01  2.3009321E+01
 1.0562751E+01  2.3068783E+01
 1.0574250E+01  2.2979097E+01
 1.0585751E+01  2.2890970E+01
 1.0597251E+01  2.2772449E+01
 1.0608750E+01  2.2806744E+01
 1.0620251E+01  2.2805609E+01
 1.0631750E+01  2.2843733E+01
 1.0643250E+01  2.2765942E+01
 1.0654751E+01  2.2826815E+01
 1.0666250E+01  2.2812300E+01
 1.0677751E+01  2.2845366E+01
 1.0689251E+01  2.2799536E+01
 1.0700750E+01  2.2808676E+01
 1.0712251E+01  2.2801538E+01
 1.0723750E+01  2.2798658E+01
 1.0735250E+01  2.2709042E+01
 1.0746751E+01  2.2652042E+01
 1.0758250E+01  2.2555719E+01
 1.0769751E+01  2.2553799E+01
 1.0781251E+01  2.2514648E+01
 1.0792750E+01  2.2537050E+01
 1.0804251E+01  2.2524090E+01
 1.0815750E+01  2.2542540E+01
 1.0827250E+01  2.2569601E+01
 1.0838751E+01  2.2554983E+01
 1.0850250E+01  2.2539961E+01
 1.0861751E+01  2.2520060E+01
 1.0873251E+01  2.2508261E+01
 1.0884750E+01  2.2502457E+01
 1.0896251E+01  2.2480005E+01
 1.0907750E+01  2.2503193E+01
 1.0919250E+01  2.2514503E+01
 1.0930751E+01  2.2502840E+01
 1.0942250E+01  2.2459087E+01
 1.0953751E+01  2.2437212E+01
 1.0965251E+01  2.2372091E+01
 1.0976750E+01  2.2348969E+01
 1.0988251E+01  2.2280304E+01
 1.0999750E+01  2.2265429E+01
 1.1011250E+01  2.2285143E+01
 1.1022751E+01  2.2325800E+01
 1.1034250E+01  2.2337507E+01
 1.1045751E+01  2.2299120E+01
 1.1057251E+01  2.2205450E+01
 1.1068750E+01  2.2212399E+01
 1.1080251E+01  2.2190517E+01
 1.1091750E+01  2.2255188E+01
 1.1103251E+01  2.2197575E+01
 1.1114751E+01  2.2235867E+01
 1.1126250E+01  2.2286690E+01
 1.1137751E+01  2.2325037E+01
 1.1149251E+01  2.2336996E+01
 1.1160750E+01  2.2348387E+01
 1.1172251E+01  2.2380604E+01
 1.1183750E+01  2.2339218E+01
 1.1195251E+01  2.2273829E+01
 1.1206751E+01  2.2183075E+01
 1.1218250E+01  2.2141090E+01
 1.1229751E+01  2.2109203E+01
 1.1241251E+01  2.2152758E+01
 1.1252750E+01  2.2172262E+01
 1.1264251E+01  2.2176485E+01
 1.1275750E+01  2.2175957E+01
 1.1287251E+01  2.2132643E+01
 1.1298751E+01  2.2131105E+01
 1.1310250E+01  2.2186666E+01
 1.1321751E+01  2.2221079E+01
 1.1333251E+01  2.2235088E+01
 1.1344750E+01  2.2220934E+01
 1.1356251E+01  2.2267139E+01
 1.1367750E+01  2.2348564E+01
 1.1379251E+01  2.2366823E+01
 1.1390751E+01  2.2429199E+01
 1.1402250E+01  2.2537369E+01
 1.1413751E+01  2.2553434E+01
 1.1425251E+01  2.2586571E+01
 1.1436750E+01  2.2559879E+01
 1.1448251E+01  2.2587154E+01
 1.1459750E+01  2.2602705E+01
 1.1471251E+01  2.2554380E+01
 1.1482751E+01  2.2501247E+01
 1.1494250E+01  2.2445818E+01
 1.1505751E+01  2.2384302E+01
 1.1517251E+01  2.2534721E+01
 1.1528750E+01  2.2728060E+01
 1.1540251E+01  2.3270742E+01
 1.1551750E+01  2.3765760E+01
 1.1563251E+01  2.4800499E+01
 1.1574751E+01  2.5242983E+01
 1.1586250E+01  2.6157228E+01
 1.1597751E+01  2.5674444E+01
 1.1609251E+01  2.5676361E+01
 1.1620750E+01  2.4506538E+01
 1.1632251E+01  2.4041204E+01
 1.1643750E+01  2.3144524E+01
 1.1655251E+01  2.2828888E+01
 1.1666751E+01  2.2439264E+01
 1.1678250E+01  2.2338503E+01
 1.1689751E+01  2.2220577E+01
 1.1701251E+01  2.2249851E+01
 1.1712750E+01  2.2244947E+01
 1.1724251E+01  2.2237478E+01
 1.1735750E+01  2.2227936E+01
 1.1747251E+01  2.2219416E+01
 1.1758751E+01  2.2213018E+01
 1.1770250E+01  2.2185352E+01
 1.1781751E+01  2.2155468E+01
 1.1793251E+01  2.2176407E+01
 1.1804750E+01  2.2222790E+01
 1.1816251E+01  2.2242207E+01
 1.1827750E+01  2.2250107E+01
 1.1839251E+01  2.2244320E+01
 1.1850751E+01  2.2217596E+01
 1.1862250E+01  2.2183714E+01
 1.1873751E+01  2.2141380E+01
 1.1885251E+01  2.2099064E+01
 1.1896750E+01  2.2103605E+01
 1.1908251E+01  2.2082441E+01
 1.1919750E+01  2.2164944E+01
 1.1931251E+01  2.2160812E+01
 1.1942751E+01  2.2254181E+01
 1.1954250E+01  2.2271391E+01
 1.1965751E+01  2.2354549E+01
 1.1977251E+01  2.2403099E+01
 1.1988750E+01  2.2412867E+01
 1.2000251E+01  2.2328081E+01
 1.2011750E+01  2.2295780E+01
 1.2023251E+01  2.2280540E+01
 1.2034751E+01  2.2374334E+01
 1.2046250E+01  2.2406540E+01
 1.2057751E+01  2.2471157E+01
 1.2069251E+01  2.2523272E+01
 1.2080750E+01  2.2607317E+01
 1.2092251E+01  2.2588299E+01
 1.2103750E+01  2.2620979E+01
 1.2115251E+01  2.2521082E+01
 1.2126751E+01  2.2574284E+01
 1.2138250E+01  2.2493345E+01
 1.2149751E+01  2.2460409E+01
 1.2161251E+01  2.2336065E+01
 1.2172750E+01  2.2283783E+01
 1.2184251E+01  2.2248178E+01
 1.2195750E+01  2.2252188E+01
 1.2207251E+01  2.2206694E+01
 1.2218751E+01  2.2185724E+01
 1.2230250E+01  2.2190376E+01
 1.2241751E+01  2.2178843E+01
 1.2253251E+01  2.2182999E+01
 1.2264750E+01  2.2203394E+01
 1.2276251E+01  2.2183197E+01
 1.2287750E+01  2.2206656E+01
 1.2299251E+01  2.2188555E+01
 1.2310751E+01  2.2272711E+01
 1.2322250E+01  2.2291355E+01
 1.2333751E+01  2.2322237E+01
 1.2345250E+01  2.2269032E+01
 1.2356750E+01  2.2256767E+01
 1.2368251E+01  2.2183117E+01
 1.2379750E+01  2.2197348E+01
 1.2391251E+01  2.2167738E+01
 1.2402751E+01  2.2168999E+01
 1.2414250E+01  2.2169214E+01
 1.2425751E+01  2.2193804E+01
 1.2437250E+01  2.2207981E+01
 1.2448750E+01  2.2256546E+01
 1.2460251E+01  2.2258165E+01
 1.2471750E+01  2.2331295E+01
 1.2483251E+01  2.2413506E+01
 1.2494751E+01  2.2438200E+01
 1.2506250E+01  2.2406160E+01
 1.2517751E+01  2.2349247E+01
 1.2529250E+01  2.2349760E+01
 1.2540751E+01  2.2378996E+01
 1.2552251E+01  2.2386175E+01
 1.2563750E+01  2.2437183E+01
 1.2575251E+01  2.2408098E+01
 1.2586751E+01  2.2421022E+01
 1.2598250E+01  2.2394270E+01
 1.2609751E+01  2.2424984E+01
 1.2621250E+01  2.2396029E+01
 1.2632751E+01  2.2463884E+01
 1.2644251E+01  2.2485748E+01
 1.2655750E+01  2.2570127E+01
 1.2667251E+01  2.2614264E+01
 1.2678751E+01  2.2702665E+01
 1.2690250E+01  2.2720028E+01
 1.2701751E+01  2.2696518E+01
 1.2713250E+01  2.2711437E+01
 1.2724751E+01  2.2714792E+01
 1.2736251E+01  2.2785238E+01
 1.2747750E+01  2.2807386E+01
 1.2759251E+01  2.2867619E+01
 1.2770751E+01  2.2891081E+01
 1.2782250E+01  2.2917097E+01
 1.2793751E+01  2.2878508E+01
 1.2805250E+01  2.2902637E+01
 1.2816751E+01  2.2921690E+01
 1.2828251E+01  2.3004566E+01
 1.2839750E+01  2.3008242E+01
 1.2851251E+01  2.3023142E+01
 1.2862751E+01  2.3066952E+01
 1.2874250E+01  2.3102520E+01
 1.2885751E+01  2.3125957E+01
 1.2897250E+01  2.3149672E+01
 1.2908751E+01  2.3197123E+01
 1.2920251E+01  2.3277048E+01
 1.2931750E+01  2.3416706E+01
 1.2943251E+01  2.3556404E+01
 1.2954751E+01  2.3676392E+01
 1.2966250E+01  2.3783878E+01
 1.2977751E+01  2.3855917E+01
 1.2989250E+01  2.3944330E+01
 1.3000751E+01  2.4024719E+01
 1.3012251E+01  2.4063030E+01
 1.3023750E+01  2.4055166E+01
 1.3035251E+01  2.3998981E+01
 1.3046751E+01  2.4019989E+01
 1.3058250E+01  2.4065590E+01
 1.3069751E+01  2.4069696E+01
 1.3081250E+01  2.4159609E+01
 1.3092751E+01  2.4296532E+01
 1.3104251E+01  2.4532417E+01
 1.3115750E+01  2.4678802E+01
 1.3127251E+01  2.4804104E+01
 1.3138751E+01  2.4870018E+01
 1.3150250E+01  2.4972603E+01
 1.3161751E+01  2.5021189E+01
 1.3173250E+01  2.5098719E+01
 1.3184751E+01  2.5184742E+01
 1.3196251E+01  2.5329811E+01
 1.3207750E+01  2.5530373E+01
 1.3219251E+01  2.5727331E+01
 1.3230751E+01  2.6001289E+01
 1.3242250E+01  2.6187817E+01
 1.3253751E+01  2.6304466E+01
 1.3265250E+01  2.6364422E+01
 1.3276751E+01  2.6404280E+01
 1.3288251E+01  2.6503010E+01
 1.3299750E+01  2.6597282E+01
 1.3311251E+01  2.6750925E+01
 1.3322751E+01  2.6930367E+01
 1.3334250E+01  2.7130037E+01
 1.3345751E+01  2.7312756E+01
 1.3357250E+01  2.7494137E+01
 1.3368751E+01  2.7568209E+01
 1.3380251E+01  2.7685596E+01
 1.3391750E+01  2.7771893E+01
 1.3403251E+01  2.7987846E+01
 1.3414751E+01  2.8161663E+01
 1.3426250E+01  2.8332144E+01
 1.3437751E+01  2.8441854E+01
 1.3449250E+01  2.8453100E+01
 1.3460751E+01  2.8459763E+01
 1.3472251E+01  2.8499311E+01
 1.3483750E+01  2.8642155E+01
 1.3495251E+01  2.8800032E+01
 1.3506751E+01  2.8925283E+01
 1.3518250E+01  2.8997255E+01
 1.3529751E+01  2.9027287E+01
 1.3541250E+01  2.9048643E+01
 1.3552751E+01  2.9046375E+01
 1.3564251E+01  2.9131788E+01
 1.3575750E+01  2.9158672E+01
 1.3587251E+01  2.9275290E+01
 1.3598751E+01  2.9257298E+01
 1.3610250E+01  2.9315138E+01
 1.3621751E+01  2.9335283E+01
 1.3633250E+01  2.9364250E+01
 1.3644751E+01  2.9347397E+01
 1.3656251E+01  2.9339943E+01
 1.3667750E+01  2.9386456E+01
 1.3679251E+01  2.9368601E+01
 1.3690751E+01  2.9321714E+01
 1.3702250E+01  2.9245672E+01
 1.3713751E+01  2.9188887E+01
 1.3725250E+01  2.9107082E+01
 1.3736751E+01  2.9006914E+01
 1.3748251E+01  2.8895048E+01
 1.3759750E+01  2.8837088E+01
 1.3771251E+01  2.8773001E+01
 1.3782751E+01  2.8785845E+01
 1.3794250E+01  2.8744593E+01
 1.3805751E+01  2.8724909E+01
 1.3817250E+01  2.8672554E+01
 1.3828751E+01  2.8624434E+01
 1.3840251E+01  2.8602880E+01
 1.3851750E+01  2.8548748E+01
 1.3863251E+01  2.8578381E+01
 1.3874751E+01  2.8582123E+01
 1.3886250E+01  2.8661768E+01
 1.3897751E+01  2.8801268E+01
 1.3909250E+01  2.9021000E+01
 1.3920751E+01  2.9228954E+01
 1.3932251E+01  2.9426245E+01
 1.3943750E+01  2.9509621E+01
 1.3955251E+01  2.9454521E+01
 1.3966751E+01  2.9230988E+01
 1.3978251E+01  2.8849751E+01
 1.3989751E+01  2.8484245E+01
 1.4001250E+01  2.8130692E+01
 1.4012751E+01  2.7867699E+01
 1.4024251E+01  2.7641680E+01
 1.4035750E+01  2.7426733E+01
 1.4047251E+01  2.7328766E+01
 1.4058751E+01  2.7263725E+01
 1.4070251E+01  2.7246584E+01
 1.4081751E+01  2.7169203E+01
 1.4093250E+01  2.7124813E+01
 1.4104751E+01  2.7082672E+01
 1.4116251E+01  2.7049086E+01
 1.4127750E+01  2.6987089E+01
 1.4139251E+01  2.6909357E+01
 1.4150751E+01  2.6817692E+01
 1.4162251E+01  2.6735003E+01
 1.4173751E+01  2.6601473E+01
 1.4185250E+01  2.6511278E+01
 1.4196751E+01  2.6427567E+01
 1.4208251E+01  2.6375057E+01
 1.4219750E+01  2.6328838E+01
 1.4231251E+01  2.6241541E+01
 1.4242751E+01  2.6187063E+01
 1.4254251E+01  2.6088919E+01
 1.4265751E+01  2.6062937E+01
 1.4277250E+01  2.5981350E+01
 1.4288751E+01  2.5929817E+01
 1.4300251E+01  2.5841612E+01
 1.4311750E+01  2.5783613E+01
 1.4323251E+01  2.5748577E+01
 1.4334751E+01  2.5744596E+01
 1.4346251E+01  2.5734976E+01
 1.4357751E+01  2.5763573E+01
 1.4369250E+01  2.5792801E+01
 1.4380751E+01  2.5809990E+01
 1.4392251E+01  2.5752413E+01
 1.4403750E+01  2.5663958E+01
 1.4415251E+01  2.5564447E+01
 1.4426751E+01  2.5488205E+01
 1.4438251E+01  2.5444876E+01
 1.4449751E+01  2.5427156E+01
 1.4461250E+01  2.5343397E+01
 1.4472751E+01  2.5328541E+01
 1.4484251E+01  2.5314199E+01
 1.4495750E+01  2.5368010E+01
 1.4507251E+01  2.5418934E+01
 1.4518751E+01  2.5458967E+01
 1.4530251E+01  2.5479670E+01
 1.4541751E+01  2.5414154E+01
 1.4553250E+01  2.5352510E+01
 1.4564751E+01  2.5305855E+01
 1.4576251E+01  2.5244078E+01
 1.4587750E+01  2.5201344E+01
 1.4599251E+01  2.5145208E+01
 1.4610751E+01  2.5127373E+01
 1.4622251E+01  2.5116667E+01
 1.4633751E+01  2.5027531E+01
 1.4645250E+01  2.4986607E+01
 1.4656751E+01  2.4900421E+01
 1.4668251E+01  2.4931284E+01
 1.4679750E+01  2.4946165E+01
 1.4691251E+01  2.4978918E+01
 1.4702751E+01  2.4957384E+01
 1.4714251E+01  2.4904186E+01
 1.4725751E+01  2.4877960E+01
 1.4737250E+01  2.4869791E+01
 1.4748751E+01  2.4864483E+01
 1.4760251E+01  2.4821363E+01
 1.4771750E+01  2.4810944E+01
 1.4783251E+01  2.4793575E+01
 1.4794751E+01  2.4771536E+01
 1.4806251E+01  2.4699282E+01
 1.4817751E+01  2.4619101E+01
 1.4829250E+01  2.4591646E+01
 1.4840751E+01  2.4552673E+01
 1.4852251E+01  2.4546438E+01
 1.4863750E+01  2.4531805E+01
 1.4875251E+01  2.4497087E+01
 1.4886751E+01  2.4550165E+01
 1.4898251E+01  2.4638826E+01
 1.4909751E+01  2.4778385E+01
 1.4921250E+01  2.4749508E+01
 1.4932751E+01  2.4724890E+01
 1.4944251E+01  2.4647848E+01
 1.4955750E+01  2.4661707E+01
 1.4967251E+01  2.4604063E+01
 1.4978751E+01  2.4607058E+01
 1.4990251E+01  2.4613060E+01
 1.5001751E+01  2.4652435E+01
 1.5013250E+01  2.4751461E+01
 1.5024751E+01  2.4787649E+01
 1.5036251E+01  2.4761578E+01
 1.5047750E+01  2.4705660E+01
 1.5059251E+01  2.4674229E+01
 1.5070751E+01  2.4663189E+01
 1.5082251E+01  2.4684334E+01
 1.5093751E+01  2.4697384E+01
 1.5105250E+01  2.4871992E+01
 1.5116751E+01  2.5071993E+01
 1.5128251E+01  2.5519093E+01
 1.5139750E+01  2.6135109E+01
 1.5151251E+01  2.7178978E+01
 1.5162751E+01  2.8027702E+01
 1.5174251E+01  2.8862110E+01
 1.5185751E+01  2.8939762E+01
 1.5197250E+01  2.8600983E+01
 1.5208751E+01  2.7539268E+01
 1.5220251E+01  2.6713634E+01
 1.5231750E+01  2.5869564E+01
 1.5243251E+01  2.5279942E+01
 1.5254751E+01  2.4915945E+01
 1.5266251E+01  2.4650564E+01
 1.5277751E+01  2.4566488E+01
 1.5289250E+01  2.4464756E+01
 1.5300751E+01  2.4451998E+01
 1.5312251E+01  2.4469929E+01
 1.5323750E+01  2.4453550E+01
 1.5335251E+01  2.4533228E+01
 1.5346751E+01  2.4482462E+01
 1.5358251E+01  2.4502022E+01
 1.5369751E+01  2.4418400E+01
 1.5381250E+01  2.4388136E+01
 1.5392751E+01  2.4345673E+01
 1.5404251E+01  2.4371077E+01
 1.5415751E+01  2.4419970E+01
 1.5427251E+01  2.4415846E+01
 1.5438751E+01  2.4361164E+01
 1.5450251E+01  2.4291145E+01
 1.5461751E+01  2.4280659E+01
 1.5473250E+01  2.4237701E+01
 1.5484751E+01  2.4222811E+01
 1.5496251E+01  2.4191196E+01
 1.5507751E+01  2.4196671E+01
 1.5519251E+01  2.4203800E+01
 1.5530751E+01  2.4180174E+01
 1.5542251E+01  2.4175323E+01
 1.5553751E+01  2.4116417E+01
 1.5565250E+01  2.4163015E+01
 1.5576751E+01  2.4170412E+01
 1.5588251E+01  2.4239058E+01
 1.5599751E+01  2.4195389E+01
 1.5611251E+01  2.4199465E+01
 1.5622751E+01  2.4182951E+01
 1.5634251E+01  2.4196522E+01
 1.5645751E+01  2.4209122E+01
 1.5657250E+01  2.4229387E+01
 1.5668751E+01  2.4259777E+01
 1.5680251E+01  2.4257582E+01
 1.5691751E+01  2.4293135E+01
 1.5703251E+01  2.4340366E+01
 1.5714751E+01  2.4351328E+01
 1.5726251E+01  2.4344574E+01
 1.5737751E+01  2.4303480E+01
 1.5749250E+01  2.4326357E+01
 1.5760751E+01  2.4358540E+01
 1.5772251E+01  2.4371988E+01
 1.5783751E+01  2.4296196E+01
 1.5795251E+01  2.4235426E+01
 1.5806751E+01  2.4209261E+01
 1.5818251E+01  2.4259670E+01
 1.5829751E+01  2.4272238E+01
 1.5841250E+01  2.4304085E+01
 1.5852751E+01  2.4300821E+01
 1.5864251E+01  2.4281208E+01
 1.5875751E+01  2.4312237E+01
 1.5887251E+01  2.4462538E+01
 1.5898750E+01  2.4524290E+01
 1.5910251E+01  2.4529667E+01
 1.5921751E+01  2.4372934E+01
 1.5933250E+01  2.4347147E+01
 1.5944751E+01  2.4260895E+01
 1.5956251E+01  2.4233223E+01
 1.5967751E+01  2.4221869E+01
 1.5979251E+01  2.4254028E+01
 1.5990750E+01  2.4365997E+01
 1.6002251E+01  2.4355856E+01
 1.6013750E+01  2.4397821E+01
 1.6025251E+01  2.4427242E+01
 1.6036751E+01  2.4480783E+01
 1.6048250E+01  2.4503769E+01
 1.6059752E+01  2.4497889E+01
 1.6071251E+01  2.4450766E+01
 1.6082750E+01  2.4432352E+01
 1.6094252E+01  2.4380054E+01
 1.6105751E+01  2.4479704E+01
 1.6117250E+01  2.4496960E+01
 1.6128750E+01  2.4552036E+01
 1.6140251E+01  2.4592533E+01
 1.6151751E+01  2.4596249E+01
 1.6163250E+01  2.4664553E+01
 1.6174751E+01  2.4622307E+01
 1.6186251E+01  2.4722731E+01
 1.6197750E+01  2.4646168E+01
 1.6209251E+01  2.4837509E+01
 1.6220751E+01  2.4784462E+01
 1.6232250E+01  2.4880901E+01
 1.6243752E+01  2.4844465E+01
 1.6255251E+01  2.4909353E+01
 1.6266750E+01  2.5017290E+01
 1.6278252E+01  2.4899832E+01
 1.6289751E+01  2.5003242E+01
 1.6301250E+01  2.4684895E+01
 1.6312750E+01  2.4731874E+01
 1.6324251E+01  2.4430300E+01
 1.6335751E+01  2.4482019E+01
 1.6347250E+01  2.4334394E+01
 1.6358751E+01  2.4370539E+01
 1.6370251E+01  2.4297688E+01
 1.6381750E+01  2.4353615E+01
 1.6393251E+01  2.4348181E+01
 1.6404751E+01  2.4364840E+01
 1.6416250E+01  2.4367090E+01
 1.6427752E+01  2.4391951E+01
 1.6439251E+01  2.4362841E+01
 1.6450750E+01  2.4317457E+01
 1.6462252E+01  2.4281845E+01
 1.6473751E+01  2.4252243E+01
 1.6485250E+01  2.4281126E+01
 1.6496750E+01  2.4293686E+01
 1.6508251E+01  2.4324671E+01
 1.6519751E+01  2.4306883E+01
 1.6531250E+01  2.4287218E+01
 1.6542751E+01  2.4303299E+01
 1.6554251E+01  2.4295319E+01
 1.6565750E+01  2.4311430E+01
 1.6577251E+01  2.4297167E+01
 1.6588751E+01  2.4293169E+01
 1.6600250E+01  2.4300970E+01
 1.6611752E+01  2.4331087E+01
 1.6623251E+01  2.4318851E+01
 1.6634750E+01  2.4313915E+01
 1.6646252E+01  2.4267952E+01
 1.6657751E+01  2.4256422E+01
 1.6669250E+01  2.4238585E+01
 1.6680750E+01  2.4257862E+01
 1.6692251E+01  2.4258844E+01
 1.6703751E+01  2.4232452E+01
 1.6715250E+01  2.4215714E+01
 1.6726751E+01  2.4191305E+01
 1.6738251E+01  2.4217205E+01
 1.6749750E+01  2.4266741E+01
 1.6761251E+01  2.4220167E+01
 1.6772751E+01  2.4138783E+01
 1.6784250E+01  2.4048738E+01
 1.6795752E+01  2.4053423E+01
 1.6807251E+01  2.4090162E+01
 1.6818750E+01  2.4128227E+01
 1.6830252E+01  2.4155199E+01
 1.6841751E+01  2.4148277E+01
 1.6853251E+01  2.4098661E+01
 1.6864750E+01  2.4067678E+01
 1.6876251E+01  2.4080389E+01
 1.6887751E+01  2.4087059E+01
 1.6899250E+01  2.4125860E+01
 1.6910751E+01  2.4070511E+01
 1.6922251E+01  2.4089853E+01
 1.6933750E+01  2.4047977E+01
 1.6945251E+01  2.4069248E+01
 1.6956751E+01  2.4044699E+01
 1.6968250E+01  2.4032078E+01
 1.6979752E+01  2.4059809E+01
 1.6991251E+01  2.4059929E+01
 1.7002750E+01  2.4061775E+01
 1.7014252E+01  2.4066448E+01
 1.7025751E+01  2.4056164E+01
 1.7037251E+01  2.4014435E+01
 1.7048750E+01  2.3936600E+01
 1.7060251E+01  2.3909666E+01
 1.7071751E+01  2.3915874E+01
 1.7083250E+01  2.3955530E+01
 1.7094751E+01  2.3948034E+01
 1.7106251E+01  2.3963375E+01
 1.7117750E+01  2.3935215E+01
 1.7129251E+01  2.3967947E+01
 1.7140751E+01  2.3980335E+01
 1.7152250E+01  2.3954342E+01
 1.7163752E+01  2.3900095E+01
 1.7175251E+01  2.3857031E+01
 1.7186750E+01  2.3855968E+01
 1.7198252E+01  2.3874067E+01
 1.7209751E+01  2.3868757E+01
 1.7221251E+01  2.3878277E+01
 1.7232750E+01  2.3832531E+01
 1.7244251E+01  2.3819044E+01
 1.7255751E+01  2.3734150E+01
 1.7267250E+01  2.3737967E+01
 1.7278751E+01  2.3746679E+01
 1.7290251E+01  2.3807289E+01
 1.7301750E+01  2.3821188E+01
 1.7313251E+01  2.3793543E+01
 1.7324751E+01  2.3814915E+01
 1.7336250E+01  2.3810814E+01
 1.7347752E+01  2.3803696E+01
 1.7359251E+01  2.3737480E+01
 1.7370750E+01  2.3688282E+01
 1.7382252E+01  2.3693285E+01
 1.7393751E+01  2.3700037E+01
 1.7405251E+01  2.3745365E+01
 1.7416750E+01  2.3715412E+01
 1.7428251E+01  2.3727449E+01
 1.7439751E+01  2.3688410E+01
 1.7451250E+01  2.3659651E+01
 1.7462751E+01  2.3645729E+01
 1.7474251E+01  2.3640078E+01
 1.7485750E+01  2.3685911E+01
 1.7497252E+01  2.3616854E+01
 1.7508751E+01  2.3544025E+01
 1.7520250E+01  2.3510366E+01
 1.7531752E+01  2.3504833E+01
 1.7543251E+01  2.3569027E+01
 1.7554750E+01  2.3537563E+01
 1.7566252E+01  2.3528713E+01
 1.7577751E+01  2.3452980E+01
 1.7589251E+01  2.3462032E+01
 1.7600750E+01  2.3519260E+01
 1.7612251E+01  2.3570950E+01
 1.7623751E+01  2.3618265E+01
 1.7635250E+01  2.3608675E+01
 1.7646751E+01  2.3603788E+01
 1.7658251E+01  2.3510748E+01
 1.7669750E+01  2.3494774E+01
 1.7681252E+01  2.3489208E+01
 1.7692751E+01  2.3521078E+01
 1.7704250E+01  2.3475363E+01
 1.7715752E+01  2.3461288E+01
 1.7727251E+01  2.3467026E+01
 1.7738750E+01  2.3467077E+01
 1.7750252E+01  2.3465239E+01
 1.7761751E+01  2.3467066E+01
 1.7773251E+01  2.3534184E+01
 1.7784750E+01  2.3572565E+01
 1.7796251E+01  2.3607660E+01
 1.7807751E+01  2.3543650E+01
 1.7819250E+01  2.3486103E+01
 1.7830751E+01  2.3438631E+01
 1.7842251E+01  2.3430759E+01
 1.7853750E+01  2.3469908E+01
 1.7865252E+01  2.3512877E+01
 1.7876751E+01  2.3508507E+01
 1.7888250E+01  2.3463509E+01
 1.7899752E+01  2.3453169E+01
 1.7911251E+01  2.3520700E+01
 1.7922750E+01  2.3566036E+01
 1.7934252E+01  2.3548872E+01
 1.7945751E+01  2.3568237E+01
 1.7957251E+01  2.3555815E+01
 1.7968750E+01  2.3602680E+01
 1.7980251E+01  2.3617260E+01
 1.7991751E+01  2.3710970E+01
 1.8003250E+01  2.3800669E+01
 1.8014751E+01  2.3899807E+01
 1.8026251E+01  2.4069613E+01
 1.8037750E+01  2.4378685E+01
 1.8049252E+01  2.4855192E+01
 1.8060751E+01  2.5525694E+01
 1.8072250E+01  2.6364044E+01
 1.8083752E+01  2.6826202E+01
 1.8095251E+01  2.6996426E+01
 1.8106750E+01  2.6590221E+01
 1.8118252E+01  2.5815777E+01
 1.8129751E+01  2.5026159E+01
 1.8141251E+01  2.4355288E+01
 1.8152750E+01  2.3899540E+01
 1.8164251E+01  2.3682274E+01
 1.8175751E+01  2.3578907E+01
 1.8187250E+01  2.3500359E+01
 1.8198751E+01  2.3439669E+01
 1.8210251E+01  2.3482050E+01
 1.8221750E+01  2.3508915E+01
 1.8233252E+01  2.3494761E+01
 1.8244751E+01  2.3453711E+01
 1.8256250E+01  2.3404678E+01
 1.8267752E+01  2.3384335E+01
 1.8279251E+01  2.3380177E+01
 1.8290751E+01  2.3396479E+01
 1.8302252E+01  2.3373034E+01
 1.8313751E+01  2.3329397E+01
 1.8325251E+01  2.3290398E+01
 1.8336750E+01  2.3249844E+01
 1.8348251E+01  2.3223009E+01
 1.8359751E+01  2.3269464E+01
 1.8371250E+01  2.3286015E+01
 1.8382751E+01  2.3314919E+01
 1.8394251E+01  2.3235416E+01
 1.8405750E+01  2.3165131E+01
 1.8417252E+01  2.3072163E+01
 1.8428751E+01  2.3045305E+01
 1.8440250E+01  2.3039713E+01
 1.8451752E+01  2.3079130E+01
 1.8463251E+01  2.3164286E+01
 1.8474751E+01  2.3195913E+01
 1.8486252E+01  2.3195456E+01
 1.8497751E+01  2.3197411E+01
 1.8509251E+01  2.3243158E+01
 1.8520750E+01  2.3308195E+01
 1.8532251E+01  2.3341948E+01
 1.8543751E+01  2.3373243E+01
 1.8555250E+01  2.3322311E+01
 1.8566751E+01  2.3296104E+01
 1.8578251E+01  2.3228838E+01
 1.8589750E+01  2.3277878E+01
 1.8601252E+01  2.3284641E+01
 1.8612751E+01  2.3301580E+01
 1.8624250E+01  2.3258022E+01
 1.8635752E+01  2.3258595E+01
 1.8647251E+01  2.3204382E+01
 1.8658751E+01  2.3139450E+01
 1.8670252E+01  2.3148155E+01
 1.8681751E+01  2.3164888E+01
 1.8693251E+01  2.3210459E+01
 1.8704750E+01  2.3137783E+01
 1.8716251E+01  2.3099682E+01
 1.8727751E+01  2.3046883E+01
 1.8739250E+01  2.3039776E+01
 1.8750751E+01  2.3047472E+01
 1.8762251E+01  2.3112930E+01
 1.8773750E+01  2.3153587E+01
 1.8785252E+01  2.3199589E+01
 1.8796751E+01  2.3224001E+01
 1.8808250E+01  2.3200609E+01
 1.8819752E+01  2.3202150E+01
 1.8831251E+01  2.3165701E+01
 1.8842751E+01  2.3183126E+01
 1.8854252E+01  2.3183338E+01
 1.8865751E+01  2.3197849E+01
 1.8877251E+01  2.3192493E+01
 1.8888750E+01  2.3107220E+01
 1.8900251E+01  2.3079016E+01
 1.8911751E+01  2.3086121E+01
 1.8923250E+01  2.3164030E+01
 1.8934752E+01  2.3235649E+01
 1.8946251E+01  2.3266972E+01
 1.8957750E+01  2.3260046E+01
 1.8969252E+01  2.3182552E+01
 1.8980751E+01  2.3150309E+01
 1.8992250E+01  2.3109707E+01
 1.9003752E+01  2.3134123E+01
 1.9015251E+01  2.3192427E+01
 1.9026751E+01  2.3262152E+01
 1.9038252E+01  2.3294531E+01
 1.9049751E+01  2.3238031E+01
 1.9061251E+01  2.3222202E+01
 1.9072750E+01  2.3169092E+01
 1.9084251E+01  2.3167362E+01
 1.9095751E+01  2.3117205E+01
 1.9107250E+01  2.3099546E+01
 1.9118752E+01  2.3080883E+01
 1.9130251E+01  2.3132206E+01
 1.9141750E+01  2.3176901E+01
 1.9153252E+01  2.3242414E+01
 1.9164751E+01  2.3224504E+01
 1.9176250E+01  2.3244228E+01
 1.9187752E+01  2.3255610E+01
 1.9199251E+01  2.3327772E+01
 1.9210751E+01  2.3353130E+01
 1.9222252E+01  2.3315510E+01
 1.9233751E+01  2.3226856E+01
 1.9245251E+01  2.3181763E+01
 1.9256750E+01  2.3169161E+01
 1.9268251E+01  2.3193352E+01
 1.9279751E+01  2.3176048E+01
 1.9291250E+01  2.3184654E+01
 1.9302752E+01  2.3211445E+01
 1.9314251E+01  2.3224318E+01
 1.9325750E+01  2.3189919E+01
 1.9337252E+01  2.3136730E+01
 1.9348751E+01  2.3143112E+01
 1.9360250E+01  2.3162096E+01
 1.9371752E+01  2.3213682E+01
 1.9383251E+01  2.3197960E+01
 1.9394751E+01  2.3201647E+01
 1.9406250E+01  2.3160971E+01
 1.9417751E+01  2.3174671E+01
 1.9429251E+01  2.3179079E+01
 1.9440750E+01  2.3238270E+01
 1.9452251E+01  2.3244186E+01
 1.9463751E+01  2.3225264E+01
 1.9475250E+01  2.3211304E+01
 1.9486752E+01  2.3221121E+01
 1.9498251E+01  2.3200352E+01
 1.9509750E+01  2.3192869E+01
 1.9521252E+01  2.3207657E+01
 1.9532751E+01  2.3257975E+01
 1.9544250E+01  2.3246750E+01
 1.9555752E+01  2.3222429E+01
 1.9567251E+01  2.3193037E+01
 1.9578751E+01  2.3221237E+01
 1.9590250E+01  2.3248125E+01
 1.9601751E+01  2.3281015E+01
 1.9613251E+01  2.3296228E+01
 1.9624750E+01  2.3324598E+01
 1.9636251E+01  2.3280220E+01
 1.9647751E+01  2.3268410E+01
 1.9659250E+01  2.3313402E+01
 1.9670752E+01  2.3403635E+01
 1.9682251E+01  2.3512249E+01
 1.9693750E+01  2.3619146E+01
 1.9705252E+01  2.3772894E+01
 1.9716751E+01  2.3874762E+01
 1.9728251E+01  2.3940674E+01
 1.9739752E+01  2.3950073E+01
 1.9751251E+01  2.3902678E+01
 1.9762751E+01  2.3792036E+01
 1.9774250E+01  2.3643118E+01
 1.9785751E+01  2.3584711E+01
 1.9797251E+01  2.3572554E+01
 1.9808750E+01  2.3584967E+01
 1.9820251E+01  2.3602417E+01
 1.9831751E+01  2.3631598E+01
 1.9843250E+01  2.3633131E+01
 1.9854752E+01  2.3689014E+01
 1.9866251E+01  2.3714804E+01
 1.9877750E+01  2.3712139E+01
 1.9889252E+01  2.3675632E+01
 1.9900751E+01  2.3670042E+01
 1.9912251E+01  2.3660309E+01
 1.9923752E+01  2.3537630E+01
 1.9935251E+01  2.3457602E+01
 1.9946751E+01  2.3348509E+01
 1.9958250E+01  2.3314493E+01
 1.9969751E+01  2.3313845E+01
 1.9981251E+01  2.3294706E+01
 1.9992750E+01  2.3333956E+01
 2.0004251E+01  2.3327757E+01
 2.0015751E+01  2.3373770E+01
 2.0027250E+01  2.3366282E+01
 2.0038752E+01  2.3357088E+01
 2.0050251E+01  2.3352779E+01
 2.0061750E+01  2.3271767E+01
 2.0073252E+01  2.3231256E+01
 2.0084751E+01  2.3180672E+01
 2.0096251E+01  2.3237564E+01
 2.0107752E+01  2.3267536E+01
 2.0119251E+01  2.3316071E+01
 2.0130751E+01  2.3321987E+01
 2.0142250E+01  2.3340502E+01
 2.0153751E+01  2.3329889E+01
 2.0165251E+01  2.3333677E+01
 2.0176750E+01  2.3405495E+01
 2.0188251E+01  2.3449059E+01
 2.0199751E+01  2.3509939E+01
 2.0211250E+01  2.3504618E+01
 2.0222752E+01  2.3539165E+01
 2.0234251E+01  2.3534824E+01
 2.0245750E+01  2.3511021E+01
 2.0257252E+01  2.3465965E+01
 2.0268751E+01  2.3425697E+01
 2.0280251E+01  2.3425726E+01
 2.0291752E+01  2.3413271E+01
 2.0303251E+01  2.3395557E+01
 2.0314751E+01  2.3377165E+01
 2.0326250E+01  2.3358467E+01
 2.0337751E+01  2.3382509E+01
 2.0349251E+01  2.3418636E+01
 2.0360750E+01  2.3459721E+01
 2.0372252E+01  2.3473600E+01
 2.0383751E+01  2.3467148E+01
 2.0395250E+01  2.3463850E+01
 2.0406752E+01  2.3421701E+01
 2.0418251E+01  2.3436563E+01
 2.0429750E+01  2.3440945E+01
 2.0441252E+01  2.3457836E+01
 2.0452751E+01  2.3445652E+01
 2.0464251E+01  2.3461252E+01
 2.0475752E+01  2.3476061E+01
 2.0487251E+01  2.3458353E+01
 2.0498751E+01  2.3464678E+01
 2.0510250E+01  2.3393183E+01
 2.0521751E+01  2.3396700E+01
 2.0533251E+01  2.3375938E+01
 2.0544750E+01  2.3428207E+01
 2.0556252E+01  2.3457615E+01
 2.0567751E+01  2.3471655E+01
 2.0579250E+01  2.3473963E+01
 2.0590752E+01  2.3525129E+01
 2.0602251E+01  2.3565178E+01
 2.0613750E+01  2.3535799E+01
 2.0625252E+01  2.3515842E+01
 2.0636751E+01  2.3490988E+01
 2.0648251E+01  2.3514963E+01
 2.0659752E+01  2.3517744E+01
 2.0671251E+01  2.3531090E+01
 2.0682751E+01  2.3598381E+01
 2.0694250E+01  2.3664385E+01
 2.0705751E+01  2.3789288E+01
 2.0717251E+01  2.3889004E+01
 2.0728750E+01  2.3982130E+01
 2.0740252E+01  2.4017540E+01
 2.0751751E+01  2.4032948E+01
 2.0763250E+01  2.4011395E+01
 2.0774752E+01  2.3901808E+01
 2.0786251E+01  2.3778328E+01
 2.0797750E+01  2.3705112E+01
 2.0809252E+01  2.3641033E+01
 2.0820751E+01  2.3620909E+01
 2.0832251E+01  2.3582293E+01
 2.0843752E+01  2.3583097E+01
 2.0855251E+01  2.3571745E+01
 2.0866751E+01  2.3549757E+01
 2.0878250E+01  2.3534081E+01
 2.0889751E+01  2.3527044E+01
 2.0901251E+01  2.3537844E+01
 2.0912750E+01  2.3594219E+01
 2.0924252E+01  2.3608335E+01
 2.0935751E+01  2.3664341E+01
 2.0947250E+01  2.3678732E+01
 2.0958752E+01  2.3675840E+01
 2.0970251E+01  2.3634897E+01
 2.0981750E+01  2.3557249E+01
 2.0993252E+01  2.3554316E+01
 2.1004751E+01  2.3496027E+01
 2.1016251E+01  2.3447781E+01
 2.1027752E+01  2.3421602E+01
 2.1039251E+01  2.3421190E+01
 2.1050751E+01  2.3408796E+01
 2.1062250E+01  2.3396088E+01
 2.1073751E+01  2.3495226E+01
 2.1085251E+01  2.3526108E+01
 2.1096750E+01  2.3543291E+01
 2.1108252E+01  2.3591755E+01
 2.1119751E+01  2.3673275E+01
 2.1131250E+01  2.3708372E+01
 2.1142752E+01  2.3633780E+01
 2.1154251E+01  2.3557209E+01
 2.1165751E+01  2.3547705E+01
 2.1177252E+01  2.3588820E+01
 2.1188751E+01  2.3612204E+01
 2.1200251E+01  2.3528721E+01
 2.1211752E+01  2.3499344E+01
 2.1223251E+01  2.3436991E+01
 2.1234751E+01  2.3450842E+01
 2.1246250E+01  2.3462547E+01
 2.1257751E+01  2.3523174E+01
 2.1269251E+01  2.3534828E+01
 2.1280750E+01  2.3536274E+01
 2.1292252E+01  2.3517273E+01
 2.1303751E+01  2.3511610E+01
 2.1315250E+01  2.3537992E+01
 2.1326752E+01  2.3598106E+01
 2.1338251E+01  2.3661806E+01
 2.1349751E+01  2.3701033E+01
 2.1361252E+01  2.3740938E+01
 2.1372751E+01  2.3745216E+01
 2.1384251E+01  2.3762190E+01
 2.1395752E+01  2.3733454E+01
 2.1407251E+01  2.3718742E+01
 2.1418751E+01  2.3706161E+01
 2.1430250E+01  2.3721317E+01
 2.1441751E+01  2.3651899E+01
 2.1453251E+01  2.3557407E+01
 2.1464750E+01  2.3550632E+01
 2.1476252E+01  2.3553465E+01
 2.1487751E+01  2.3629679E+01
 2.1499250E+01  2.3629490E+01
 2.1510752E+01  2.3640465E+01
 2.1522251E+01  2.3592892E+01
 2.1533751E+01  2.3583412E+01
 2.1545252E+01  2.3609905E+01
 2.1556751E+01  2.3634386E+01
 2.1568251E+01  2.3669542E+01
 2.1579752E+01  2.3711878E+01
 2.1591251E+01  2.3759880E+01
 2.1602751E+01  2.3787165E+01
 2.1614250E+01  2.3792444E+01
 2.1625751E+01  2.3823700E+01
 2.1637251E+01  2.3839634E+01
 2.1648750E+01  2.3827702E+01
 2.1660252E+01  2.3818525E+01
 2.1671751E+01  2.3779982E+01
 2.1683250E+01  2.3758406E+01
 2.1694752E+01  2.3734282E+01
 2.1706251E+01  2.3725901E+01
 2.1717751E+01  2.3730495E+01
 2.1729252E+01  2.3740618E+01
 2.1740751E+01  2.3788797E+01
 2.1752251E+01  2.3766035E+01
 2.1763752E+01  2.3786570E+01
 2.1775251E+01  2.3789547E+01
 2.1786751E+01  2.3796713E+01
 2.1798250E+01  2.3794516E+01
 2.1809752E+01  2.3814238E+01
 2.1821251E+01  2.3847876E+01
 2.1832750E+01  2.3835117E+01
 2.1844252E+01  2.3838676E+01
 2.1855751E+01  2.3887365E+01
 2.1867250E+01  2.3900530E+01
 2.1878752E+01  2.3937260E+01
 2.1890251E+01  2.3905115E+01
 2.1901751E+01  2.3890694E+01
 2.1913252E+01  2.3868027E+01
 2.1924751E+01  2.3873880E+01
 2.1936251E+01  2.3869413E+01
 2.1947752E+01  2.3843727E+01
 2.1959251E+01  2.3833673E+01
 2.1970751E+01  2.3846947E+01
 2.1982250E+01  2.3805420E+01
 2.1993752E+01  2.3809711E+01
 2.2005251E+01  2.3884935E+01
 2.2016750E+01  2.3968706E+01
 2.2028252E+01  2.3981489E+01
 2.2039751E+01  2.3874357E+01
 2.2051250E+01  2.3884886E+01
 2.2062752E+01  2.3806046E+01
 2.2074251E+01  2.3835169E+01
 2.2085751E+01  2.3793753E+01
 2.2097252E+01  2.3828991E+01
 2.2108751E+01  2.3833092E+01
 2.2120251E+01  2.3935118E+01
 2.2131752E+01  2.3975256E+01
 2.2143251E+01  2.4044178E+01
 2.2154751E+01  2.4050192E+01
 2.2166250E+01  2.4112345E+01
 2.2177752E+01  2.4072615E+01
 2.2189251E+01  2.4042810E+01
 2.2200750E+01  2.3995916E+01
 2.2212252E+01  2.4024124E+01
 2.2223751E+01  2.4018574E+01
 2.2235250E+01  2.4015377E+01
 2.2246752E+01  2.4027338E+01
 2.2258251E+01  2.4055588E+01
 2.2269751E+01  2.4078583E+01
 2.2281252E+01  2.4113810E+01
 2.2292751E+01  2.4138964E+01
 2.2304251E+01  2.4216400E+01
 2.2315752E+01  2.4258453E+01
 2.2327251E+01  2.4202766E+01
 2.2338751E+01  2.4143745E+01
 2.2350250E+01  2.4104425E+01
 2.2361752E+01  2.4088961E+01
 2.2373251E+01  2.4131981E+01
 2.2384750E+01  2.4151735E+01
 2.2396252E+01  2.4168356E+01
 2.2407751E+01  2.4166990E+01
 2.2419250E+01  2.4191223E+01
 2.2430752E+01  2.4213781E+01
 2.2442251E+01  2.4229424E+01
 2.2453751E+01  2.4274443E+01
 2.2465252E+01  2.4307716E+01
 2.2476751E+01  2.4308201E+01
 2.2488251E+01  2.4306160E+01
 2.2499752E+01  2.4347601E+01
 2.2511251E+01  2.4374935E+01
 2.2522751E+01  2.4423450E+01
 2.2534250E+01  2.4422817E+01
 2.2545752E+01  2.4467993E+01
 2.2557251E+01  2.4471584E+01
 2.2568750E+01  2.4523590E+01
 2.2580252E+01  2.4544125E+01
 2.2591751E+01  2.4576370E+01
 2.2603251E+01  2.4590874E+01
 2.2614752E+01  2.4599623E+01
 2.2626251E+01  2.4628063E+01
 2.2637751E+01  2.4605679E+01
 2.2649252E+01  2.4598757E+01
 2.2660751E+01  2.4568138E+01
 2.2672251E+01  2.4610558E+01
 2.2683752E+01  2.4663425E+01
 2.2695251E+01  2.4726261E+01
 2.2706751E+01  2.4751600E+01
 2.2718250E+01  2.4770945E+01
 2.2729752E+01  2.4784477E+01
 2.2741251E+01  2.4808737E+01
 2.2752750E+01  2.4842794E+01
 2.2764252E+01  2.4862492E+01
 2.2775751E+01  2.4888449E+01
 2.2787251E+01  2.4868256E+01
 2.2798752E+01  2.4935249E+01
 2.2810251E+01  2.4986814E+01
 2.2821751E+01  2.5022528E+01
 2.2833252E+01  2.5026234E+01
 2.2844751E+01  2.5076208E+01
 2.2856251E+01  2.5094435E+01
 2.2867750E+01  2.5147221E+01
 2.2879251E+01  2.5179888E+01
 2.2890751E+01  2.5265827E+01
 2.2902250E+01  2.5358326E+01
 2.2913752E+01  2.5482405E+01
 2.2925251E+01  2.5574780E+01
 2.2936750E+01  2.5656107E+01
 2.2948252E+01  2.5706795E+01
 2.2959751E+01  2.5699568E+01
 2.2971251E+01  2.5771959E+01
 2.2982752E+01  2.5843826E+01
 2.2994251E+01  2.5927774E+01
