F:\20151113_APS_34IDE\\Brian\Particle1\OCV\Data_0069.tif
2-Theta Angle (Degrees)
Intensity
       2000
 5.7500005E-03  0.0000000E+00
 1.7250001E-02  0.0000000E+00
 2.8750001E-02  0.0000000E+00
 4.0250003E-02  0.0000000E+00
 5.1750004E-02  0.0000000E+00
 6.3250005E-02  0.0000000E+00
 7.4750006E-02  0.0000000E+00
 8.6250007E-02  0.0000000E+00
 9.7750008E-02  0.0000000E+00
 1.0925001E-01  0.0000000E+00
 1.2075000E-01  0.0000000E+00
 1.3225001E-01  0.0000000E+00
 1.4375001E-01  0.0000000E+00
 1.5525001E-01  0.0000000E+00
 1.6675001E-01  0.0000000E+00
 1.7825001E-01  0.0000000E+00
 1.8975002E-01  0.0000000E+00
 2.0125002E-01  0.0000000E+00
 2.1275002E-01  0.0000000E+00
 2.2425000E-01  0.0000000E+00
 2.3575000E-01  0.0000000E+00
 2.4725001E-01  0.0000000E+00
 2.5875002E-01  0.0000000E+00
 2.7025002E-01  0.0000000E+00
 2.8175002E-01  0.0000000E+00
 2.9325002E-01  0.0000000E+00
 3.0475003E-01  0.0000000E+00
 3.1625003E-01  0.0000000E+00
 3.2775003E-01  0.0000000E+00
 3.3925003E-01  0.0000000E+00
 3.5075003E-01  0.0000000E+00
 3.6225003E-01  0.0000000E+00
 3.7375003E-01  0.0000000E+00
 3.8525003E-01  0.0000000E+00
 3.9675003E-01  0.0000000E+00
 4.0825003E-01  0.0000000E+00
 4.1975003E-01  0.0000000E+00
 4.3125004E-01  0.0000000E+00
 4.4275001E-01  0.0000000E+00
 4.5425001E-01  0.0000000E+00
 4.6575001E-01  0.0000000E+00
 4.7725001E-01  0.0000000E+00
 4.8875001E-01  0.0000000E+00
 5.0025004E-01  0.0000000E+00
 5.1175004E-01  0.0000000E+00
 5.2325004E-01  0.0000000E+00
 5.3475004E-01  0.0000000E+00
 5.4625005E-01  0.0000000E+00
 5.5775005E-01  0.0000000E+00
 5.6925005E-01  0.0000000E+00
 5.8075005E-01  0.0000000E+00
 5.9225005E-01  0.0000000E+00
 6.0375005E-01  0.0000000E+00
 6.1525005E-01  0.0000000E+00
 6.2675005E-01  0.0000000E+00
 6.3825005E-01  0.0000000E+00
 6.4975005E-01  0.0000000E+00
 6.6125005E-01  0.0000000E+00
 6.7275006E-01  0.0000000E+00
 6.8425006E-01  0.0000000E+00
 6.9575006E-01  0.0000000E+00
 7.0725006E-01  0.0000000E+00
 7.1875006E-01  0.0000000E+00
 7.3025006E-01  0.0000000E+00
 7.4175006E-01  0.0000000E+00
 7.5325006E-01  0.0000000E+00
 7.6475006E-01  0.0000000E+00
 7.7625006E-01  0.0000000E+00
 7.8775007E-01  0.0000000E+00
 7.9925007E-01  0.0000000E+00
 8.1075007E-01  0.0000000E+00
 8.2225007E-01  0.0000000E+00
 8.3375007E-01  0.0000000E+00
 8.4525007E-01  0.0000000E+00
 8.5675007E-01  0.0000000E+00
 8.6825007E-01  0.0000000E+00
 8.7975001E-01  0.0000000E+00
 8.9125001E-01  0.0000000E+00
 9.0275002E-01  0.0000000E+00
 9.1425002E-01  0.0000000E+00
 9.2575002E-01  0.0000000E+00
 9.3725002E-01  0.0000000E+00
 9.4875002E-01  0.0000000E+00
 9.6025002E-01  0.0000000E+00
 9.7175002E-01  0.0000000E+00
 9.8325002E-01  0.0000000E+00
 9.9475002E-01  0.0000000E+00
 1.0062500E+00  0.0000000E+00
 1.0177500E+00  0.0000000E+00
 1.0292500E+00  0.0000000E+00
 1.0407500E+00  0.0000000E+00
 1.0522500E+00  0.0000000E+00
 1.0637500E+00  0.0000000E+00
 1.0752500E+00  0.0000000E+00
 1.0867500E+00  0.0000000E+00
 1.0982500E+00  0.0000000E+00
 1.1097500E+00  0.0000000E+00
 1.1212500E+00  0.0000000E+00
 1.1327500E+00  0.0000000E+00
 1.1442500E+00  0.0000000E+00
 1.1557500E+00  0.0000000E+00
 1.1672500E+00  0.0000000E+00
 1.1787500E+00  0.0000000E+00
 1.1902500E+00  0.0000000E+00
 1.2017500E+00  0.0000000E+00
 1.2132500E+00  0.0000000E+00
 1.2247500E+00  0.0000000E+00
 1.2362500E+00  0.0000000E+00
 1.2477500E+00  0.0000000E+00
 1.2592500E+00  0.0000000E+00
 1.2707500E+00  0.0000000E+00
 1.2822500E+00  0.0000000E+00
 1.2937500E+00  0.0000000E+00
 1.3052500E+00  0.0000000E+00
 1.3167500E+00  0.0000000E+00
 1.3282501E+00  0.0000000E+00
 1.3397501E+00  0.0000000E+00
 1.3512501E+00  0.0000000E+00
 1.3627501E+00  0.0000000E+00
 1.3742501E+00  0.0000000E+00
 1.3857501E+00  0.0000000E+00
 1.3972501E+00  0.0000000E+00
 1.4087501E+00  0.0000000E+00
 1.4202501E+00  0.0000000E+00
 1.4317501E+00  0.0000000E+00
 1.4432501E+00  0.0000000E+00
 1.4547501E+00  0.0000000E+00
 1.4662501E+00  0.0000000E+00
 1.4777501E+00  0.0000000E+00
 1.4892501E+00  0.0000000E+00
 1.5007501E+00  0.0000000E+00
 1.5122501E+00  0.0000000E+00
 1.5237501E+00  0.0000000E+00
 1.5352501E+00  0.0000000E+00
 1.5467501E+00  0.0000000E+00
 1.5582501E+00  0.0000000E+00
 1.5697501E+00  0.0000000E+00
 1.5812501E+00  0.0000000E+00
 1.5927501E+00  0.0000000E+00
 1.6042501E+00  0.0000000E+00
 1.6157501E+00  0.0000000E+00
 1.6272501E+00  0.0000000E+00
 1.6387501E+00  0.0000000E+00
 1.6502501E+00  0.0000000E+00
 1.6617501E+00  0.0000000E+00
 1.6732501E+00  0.0000000E+00
 1.6847501E+00  0.0000000E+00
 1.6962501E+00  0.0000000E+00
 1.7077501E+00  0.0000000E+00
 1.7192501E+00  0.0000000E+00
 1.7307501E+00  0.0000000E+00
 1.7422501E+00  0.0000000E+00
 1.7537501E+00  0.0000000E+00
 1.7652501E+00  0.0000000E+00
 1.7767501E+00  0.0000000E+00
 1.7882501E+00  0.0000000E+00
 1.7997501E+00  0.0000000E+00
 1.8112501E+00  0.0000000E+00
 1.8227501E+00  0.0000000E+00
 1.8342501E+00  0.0000000E+00
 1.8457501E+00  0.0000000E+00
 1.8572501E+00  0.0000000E+00
 1.8687501E+00  0.0000000E+00
 1.8802501E+00  0.0000000E+00
 1.8917501E+00  0.0000000E+00
 1.9032501E+00  0.0000000E+00
 1.9147501E+00  0.0000000E+00
 1.9262501E+00  0.0000000E+00
 1.9377501E+00  0.0000000E+00
 1.9492501E+00  0.0000000E+00
 1.9607501E+00  0.0000000E+00
 1.9722501E+00  0.0000000E+00
 1.9837501E+00  0.0000000E+00
 1.9952501E+00  0.0000000E+00
 2.0067501E+00  0.0000000E+00
 2.0182500E+00  0.0000000E+00
 2.0297501E+00  0.0000000E+00
 2.0412500E+00  0.0000000E+00
 2.0527501E+00  0.0000000E+00
 2.0642500E+00  0.0000000E+00
 2.0757501E+00  0.0000000E+00
 2.0872500E+00  0.0000000E+00
 2.0987501E+00  0.0000000E+00
 2.1102500E+00  0.0000000E+00
 2.1217501E+00  0.0000000E+00
 2.1332500E+00  0.0000000E+00
 2.1447501E+00  0.0000000E+00
 2.1562500E+00  0.0000000E+00
 2.1677501E+00  0.0000000E+00
 2.1792500E+00  0.0000000E+00
 2.1907501E+00  0.0000000E+00
 2.2022500E+00  0.0000000E+00
 2.2137501E+00  0.0000000E+00
 2.2252500E+00  0.0000000E+00
 2.2367501E+00  0.0000000E+00
 2.2482500E+00  0.0000000E+00
 2.2597501E+00  0.0000000E+00
 2.2712500E+00  0.0000000E+00
 2.2827501E+00  0.0000000E+00
 2.2942500E+00  0.0000000E+00
 2.3057501E+00  0.0000000E+00
 2.3172500E+00  0.0000000E+00
 2.3287501E+00  0.0000000E+00
 2.3402500E+00  0.0000000E+00
 2.3517501E+00  0.0000000E+00
 2.3632500E+00  0.0000000E+00
 2.3747501E+00  0.0000000E+00
 2.3862500E+00  0.0000000E+00
 2.3977501E+00  0.0000000E+00
 2.4092500E+00  0.0000000E+00
 2.4207501E+00  0.0000000E+00
 2.4322500E+00  0.0000000E+00
 2.4437501E+00  0.0000000E+00
 2.4552500E+00  0.0000000E+00
 2.4667501E+00  0.0000000E+00
 2.4782500E+00  0.0000000E+00
 2.4897501E+00  0.0000000E+00
 2.5012500E+00  0.0000000E+00
 2.5127501E+00  0.0000000E+00
 2.5242500E+00  0.0000000E+00
 2.5357502E+00  0.0000000E+00
 2.5472500E+00  0.0000000E+00
 2.5587502E+00  0.0000000E+00
 2.5702500E+00  0.0000000E+00
 2.5817502E+00  0.0000000E+00
 2.5932500E+00  0.0000000E+00
 2.6047502E+00  0.0000000E+00
 2.6162500E+00  0.0000000E+00
 2.6277502E+00  0.0000000E+00
 2.6392500E+00  0.0000000E+00
 2.6507502E+00  0.0000000E+00
 2.6622500E+00  0.0000000E+00
 2.6737502E+00  0.0000000E+00
 2.6852500E+00  0.0000000E+00
 2.6967502E+00  0.0000000E+00
 2.7082500E+00  0.0000000E+00
 2.7197502E+00  0.0000000E+00
 2.7312500E+00  0.0000000E+00
 2.7427502E+00  0.0000000E+00
 2.7542500E+00  0.0000000E+00
 2.7657502E+00  0.0000000E+00
 2.7772501E+00  0.0000000E+00
 2.7887502E+00  0.0000000E+00
 2.8002501E+00  0.0000000E+00
 2.8117502E+00  0.0000000E+00
 2.8232501E+00  3.4630661E+01
 2.8347502E+00  3.2201683E+01
 2.8462501E+00  3.2357140E+01
 2.8577502E+00  3.2482418E+01
 2.8692501E+00  3.2642620E+01
 2.8807502E+00  3.3429695E+01
 2.8922501E+00  3.3946354E+01
 2.9037502E+00  3.4429909E+01
 2.9152501E+00  3.5084396E+01
 2.9267502E+00  3.4955044E+01
 2.9382501E+00  3.5055683E+01
 2.9497502E+00  3.4868160E+01
 2.9612501E+00  3.4517834E+01
 2.9727502E+00  3.4705547E+01
 2.9842501E+00  3.4775154E+01
 2.9957502E+00  3.5362549E+01
 3.0072501E+00  3.5764339E+01
 3.0187502E+00  3.5541546E+01
 3.0302501E+00  3.5529896E+01
 3.0417502E+00  3.5384544E+01
 3.0532501E+00  3.5569786E+01
 3.0647502E+00  3.5803635E+01
 3.0762501E+00  3.6127518E+01
 3.0877502E+00  3.6209583E+01
 3.0992501E+00  3.6522640E+01
 3.1107502E+00  3.6012646E+01
 3.1222501E+00  3.5884968E+01
 3.1337502E+00  3.5679371E+01
 3.1452501E+00  3.5683125E+01
 3.1567502E+00  3.5985680E+01
 3.1682501E+00  3.5888485E+01
 3.1797502E+00  3.6058765E+01
 3.1912501E+00  3.6005642E+01
 3.2027502E+00  3.5997860E+01
 3.2142501E+00  3.5635208E+01
 3.2257502E+00  3.5354679E+01
 3.2372501E+00  3.4677872E+01
 3.2487502E+00  3.4370434E+01
 3.2602501E+00  3.4503056E+01
 3.2717502E+00  3.4293488E+01
 3.2832501E+00  3.4299850E+01
 3.2947502E+00  3.4001419E+01
 3.3062501E+00  3.3847977E+01
 3.3177502E+00  3.3938023E+01
 3.3292501E+00  3.3746605E+01
 3.3407502E+00  3.3642605E+01
 3.3522501E+00  3.3634533E+01
 3.3637502E+00  3.3456089E+01
 3.3752501E+00  3.3668839E+01
 3.3867502E+00  3.3716740E+01
 3.3982501E+00  3.3972969E+01
 3.4097502E+00  3.4149414E+01
 3.4212501E+00  3.3868927E+01
 3.4327502E+00  3.3902138E+01
 3.4442501E+00  3.3771923E+01
 3.4557502E+00  3.3887337E+01
 3.4672501E+00  3.4123028E+01
 3.4787502E+00  3.4179783E+01
 3.4902501E+00  3.4273319E+01
 3.5017502E+00  3.3983505E+01
 3.5132501E+00  3.3527149E+01
 3.5247502E+00  3.3178497E+01
 3.5362501E+00  3.3005272E+01
 3.5477502E+00  3.2906002E+01
 3.5592501E+00  3.2785488E+01
 3.5707502E+00  3.2564144E+01
 3.5822501E+00  3.2642185E+01
 3.5937502E+00  3.2743805E+01
 3.6052501E+00  3.2975372E+01
 3.6167502E+00  3.3133892E+01
 3.6282501E+00  3.3006325E+01
 3.6397502E+00  3.2722336E+01
 3.6512501E+00  3.2625092E+01
 3.6627502E+00  3.2723812E+01
 3.6742501E+00  3.2729832E+01
 3.6857502E+00  3.2923874E+01
 3.6972501E+00  3.2729965E+01
 3.7087502E+00  3.2570320E+01
 3.7202501E+00  3.2164787E+01
 3.7317502E+00  3.2031487E+01
 3.7432501E+00  3.2059959E+01
 3.7547503E+00  3.2235153E+01
 3.7662501E+00  3.2295654E+01
 3.7777503E+00  3.2347698E+01
 3.7892501E+00  3.2322811E+01
 3.8007503E+00  3.2152775E+01
 3.8122501E+00  3.2285526E+01
 3.8237503E+00  3.2309689E+01
 3.8352501E+00  3.2558460E+01
 3.8467503E+00  3.2741711E+01
 3.8582501E+00  3.2858921E+01
 3.8697503E+00  3.2992741E+01
 3.8812501E+00  3.3021515E+01
 3.8927503E+00  3.2859825E+01
 3.9042501E+00  3.2605141E+01
 3.9157503E+00  3.2222706E+01
 3.9272501E+00  3.2140709E+01
 3.9387503E+00  3.2169743E+01
 3.9502501E+00  3.2403168E+01
 3.9617503E+00  3.2614342E+01
 3.9732502E+00  3.2797718E+01
 3.9847503E+00  3.3014458E+01
 3.9962502E+00  3.3021294E+01
 4.0077500E+00  3.2963215E+01
 4.0192504E+00  3.2788982E+01
 4.0307503E+00  3.2649242E+01
 4.0422502E+00  3.2662350E+01
 4.0537500E+00  3.2590534E+01
 4.0652504E+00  3.2776344E+01
 4.0767503E+00  3.2679852E+01
 4.0882502E+00  3.2679348E+01
 4.0997500E+00  3.2569416E+01
 4.1112504E+00  3.2363613E+01
 4.1227503E+00  3.2294495E+01
 4.1342502E+00  3.2188564E+01
 4.1457500E+00  3.2224514E+01
 4.1572504E+00  3.2038139E+01
 4.1687503E+00  3.1894497E+01
 4.1802502E+00  3.1621916E+01
 4.1917500E+00  3.1596380E+01
 4.2032504E+00  3.1572645E+01
 4.2147503E+00  3.1681641E+01
 4.2262502E+00  3.1656874E+01
 4.2377501E+00  3.1539446E+01
 4.2492504E+00  3.1409985E+01
 4.2607503E+00  3.1525404E+01
 4.2722502E+00  3.1561638E+01
 4.2837501E+00  3.1787664E+01
 4.2952504E+00  3.1831436E+01
 4.3067503E+00  3.1949572E+01
 4.3182502E+00  3.2137573E+01
 4.3297501E+00  3.2308659E+01
 4.3412504E+00  3.2421787E+01
 4.3527503E+00  3.2384388E+01
 4.3642502E+00  3.2242401E+01
 4.3757501E+00  3.2152775E+01
 4.3872504E+00  3.2290001E+01
 4.3987503E+00  3.2370693E+01
 4.4102502E+00  3.2401909E+01
 4.4217501E+00  3.2254250E+01
 4.4332504E+00  3.2169159E+01
 4.4447503E+00  3.2071339E+01
 4.4562502E+00  3.2049400E+01
 4.4677501E+00  3.2042435E+01
 4.4792504E+00  3.2331451E+01
 4.4907503E+00  3.2421158E+01
 4.5022502E+00  3.2622940E+01
 4.5137501E+00  3.2609043E+01
 4.5252504E+00  3.2743847E+01
 4.5367503E+00  3.2744099E+01
 4.5482502E+00  3.2905987E+01
 4.5597501E+00  3.2901680E+01
 4.5712504E+00  3.2904518E+01
 4.5827503E+00  3.2756943E+01
 4.5942502E+00  3.2734585E+01
 4.6057501E+00  3.2671341E+01
 4.6172504E+00  3.2526840E+01
 4.6287503E+00  3.2428329E+01
 4.6402502E+00  3.2388317E+01
 4.6517501E+00  3.2389763E+01
 4.6632504E+00  3.2437653E+01
 4.6747503E+00  3.2333363E+01
 4.6862502E+00  3.2337032E+01
 4.6977501E+00  3.2348301E+01
 4.7092505E+00  3.2375435E+01
 4.7207503E+00  3.2381157E+01
 4.7322502E+00  3.2201065E+01
 4.7437501E+00  3.2120068E+01
 4.7552505E+00  3.1990074E+01
 4.7667503E+00  3.2058754E+01
 4.7782502E+00  3.2033867E+01
 4.7897501E+00  3.2104225E+01
 4.8012505E+00  3.2127068E+01
 4.8127503E+00  3.2215084E+01
 4.8242502E+00  3.2319061E+01
 4.8357501E+00  3.2368328E+01
 4.8472505E+00  3.2395721E+01
 4.8587503E+00  3.2447651E+01
 4.8702502E+00  3.2426983E+01
 4.8817501E+00  3.2408604E+01
 4.8932505E+00  3.2468811E+01
 4.9047503E+00  3.2493412E+01
 4.9162502E+00  3.2684067E+01
 4.9277501E+00  3.2703342E+01
 4.9392505E+00  3.2837597E+01
 4.9507504E+00  3.2842415E+01
 4.9622502E+00  3.2881691E+01
 4.9737501E+00  3.2948124E+01
 4.9852505E+00  3.2991058E+01
 4.9967504E+00  3.3022156E+01
 5.0082502E+00  3.3185581E+01
 5.0197501E+00  3.3260826E+01
 5.0312505E+00  3.3395451E+01
 5.0427504E+00  3.3374226E+01
 5.0542502E+00  3.3396496E+01
 5.0657501E+00  3.3327995E+01
 5.0772505E+00  3.3318993E+01
 5.0887504E+00  3.3213158E+01
 5.1002502E+00  3.3197598E+01
 5.1117501E+00  3.3119534E+01
 5.1232505E+00  3.3215019E+01
 5.1347504E+00  3.3303066E+01
 5.1462502E+00  3.3409344E+01
 5.1577501E+00  3.3402534E+01
 5.1692505E+00  3.3370087E+01
 5.1807504E+00  3.3377953E+01
 5.1922503E+00  3.3502075E+01
 5.2037501E+00  3.3563595E+01
 5.2152505E+00  3.3611622E+01
 5.2267504E+00  3.3514923E+01
 5.2382503E+00  3.3641026E+01
 5.2497501E+00  3.3748489E+01
 5.2612505E+00  3.3930904E+01
 5.2727504E+00  3.3949795E+01
 5.2842503E+00  3.3955616E+01
 5.2957501E+00  3.4067177E+01
 5.3072500E+00  3.4053860E+01
 5.3187504E+00  3.4188332E+01
 5.3302503E+00  3.4225826E+01
 5.3417501E+00  3.4304203E+01
 5.3532500E+00  3.4304073E+01
 5.3647504E+00  3.4290951E+01
 5.3762503E+00  3.4352348E+01
 5.3877501E+00  3.4435066E+01
 5.3992500E+00  3.4435989E+01
 5.4107504E+00  3.4392616E+01
 5.4222503E+00  3.4386539E+01
 5.4337502E+00  3.4284939E+01
 5.4452500E+00  3.4361309E+01
 5.4567504E+00  3.4401020E+01
 5.4682503E+00  3.4545300E+01
 5.4797502E+00  3.4646870E+01
 5.4912500E+00  3.4482182E+01
 5.5027504E+00  3.4472248E+01
 5.5142503E+00  3.4422977E+01
 5.5257502E+00  3.4518627E+01
 5.5372500E+00  3.4561119E+01
 5.5487504E+00  3.4604378E+01
 5.5602503E+00  3.4717445E+01
 5.5717502E+00  3.4757828E+01
 5.5832500E+00  3.4791519E+01
 5.5947504E+00  3.4767960E+01
 5.6062503E+00  3.4853577E+01
 5.6177502E+00  3.4865231E+01
 5.6292500E+00  3.4839939E+01
 5.6407504E+00  3.4857891E+01
 5.6522503E+00  3.4892635E+01
 5.6637502E+00  3.5171867E+01
 5.6752501E+00  3.5230137E+01
 5.6867504E+00  3.5310169E+01
 5.6982503E+00  3.5271736E+01
 5.7097502E+00  3.5275330E+01
 5.7212501E+00  3.5327602E+01
 5.7327504E+00  3.5327309E+01
 5.7442503E+00  3.5398911E+01
 5.7557502E+00  3.5468327E+01
 5.7672501E+00  3.5529587E+01
 5.7787504E+00  3.5474670E+01
 5.7902503E+00  3.5586052E+01
 5.8017502E+00  3.5571602E+01
 5.8132501E+00  3.5851944E+01
 5.8247504E+00  3.5864075E+01
 5.8362503E+00  3.6131435E+01
 5.8477502E+00  3.6343559E+01
 5.8592501E+00  3.6506866E+01
 5.8707504E+00  3.6725960E+01
 5.8822503E+00  3.6889271E+01
 5.8937502E+00  3.7234455E+01
 5.9052501E+00  3.7554394E+01
 5.9167504E+00  3.8283920E+01
 5.9282503E+00  3.9254951E+01
 5.9397502E+00  4.1430069E+01
 5.9512501E+00  4.4863380E+01
 5.9627504E+00  4.7536545E+01
 5.9742503E+00  5.1128609E+01
 5.9857502E+00  5.1437363E+01
 5.9972501E+00  5.0994083E+01
 6.0087504E+00  4.8831097E+01
 6.0202503E+00  4.5583103E+01
 6.0317502E+00  4.3132915E+01
 6.0432501E+00  4.0123020E+01
 6.0547504E+00  3.8658287E+01
 6.0662503E+00  3.7818535E+01
 6.0777502E+00  3.7178223E+01
 6.0892501E+00  3.6972881E+01
 6.1007504E+00  3.6815811E+01
 6.1122503E+00  3.6694984E+01
 6.1237502E+00  3.6714218E+01
 6.1352501E+00  3.6714428E+01
 6.1467505E+00  3.6816807E+01
 6.1582503E+00  3.6887379E+01
 6.1697502E+00  3.6986134E+01
 6.1812501E+00  3.7001152E+01
 6.1927505E+00  3.6932934E+01
 6.2042503E+00  3.6865417E+01
 6.2157502E+00  3.6812084E+01
 6.2272501E+00  3.6947922E+01
 6.2387505E+00  3.7041115E+01
 6.2502503E+00  3.7174717E+01
 6.2617502E+00  3.7274712E+01
 6.2732501E+00  3.7341862E+01
 6.2847505E+00  3.7485722E+01
 6.2962503E+00  3.7488365E+01
 6.3077502E+00  3.7475140E+01
 6.3192501E+00  3.7387028E+01
 6.3307505E+00  3.7377720E+01
 6.3422503E+00  3.7517384E+01
 6.3537502E+00  3.7506447E+01
 6.3652501E+00  3.7546059E+01
 6.3767505E+00  3.7570549E+01
 6.3882504E+00  3.7666111E+01
 6.3997502E+00  3.7712135E+01
 6.4112501E+00  3.7851635E+01
 6.4227505E+00  3.7917377E+01
 6.4342504E+00  3.8106079E+01
 6.4457502E+00  3.8305305E+01
 6.4572501E+00  3.8419834E+01
 6.4687505E+00  3.8527935E+01
 6.4802504E+00  3.8492245E+01
 6.4917502E+00  3.8601143E+01
 6.5032501E+00  3.8736217E+01
 6.5147505E+00  3.8875748E+01
 6.5262504E+00  3.8998497E+01
 6.5377502E+00  3.8995579E+01
 6.5492501E+00  3.9030617E+01
 6.5607505E+00  3.9100220E+01
 6.5722504E+00  3.9247864E+01
 6.5837502E+00  3.9327560E+01
 6.5952501E+00  3.9290920E+01
 6.6067505E+00  3.9399357E+01
 6.6182504E+00  3.9424873E+01
 6.6297503E+00  3.9540493E+01
 6.6412501E+00  3.9497223E+01
 6.6527505E+00  3.9579086E+01
 6.6642504E+00  3.9658688E+01
 6.6757503E+00  3.9659863E+01
 6.6872501E+00  3.9729393E+01
 6.6987505E+00  3.9756054E+01
 6.7102504E+00  3.9904007E+01
 6.7217503E+00  3.9985039E+01
 6.7332501E+00  4.0075726E+01
 6.7447505E+00  4.0230309E+01
 6.7562504E+00  4.0337833E+01
 6.7677503E+00  4.0390789E+01
 6.7792501E+00  4.0433220E+01
 6.7907505E+00  4.0433933E+01
 6.8022504E+00  4.0557186E+01
 6.8137503E+00  4.0689644E+01
 6.8252501E+00  4.0780415E+01
 6.8367505E+00  4.0907715E+01
 6.8482504E+00  4.0962799E+01
 6.8597503E+00  4.1099319E+01
 6.8712502E+00  4.1196720E+01
 6.8827505E+00  4.1306934E+01
 6.8942504E+00  4.1388226E+01
 6.9057503E+00  4.1449604E+01
 6.9172502E+00  4.1490337E+01
 6.9287505E+00  4.1516411E+01
 6.9402504E+00  4.1589970E+01
 6.9517503E+00  4.1646111E+01
 6.9632502E+00  4.1766872E+01
 6.9747505E+00  4.1871105E+01
 6.9862504E+00  4.1931026E+01
 6.9977503E+00  4.1924942E+01
 7.0092502E+00  4.1991707E+01
 7.0207505E+00  4.2095104E+01
 7.0322504E+00  4.2336426E+01
 7.0437503E+00  4.2510101E+01
 7.0552502E+00  4.2563263E+01
 7.0667505E+00  4.2638920E+01
 7.0782504E+00  4.2566849E+01
 7.0897503E+00  4.2607571E+01
 7.1012502E+00  4.2643578E+01
 7.1127505E+00  4.2693745E+01
 7.1242504E+00  4.2650990E+01
 7.1357503E+00  4.2595963E+01
 7.1472502E+00  4.2642372E+01
 7.1587505E+00  4.2742168E+01
 7.1702504E+00  4.2777737E+01
 7.1817503E+00  4.2775303E+01
 7.1932502E+00  4.2796619E+01
 7.2047505E+00  4.2788986E+01
 7.2162504E+00  4.2833683E+01
 7.2277503E+00  4.2877693E+01
 7.2392502E+00  4.3006317E+01
 7.2507505E+00  4.3109703E+01
 7.2622504E+00  4.3185726E+01
 7.2737503E+00  4.3180969E+01
 7.2852502E+00  4.3068844E+01
 7.2967505E+00  4.3088955E+01
 7.3082504E+00  4.3122543E+01
 7.3197503E+00  4.3277905E+01
 7.3312502E+00  4.3365601E+01
 7.3427505E+00  4.3386387E+01
 7.3542504E+00  4.3411453E+01
 7.3657503E+00  4.3445141E+01
 7.3772502E+00  4.3467106E+01
 7.3887506E+00  4.3523258E+01
 7.4002504E+00  4.3522728E+01
 7.4117503E+00  4.3544441E+01
 7.4232502E+00  4.3630920E+01
 7.4347506E+00  4.3698807E+01
 7.4462504E+00  4.3759407E+01
 7.4577503E+00  4.3772720E+01
 7.4692502E+00  4.3734760E+01
 7.4807506E+00  4.3717739E+01
 7.4922504E+00  4.3595745E+01
 7.5037503E+00  4.3658424E+01
 7.5152502E+00  4.3675987E+01
 7.5267506E+00  4.3658340E+01
 7.5382504E+00  4.3632572E+01
 7.5497503E+00  4.3581322E+01
 7.5612502E+00  4.3796413E+01
 7.5727506E+00  4.3722889E+01
 7.5842505E+00  4.3890446E+01
 7.5957503E+00  4.3917988E+01
 7.6072502E+00  4.4026466E+01
 7.6187506E+00  4.4048523E+01
 7.6302505E+00  4.4010803E+01
 7.6417503E+00  4.4025322E+01
 7.6532502E+00  4.3916874E+01
 7.6647506E+00  4.3851395E+01
 7.6762505E+00  4.3808369E+01
 7.6877503E+00  4.3841232E+01
 7.6992502E+00  4.3911160E+01
 7.7107506E+00  4.3964867E+01
 7.7222505E+00  4.4026775E+01
 7.7337503E+00  4.4072632E+01
 7.7452502E+00  4.4049774E+01
 7.7567506E+00  4.3960903E+01
 7.7682505E+00  4.3842709E+01
 7.7797503E+00  4.3734394E+01
 7.7912502E+00  4.3769985E+01
 7.8027506E+00  4.3734207E+01
 7.8142505E+00  4.3808655E+01
 7.8257504E+00  4.3794037E+01
 7.8372502E+00  4.3798996E+01
 7.8487506E+00  4.3815910E+01
 7.8602505E+00  4.3782303E+01
 7.8717504E+00  4.3773754E+01
 7.8832502E+00  4.3646427E+01
 7.8947506E+00  4.3585281E+01
 7.9062505E+00  4.3541367E+01
 7.9177504E+00  4.3508202E+01
 7.9292502E+00  4.3433788E+01
 7.9407506E+00  4.3337833E+01
 7.9522505E+00  4.3245354E+01
 7.9637504E+00  4.3116547E+01
 7.9752502E+00  4.3087322E+01
 7.9867506E+00  4.3115078E+01
 7.9982505E+00  4.3168846E+01
 8.0097504E+00  4.3164307E+01
 8.0212507E+00  4.3081387E+01
 8.0327501E+00  4.2998344E+01
 8.0442505E+00  4.2849228E+01
 8.0557508E+00  4.2814117E+01
 8.0672503E+00  4.2665817E+01
 8.0787506E+00  4.2626534E+01
 8.0902500E+00  4.2647758E+01
 8.1017504E+00  4.2644413E+01
 8.1132507E+00  4.2653175E+01
 8.1247501E+00  4.2490833E+01
 8.1362505E+00  4.2364788E+01
 8.1477509E+00  4.2176876E+01
 8.1592503E+00  4.1993099E+01
 8.1707506E+00  4.1869278E+01
 8.1822500E+00  4.1728199E+01
 8.1937504E+00  4.1624283E+01
 8.2052507E+00  4.1527409E+01
 8.2167501E+00  4.1432682E+01
 8.2282505E+00  4.1278439E+01
 8.2397509E+00  4.1131893E+01
 8.2512503E+00  4.0993401E+01
 8.2627506E+00  4.0841484E+01
 8.2742500E+00  4.0704594E+01
 8.2857504E+00  4.0589508E+01
 8.2972507E+00  4.0498528E+01
 8.3087502E+00  4.0387787E+01
 8.3202505E+00  4.0218864E+01
 8.3317509E+00  3.9985966E+01
 8.3432503E+00  3.9915085E+01
 8.3547506E+00  3.9704967E+01
 8.3662500E+00  3.9627342E+01
 8.3777504E+00  3.9332428E+01
 8.3892508E+00  3.9188198E+01
 8.4007502E+00  3.8976627E+01
 8.4122505E+00  3.8732517E+01
 8.4237509E+00  3.8571030E+01
 8.4352503E+00  3.8379814E+01
 8.4467506E+00  3.8338608E+01
 8.4582500E+00  3.8220116E+01
 8.4697504E+00  3.8146259E+01
 8.4812508E+00  3.7990421E+01
 8.4927502E+00  3.7864777E+01
 8.5042505E+00  3.7641483E+01
 8.5157509E+00  3.7444126E+01
 8.5272503E+00  3.7165779E+01
 8.5387506E+00  3.7035580E+01
 8.5502501E+00  3.6811626E+01
 8.5617504E+00  3.6665142E+01
 8.5732508E+00  3.6442352E+01
 8.5847502E+00  3.6284012E+01
 8.5962505E+00  3.6105171E+01
 8.6077509E+00  3.5967552E+01
 8.6192503E+00  3.5936577E+01
 8.6307507E+00  3.5908607E+01
 8.6422501E+00  3.5791695E+01
 8.6537504E+00  3.5530090E+01
 8.6652508E+00  3.5293995E+01
 8.6767502E+00  3.5101757E+01
 8.6882505E+00  3.4961987E+01
 8.6997509E+00  3.4857231E+01
 8.7112503E+00  3.4740868E+01
 8.7227507E+00  3.4630863E+01
 8.7342501E+00  3.4450676E+01
 8.7457504E+00  3.4237686E+01
 8.7572508E+00  3.4046902E+01
 8.7687502E+00  3.3862129E+01
 8.7802505E+00  3.3728432E+01
 8.7917500E+00  3.3540138E+01
 8.8032503E+00  3.3354313E+01
 8.8147507E+00  3.3121250E+01
 8.8262501E+00  3.2973591E+01
 8.8377504E+00  3.2863480E+01
 8.8492508E+00  3.2774834E+01
 8.8607502E+00  3.2619022E+01
 8.8722506E+00  3.2467182E+01
 8.8837500E+00  3.2245178E+01
 8.8952503E+00  3.2044193E+01
 8.9067507E+00  3.1868162E+01
 8.9182501E+00  3.1695745E+01
 8.9297504E+00  3.1478006E+01
 8.9412508E+00  3.1292156E+01
 8.9527502E+00  3.1151253E+01
 8.9642506E+00  3.1056839E+01
 8.9757500E+00  3.0895504E+01
 8.9872503E+00  3.0764099E+01
 8.9987507E+00  3.0581009E+01
 9.0102501E+00  3.0397909E+01
 9.0217505E+00  3.0179741E+01
 9.0332508E+00  3.0061207E+01
 9.0447502E+00  2.9980522E+01
 9.0562506E+00  2.9838713E+01
 9.0677500E+00  2.9787443E+01
 9.0792503E+00  2.9700710E+01
 9.0907507E+00  2.9619429E+01
 9.1022501E+00  2.9482584E+01
 9.1137505E+00  2.9357197E+01
 9.1252508E+00  2.9301239E+01
 9.1367502E+00  2.9199110E+01
 9.1482506E+00  2.9156517E+01
 9.1597500E+00  2.9097012E+01
 9.1712503E+00  2.9011036E+01
 9.1827507E+00  2.8912573E+01
 9.1942501E+00  2.8753426E+01
 9.2057505E+00  2.8583347E+01
 9.2172508E+00  2.8434916E+01
 9.2287502E+00  2.8282661E+01
 9.2402506E+00  2.8200066E+01
 9.2517500E+00  2.8034281E+01
 9.2632504E+00  2.7892883E+01
 9.2747507E+00  2.7718817E+01
 9.2862501E+00  2.7627819E+01
 9.2977505E+00  2.7584940E+01
 9.3092508E+00  2.7574581E+01
 9.3207502E+00  2.7479235E+01
 9.3322506E+00  2.7413115E+01
 9.3437500E+00  2.7286354E+01
 9.3552504E+00  2.7218885E+01
 9.3667507E+00  2.7097383E+01
 9.3782501E+00  2.7029213E+01
 9.3897505E+00  2.6953211E+01
 9.4012508E+00  2.6928244E+01
 9.4127502E+00  2.6918941E+01
 9.4242506E+00  2.6890591E+01
 9.4357500E+00  2.6898054E+01
 9.4472504E+00  2.6744823E+01
 9.4587507E+00  2.6631788E+01
 9.4702501E+00  2.6528961E+01
 9.4817505E+00  2.6460051E+01
 9.4932508E+00  2.6341370E+01
 9.5047503E+00  2.6179247E+01
 9.5162506E+00  2.6120150E+01
 9.5277500E+00  2.6152943E+01
 9.5392504E+00  2.6077627E+01
 9.5507507E+00  2.5975632E+01
 9.5622501E+00  2.5878098E+01
 9.5737505E+00  2.5856998E+01
 9.5852509E+00  2.5830286E+01
 9.5967503E+00  2.5844545E+01
 9.6082506E+00  2.5822075E+01
 9.6197500E+00  2.5815582E+01
 9.6312504E+00  2.5708195E+01
 9.6427507E+00  2.5569895E+01
 9.6542501E+00  2.5473436E+01
 9.6657505E+00  2.5360752E+01
 9.6772509E+00  2.5313496E+01
 9.6887503E+00  2.5237930E+01
 9.7002506E+00  2.5234224E+01
 9.7117500E+00  2.5205072E+01
 9.7232504E+00  2.5188660E+01
 9.7347507E+00  2.5177071E+01
 9.7462502E+00  2.5163616E+01
 9.7577505E+00  2.5141685E+01
 9.7692509E+00  2.5113758E+01
 9.7807503E+00  2.5017950E+01
 9.7922506E+00  2.4951878E+01
 9.8037500E+00  2.4922384E+01
 9.8152504E+00  2.4900011E+01
 9.8267508E+00  2.4864477E+01
 9.8382502E+00  2.4767204E+01
 9.8497505E+00  2.4721889E+01
 9.8612509E+00  2.4691442E+01
 9.8727503E+00  2.4631838E+01
 9.8842506E+00  2.4560770E+01
 9.8957500E+00  2.4532532E+01
 9.9072504E+00  2.4524611E+01
 9.9187508E+00  2.4522045E+01
 9.9302502E+00  2.4434923E+01
 9.9417505E+00  2.4387056E+01
 9.9532509E+00  2.4259457E+01
 9.9647503E+00  2.4232559E+01
 9.9762506E+00  2.4180183E+01
 9.9877501E+00  2.4204466E+01
 9.9992504E+00  2.4178383E+01
 1.0010751E+01  2.4145252E+01
 1.0022250E+01  2.4150118E+01
 1.0033751E+01  2.4174500E+01
 1.0045251E+01  2.4172863E+01
 1.0056750E+01  2.4142118E+01
 1.0068251E+01  2.4083725E+01
 1.0079750E+01  2.4047016E+01
 1.0091250E+01  2.3956461E+01
 1.0102751E+01  2.3912638E+01
 1.0114250E+01  2.3824322E+01
 1.0125751E+01  2.3814693E+01
 1.0137251E+01  2.3731777E+01
 1.0148750E+01  2.3692669E+01
 1.0160251E+01  2.3684219E+01
 1.0171750E+01  2.3675194E+01
 1.0183250E+01  2.3675140E+01
 1.0194751E+01  2.3627399E+01
 1.0206250E+01  2.3602894E+01
 1.0217751E+01  2.3618174E+01
 1.0229251E+01  2.3605053E+01
 1.0240750E+01  2.3641434E+01
 1.0252251E+01  2.3584642E+01
 1.0263750E+01  2.3568771E+01
 1.0275250E+01  2.3490734E+01
 1.0286751E+01  2.3473072E+01
 1.0298250E+01  2.3443119E+01
 1.0309751E+01  2.3467495E+01
 1.0321251E+01  2.3421762E+01
 1.0332750E+01  2.3397278E+01
 1.0344251E+01  2.3358179E+01
 1.0355750E+01  2.3317850E+01
 1.0367250E+01  2.3227156E+01
 1.0378751E+01  2.3152700E+01
 1.0390250E+01  2.3138784E+01
 1.0401751E+01  2.3133457E+01
 1.0413251E+01  2.3121899E+01
 1.0424750E+01  2.3077278E+01
 1.0436251E+01  2.3130619E+01
 1.0447750E+01  2.3174246E+01
 1.0459250E+01  2.3220171E+01
 1.0470751E+01  2.3210682E+01
 1.0482250E+01  2.3198471E+01
 1.0493751E+01  2.3180454E+01
 1.0505251E+01  2.3105732E+01
 1.0516750E+01  2.3017815E+01
 1.0528251E+01  2.2914064E+01
 1.0539750E+01  2.2899342E+01
 1.0551250E+01  2.2898258E+01
 1.0562751E+01  2.2947475E+01
 1.0574250E+01  2.2898970E+01
 1.0585751E+01  2.2884790E+01
 1.0597251E+01  2.2837099E+01
 1.0608750E+01  2.2890175E+01
 1.0620251E+01  2.2918530E+01
 1.0631750E+01  2.2963232E+01
 1.0643250E+01  2.2982008E+01
 1.0654751E+01  2.3007702E+01
 1.0666250E+01  2.2960327E+01
 1.0677751E+01  2.2896692E+01
 1.0689251E+01  2.2804848E+01
 1.0700750E+01  2.2798359E+01
 1.0712251E+01  2.2776812E+01
 1.0723750E+01  2.2801474E+01
 1.0735250E+01  2.2779348E+01
 1.0746751E+01  2.2818268E+01
 1.0758250E+01  2.2842075E+01
 1.0769751E+01  2.2876196E+01
 1.0781251E+01  2.2898211E+01
 1.0792750E+01  2.2864408E+01
 1.0804251E+01  2.2812737E+01
 1.0815750E+01  2.2734797E+01
 1.0827250E+01  2.2694050E+01
 1.0838751E+01  2.2672674E+01
 1.0850250E+01  2.2673183E+01
 1.0861751E+01  2.2663095E+01
 1.0873251E+01  2.2653595E+01
 1.0884750E+01  2.2627151E+01
 1.0896251E+01  2.2614658E+01
 1.0907750E+01  2.2615456E+01
 1.0919250E+01  2.2599833E+01
 1.0930751E+01  2.2590454E+01
 1.0942250E+01  2.2537155E+01
 1.0953751E+01  2.2518309E+01
 1.0965251E+01  2.2484034E+01
 1.0976750E+01  2.2543428E+01
 1.0988251E+01  2.2554205E+01
 1.0999750E+01  2.2596800E+01
 1.1011250E+01  2.2591227E+01
 1.1022751E+01  2.2563183E+01
 1.1034250E+01  2.2507961E+01
 1.1045751E+01  2.2452686E+01
 1.1057251E+01  2.2415071E+01
 1.1068750E+01  2.2462072E+01
 1.1080251E+01  2.2483980E+01
 1.1091750E+01  2.2553070E+01
 1.1103251E+01  2.2510256E+01
 1.1114751E+01  2.2546022E+01
 1.1126250E+01  2.2531349E+01
 1.1137751E+01  2.2517664E+01
 1.1149251E+01  2.2531229E+01
 1.1160750E+01  2.2570927E+01
 1.1172251E+01  2.2590405E+01
 1.1183750E+01  2.2507141E+01
 1.1195251E+01  2.2481953E+01
 1.1206751E+01  2.2469685E+01
 1.1218250E+01  2.2467018E+01
 1.1229751E+01  2.2415186E+01
 1.1241251E+01  2.2381945E+01
 1.1252750E+01  2.2411900E+01
 1.1264251E+01  2.2396820E+01
 1.1275750E+01  2.2458075E+01
 1.1287251E+01  2.2476664E+01
 1.1298751E+01  2.2578260E+01
 1.1310250E+01  2.2665464E+01
 1.1321751E+01  2.2703644E+01
 1.1333251E+01  2.2649801E+01
 1.1344750E+01  2.2539680E+01
 1.1356251E+01  2.2517061E+01
 1.1367750E+01  2.2606461E+01
 1.1379251E+01  2.2671623E+01
 1.1390751E+01  2.2765888E+01
 1.1402250E+01  2.2903189E+01
 1.1413751E+01  2.2994938E+01
 1.1425251E+01  2.3022778E+01
 1.1436750E+01  2.2992949E+01
 1.1448251E+01  2.2989613E+01
 1.1459750E+01  2.2963547E+01
 1.1471251E+01  2.2964762E+01
 1.1482751E+01  2.3059292E+01
 1.1494250E+01  2.3226439E+01
 1.1505751E+01  2.3410034E+01
 1.1517251E+01  2.3757273E+01
 1.1528750E+01  2.4077507E+01
 1.1540251E+01  2.5415174E+01
 1.1551750E+01  2.6330935E+01
 1.1563251E+01  2.8624723E+01
 1.1574751E+01  3.2882442E+01
 1.1586250E+01  3.4331875E+01
 1.1597751E+01  3.6165981E+01
 1.1609251E+01  3.4510948E+01
 1.1620750E+01  3.3019012E+01
 1.1632251E+01  3.0070753E+01
 1.1643750E+01  2.6605164E+01
 1.1655251E+01  2.5690723E+01
 1.1666751E+01  2.4221893E+01
 1.1678250E+01  2.3656567E+01
 1.1689751E+01  2.3345171E+01
 1.1701251E+01  2.3107908E+01
 1.1712750E+01  2.2992016E+01
 1.1724251E+01  2.2881123E+01
 1.1735750E+01  2.2818996E+01
 1.1747251E+01  2.2778469E+01
 1.1758751E+01  2.2756563E+01
 1.1770250E+01  2.2711454E+01
 1.1781751E+01  2.2691530E+01
 1.1793251E+01  2.2635221E+01
 1.1804750E+01  2.2658398E+01
 1.1816251E+01  2.2608734E+01
 1.1827750E+01  2.2582520E+01
 1.1839251E+01  2.2554386E+01
 1.1850751E+01  2.2533220E+01
 1.1862250E+01  2.2583857E+01
 1.1873751E+01  2.2583317E+01
 1.1885251E+01  2.2687328E+01
 1.1896750E+01  2.2749863E+01
 1.1908251E+01  2.2815989E+01
 1.1919750E+01  2.2906139E+01
 1.1931251E+01  2.3061792E+01
 1.1942751E+01  2.3336733E+01
 1.1954250E+01  2.3793272E+01
 1.1965751E+01  2.4365295E+01
 1.1977251E+01  2.4905821E+01
 1.1988750E+01  2.5418186E+01
 1.2000251E+01  2.5660353E+01
 1.2011750E+01  2.5542658E+01
 1.2023251E+01  2.5031939E+01
 1.2034751E+01  2.4546024E+01
 1.2046250E+01  2.4317823E+01
 1.2057751E+01  2.4371376E+01
 1.2069251E+01  2.4836630E+01
 1.2080750E+01  2.5317945E+01
 1.2092251E+01  2.6276346E+01
 1.2103750E+01  2.6673140E+01
 1.2115251E+01  2.6875648E+01
 1.2126751E+01  2.6629965E+01
 1.2138250E+01  2.5979168E+01
 1.2149751E+01  2.5346233E+01
 1.2161251E+01  2.4284704E+01
 1.2172750E+01  2.3678572E+01
 1.2184251E+01  2.3117466E+01
 1.2195750E+01  2.2858921E+01
 1.2207251E+01  2.2735052E+01
 1.2218751E+01  2.2713182E+01
 1.2230250E+01  2.2694990E+01
 1.2241751E+01  2.2670427E+01
 1.2253251E+01  2.2632580E+01
 1.2264750E+01  2.2590105E+01
 1.2276251E+01  2.2553190E+01
 1.2287750E+01  2.2526423E+01
 1.2299251E+01  2.2560497E+01
 1.2310751E+01  2.2668747E+01
 1.2322250E+01  2.2727745E+01
 1.2333751E+01  2.2756575E+01
 1.2345250E+01  2.2676044E+01
 1.2356750E+01  2.2720144E+01
 1.2368251E+01  2.2641891E+01
 1.2379750E+01  2.2717283E+01
 1.2391251E+01  2.2678698E+01
 1.2402751E+01  2.2757133E+01
 1.2414250E+01  2.2690563E+01
 1.2425751E+01  2.2637159E+01
 1.2437250E+01  2.2623116E+01
 1.2448750E+01  2.2648211E+01
 1.2460251E+01  2.2710733E+01
 1.2471750E+01  2.2719851E+01
 1.2483251E+01  2.2762051E+01
 1.2494751E+01  2.2750179E+01
 1.2506250E+01  2.2748140E+01
 1.2517751E+01  2.2720356E+01
 1.2529250E+01  2.2760406E+01
 1.2540751E+01  2.2766415E+01
 1.2552251E+01  2.2740526E+01
 1.2563750E+01  2.2692474E+01
 1.2575251E+01  2.2717157E+01
 1.2586751E+01  2.2735300E+01
 1.2598250E+01  2.2776106E+01
 1.2609751E+01  2.2814468E+01
 1.2621250E+01  2.2840036E+01
 1.2632751E+01  2.2817541E+01
 1.2644251E+01  2.2687309E+01
 1.2655750E+01  2.2683989E+01
 1.2667251E+01  2.2715935E+01
 1.2678751E+01  2.2791302E+01
 1.2690250E+01  2.2819366E+01
 1.2701751E+01  2.2807241E+01
 1.2713250E+01  2.2857107E+01
 1.2724751E+01  2.2882307E+01
 1.2736251E+01  2.2902796E+01
 1.2747750E+01  2.2923433E+01
 1.2759251E+01  2.2970993E+01
 1.2770751E+01  2.2972141E+01
 1.2782250E+01  2.3025499E+01
 1.2793751E+01  2.2963102E+01
 1.2805250E+01  2.3023315E+01
 1.2816751E+01  2.3002043E+01
 1.2828251E+01  2.3036407E+01
 1.2839750E+01  2.3039520E+01
 1.2851251E+01  2.3060438E+01
 1.2862751E+01  2.3098894E+01
 1.2874250E+01  2.3160168E+01
 1.2885751E+01  2.3213385E+01
 1.2897250E+01  2.3282667E+01
 1.2908751E+01  2.3395576E+01
 1.2920251E+01  2.3502729E+01
 1.2931750E+01  2.3613199E+01
 1.2943251E+01  2.3666550E+01
 1.2954751E+01  2.3709885E+01
 1.2966250E+01  2.3794676E+01
 1.2977751E+01  2.3879246E+01
 1.2989250E+01  2.3948475E+01
 1.3000751E+01  2.4004852E+01
 1.3012251E+01  2.4087551E+01
 1.3023750E+01  2.4140198E+01
 1.3035251E+01  2.4217497E+01
 1.3046751E+01  2.4246193E+01
 1.3058250E+01  2.4307306E+01
 1.3069751E+01  2.4365646E+01
 1.3081250E+01  2.4454973E+01
 1.3092751E+01  2.4603001E+01
 1.3104251E+01  2.4689045E+01
 1.3115750E+01  2.4806940E+01
 1.3127251E+01  2.4850143E+01
 1.3138751E+01  2.4915197E+01
 1.3150250E+01  2.4931858E+01
 1.3161751E+01  2.5057169E+01
 1.3173250E+01  2.5229998E+01
 1.3184751E+01  2.5387482E+01
 1.3196251E+01  2.5544819E+01
 1.3207750E+01  2.5693924E+01
 1.3219251E+01  2.5868208E+01
 1.3230751E+01  2.6025578E+01
 1.3242250E+01  2.6194954E+01
 1.3253751E+01  2.6353449E+01
 1.3265250E+01  2.6506252E+01
 1.3276751E+01  2.6595238E+01
 1.3288251E+01  2.6716320E+01
 1.3299750E+01  2.6845772E+01
 1.3311251E+01  2.6918478E+01
 1.3322751E+01  2.7069063E+01
 1.3334250E+01  2.7242037E+01
 1.3345751E+01  2.7441936E+01
 1.3357250E+01  2.7630087E+01
 1.3368751E+01  2.7726679E+01
 1.3380251E+01  2.7854616E+01
 1.3391750E+01  2.7916546E+01
 1.3403251E+01  2.8048777E+01
 1.3414751E+01  2.8119326E+01
 1.3426250E+01  2.8175018E+01
 1.3437751E+01  2.8291780E+01
 1.3449250E+01  2.8453938E+01
 1.3460751E+01  2.8582449E+01
 1.3472251E+01  2.8654314E+01
 1.3483750E+01  2.8767195E+01
 1.3495251E+01  2.8896082E+01
 1.3506751E+01  2.9031507E+01
 1.3518250E+01  2.9160473E+01
 1.3529751E+01  2.9288847E+01
 1.3541250E+01  2.9337448E+01
 1.3552751E+01  2.9330280E+01
 1.3564251E+01  2.9301777E+01
 1.3575750E+01  2.9325550E+01
 1.3587251E+01  2.9343231E+01
 1.3598751E+01  2.9420626E+01
 1.3610250E+01  2.9478567E+01
 1.3621751E+01  2.9590597E+01
 1.3633250E+01  2.9602507E+01
 1.3644751E+01  2.9610960E+01
 1.3656251E+01  2.9591930E+01
 1.3667750E+01  2.9566135E+01
 1.3679251E+01  2.9559027E+01
 1.3690751E+01  2.9502415E+01
 1.3702250E+01  2.9456076E+01
 1.3713751E+01  2.9441393E+01
 1.3725250E+01  2.9425791E+01
 1.3736751E+01  2.9487213E+01
 1.3748251E+01  2.9396074E+01
 1.3759750E+01  2.9383272E+01
 1.3771251E+01  2.9327652E+01
 1.3782751E+01  2.9339876E+01
 1.3794250E+01  2.9315657E+01
 1.3805751E+01  2.9255156E+01
 1.3817250E+01  2.9268990E+01
 1.3828751E+01  2.9276138E+01
 1.3840251E+01  2.9345602E+01
 1.3851750E+01  2.9403875E+01
 1.3863251E+01  2.9624170E+01
 1.3874751E+01  2.9931709E+01
 1.3886250E+01  3.0439766E+01
 1.3897751E+01  3.1295628E+01
 1.3909250E+01  3.2328220E+01
 1.3920751E+01  3.3846237E+01
 1.3932251E+01  3.5304077E+01
 1.3943750E+01  3.6774380E+01
 1.3955251E+01  3.8077240E+01
 1.3966751E+01  3.7824085E+01
 1.3978251E+01  3.7387573E+01
 1.3989751E+01  3.5598137E+01
 1.4001250E+01  3.4121559E+01
 1.4012751E+01  3.2149086E+01
 1.4024251E+01  3.0583815E+01
 1.4035750E+01  2.9699903E+01
 1.4047251E+01  2.8763254E+01
 1.4058751E+01  2.8461252E+01
 1.4070251E+01  2.8224302E+01
 1.4081751E+01  2.7973587E+01
 1.4093250E+01  2.7795998E+01
 1.4104751E+01  2.7484983E+01
 1.4116251E+01  2.7279930E+01
 1.4127750E+01  2.7083424E+01
 1.4139251E+01  2.6993162E+01
 1.4150751E+01  2.6902882E+01
 1.4162251E+01  2.6898289E+01
 1.4173751E+01  2.6884563E+01
 1.4185250E+01  2.6861858E+01
 1.4196751E+01  2.6812975E+01
 1.4208251E+01  2.6778543E+01
 1.4219750E+01  2.6751366E+01
 1.4231251E+01  2.6714094E+01
 1.4242751E+01  2.6680897E+01
 1.4254251E+01  2.6631208E+01
 1.4265751E+01  2.6559166E+01
 1.4277250E+01  2.6421026E+01
 1.4288751E+01  2.6330711E+01
 1.4300251E+01  2.6230305E+01
 1.4311750E+01  2.6253992E+01
 1.4323251E+01  2.6190872E+01
 1.4334751E+01  2.6195662E+01
 1.4346251E+01  2.6143795E+01
 1.4357751E+01  2.6102640E+01
 1.4369250E+01  2.6030825E+01
 1.4380751E+01  2.5970196E+01
 1.4392251E+01  2.5941076E+01
 1.4403750E+01  2.5913307E+01
 1.4415251E+01  2.5886322E+01
 1.4426751E+01  2.5825823E+01
 1.4438251E+01  2.5745464E+01
 1.4449751E+01  2.5672739E+01
 1.4461250E+01  2.5637100E+01
 1.4472751E+01  2.5582960E+01
 1.4484251E+01  2.5536070E+01
 1.4495750E+01  2.5472975E+01
 1.4507251E+01  2.5497105E+01
 1.4518751E+01  2.5497242E+01
 1.4530251E+01  2.5555954E+01
 1.4541751E+01  2.5547321E+01
 1.4553250E+01  2.5587202E+01
 1.4564751E+01  2.5530586E+01
 1.4576251E+01  2.5458391E+01
 1.4587750E+01  2.5342731E+01
 1.4599251E+01  2.5279142E+01
 1.4610751E+01  2.5232405E+01
 1.4622251E+01  2.5211796E+01
 1.4633751E+01  2.5143446E+01
 1.4645250E+01  2.5112324E+01
 1.4656751E+01  2.5076239E+01
 1.4668251E+01  2.5084776E+01
 1.4679750E+01  2.5089418E+01
 1.4691251E+01  2.5165966E+01
 1.4702751E+01  2.5183533E+01
 1.4714251E+01  2.5172651E+01
 1.4725751E+01  2.5096891E+01
 1.4737250E+01  2.5056099E+01
 1.4748751E+01  2.4993502E+01
 1.4760251E+01  2.4957113E+01
 1.4771750E+01  2.4978310E+01
 1.4783251E+01  2.4964653E+01
 1.4794751E+01  2.4973713E+01
 1.4806251E+01  2.4933542E+01
 1.4817751E+01  2.4921658E+01
 1.4829250E+01  2.4914011E+01
 1.4840751E+01  2.4928875E+01
 1.4852251E+01  2.4936285E+01
 1.4863750E+01  2.4913610E+01
 1.4875251E+01  2.4882124E+01
 1.4886751E+01  2.4927597E+01
 1.4898251E+01  2.4979746E+01
 1.4909751E+01  2.5012220E+01
 1.4921250E+01  2.4966593E+01
 1.4932751E+01  2.4936733E+01
 1.4944251E+01  2.4913025E+01
 1.4955750E+01  2.4882627E+01
 1.4967251E+01  2.4872007E+01
 1.4978751E+01  2.4880394E+01
 1.4990251E+01  2.4918135E+01
 1.5001751E+01  2.4931421E+01
 1.5013250E+01  2.4980190E+01
 1.5024751E+01  2.4995396E+01
 1.5036251E+01  2.4992205E+01
 1.5047750E+01  2.4949762E+01
 1.5059251E+01  2.4960260E+01
 1.5070751E+01  2.4987238E+01
 1.5082251E+01  2.4987482E+01
 1.5093751E+01  2.5078323E+01
 1.5105250E+01  2.5235296E+01
 1.5116751E+01  2.5367060E+01
 1.5128251E+01  2.6333712E+01
 1.5139750E+01  2.6712320E+01
 1.5151251E+01  2.7939989E+01
 1.5162751E+01  2.9518604E+01
 1.5174251E+01  3.0153917E+01
 1.5185751E+01  3.1037594E+01
 1.5197250E+01  3.0204113E+01
 1.5208751E+01  3.0211044E+01
 1.5220251E+01  2.8752941E+01
 1.5231750E+01  2.7768261E+01
 1.5243251E+01  2.6979483E+01
 1.5254751E+01  2.6069506E+01
 1.5266251E+01  2.5547464E+01
 1.5277751E+01  2.5226646E+01
 1.5289250E+01  2.5047068E+01
 1.5300751E+01  2.4929449E+01
 1.5312251E+01  2.4819992E+01
 1.5323750E+01  2.4701717E+01
 1.5335251E+01  2.4706242E+01
 1.5346751E+01  2.4689512E+01
 1.5358251E+01  2.4732876E+01
 1.5369751E+01  2.4734533E+01
 1.5381250E+01  2.4720779E+01
 1.5392751E+01  2.4700264E+01
 1.5404251E+01  2.4663052E+01
 1.5415751E+01  2.4600101E+01
 1.5427251E+01  2.4573910E+01
 1.5438751E+01  2.4570292E+01
 1.5450251E+01  2.4641932E+01
 1.5461751E+01  2.4654545E+01
 1.5473250E+01  2.4637934E+01
 1.5484751E+01  2.4651691E+01
 1.5496251E+01  2.4576736E+01
 1.5507751E+01  2.4547323E+01
 1.5519251E+01  2.4508408E+01
 1.5530751E+01  2.4529396E+01
 1.5542251E+01  2.4512377E+01
 1.5553751E+01  2.4482515E+01
 1.5565250E+01  2.4495125E+01
 1.5576751E+01  2.4506994E+01
 1.5588251E+01  2.4489590E+01
 1.5599751E+01  2.4525312E+01
 1.5611251E+01  2.4560093E+01
 1.5622751E+01  2.4572222E+01
 1.5634251E+01  2.4551870E+01
 1.5645751E+01  2.4544556E+01
 1.5657250E+01  2.4585754E+01
 1.5668751E+01  2.4590635E+01
 1.5680251E+01  2.4593815E+01
 1.5691751E+01  2.4572800E+01
 1.5703251E+01  2.4615395E+01
 1.5714751E+01  2.4619995E+01
 1.5726251E+01  2.4624969E+01
 1.5737751E+01  2.4530100E+01
 1.5749250E+01  2.4447456E+01
 1.5760751E+01  2.4402712E+01
 1.5772251E+01  2.4429201E+01
 1.5783751E+01  2.4464363E+01
 1.5795251E+01  2.4501766E+01
 1.5806751E+01  2.4540983E+01
 1.5818251E+01  2.4597992E+01
 1.5829751E+01  2.4578300E+01
 1.5841250E+01  2.4577206E+01
 1.5852751E+01  2.4535345E+01
 1.5864251E+01  2.4568428E+01
 1.5875751E+01  2.4572845E+01
 1.5887251E+01  2.4612232E+01
 1.5898750E+01  2.4591692E+01
 1.5910251E+01  2.4647730E+01
 1.5921751E+01  2.4676914E+01
 1.5933250E+01  2.4756817E+01
 1.5944751E+01  2.4742071E+01
 1.5956251E+01  2.4762753E+01
 1.5967751E+01  2.4747679E+01
 1.5979251E+01  2.4772305E+01
 1.5990750E+01  2.4842884E+01
 1.6002251E+01  2.4947309E+01
 1.6013750E+01  2.4953751E+01
 1.6025251E+01  2.4968241E+01
 1.6036751E+01  2.4961451E+01
 1.6048250E+01  2.4976110E+01
 1.6059752E+01  2.4928270E+01
 1.6071251E+01  2.4836769E+01
 1.6082750E+01  2.4843140E+01
 1.6094252E+01  2.4768780E+01
 1.6105751E+01  2.4812210E+01
 1.6117250E+01  2.4756767E+01
 1.6128750E+01  2.4778734E+01
 1.6140251E+01  2.4807833E+01
 1.6151751E+01  2.4829618E+01
 1.6163250E+01  2.4942940E+01
 1.6174751E+01  2.4881283E+01
 1.6186251E+01  2.5168694E+01
 1.6197750E+01  2.5080292E+01
 1.6209251E+01  2.5707050E+01
 1.6220751E+01  2.5767427E+01
 1.6232250E+01  2.6495024E+01
 1.6243752E+01  2.6709049E+01
 1.6255251E+01  2.7079451E+01
 1.6266750E+01  2.7250614E+01
 1.6278252E+01  2.6727432E+01
 1.6289751E+01  2.6617039E+01
 1.6301250E+01  2.5681442E+01
 1.6312750E+01  2.5669065E+01
 1.6324251E+01  2.5065968E+01
 1.6335751E+01  2.5065369E+01
 1.6347250E+01  2.4809519E+01
 1.6358751E+01  2.4761007E+01
 1.6370251E+01  2.4612877E+01
 1.6381750E+01  2.4580971E+01
 1.6393251E+01  2.4600105E+01
 1.6404751E+01  2.4679115E+01
 1.6416250E+01  2.4766792E+01
 1.6427752E+01  2.4801302E+01
 1.6439251E+01  2.4875473E+01
 1.6450750E+01  2.4877478E+01
 1.6462252E+01  2.4860655E+01
 1.6473751E+01  2.4806829E+01
 1.6485250E+01  2.4790514E+01
 1.6496750E+01  2.4769451E+01
 1.6508251E+01  2.4703690E+01
 1.6519751E+01  2.4612535E+01
 1.6531250E+01  2.4566448E+01
 1.6542751E+01  2.4593424E+01
 1.6554251E+01  2.4605919E+01
 1.6565750E+01  2.4569460E+01
 1.6577251E+01  2.4531361E+01
 1.6588751E+01  2.4562670E+01
 1.6600250E+01  2.4634724E+01
 1.6611752E+01  2.4637915E+01
 1.6623251E+01  2.4613535E+01
 1.6634750E+01  2.4564249E+01
 1.6646252E+01  2.4562401E+01
 1.6657751E+01  2.4522882E+01
 1.6669250E+01  2.4511951E+01
 1.6680750E+01  2.4477312E+01
 1.6692251E+01  2.4526493E+01
 1.6703751E+01  2.4507940E+01
 1.6715250E+01  2.4494604E+01
 1.6726751E+01  2.4408171E+01
 1.6738251E+01  2.4393459E+01
 1.6749750E+01  2.4465628E+01
 1.6761251E+01  2.4512056E+01
 1.6772751E+01  2.4603569E+01
 1.6784250E+01  2.4621033E+01
 1.6795752E+01  2.4646324E+01
 1.6807251E+01  2.4600771E+01
 1.6818750E+01  2.4542915E+01
 1.6830252E+01  2.4505896E+01
 1.6841751E+01  2.4453590E+01
 1.6853251E+01  2.4445028E+01
 1.6864750E+01  2.4452772E+01
 1.6876251E+01  2.4458096E+01
 1.6887751E+01  2.4403248E+01
 1.6899250E+01  2.4326826E+01
 1.6910751E+01  2.4267769E+01
 1.6922251E+01  2.4268446E+01
 1.6933750E+01  2.4273808E+01
 1.6945251E+01  2.4235987E+01
 1.6956751E+01  2.4248569E+01
 1.6968250E+01  2.4222332E+01
 1.6979752E+01  2.4263132E+01
 1.6991251E+01  2.4230133E+01
 1.7002750E+01  2.4264793E+01
 1.7014252E+01  2.4264439E+01
 1.7025751E+01  2.4258785E+01
 1.7037251E+01  2.4241287E+01
 1.7048750E+01  2.4203157E+01
 1.7060251E+01  2.4173580E+01
 1.7071751E+01  2.4196022E+01
 1.7083250E+01  2.4235500E+01
 1.7094751E+01  2.4277021E+01
 1.7106251E+01  2.4268759E+01
 1.7117750E+01  2.4285223E+01
 1.7129251E+01  2.4306015E+01
 1.7140751E+01  2.4298031E+01
 1.7152250E+01  2.4260656E+01
 1.7163752E+01  2.4245802E+01
 1.7175251E+01  2.4275702E+01
 1.7186750E+01  2.4298700E+01
 1.7198252E+01  2.4277126E+01
 1.7209751E+01  2.4242382E+01
 1.7221251E+01  2.4256638E+01
 1.7232750E+01  2.4309710E+01
 1.7244251E+01  2.4301275E+01
 1.7255751E+01  2.4222149E+01
 1.7267250E+01  2.4121021E+01
 1.7278751E+01  2.4056087E+01
 1.7290251E+01  2.4056702E+01
 1.7301750E+01  2.4070127E+01
 1.7313251E+01  2.4100800E+01
 1.7324751E+01  2.4114485E+01
 1.7336250E+01  2.4129532E+01
 1.7347752E+01  2.4087389E+01
 1.7359251E+01  2.4032389E+01
 1.7370750E+01  2.4017946E+01
 1.7382252E+01  2.4004507E+01
 1.7393751E+01  2.3979029E+01
 1.7405251E+01  2.3983709E+01
 1.7416750E+01  2.4033176E+01
 1.7428251E+01  2.4100458E+01
 1.7439751E+01  2.4112001E+01
 1.7451250E+01  2.4075285E+01
 1.7462751E+01  2.4009449E+01
 1.7474251E+01  2.3987072E+01
 1.7485750E+01  2.3985949E+01
 1.7497252E+01  2.4015804E+01
 1.7508751E+01  2.4016386E+01
 1.7520250E+01  2.4010998E+01
 1.7531752E+01  2.4001381E+01
 1.7543251E+01  2.4056326E+01
 1.7554750E+01  2.4081387E+01
 1.7566252E+01  2.4056870E+01
 1.7577751E+01  2.4003452E+01
 1.7589251E+01  2.3936657E+01
 1.7600750E+01  2.3937618E+01
 1.7612251E+01  2.3953859E+01
 1.7623751E+01  2.3927868E+01
 1.7635250E+01  2.3964981E+01
 1.7646751E+01  2.3902985E+01
 1.7658251E+01  2.3926611E+01
 1.7669750E+01  2.3886017E+01
 1.7681252E+01  2.3955223E+01
 1.7692751E+01  2.4014305E+01
 1.7704250E+01  2.3990860E+01
 1.7715752E+01  2.3898607E+01
 1.7727251E+01  2.3806299E+01
 1.7738750E+01  2.3747343E+01
 1.7750252E+01  2.3791336E+01
 1.7761751E+01  2.3814285E+01
 1.7773251E+01  2.3890154E+01
 1.7784750E+01  2.3942730E+01
 1.7796251E+01  2.3988121E+01
 1.7807751E+01  2.4018408E+01
 1.7819250E+01  2.4021318E+01
 1.7830751E+01  2.3984600E+01
 1.7842251E+01  2.3972040E+01
 1.7853750E+01  2.3948048E+01
 1.7865252E+01  2.3992834E+01
 1.7876751E+01  2.3963087E+01
 1.7888250E+01  2.3959135E+01
 1.7899752E+01  2.3901398E+01
 1.7911251E+01  2.3894152E+01
 1.7922750E+01  2.3906378E+01
 1.7934252E+01  2.3983541E+01
 1.7945751E+01  2.4030190E+01
 1.7957251E+01  2.4119278E+01
 1.7968750E+01  2.4225050E+01
 1.7980251E+01  2.4487787E+01
 1.7991751E+01  2.4820314E+01
 1.8003250E+01  2.5575773E+01
 1.8014751E+01  2.6189135E+01
 1.8026251E+01  2.7089655E+01
 1.8037750E+01  2.7863022E+01
 1.8049252E+01  2.8478344E+01
 1.8060751E+01  2.8884850E+01
 1.8072250E+01  2.9002293E+01
 1.8083752E+01  2.9331240E+01
 1.8095251E+01  2.9284374E+01
 1.8106750E+01  2.8995356E+01
 1.8118252E+01  2.8335995E+01
 1.8129751E+01  2.7448063E+01
 1.8141251E+01  2.6647430E+01
 1.8152750E+01  2.5764423E+01
 1.8164251E+01  2.5153631E+01
 1.8175751E+01  2.4654509E+01
 1.8187250E+01  2.4331688E+01
 1.8198751E+01  2.4154581E+01
 1.8210251E+01  2.4041447E+01
 1.8221750E+01  2.3918434E+01
 1.8233252E+01  2.3855551E+01
 1.8244751E+01  2.3799456E+01
 1.8256250E+01  2.3787790E+01
 1.8267752E+01  2.3766413E+01
 1.8279251E+01  2.3755976E+01
 1.8290751E+01  2.3828733E+01
 1.8302252E+01  2.3839069E+01
 1.8313751E+01  2.3834612E+01
 1.8325251E+01  2.3765844E+01
 1.8336750E+01  2.3728447E+01
 1.8348251E+01  2.3718130E+01
 1.8359751E+01  2.3709047E+01
 1.8371250E+01  2.3691662E+01
 1.8382751E+01  2.3656271E+01
 1.8394251E+01  2.3679913E+01
 1.8405750E+01  2.3721886E+01
 1.8417252E+01  2.3760410E+01
 1.8428751E+01  2.3697868E+01
 1.8440250E+01  2.3662390E+01
 1.8451752E+01  2.3619732E+01
 1.8463251E+01  2.3654503E+01
 1.8474751E+01  2.3646248E+01
 1.8486252E+01  2.3654974E+01
 1.8497751E+01  2.3644217E+01
 1.8509251E+01  2.3646046E+01
 1.8520750E+01  2.3619068E+01
 1.8532251E+01  2.3558952E+01
 1.8543751E+01  2.3500137E+01
 1.8555250E+01  2.3489483E+01
 1.8566751E+01  2.3460323E+01
 1.8578251E+01  2.3480368E+01
 1.8589750E+01  2.3529440E+01
 1.8601252E+01  2.3607613E+01
 1.8612751E+01  2.3575304E+01
 1.8624250E+01  2.3525854E+01
 1.8635752E+01  2.3521748E+01
 1.8647251E+01  2.3514589E+01
 1.8658751E+01  2.3463089E+01
 1.8670252E+01  2.3419228E+01
 1.8681751E+01  2.3431112E+01
 1.8693251E+01  2.3478924E+01
 1.8704750E+01  2.3536398E+01
 1.8716251E+01  2.3556246E+01
 1.8727751E+01  2.3541351E+01
 1.8739250E+01  2.3488174E+01
 1.8750751E+01  2.3464773E+01
 1.8762251E+01  2.3447884E+01
 1.8773750E+01  2.3428085E+01
 1.8785252E+01  2.3473351E+01
 1.8796751E+01  2.3572388E+01
 1.8808250E+01  2.3609932E+01
 1.8819752E+01  2.3612825E+01
 1.8831251E+01  2.3605078E+01
 1.8842751E+01  2.3622791E+01
 1.8854252E+01  2.3605442E+01
 1.8865751E+01  2.3604389E+01
 1.8877251E+01  2.3578583E+01
 1.8888750E+01  2.3540548E+01
 1.8900251E+01  2.3509497E+01
 1.8911751E+01  2.3515596E+01
 1.8923250E+01  2.3573374E+01
 1.8934752E+01  2.3578928E+01
 1.8946251E+01  2.3636831E+01
 1.8957750E+01  2.3590202E+01
 1.8969252E+01  2.3579691E+01
 1.8980751E+01  2.3514292E+01
 1.8992250E+01  2.3487389E+01
 1.9003752E+01  2.3467388E+01
 1.9015251E+01  2.3491459E+01
 1.9026751E+01  2.3573179E+01
 1.9038252E+01  2.3647795E+01
 1.9049751E+01  2.3654470E+01
 1.9061251E+01  2.3672646E+01
 1.9072750E+01  2.3679174E+01
 1.9084251E+01  2.3642311E+01
 1.9095751E+01  2.3593643E+01
 1.9107250E+01  2.3566883E+01
 1.9118752E+01  2.3536720E+01
 1.9130251E+01  2.3551203E+01
 1.9141750E+01  2.3583673E+01
 1.9153252E+01  2.3638760E+01
 1.9164751E+01  2.3622711E+01
 1.9176250E+01  2.3584898E+01
 1.9187752E+01  2.3586994E+01
 1.9199251E+01  2.3602522E+01
 1.9210751E+01  2.3643375E+01
 1.9222252E+01  2.3631573E+01
 1.9233751E+01  2.3604769E+01
 1.9245251E+01  2.3599695E+01
 1.9256750E+01  2.3592319E+01
 1.9268251E+01  2.3608400E+01
 1.9279751E+01  2.3588383E+01
 1.9291250E+01  2.3585857E+01
 1.9302752E+01  2.3616207E+01
 1.9314251E+01  2.3706091E+01
 1.9325750E+01  2.3771711E+01
 1.9337252E+01  2.3903383E+01
 1.9348751E+01  2.3916981E+01
 1.9360250E+01  2.3965569E+01
 1.9371752E+01  2.3928175E+01
 1.9383251E+01  2.3883512E+01
 1.9394751E+01  2.3869537E+01
 1.9406250E+01  2.3812679E+01
 1.9417751E+01  2.3823866E+01
 1.9429251E+01  2.3807016E+01
 1.9440750E+01  2.3850618E+01
 1.9452251E+01  2.3814362E+01
 1.9463751E+01  2.3840683E+01
 1.9475250E+01  2.3890066E+01
 1.9486752E+01  2.3905165E+01
 1.9498251E+01  2.3869722E+01
 1.9509750E+01  2.3854471E+01
 1.9521252E+01  2.3873966E+01
 1.9532751E+01  2.3867828E+01
 1.9544250E+01  2.3893621E+01
 1.9555752E+01  2.3962870E+01
 1.9567251E+01  2.3989798E+01
 1.9578751E+01  2.4054068E+01
 1.9590250E+01  2.4113213E+01
 1.9601751E+01  2.4223885E+01
 1.9613251E+01  2.4312023E+01
 1.9624750E+01  2.4373175E+01
 1.9636251E+01  2.4543570E+01
 1.9647751E+01  2.4713057E+01
 1.9659250E+01  2.5156639E+01
 1.9670752E+01  2.5561808E+01
 1.9682251E+01  2.6112074E+01
 1.9693750E+01  2.6722277E+01
 1.9705252E+01  2.7157104E+01
 1.9716751E+01  2.7726603E+01
 1.9728251E+01  2.7681530E+01
 1.9739752E+01  2.7688528E+01
 1.9751251E+01  2.7208862E+01
 1.9762751E+01  2.6960588E+01
 1.9774250E+01  2.6761477E+01
 1.9785751E+01  2.6938234E+01
 1.9797251E+01  2.7797523E+01
 1.9808750E+01  2.9255682E+01
 1.9820251E+01  3.1711340E+01
 1.9831751E+01  3.5002693E+01
 1.9843250E+01  3.9006947E+01
 1.9854752E+01  4.1487175E+01
 1.9866251E+01  4.2554989E+01
 1.9877750E+01  4.0591301E+01
 1.9889252E+01  3.7736286E+01
 1.9900751E+01  3.3592823E+01
 1.9912251E+01  3.0686890E+01
 1.9923752E+01  2.8177254E+01
 1.9935251E+01  2.6706320E+01
 1.9946751E+01  2.5790167E+01
 1.9958250E+01  2.5248514E+01
 1.9969751E+01  2.4990124E+01
 1.9981251E+01  2.4728334E+01
 1.9992750E+01  2.4615808E+01
 2.0004251E+01  2.4518538E+01
 2.0015751E+01  2.4436466E+01
 2.0027250E+01  2.4325518E+01
 2.0038752E+01  2.4265226E+01
 2.0050251E+01  2.4238693E+01
 2.0061750E+01  2.4207165E+01
 2.0073252E+01  2.4182156E+01
 2.0084751E+01  2.4148268E+01
 2.0096251E+01  2.4172699E+01
 2.0107752E+01  2.4198496E+01
 2.0119251E+01  2.4211697E+01
 2.0130751E+01  2.4163746E+01
 2.0142250E+01  2.4086748E+01
 2.0153751E+01  2.4026659E+01
 2.0165251E+01  2.3939154E+01
 2.0176750E+01  2.3907446E+01
 2.0188251E+01  2.3906517E+01
 2.0199751E+01  2.3918083E+01
 2.0211250E+01  2.3943552E+01
 2.0222752E+01  2.3934067E+01
 2.0234251E+01  2.3950287E+01
 2.0245750E+01  2.3913750E+01
 2.0257252E+01  2.3920912E+01
 2.0268751E+01  2.3876408E+01
 2.0280251E+01  2.3888865E+01
 2.0291752E+01  2.3882441E+01
 2.0303251E+01  2.3860298E+01
 2.0314751E+01  2.3801147E+01
 2.0326250E+01  2.3781845E+01
 2.0337751E+01  2.3772596E+01
 2.0349251E+01  2.3789757E+01
 2.0360750E+01  2.3776896E+01
 2.0372252E+01  2.3823889E+01
 2.0383751E+01  2.3835617E+01
 2.0395250E+01  2.3896151E+01
 2.0406752E+01  2.3893682E+01
 2.0418251E+01  2.3897430E+01
 2.0429750E+01  2.3865435E+01
 2.0441252E+01  2.3823833E+01
 2.0452751E+01  2.3832489E+01
 2.0464251E+01  2.3820690E+01
 2.0475752E+01  2.3785824E+01
 2.0487251E+01  2.3723989E+01
 2.0498751E+01  2.3732771E+01
 2.0510250E+01  2.3760481E+01
 2.0521751E+01  2.3785402E+01
 2.0533251E+01  2.3777790E+01
 2.0544750E+01  2.3779631E+01
 2.0556252E+01  2.3827843E+01
 2.0567751E+01  2.3794235E+01
 2.0579250E+01  2.3772972E+01
 2.0590752E+01  2.3768353E+01
 2.0602251E+01  2.3849863E+01
 2.0613750E+01  2.3919487E+01
 2.0625252E+01  2.3985336E+01
 2.0636751E+01  2.4033285E+01
 2.0648251E+01  2.4052008E+01
 2.0659752E+01  2.4082142E+01
 2.0671251E+01  2.4154694E+01
 2.0682751E+01  2.4361544E+01
 2.0694250E+01  2.4579826E+01
 2.0705751E+01  2.4885336E+01
 2.0717251E+01  2.5177019E+01
 2.0728750E+01  2.5553009E+01
 2.0740252E+01  2.5887287E+01
 2.0751751E+01  2.6268290E+01
 2.0763250E+01  2.6588692E+01
 2.0774752E+01  2.6848581E+01
 2.0786251E+01  2.6853630E+01
 2.0797750E+01  2.6701229E+01
 2.0809252E+01  2.6286613E+01
 2.0820751E+01  2.5877722E+01
 2.0832251E+01  2.5442966E+01
 2.0843752E+01  2.5061064E+01
 2.0855251E+01  2.4756828E+01
 2.0866751E+01  2.4509165E+01
 2.0878250E+01  2.4373158E+01
 2.0889751E+01  2.4241764E+01
 2.0901251E+01  2.4213800E+01
 2.0912750E+01  2.4202461E+01
 2.0924252E+01  2.4190451E+01
 2.0935751E+01  2.4122959E+01
 2.0947250E+01  2.4024517E+01
 2.0958752E+01  2.3937199E+01
 2.0970251E+01  2.3894650E+01
 2.0981750E+01  2.3881752E+01
 2.0993252E+01  2.3914619E+01
 2.1004751E+01  2.3901575E+01
 2.1016251E+01  2.3932711E+01
 2.1027752E+01  2.3938778E+01
 2.1039251E+01  2.3945425E+01
 2.1050751E+01  2.3915291E+01
 2.1062250E+01  2.3911501E+01
 2.1073751E+01  2.3928547E+01
 2.1085251E+01  2.3955330E+01
 2.1096750E+01  2.3950022E+01
 2.1108252E+01  2.3993401E+01
 2.1119751E+01  2.4001980E+01
 2.1131250E+01  2.3990299E+01
 2.1142752E+01  2.3895197E+01
 2.1154251E+01  2.3806793E+01
 2.1165751E+01  2.3820251E+01
 2.1177252E+01  2.3900789E+01
 2.1188751E+01  2.3969997E+01
 2.1200251E+01  2.3992298E+01
 2.1211752E+01  2.3993380E+01
 2.1223251E+01  2.3950754E+01
 2.1234751E+01  2.3942080E+01
 2.1246250E+01  2.3965151E+01
 2.1257751E+01  2.3969713E+01
 2.1269251E+01  2.3931465E+01
 2.1280750E+01  2.3872181E+01
 2.1292252E+01  2.3843945E+01
 2.1303751E+01  2.3817137E+01
 2.1315250E+01  2.3804243E+01
 2.1326752E+01  2.3826746E+01
 2.1338251E+01  2.3885397E+01
 2.1349751E+01  2.3931953E+01
 2.1361252E+01  2.3947983E+01
 2.1372751E+01  2.3953264E+01
 2.1384251E+01  2.3939075E+01
 2.1395752E+01  2.3953880E+01
 2.1407251E+01  2.3962780E+01
 2.1418751E+01  2.3968870E+01
 2.1430250E+01  2.3979143E+01
 2.1441751E+01  2.3931410E+01
 2.1453251E+01  2.3966211E+01
 2.1464750E+01  2.3947773E+01
 2.1476252E+01  2.3963963E+01
 2.1487751E+01  2.4012821E+01
 2.1499250E+01  2.4025133E+01
 2.1510752E+01  2.4027178E+01
 2.1522251E+01  2.3991892E+01
 2.1533751E+01  2.4033453E+01
 2.1545252E+01  2.3999142E+01
 2.1556751E+01  2.4000557E+01
 2.1568251E+01  2.3951895E+01
 2.1579752E+01  2.3983263E+01
 2.1591251E+01  2.3996761E+01
 2.1602751E+01  2.4062662E+01
 2.1614250E+01  2.4072292E+01
 2.1625751E+01  2.4078176E+01
 2.1637251E+01  2.4055685E+01
 2.1648750E+01  2.4068079E+01
 2.1660252E+01  2.4096722E+01
 2.1671751E+01  2.4169153E+01
 2.1683250E+01  2.4188637E+01
 2.1694752E+01  2.4172880E+01
 2.1706251E+01  2.4137711E+01
 2.1717751E+01  2.4129429E+01
 2.1729252E+01  2.4088345E+01
 2.1740751E+01  2.4095003E+01
 2.1752251E+01  2.4046127E+01
 2.1763752E+01  2.4000456E+01
 2.1775251E+01  2.4002989E+01
 2.1786751E+01  2.4070452E+01
 2.1798250E+01  2.4126762E+01
 2.1809752E+01  2.4147596E+01
 2.1821251E+01  2.4196144E+01
 2.1832750E+01  2.4182882E+01
 2.1844252E+01  2.4169626E+01
 2.1855751E+01  2.4168961E+01
 2.1867250E+01  2.4186085E+01
 2.1878752E+01  2.4174923E+01
 2.1890251E+01  2.4124586E+01
 2.1901751E+01  2.4145000E+01
 2.1913252E+01  2.4172155E+01
 2.1924751E+01  2.4218565E+01
 2.1936251E+01  2.4236198E+01
 2.1947752E+01  2.4197674E+01
 2.1959251E+01  2.4182442E+01
 2.1970751E+01  2.4184952E+01
 2.1982250E+01  2.4190907E+01
 2.1993752E+01  2.4147326E+01
 2.2005251E+01  2.4176559E+01
 2.2016750E+01  2.4254156E+01
 2.2028252E+01  2.4352991E+01
 2.2039751E+01  2.4406727E+01
 2.2051250E+01  2.4432838E+01
 2.2062752E+01  2.4359499E+01
 2.2074251E+01  2.4302231E+01
 2.2085751E+01  2.4250736E+01
 2.2097252E+01  2.4234362E+01
 2.2108751E+01  2.4231367E+01
 2.2120251E+01  2.4253027E+01
 2.2131752E+01  2.4246798E+01
 2.2143251E+01  2.4285387E+01
 2.2154751E+01  2.4261255E+01
 2.2166250E+01  2.4309660E+01
 2.2177752E+01  2.4281887E+01
 2.2189251E+01  2.4340485E+01
 2.2200750E+01  2.4345917E+01
 2.2212252E+01  2.4348242E+01
 2.2223751E+01  2.4320139E+01
 2.2235250E+01  2.4365250E+01
 2.2246752E+01  2.4408108E+01
 2.2258251E+01  2.4401028E+01
 2.2269751E+01  2.4397053E+01
 2.2281252E+01  2.4422926E+01
 2.2292751E+01  2.4480511E+01
 2.2304251E+01  2.4516542E+01
 2.2315752E+01  2.4540400E+01
 2.2327251E+01  2.4528885E+01
 2.2338751E+01  2.4538643E+01
 2.2350250E+01  2.4569065E+01
 2.2361752E+01  2.4556971E+01
 2.2373251E+01  2.4574158E+01
 2.2384750E+01  2.4573711E+01
 2.2396252E+01  2.4587379E+01
 2.2407751E+01  2.4544086E+01
 2.2419250E+01  2.4508718E+01
 2.2430752E+01  2.4475513E+01
 2.2442251E+01  2.4542355E+01
 2.2453751E+01  2.4592394E+01
 2.2465252E+01  2.4608002E+01
 2.2476751E+01  2.4583973E+01
 2.2488251E+01  2.4621281E+01
 2.2499752E+01  2.4645813E+01
 2.2511251E+01  2.4659765E+01
 2.2522751E+01  2.4712734E+01
 2.2534250E+01  2.4740108E+01
 2.2545752E+01  2.4784462E+01
 2.2557251E+01  2.4788185E+01
 2.2568750E+01  2.4792767E+01
 2.2580252E+01  2.4809519E+01
 2.2591751E+01  2.4866020E+01
 2.2603251E+01  2.4937357E+01
 2.2614752E+01  2.5016417E+01
 2.2626251E+01  2.5063604E+01
 2.2637751E+01  2.5075031E+01
 2.2649252E+01  2.5061785E+01
 2.2660751E+01  2.5092373E+01
 2.2672251E+01  2.5135366E+01
 2.2683752E+01  2.5210861E+01
 2.2695251E+01  2.5242952E+01
 2.2706751E+01  2.5262947E+01
 2.2718250E+01  2.5263748E+01
 2.2729752E+01  2.5224560E+01
 2.2741251E+01  2.5208015E+01
 2.2752750E+01  2.5215773E+01
 2.2764252E+01  2.5258904E+01
 2.2775751E+01  2.5288382E+01
 2.2787251E+01  2.5279720E+01
 2.2798752E+01  2.5357801E+01
 2.2810251E+01  2.5451151E+01
 2.2821751E+01  2.5565565E+01
 2.2833252E+01  2.5578022E+01
 2.2844751E+01  2.5575178E+01
 2.2856251E+01  2.5566490E+01
 2.2867750E+01  2.5615665E+01
 2.2879251E+01  2.5707626E+01
 2.2890751E+01  2.5862768E+01
 2.2902250E+01  2.5955420E+01
 2.2913752E+01  2.6050451E+01
 2.2925251E+01  2.6141584E+01
 2.2936750E+01  2.6213245E+01
 2.2948252E+01  2.6308565E+01
 2.2959751E+01  2.6436777E+01
 2.2971251E+01  2.6654745E+01
 2.2982752E+01  2.6934435E+01
 2.2994251E+01  2.7170580E+01
