F:\20151113_APS_34IDE\\Brian\Particle1\OCV\Data_0025.tif
2-Theta Angle (Degrees)
Intensity
       2000
 5.7500005E-03  0.0000000E+00
 1.7250001E-02  0.0000000E+00
 2.8750001E-02  0.0000000E+00
 4.0250003E-02  0.0000000E+00
 5.1750004E-02  0.0000000E+00
 6.3250005E-02  0.0000000E+00
 7.4750006E-02  0.0000000E+00
 8.6250007E-02  0.0000000E+00
 9.7750008E-02  0.0000000E+00
 1.0925001E-01  0.0000000E+00
 1.2075000E-01  0.0000000E+00
 1.3225001E-01  0.0000000E+00
 1.4375001E-01  0.0000000E+00
 1.5525001E-01  0.0000000E+00
 1.6675001E-01  0.0000000E+00
 1.7825001E-01  0.0000000E+00
 1.8975002E-01  0.0000000E+00
 2.0125002E-01  0.0000000E+00
 2.1275002E-01  0.0000000E+00
 2.2425000E-01  0.0000000E+00
 2.3575000E-01  0.0000000E+00
 2.4725001E-01  0.0000000E+00
 2.5875002E-01  0.0000000E+00
 2.7025002E-01  0.0000000E+00
 2.8175002E-01  0.0000000E+00
 2.9325002E-01  0.0000000E+00
 3.0475003E-01  0.0000000E+00
 3.1625003E-01  0.0000000E+00
 3.2775003E-01  0.0000000E+00
 3.3925003E-01  0.0000000E+00
 3.5075003E-01  0.0000000E+00
 3.6225003E-01  0.0000000E+00
 3.7375003E-01  0.0000000E+00
 3.8525003E-01  0.0000000E+00
 3.9675003E-01  0.0000000E+00
 4.0825003E-01  0.0000000E+00
 4.1975003E-01  0.0000000E+00
 4.3125004E-01  0.0000000E+00
 4.4275001E-01  0.0000000E+00
 4.5425001E-01  0.0000000E+00
 4.6575001E-01  0.0000000E+00
 4.7725001E-01  0.0000000E+00
 4.8875001E-01  0.0000000E+00
 5.0025004E-01  0.0000000E+00
 5.1175004E-01  0.0000000E+00
 5.2325004E-01  0.0000000E+00
 5.3475004E-01  0.0000000E+00
 5.4625005E-01  0.0000000E+00
 5.5775005E-01  0.0000000E+00
 5.6925005E-01  0.0000000E+00
 5.8075005E-01  0.0000000E+00
 5.9225005E-01  0.0000000E+00
 6.0375005E-01  0.0000000E+00
 6.1525005E-01  0.0000000E+00
 6.2675005E-01  0.0000000E+00
 6.3825005E-01  0.0000000E+00
 6.4975005E-01  0.0000000E+00
 6.6125005E-01  0.0000000E+00
 6.7275006E-01  0.0000000E+00
 6.8425006E-01  0.0000000E+00
 6.9575006E-01  0.0000000E+00
 7.0725006E-01  0.0000000E+00
 7.1875006E-01  0.0000000E+00
 7.3025006E-01  0.0000000E+00
 7.4175006E-01  0.0000000E+00
 7.5325006E-01  0.0000000E+00
 7.6475006E-01  0.0000000E+00
 7.7625006E-01  0.0000000E+00
 7.8775007E-01  0.0000000E+00
 7.9925007E-01  0.0000000E+00
 8.1075007E-01  0.0000000E+00
 8.2225007E-01  0.0000000E+00
 8.3375007E-01  0.0000000E+00
 8.4525007E-01  0.0000000E+00
 8.5675007E-01  0.0000000E+00
 8.6825007E-01  0.0000000E+00
 8.7975001E-01  0.0000000E+00
 8.9125001E-01  0.0000000E+00
 9.0275002E-01  0.0000000E+00
 9.1425002E-01  0.0000000E+00
 9.2575002E-01  0.0000000E+00
 9.3725002E-01  0.0000000E+00
 9.4875002E-01  0.0000000E+00
 9.6025002E-01  0.0000000E+00
 9.7175002E-01  0.0000000E+00
 9.8325002E-01  0.0000000E+00
 9.9475002E-01  0.0000000E+00
 1.0062500E+00  0.0000000E+00
 1.0177500E+00  0.0000000E+00
 1.0292500E+00  0.0000000E+00
 1.0407500E+00  0.0000000E+00
 1.0522500E+00  0.0000000E+00
 1.0637500E+00  0.0000000E+00
 1.0752500E+00  0.0000000E+00
 1.0867500E+00  0.0000000E+00
 1.0982500E+00  0.0000000E+00
 1.1097500E+00  0.0000000E+00
 1.1212500E+00  0.0000000E+00
 1.1327500E+00  0.0000000E+00
 1.1442500E+00  0.0000000E+00
 1.1557500E+00  0.0000000E+00
 1.1672500E+00  0.0000000E+00
 1.1787500E+00  0.0000000E+00
 1.1902500E+00  0.0000000E+00
 1.2017500E+00  0.0000000E+00
 1.2132500E+00  0.0000000E+00
 1.2247500E+00  0.0000000E+00
 1.2362500E+00  0.0000000E+00
 1.2477500E+00  0.0000000E+00
 1.2592500E+00  0.0000000E+00
 1.2707500E+00  0.0000000E+00
 1.2822500E+00  0.0000000E+00
 1.2937500E+00  0.0000000E+00
 1.3052500E+00  0.0000000E+00
 1.3167500E+00  0.0000000E+00
 1.3282501E+00  0.0000000E+00
 1.3397501E+00  0.0000000E+00
 1.3512501E+00  0.0000000E+00
 1.3627501E+00  0.0000000E+00
 1.3742501E+00  0.0000000E+00
 1.3857501E+00  0.0000000E+00
 1.3972501E+00  0.0000000E+00
 1.4087501E+00  0.0000000E+00
 1.4202501E+00  0.0000000E+00
 1.4317501E+00  0.0000000E+00
 1.4432501E+00  0.0000000E+00
 1.4547501E+00  0.0000000E+00
 1.4662501E+00  0.0000000E+00
 1.4777501E+00  0.0000000E+00
 1.4892501E+00  0.0000000E+00
 1.5007501E+00  0.0000000E+00
 1.5122501E+00  0.0000000E+00
 1.5237501E+00  0.0000000E+00
 1.5352501E+00  0.0000000E+00
 1.5467501E+00  0.0000000E+00
 1.5582501E+00  0.0000000E+00
 1.5697501E+00  0.0000000E+00
 1.5812501E+00  0.0000000E+00
 1.5927501E+00  0.0000000E+00
 1.6042501E+00  0.0000000E+00
 1.6157501E+00  0.0000000E+00
 1.6272501E+00  0.0000000E+00
 1.6387501E+00  0.0000000E+00
 1.6502501E+00  0.0000000E+00
 1.6617501E+00  0.0000000E+00
 1.6732501E+00  0.0000000E+00
 1.6847501E+00  0.0000000E+00
 1.6962501E+00  0.0000000E+00
 1.7077501E+00  0.0000000E+00
 1.7192501E+00  0.0000000E+00
 1.7307501E+00  0.0000000E+00
 1.7422501E+00  0.0000000E+00
 1.7537501E+00  0.0000000E+00
 1.7652501E+00  0.0000000E+00
 1.7767501E+00  0.0000000E+00
 1.7882501E+00  0.0000000E+00
 1.7997501E+00  0.0000000E+00
 1.8112501E+00  0.0000000E+00
 1.8227501E+00  0.0000000E+00
 1.8342501E+00  0.0000000E+00
 1.8457501E+00  0.0000000E+00
 1.8572501E+00  0.0000000E+00
 1.8687501E+00  0.0000000E+00
 1.8802501E+00  0.0000000E+00
 1.8917501E+00  0.0000000E+00
 1.9032501E+00  0.0000000E+00
 1.9147501E+00  0.0000000E+00
 1.9262501E+00  0.0000000E+00
 1.9377501E+00  0.0000000E+00
 1.9492501E+00  0.0000000E+00
 1.9607501E+00  0.0000000E+00
 1.9722501E+00  0.0000000E+00
 1.9837501E+00  0.0000000E+00
 1.9952501E+00  0.0000000E+00
 2.0067501E+00  0.0000000E+00
 2.0182500E+00  0.0000000E+00
 2.0297501E+00  0.0000000E+00
 2.0412500E+00  0.0000000E+00
 2.0527501E+00  0.0000000E+00
 2.0642500E+00  0.0000000E+00
 2.0757501E+00  0.0000000E+00
 2.0872500E+00  0.0000000E+00
 2.0987501E+00  0.0000000E+00
 2.1102500E+00  0.0000000E+00
 2.1217501E+00  0.0000000E+00
 2.1332500E+00  0.0000000E+00
 2.1447501E+00  0.0000000E+00
 2.1562500E+00  0.0000000E+00
 2.1677501E+00  0.0000000E+00
 2.1792500E+00  0.0000000E+00
 2.1907501E+00  0.0000000E+00
 2.2022500E+00  0.0000000E+00
 2.2137501E+00  0.0000000E+00
 2.2252500E+00  0.0000000E+00
 2.2367501E+00  0.0000000E+00
 2.2482500E+00  0.0000000E+00
 2.2597501E+00  0.0000000E+00
 2.2712500E+00  0.0000000E+00
 2.2827501E+00  0.0000000E+00
 2.2942500E+00  0.0000000E+00
 2.3057501E+00  0.0000000E+00
 2.3172500E+00  0.0000000E+00
 2.3287501E+00  0.0000000E+00
 2.3402500E+00  0.0000000E+00
 2.3517501E+00  0.0000000E+00
 2.3632500E+00  0.0000000E+00
 2.3747501E+00  0.0000000E+00
 2.3862500E+00  0.0000000E+00
 2.3977501E+00  0.0000000E+00
 2.4092500E+00  0.0000000E+00
 2.4207501E+00  0.0000000E+00
 2.4322500E+00  0.0000000E+00
 2.4437501E+00  0.0000000E+00
 2.4552500E+00  0.0000000E+00
 2.4667501E+00  0.0000000E+00
 2.4782500E+00  0.0000000E+00
 2.4897501E+00  0.0000000E+00
 2.5012500E+00  0.0000000E+00
 2.5127501E+00  0.0000000E+00
 2.5242500E+00  0.0000000E+00
 2.5357502E+00  0.0000000E+00
 2.5472500E+00  0.0000000E+00
 2.5587502E+00  0.0000000E+00
 2.5702500E+00  0.0000000E+00
 2.5817502E+00  0.0000000E+00
 2.5932500E+00  0.0000000E+00
 2.6047502E+00  0.0000000E+00
 2.6162500E+00  0.0000000E+00
 2.6277502E+00  0.0000000E+00
 2.6392500E+00  0.0000000E+00
 2.6507502E+00  0.0000000E+00
 2.6622500E+00  0.0000000E+00
 2.6737502E+00  0.0000000E+00
 2.6852500E+00  0.0000000E+00
 2.6967502E+00  0.0000000E+00
 2.7082500E+00  0.0000000E+00
 2.7197502E+00  0.0000000E+00
 2.7312500E+00  0.0000000E+00
 2.7427502E+00  0.0000000E+00
 2.7542500E+00  0.0000000E+00
 2.7657502E+00  0.0000000E+00
 2.7772501E+00  0.0000000E+00
 2.7887502E+00  0.0000000E+00
 2.8002501E+00  0.0000000E+00
 2.8117502E+00  0.0000000E+00
 2.8232501E+00  3.7699783E+01
 2.8347502E+00  3.7291725E+01
 2.8462501E+00  3.7007473E+01
 2.8577502E+00  3.6807011E+01
 2.8692501E+00  3.6337624E+01
 2.8807502E+00  3.5809345E+01
 2.8922501E+00  3.5373749E+01
 2.9037502E+00  3.4674603E+01
 2.9152501E+00  3.4612701E+01
 2.9267502E+00  3.4183750E+01
 2.9382501E+00  3.4561520E+01
 2.9497502E+00  3.4909134E+01
 2.9612501E+00  3.5359928E+01
 2.9727502E+00  3.5725166E+01
 2.9842501E+00  3.5640045E+01
 2.9957502E+00  3.5546890E+01
 3.0072501E+00  3.5568741E+01
 3.0187502E+00  3.5467049E+01
 3.0302501E+00  3.5537830E+01
 3.0417502E+00  3.5581581E+01
 3.0532501E+00  3.5321091E+01
 3.0647502E+00  3.5497181E+01
 3.0762501E+00  3.5413467E+01
 3.0877502E+00  3.5493279E+01
 3.0992501E+00  3.5580986E+01
 3.1107502E+00  3.5507023E+01
 3.1222501E+00  3.5945274E+01
 3.1337502E+00  3.6451576E+01
 3.1452501E+00  3.6702744E+01
 3.1567502E+00  3.6986870E+01
 3.1682501E+00  3.6568619E+01
 3.1797502E+00  3.6436436E+01
 3.1912501E+00  3.6103333E+01
 3.2027502E+00  3.5750458E+01
 3.2142501E+00  3.5593601E+01
 3.2257502E+00  3.5686272E+01
 3.2372501E+00  3.5651779E+01
 3.2487502E+00  3.5787285E+01
 3.2602501E+00  3.5480362E+01
 3.2717502E+00  3.5018772E+01
 3.2832501E+00  3.4557991E+01
 3.2947502E+00  3.4075024E+01
 3.3062501E+00  3.4019642E+01
 3.3177502E+00  3.3969837E+01
 3.3292501E+00  3.4448681E+01
 3.3407502E+00  3.5046848E+01
 3.3522501E+00  3.5636509E+01
 3.3637502E+00  3.5728882E+01
 3.3752501E+00  3.5792442E+01
 3.3867502E+00  3.5399784E+01
 3.3982501E+00  3.5072243E+01
 3.4097502E+00  3.4529743E+01
 3.4212501E+00  3.4432926E+01
 3.4327502E+00  3.4265579E+01
 3.4442501E+00  3.4431133E+01
 3.4557502E+00  3.4414211E+01
 3.4672501E+00  3.4493732E+01
 3.4787502E+00  3.4345177E+01
 3.4902501E+00  3.4602886E+01
 3.5017502E+00  3.4642529E+01
 3.5132501E+00  3.4545704E+01
 3.5247502E+00  3.4523582E+01
 3.5362501E+00  3.4619858E+01
 3.5477502E+00  3.4839111E+01
 3.5592501E+00  3.4691105E+01
 3.5707502E+00  3.4408348E+01
 3.5822501E+00  3.4079292E+01
 3.5937502E+00  3.3702972E+01
 3.6052501E+00  3.3466213E+01
 3.6167502E+00  3.3508568E+01
 3.6282501E+00  3.3587929E+01
 3.6397502E+00  3.3656242E+01
 3.6512501E+00  3.3563129E+01
 3.6627502E+00  3.3438011E+01
 3.6742501E+00  3.3427151E+01
 3.6857502E+00  3.3328796E+01
 3.6972501E+00  3.3434517E+01
 3.7087502E+00  3.3288090E+01
 3.7202501E+00  3.3385105E+01
 3.7317502E+00  3.3234985E+01
 3.7432501E+00  3.3519527E+01
 3.7547503E+00  3.3681446E+01
 3.7662501E+00  3.3880589E+01
 3.7777503E+00  3.3774391E+01
 3.7892501E+00  3.3393623E+01
 3.8007503E+00  3.2988621E+01
 3.8122501E+00  3.2730007E+01
 3.8237503E+00  3.2641941E+01
 3.8352501E+00  3.2645264E+01
 3.8467503E+00  3.2757565E+01
 3.8582501E+00  3.2866840E+01
 3.8697503E+00  3.3137306E+01
 3.8812501E+00  3.3333736E+01
 3.8927503E+00  3.3335739E+01
 3.9042501E+00  3.3243076E+01
 3.9157503E+00  3.3178520E+01
 3.9272501E+00  3.3251110E+01
 3.9387503E+00  3.3152534E+01
 3.9502501E+00  3.3033474E+01
 3.9617503E+00  3.3004997E+01
 3.9732502E+00  3.2987671E+01
 3.9847503E+00  3.2900940E+01
 3.9962502E+00  3.2846481E+01
 4.0077500E+00  3.2817062E+01
 4.0192504E+00  3.2756271E+01
 4.0307503E+00  3.2746784E+01
 4.0422502E+00  3.2623608E+01
 4.0537500E+00  3.2692856E+01
 4.0652504E+00  3.2649113E+01
 4.0767503E+00  3.2592960E+01
 4.0882502E+00  3.2621017E+01
 4.0997500E+00  3.2400166E+01
 4.1112504E+00  3.2413425E+01
 4.1227503E+00  3.2187439E+01
 4.1342502E+00  3.2252140E+01
 4.1457500E+00  3.2051510E+01
 4.1572504E+00  3.1905575E+01
 4.1687503E+00  3.1829479E+01
 4.1802502E+00  3.1730337E+01
 4.1917500E+00  3.1946774E+01
 4.2032504E+00  3.1836039E+01
 4.2147503E+00  3.1981031E+01
 4.2262502E+00  3.1960205E+01
 4.2377501E+00  3.2045399E+01
 4.2492504E+00  3.2036037E+01
 4.2607503E+00  3.1955307E+01
 4.2722502E+00  3.1864376E+01
 4.2837501E+00  3.1783302E+01
 4.2952504E+00  3.1778675E+01
 4.3067503E+00  3.1710901E+01
 4.3182502E+00  3.1870564E+01
 4.3297501E+00  3.1997475E+01
 4.3412504E+00  3.2272945E+01
 4.3527503E+00  3.2382412E+01
 4.3642502E+00  3.2553925E+01
 4.3757501E+00  3.2607834E+01
 4.3872504E+00  3.2635593E+01
 4.3987503E+00  3.2666546E+01
 4.4102502E+00  3.2789623E+01
 4.4217501E+00  3.2856163E+01
 4.4332504E+00  3.2869461E+01
 4.4447503E+00  3.2801876E+01
 4.4562502E+00  3.2801922E+01
 4.4677501E+00  3.2866722E+01
 4.4792504E+00  3.2833103E+01
 4.4907503E+00  3.2798523E+01
 4.5022502E+00  3.2715645E+01
 4.5137501E+00  3.2652187E+01
 4.5252504E+00  3.2747406E+01
 4.5367503E+00  3.2850368E+01
 4.5482502E+00  3.2970631E+01
 4.5597501E+00  3.3023537E+01
 4.5712504E+00  3.3063755E+01
 4.5827503E+00  3.3084576E+01
 4.5942502E+00  3.3165066E+01
 4.6057501E+00  3.3081059E+01
 4.6172504E+00  3.3064880E+01
 4.6287503E+00  3.2926678E+01
 4.6402502E+00  3.2897160E+01
 4.6517501E+00  3.2738495E+01
 4.6632504E+00  3.2830986E+01
 4.6747503E+00  3.2825958E+01
 4.6862502E+00  3.2953686E+01
 4.6977501E+00  3.3075726E+01
 4.7092505E+00  3.3221920E+01
 4.7207503E+00  3.3271332E+01
 4.7322502E+00  3.3165924E+01
 4.7437501E+00  3.2954659E+01
 4.7552505E+00  3.2932770E+01
 4.7667503E+00  3.2885063E+01
 4.7782502E+00  3.2874512E+01
 4.7897501E+00  3.2852451E+01
 4.8012505E+00  3.2684792E+01
 4.8127503E+00  3.2655293E+01
 4.8242502E+00  3.2507267E+01
 4.8357501E+00  3.2546623E+01
 4.8472505E+00  3.2599651E+01
 4.8587503E+00  3.2684101E+01
 4.8702502E+00  3.2788677E+01
 4.8817501E+00  3.2766613E+01
 4.8932505E+00  3.2809212E+01
 4.9047503E+00  3.2865646E+01
 4.9162502E+00  3.2981216E+01
 4.9277501E+00  3.3037834E+01
 4.9392505E+00  3.3054131E+01
 4.9507504E+00  3.3108654E+01
 4.9622502E+00  3.3121128E+01
 4.9737501E+00  3.3102871E+01
 4.9852505E+00  3.3054836E+01
 4.9967504E+00  3.3011745E+01
 5.0082502E+00  3.3144161E+01
 5.0197501E+00  3.3215549E+01
 5.0312505E+00  3.3364437E+01
 5.0427504E+00  3.3376114E+01
 5.0542502E+00  3.3358051E+01
 5.0657501E+00  3.3401733E+01
 5.0772505E+00  3.3431545E+01
 5.0887504E+00  3.3568699E+01
 5.1002502E+00  3.3580986E+01
 5.1117501E+00  3.3601444E+01
 5.1232505E+00  3.3499401E+01
 5.1347504E+00  3.3589836E+01
 5.1462502E+00  3.3569710E+01
 5.1577501E+00  3.3759609E+01
 5.1692505E+00  3.3764973E+01
 5.1807504E+00  3.3838097E+01
 5.1922503E+00  3.3903679E+01
 5.2037501E+00  3.3932224E+01
 5.2152505E+00  3.4066601E+01
 5.2267504E+00  3.4239513E+01
 5.2382503E+00  3.4416821E+01
 5.2497501E+00  3.4513493E+01
 5.2612505E+00  3.4427711E+01
 5.2727504E+00  3.4340763E+01
 5.2842503E+00  3.4314320E+01
 5.2957501E+00  3.4290821E+01
 5.3072500E+00  3.4234058E+01
 5.3187504E+00  3.4313126E+01
 5.3302503E+00  3.4273346E+01
 5.3417501E+00  3.4323959E+01
 5.3532500E+00  3.4285950E+01
 5.3647504E+00  3.4283821E+01
 5.3762503E+00  3.4334583E+01
 5.3877501E+00  3.4387127E+01
 5.3992500E+00  3.4449112E+01
 5.4107504E+00  3.4547070E+01
 5.4222503E+00  3.4630234E+01
 5.4337502E+00  3.4692787E+01
 5.4452500E+00  3.4820618E+01
 5.4567504E+00  3.4918812E+01
 5.4682503E+00  3.4981335E+01
 5.4797502E+00  3.5000813E+01
 5.4912500E+00  3.4858616E+01
 5.5027504E+00  3.4909504E+01
 5.5142503E+00  3.4893475E+01
 5.5257502E+00  3.4961288E+01
 5.5372500E+00  3.4939140E+01
 5.5487504E+00  3.4978844E+01
 5.5602503E+00  3.5148247E+01
 5.5717502E+00  3.5212559E+01
 5.5832500E+00  3.5315735E+01
 5.5947504E+00  3.5411266E+01
 5.6062503E+00  3.5518780E+01
 5.6177502E+00  3.5589218E+01
 5.6292500E+00  3.5626793E+01
 5.6407504E+00  3.5662914E+01
 5.6522503E+00  3.5630638E+01
 5.6637502E+00  3.5747898E+01
 5.6752501E+00  3.5847294E+01
 5.6867504E+00  3.5969254E+01
 5.6982503E+00  3.6022446E+01
 5.7097502E+00  3.5945602E+01
 5.7212501E+00  3.5985458E+01
 5.7327504E+00  3.5887424E+01
 5.7442503E+00  3.5980145E+01
 5.7557502E+00  3.5990360E+01
 5.7672501E+00  3.5984196E+01
 5.7787504E+00  3.5974594E+01
 5.7902503E+00  3.6030434E+01
 5.8017502E+00  3.6050674E+01
 5.8132501E+00  3.6233921E+01
 5.8247504E+00  3.6261116E+01
 5.8362503E+00  3.6391521E+01
 5.8477502E+00  3.6484909E+01
 5.8592501E+00  3.6557781E+01
 5.8707504E+00  3.6722294E+01
 5.8822503E+00  3.6883846E+01
 5.8937502E+00  3.7229710E+01
 5.9052501E+00  3.7699612E+01
 5.9167504E+00  3.8383587E+01
 5.9282503E+00  3.9474464E+01
 5.9397502E+00  4.1235588E+01
 5.9512501E+00  4.3069748E+01
 5.9627504E+00  4.5119495E+01
 5.9742503E+00  4.7322311E+01
 5.9857502E+00  4.7759632E+01
 5.9972501E+00  4.7336407E+01
 6.0087504E+00  4.5355782E+01
 6.0202503E+00  4.3350433E+01
 6.0317502E+00  4.1258461E+01
 6.0432501E+00  3.9439629E+01
 6.0547504E+00  3.8360706E+01
 6.0662503E+00  3.7760143E+01
 6.0777502E+00  3.7299694E+01
 6.0892501E+00  3.7181473E+01
 6.1007504E+00  3.7175255E+01
 6.1122503E+00  3.7124611E+01
 6.1237502E+00  3.7146946E+01
 6.1352501E+00  3.7116394E+01
 6.1467505E+00  3.7062901E+01
 6.1582503E+00  3.7102100E+01
 6.1697502E+00  3.7126480E+01
 6.1812501E+00  3.7338009E+01
 6.1927505E+00  3.7451214E+01
 6.2042503E+00  3.7586468E+01
 6.2157502E+00  3.7644810E+01
 6.2272501E+00  3.7678623E+01
 6.2387505E+00  3.7627220E+01
 6.2502503E+00  3.7524944E+01
 6.2617502E+00  3.7506741E+01
 6.2732501E+00  3.7552284E+01
 6.2847505E+00  3.7654602E+01
 6.2962503E+00  3.7771667E+01
 6.3077502E+00  3.7845791E+01
 6.3192501E+00  3.7951874E+01
 6.3307505E+00  3.8066654E+01
 6.3422503E+00  3.8093475E+01
 6.3537502E+00  3.8145218E+01
 6.3652501E+00  3.8053295E+01
 6.3767505E+00  3.8100883E+01
 6.3882504E+00  3.8176861E+01
 6.3997502E+00  3.8231941E+01
 6.4112501E+00  3.8371948E+01
 6.4227505E+00  3.8476910E+01
 6.4342504E+00  3.8619400E+01
 6.4457502E+00  3.8775112E+01
 6.4572501E+00  3.8722450E+01
 6.4687505E+00  3.8807369E+01
 6.4802504E+00  3.8782745E+01
 6.4917502E+00  3.9010078E+01
 6.5032501E+00  3.9201656E+01
 6.5147505E+00  3.9404278E+01
 6.5262504E+00  3.9376244E+01
 6.5377502E+00  3.9346191E+01
 6.5492501E+00  3.9334068E+01
 6.5607505E+00  3.9439339E+01
 6.5722504E+00  3.9570400E+01
 6.5837502E+00  3.9673443E+01
 6.5952501E+00  3.9848484E+01
 6.6067505E+00  3.9946278E+01
 6.6182504E+00  3.9998997E+01
 6.6297503E+00  4.0073360E+01
 6.6412501E+00  4.0185944E+01
 6.6527505E+00  4.0353794E+01
 6.6642504E+00  4.0528713E+01
 6.6757503E+00  4.0669090E+01
 6.6872501E+00  4.0838829E+01
 6.6987505E+00  4.1008118E+01
 6.7102504E+00  4.1065201E+01
 6.7217503E+00  4.1035915E+01
 6.7332501E+00  4.0943085E+01
 6.7447505E+00  4.0968426E+01
 6.7562504E+00  4.1113926E+01
 6.7677503E+00  4.1219608E+01
 6.7792501E+00  4.1406052E+01
 6.7907505E+00  4.1477734E+01
 6.8022504E+00  4.1731304E+01
 6.8137503E+00  4.1857109E+01
 6.8252501E+00  4.1926846E+01
 6.8367505E+00  4.1967464E+01
 6.8482504E+00  4.1882133E+01
 6.8597503E+00  4.1882065E+01
 6.8712502E+00  4.1797703E+01
 6.8827505E+00  4.1799347E+01
 6.8942504E+00  4.1837044E+01
 6.9057503E+00  4.1987434E+01
 6.9172502E+00  4.2179146E+01
 6.9287505E+00  4.2260014E+01
 6.9402504E+00  4.2426212E+01
 6.9517503E+00  4.2368969E+01
 6.9632502E+00  4.2382881E+01
 6.9747505E+00  4.2337620E+01
 6.9862504E+00  4.2319729E+01
 6.9977503E+00  4.2398968E+01
 7.0092502E+00  4.2349476E+01
 7.0207505E+00  4.2599625E+01
 7.0322504E+00  4.2720524E+01
 7.0437503E+00  4.2904926E+01
 7.0552502E+00  4.2872665E+01
 7.0667505E+00  4.2930191E+01
 7.0782504E+00  4.2965435E+01
 7.0897503E+00  4.3036865E+01
 7.1012502E+00  4.3150497E+01
 7.1127505E+00  4.3224949E+01
 7.1242504E+00  4.3303795E+01
 7.1357503E+00  4.3316006E+01
 7.1472502E+00  4.3303028E+01
 7.1587505E+00  4.3291229E+01
 7.1702504E+00  4.3315693E+01
 7.1817503E+00  4.3348812E+01
 7.1932502E+00  4.3435776E+01
 7.2047505E+00  4.3491295E+01
 7.2162504E+00  4.3601181E+01
 7.2277503E+00  4.3736763E+01
 7.2392502E+00  4.3837048E+01
 7.2507505E+00  4.3948521E+01
 7.2622504E+00  4.4073978E+01
 7.2737503E+00  4.4151344E+01
 7.2852502E+00  4.4204933E+01
 7.2967505E+00  4.4135258E+01
 7.3082504E+00  4.4061081E+01
 7.3197503E+00  4.4040035E+01
 7.3312502E+00  4.4021599E+01
 7.3427505E+00  4.4118477E+01
 7.3542504E+00  4.4154766E+01
 7.3657503E+00  4.4228298E+01
 7.3772502E+00  4.4265289E+01
 7.3887506E+00  4.4342525E+01
 7.4002504E+00  4.4346214E+01
 7.4117503E+00  4.4480392E+01
 7.4232502E+00  4.4463852E+01
 7.4347506E+00  4.4584961E+01
 7.4462504E+00  4.4724506E+01
 7.4577503E+00  4.4816910E+01
 7.4692502E+00  4.4871651E+01
 7.4807506E+00  4.4775990E+01
 7.4922504E+00  4.4727360E+01
 7.5037503E+00  4.4617241E+01
 7.5152502E+00  4.4622894E+01
 7.5267506E+00  4.4541523E+01
 7.5382504E+00  4.4619221E+01
 7.5497503E+00  4.4576607E+01
 7.5612502E+00  4.4658504E+01
 7.5727506E+00  4.4710514E+01
 7.5842505E+00  4.4733414E+01
 7.5957503E+00  4.4784565E+01
 7.6072502E+00  4.4747242E+01
 7.6187506E+00  4.4767044E+01
 7.6302505E+00  4.4687183E+01
 7.6417503E+00  4.4702091E+01
 7.6532502E+00  4.4652210E+01
 7.6647506E+00  4.4692131E+01
 7.6762505E+00  4.4663731E+01
 7.6877503E+00  4.4691387E+01
 7.6992502E+00  4.4636700E+01
 7.7107506E+00  4.4665359E+01
 7.7222505E+00  4.4738445E+01
 7.7337503E+00  4.4807819E+01
 7.7452502E+00  4.4816578E+01
 7.7567506E+00  4.4772346E+01
 7.7682505E+00  4.4742020E+01
 7.7797503E+00  4.4728004E+01
 7.7912502E+00  4.4744579E+01
 7.8027506E+00  4.4788990E+01
 7.8142505E+00  4.4767715E+01
 7.8257504E+00  4.4693417E+01
 7.8372502E+00  4.4674614E+01
 7.8487506E+00  4.4644890E+01
 7.8602505E+00  4.4623657E+01
 7.8717504E+00  4.4483860E+01
 7.8832502E+00  4.4324188E+01
 7.8947506E+00  4.4157906E+01
 7.9062505E+00  4.4173275E+01
 7.9177504E+00  4.4201057E+01
 7.9292502E+00  4.4230335E+01
 7.9407506E+00  4.4142326E+01
 7.9522505E+00  4.4073708E+01
 7.9637504E+00  4.4021503E+01
 7.9752502E+00  4.3816574E+01
 7.9867506E+00  4.3728771E+01
 7.9982505E+00  4.3647144E+01
 8.0097504E+00  4.3701481E+01
 8.0212507E+00  4.3716320E+01
 8.0327501E+00  4.3741596E+01
 8.0442505E+00  4.3721390E+01
 8.0557508E+00  4.3692257E+01
 8.0672503E+00  4.3546173E+01
 8.0787506E+00  4.3451401E+01
 8.0902500E+00  4.3296276E+01
 8.1017504E+00  4.3275604E+01
 8.1132507E+00  4.3196609E+01
 8.1247501E+00  4.3143795E+01
 8.1362505E+00  4.3019962E+01
 8.1477509E+00  4.2972076E+01
 8.1592503E+00  4.2861046E+01
 8.1707506E+00  4.2698093E+01
 8.1822500E+00  4.2475838E+01
 8.1937504E+00  4.2328701E+01
 8.2052507E+00  4.2172764E+01
 8.2167501E+00  4.1972523E+01
 8.2282505E+00  4.1862164E+01
 8.2397509E+00  4.1738823E+01
 8.2512503E+00  4.1749245E+01
 8.2627506E+00  4.1609299E+01
 8.2742500E+00  4.1470253E+01
 8.2857504E+00  4.1230057E+01
 8.2972507E+00  4.1106838E+01
 8.3087502E+00  4.1000481E+01
 8.3202505E+00  4.0965168E+01
 8.3317509E+00  4.0831955E+01
 8.3432503E+00  4.0716064E+01
 8.3547506E+00  4.0662716E+01
 8.3662500E+00  4.0567482E+01
 8.3777504E+00  4.0433872E+01
 8.3892508E+00  4.0254128E+01
 8.4007502E+00  4.0057178E+01
 8.4122505E+00  3.9895477E+01
 8.4237509E+00  3.9733109E+01
 8.4352503E+00  3.9573483E+01
 8.4467506E+00  3.9458675E+01
 8.4582500E+00  3.9306400E+01
 8.4697504E+00  3.9181698E+01
 8.4812508E+00  3.8980572E+01
 8.4927502E+00  3.8753826E+01
 8.5042505E+00  3.8530350E+01
 8.5157509E+00  3.8289120E+01
 8.5272503E+00  3.8064224E+01
 8.5387506E+00  3.7834980E+01
 8.5502501E+00  3.7622749E+01
 8.5617504E+00  3.7488083E+01
 8.5732508E+00  3.7323891E+01
 8.5847502E+00  3.7201752E+01
 8.5962505E+00  3.7045460E+01
 8.6077509E+00  3.6873547E+01
 8.6192503E+00  3.6793839E+01
 8.6307507E+00  3.6637188E+01
 8.6422501E+00  3.6462341E+01
 8.6537504E+00  3.6164124E+01
 8.6652508E+00  3.5905205E+01
 8.6767502E+00  3.5654240E+01
 8.6882505E+00  3.5490997E+01
 8.6997509E+00  3.5348255E+01
 8.7112503E+00  3.5243374E+01
 8.7227507E+00  3.5143566E+01
 8.7342501E+00  3.4911530E+01
 8.7457504E+00  3.4756466E+01
 8.7572508E+00  3.4573669E+01
 8.7687502E+00  3.4458267E+01
 8.7802505E+00  3.4322880E+01
 8.7917500E+00  3.4172882E+01
 8.8032503E+00  3.4066654E+01
 8.8147507E+00  3.4052689E+01
 8.8262501E+00  3.3902897E+01
 8.8377504E+00  3.3724472E+01
 8.8492508E+00  3.3425484E+01
 8.8607502E+00  3.3199356E+01
 8.8722506E+00  3.3035637E+01
 8.8837500E+00  3.2839886E+01
 8.8952503E+00  3.2640301E+01
 8.9067507E+00  3.2420769E+01
 8.9182501E+00  3.2251030E+01
 8.9297504E+00  3.2103683E+01
 8.9412508E+00  3.1902903E+01
 8.9527502E+00  3.1727905E+01
 8.9642506E+00  3.1584953E+01
 8.9757500E+00  3.1447962E+01
 8.9872503E+00  3.1317850E+01
 8.9987507E+00  3.1159254E+01
 9.0102501E+00  3.1098680E+01
 9.0217505E+00  3.0941250E+01
 9.0332508E+00  3.0839632E+01
 9.0447502E+00  3.0752977E+01
 9.0562506E+00  3.0650282E+01
 9.0677500E+00  3.0553860E+01
 9.0792503E+00  3.0449863E+01
 9.0907507E+00  3.0285315E+01
 9.1022501E+00  3.0143427E+01
 9.1137505E+00  2.9960897E+01
 9.1252508E+00  2.9876560E+01
 9.1367502E+00  2.9779970E+01
 9.1482506E+00  2.9701433E+01
 9.1597500E+00  2.9639326E+01
 9.1712503E+00  2.9578167E+01
 9.1827507E+00  2.9457462E+01
 9.1942501E+00  2.9291193E+01
 9.2057505E+00  2.9039268E+01
 9.2172508E+00  2.8865639E+01
 9.2287502E+00  2.8705620E+01
 9.2402506E+00  2.8580009E+01
 9.2517500E+00  2.8438715E+01
 9.2632504E+00  2.8386927E+01
 9.2747507E+00  2.8366993E+01
 9.2862501E+00  2.8386206E+01
 9.2977505E+00  2.8273485E+01
 9.3092508E+00  2.8166992E+01
 9.3207502E+00  2.7984913E+01
 9.3322506E+00  2.7859438E+01
 9.3437500E+00  2.7734877E+01
 9.3552504E+00  2.7707434E+01
 9.3667507E+00  2.7644417E+01
 9.3782501E+00  2.7605604E+01
 9.3897505E+00  2.7540049E+01
 9.4012508E+00  2.7490414E+01
 9.4127502E+00  2.7419216E+01
 9.4242506E+00  2.7276037E+01
 9.4357500E+00  2.7200026E+01
 9.4472504E+00  2.7088594E+01
 9.4587507E+00  2.7055935E+01
 9.4702501E+00  2.7051275E+01
 9.4817505E+00  2.7068235E+01
 9.4932508E+00  2.7025585E+01
 9.5047503E+00  2.6966440E+01
 9.5162506E+00  2.6810808E+01
 9.5277500E+00  2.6707506E+01
 9.5392504E+00  2.6576902E+01
 9.5507507E+00  2.6499073E+01
 9.5622501E+00  2.6399414E+01
 9.5737505E+00  2.6330095E+01
 9.5852509E+00  2.6273216E+01
 9.5967503E+00  2.6288841E+01
 9.6082506E+00  2.6184647E+01
 9.6197500E+00  2.6152470E+01
 9.6312504E+00  2.6064890E+01
 9.6427507E+00  2.6031334E+01
 9.6542501E+00  2.6008451E+01
 9.6657505E+00  2.5945272E+01
 9.6772509E+00  2.5850054E+01
 9.6887503E+00  2.5774336E+01
 9.7002506E+00  2.5746983E+01
 9.7117500E+00  2.5765285E+01
 9.7232504E+00  2.5764427E+01
 9.7347507E+00  2.5690313E+01
 9.7462502E+00  2.5640211E+01
 9.7577505E+00  2.5528706E+01
 9.7692509E+00  2.5506170E+01
 9.7807503E+00  2.5477215E+01
 9.7922506E+00  2.5483156E+01
 9.8037500E+00  2.5560484E+01
 9.8152504E+00  2.5554739E+01
 9.8267508E+00  2.5508158E+01
 9.8382502E+00  2.5422665E+01
 9.8497505E+00  2.5313606E+01
 9.8612509E+00  2.5236717E+01
 9.8727503E+00  2.5091726E+01
 9.8842506E+00  2.5083193E+01
 9.8957500E+00  2.5018639E+01
 9.9072504E+00  2.4976919E+01
 9.9187508E+00  2.4906805E+01
 9.9302502E+00  2.4896383E+01
 9.9417505E+00  2.4870176E+01
 9.9532509E+00  2.4824463E+01
 9.9647503E+00  2.4811718E+01
 9.9762506E+00  2.4833580E+01
 9.9877501E+00  2.4812119E+01
 9.9992504E+00  2.4749090E+01
 1.0010751E+01  2.4631504E+01
 1.0022250E+01  2.4616581E+01
 1.0033751E+01  2.4641912E+01
 1.0045251E+01  2.4668795E+01
 1.0056750E+01  2.4622255E+01
 1.0068251E+01  2.4542698E+01
 1.0079750E+01  2.4486469E+01
 1.0091250E+01  2.4447664E+01
 1.0102751E+01  2.4417519E+01
 1.0114250E+01  2.4393488E+01
 1.0125751E+01  2.4409660E+01
 1.0137251E+01  2.4403706E+01
 1.0148750E+01  2.4429199E+01
 1.0160251E+01  2.4391512E+01
 1.0171750E+01  2.4327415E+01
 1.0183250E+01  2.4225409E+01
 1.0194751E+01  2.4176258E+01
 1.0206250E+01  2.4159807E+01
 1.0217751E+01  2.4181311E+01
 1.0229251E+01  2.4182106E+01
 1.0240750E+01  2.4129297E+01
 1.0252251E+01  2.4036001E+01
 1.0263750E+01  2.3959309E+01
 1.0275250E+01  2.3951841E+01
 1.0286751E+01  2.3959091E+01
 1.0298250E+01  2.3990589E+01
 1.0309751E+01  2.3928177E+01
 1.0321251E+01  2.3886799E+01
 1.0332750E+01  2.3829329E+01
 1.0344251E+01  2.3777828E+01
 1.0355750E+01  2.3746794E+01
 1.0367250E+01  2.3667198E+01
 1.0378751E+01  2.3669071E+01
 1.0390250E+01  2.3752907E+01
 1.0401751E+01  2.3832918E+01
 1.0413251E+01  2.3863831E+01
 1.0424750E+01  2.3783039E+01
 1.0436251E+01  2.3774218E+01
 1.0447750E+01  2.3720894E+01
 1.0459250E+01  2.3717592E+01
 1.0470751E+01  2.3655190E+01
 1.0482250E+01  2.3689646E+01
 1.0493751E+01  2.3681265E+01
 1.0505251E+01  2.3712193E+01
 1.0516750E+01  2.3707361E+01
 1.0528251E+01  2.3688061E+01
 1.0539750E+01  2.3606775E+01
 1.0551250E+01  2.3577084E+01
 1.0562751E+01  2.3553215E+01
 1.0574250E+01  2.3571486E+01
 1.0585751E+01  2.3560266E+01
 1.0597251E+01  2.3558268E+01
 1.0608750E+01  2.3569981E+01
 1.0620251E+01  2.3569439E+01
 1.0631750E+01  2.3560644E+01
 1.0643250E+01  2.3475950E+01
 1.0654751E+01  2.3452341E+01
 1.0666250E+01  2.3399456E+01
 1.0677751E+01  2.3390160E+01
 1.0689251E+01  2.3398169E+01
 1.0700750E+01  2.3433035E+01
 1.0712251E+01  2.3463594E+01
 1.0723750E+01  2.3451303E+01
 1.0735250E+01  2.3374287E+01
 1.0746751E+01  2.3320591E+01
 1.0758250E+01  2.3256899E+01
 1.0769751E+01  2.3287956E+01
 1.0781251E+01  2.3355247E+01
 1.0792750E+01  2.3381506E+01
 1.0804251E+01  2.3387014E+01
 1.0815750E+01  2.3345209E+01
 1.0827250E+01  2.3342876E+01
 1.0838751E+01  2.3255877E+01
 1.0850250E+01  2.3231430E+01
 1.0861751E+01  2.3136768E+01
 1.0873251E+01  2.3131130E+01
 1.0884750E+01  2.3075443E+01
 1.0896251E+01  2.3044333E+01
 1.0907750E+01  2.3070845E+01
 1.0919250E+01  2.3058233E+01
 1.0930751E+01  2.3097116E+01
 1.0942250E+01  2.3044607E+01
 1.0953751E+01  2.3007217E+01
 1.0965251E+01  2.2970497E+01
 1.0976750E+01  2.3024164E+01
 1.0988251E+01  2.3029291E+01
 1.0999750E+01  2.3091610E+01
 1.1011250E+01  2.3023418E+01
 1.1022751E+01  2.3028822E+01
 1.1034250E+01  2.2985146E+01
 1.1045751E+01  2.2935766E+01
 1.1057251E+01  2.2873220E+01
 1.1068750E+01  2.2830574E+01
 1.1080251E+01  2.2844873E+01
 1.1091750E+01  2.2902306E+01
 1.1103251E+01  2.2948339E+01
 1.1114751E+01  2.3021807E+01
 1.1126250E+01  2.3018032E+01
 1.1137751E+01  2.3037933E+01
 1.1149251E+01  2.3020557E+01
 1.1160750E+01  2.3089581E+01
 1.1172251E+01  2.3037739E+01
 1.1183750E+01  2.3016729E+01
 1.1195251E+01  2.2941874E+01
 1.1206751E+01  2.2857368E+01
 1.1218250E+01  2.2838764E+01
 1.1229751E+01  2.2819571E+01
 1.1241251E+01  2.2870770E+01
 1.1252750E+01  2.2838722E+01
 1.1264251E+01  2.2821878E+01
 1.1275750E+01  2.2798130E+01
 1.1287251E+01  2.2776325E+01
 1.1298751E+01  2.2746342E+01
 1.1310250E+01  2.2817026E+01
 1.1321751E+01  2.2883991E+01
 1.1333251E+01  2.2915049E+01
 1.1344750E+01  2.2883814E+01
 1.1356251E+01  2.2879753E+01
 1.1367750E+01  2.2879797E+01
 1.1379251E+01  2.2913754E+01
 1.1390751E+01  2.2969574E+01
 1.1402250E+01  2.3164314E+01
 1.1413751E+01  2.3248117E+01
 1.1425251E+01  2.3336941E+01
 1.1436750E+01  2.3339394E+01
 1.1448251E+01  2.3409500E+01
 1.1459750E+01  2.3452326E+01
 1.1471251E+01  2.3516403E+01
 1.1482751E+01  2.3629135E+01
 1.1494250E+01  2.3847443E+01
 1.1505751E+01  2.4255766E+01
 1.1517251E+01  2.4956360E+01
 1.1528750E+01  2.6030939E+01
 1.1540251E+01  2.7780371E+01
 1.1551750E+01  2.9946547E+01
 1.1563251E+01  3.2724392E+01
 1.1574751E+01  3.4721897E+01
 1.1586250E+01  3.6212582E+01
 1.1597751E+01  3.6007721E+01
 1.1609251E+01  3.4745892E+01
 1.1620750E+01  3.2062256E+01
 1.1632251E+01  2.9415689E+01
 1.1643750E+01  2.7030140E+01
 1.1655251E+01  2.5653757E+01
 1.1666751E+01  2.4557821E+01
 1.1678250E+01  2.4047789E+01
 1.1689751E+01  2.3658400E+01
 1.1701251E+01  2.3429029E+01
 1.1712750E+01  2.3239273E+01
 1.1724251E+01  2.3060934E+01
 1.1735750E+01  2.2968632E+01
 1.1747251E+01  2.2963385E+01
 1.1758751E+01  2.2968105E+01
 1.1770250E+01  2.2931328E+01
 1.1781751E+01  2.2889650E+01
 1.1793251E+01  2.2854612E+01
 1.1804750E+01  2.2887413E+01
 1.1816251E+01  2.2955936E+01
 1.1827750E+01  2.3020540E+01
 1.1839251E+01  2.3075264E+01
 1.1850751E+01  2.3079659E+01
 1.1862250E+01  2.3053251E+01
 1.1873751E+01  2.3043634E+01
 1.1885251E+01  2.3016577E+01
 1.1896750E+01  2.3041449E+01
 1.1908251E+01  2.3084660E+01
 1.1919750E+01  2.3148989E+01
 1.1931251E+01  2.3233343E+01
 1.1942751E+01  2.3309952E+01
 1.1954250E+01  2.3443169E+01
 1.1965751E+01  2.3711876E+01
 1.1977251E+01  2.4074583E+01
 1.1988750E+01  2.4452612E+01
 1.2000251E+01  2.4742184E+01
 1.2011750E+01  2.4792492E+01
 1.2023251E+01  2.4721123E+01
 1.2034751E+01  2.4663576E+01
 1.2046250E+01  2.4697231E+01
 1.2057751E+01  2.4847445E+01
 1.2069251E+01  2.5330442E+01
 1.2080750E+01  2.5696632E+01
 1.2092251E+01  2.6273737E+01
 1.2103750E+01  2.6165224E+01
 1.2115251E+01  2.6096392E+01
 1.2126751E+01  2.5460045E+01
 1.2138250E+01  2.5000105E+01
 1.2149751E+01  2.4321716E+01
 1.2161251E+01  2.3888296E+01
 1.2172750E+01  2.3462982E+01
 1.2184251E+01  2.3294827E+01
 1.2195750E+01  2.3125914E+01
 1.2207251E+01  2.3022594E+01
 1.2218751E+01  2.2944273E+01
 1.2230250E+01  2.2896929E+01
 1.2241751E+01  2.2833879E+01
 1.2253251E+01  2.2775951E+01
 1.2264750E+01  2.2757690E+01
 1.2276251E+01  2.2784536E+01
 1.2287750E+01  2.2800398E+01
 1.2299251E+01  2.2794090E+01
 1.2310751E+01  2.2809502E+01
 1.2322250E+01  2.2766670E+01
 1.2333751E+01  2.2749975E+01
 1.2345250E+01  2.2665174E+01
 1.2356750E+01  2.2754042E+01
 1.2368251E+01  2.2818674E+01
 1.2379750E+01  2.2942987E+01
 1.2391251E+01  2.2998869E+01
 1.2402751E+01  2.2982895E+01
 1.2414250E+01  2.2972157E+01
 1.2425751E+01  2.2910482E+01
 1.2437250E+01  2.2940840E+01
 1.2448750E+01  2.2928467E+01
 1.2460251E+01  2.3020582E+01
 1.2471750E+01  2.3052870E+01
 1.2483251E+01  2.3097721E+01
 1.2494751E+01  2.3064808E+01
 1.2506250E+01  2.3041969E+01
 1.2517751E+01  2.3079687E+01
 1.2529250E+01  2.3135492E+01
 1.2540751E+01  2.3196058E+01
 1.2552251E+01  2.3210823E+01
 1.2563750E+01  2.3210701E+01
 1.2575251E+01  2.3180466E+01
 1.2586751E+01  2.3174770E+01
 1.2598250E+01  2.3159731E+01
 1.2609751E+01  2.3191040E+01
 1.2621250E+01  2.3215597E+01
 1.2632751E+01  2.3218296E+01
 1.2644251E+01  2.3208015E+01
 1.2655750E+01  2.3207874E+01
 1.2667251E+01  2.3218632E+01
 1.2678751E+01  2.3233265E+01
 1.2690250E+01  2.3242329E+01
 1.2701751E+01  2.3273777E+01
 1.2713250E+01  2.3316463E+01
 1.2724751E+01  2.3334465E+01
 1.2736251E+01  2.3343048E+01
 1.2747750E+01  2.3374508E+01
 1.2759251E+01  2.3390247E+01
 1.2770751E+01  2.3427143E+01
 1.2782250E+01  2.3505121E+01
 1.2793751E+01  2.3557055E+01
 1.2805250E+01  2.3584635E+01
 1.2816751E+01  2.3522135E+01
 1.2828251E+01  2.3526091E+01
 1.2839750E+01  2.3553448E+01
 1.2851251E+01  2.3603632E+01
 1.2862751E+01  2.3620642E+01
 1.2874250E+01  2.3620472E+01
 1.2885751E+01  2.3656622E+01
 1.2897250E+01  2.3752275E+01
 1.2908751E+01  2.3857101E+01
 1.2920251E+01  2.3959110E+01
 1.2931750E+01  2.4034405E+01
 1.2943251E+01  2.4111839E+01
 1.2954751E+01  2.4147631E+01
 1.2966250E+01  2.4161276E+01
 1.2977751E+01  2.4219217E+01
 1.2989250E+01  2.4214336E+01
 1.3000751E+01  2.4242075E+01
 1.3012251E+01  2.4238739E+01
 1.3023750E+01  2.4401571E+01
 1.3035251E+01  2.4570093E+01
 1.3046751E+01  2.4711100E+01
 1.3058250E+01  2.4823702E+01
 1.3069751E+01  2.4917919E+01
 1.3081250E+01  2.5010817E+01
 1.3092751E+01  2.5096464E+01
 1.3104251E+01  2.5245790E+01
 1.3115750E+01  2.5362932E+01
 1.3127251E+01  2.5437084E+01
 1.3138751E+01  2.5483589E+01
 1.3150250E+01  2.5591230E+01
 1.3161751E+01  2.5651529E+01
 1.3173250E+01  2.5762835E+01
 1.3184751E+01  2.5877970E+01
 1.3196251E+01  2.5998154E+01
 1.3207750E+01  2.6145088E+01
 1.3219251E+01  2.6288296E+01
 1.3230751E+01  2.6468302E+01
 1.3242250E+01  2.6589231E+01
 1.3253751E+01  2.6692101E+01
 1.3265250E+01  2.6799416E+01
 1.3276751E+01  2.6924711E+01
 1.3288251E+01  2.7084429E+01
 1.3299750E+01  2.7218229E+01
 1.3311251E+01  2.7282660E+01
 1.3322751E+01  2.7436222E+01
 1.3334250E+01  2.7671579E+01
 1.3345751E+01  2.7901154E+01
 1.3357250E+01  2.8135532E+01
 1.3368751E+01  2.8194366E+01
 1.3380251E+01  2.8364630E+01
 1.3391750E+01  2.8465065E+01
 1.3403251E+01  2.8676638E+01
 1.3414751E+01  2.8724602E+01
 1.3426250E+01  2.8761360E+01
 1.3437751E+01  2.8778811E+01
 1.3449250E+01  2.8910675E+01
 1.3460751E+01  2.9049788E+01
 1.3472251E+01  2.9248400E+01
 1.3483750E+01  2.9404629E+01
 1.3495251E+01  2.9501085E+01
 1.3506751E+01  2.9641119E+01
 1.3518250E+01  2.9739454E+01
 1.3529751E+01  2.9857971E+01
 1.3541250E+01  2.9911577E+01
 1.3552751E+01  2.9998592E+01
 1.3564251E+01  3.0094343E+01
 1.3575750E+01  3.0150091E+01
 1.3587251E+01  3.0184368E+01
 1.3598751E+01  3.0202732E+01
 1.3610250E+01  3.0125959E+01
 1.3621751E+01  3.0103996E+01
 1.3633250E+01  3.0122149E+01
 1.3644751E+01  3.0189602E+01
 1.3656251E+01  3.0217852E+01
 1.3667750E+01  3.0163668E+01
 1.3679251E+01  3.0142918E+01
 1.3690751E+01  3.0080027E+01
 1.3702250E+01  3.0031307E+01
 1.3713751E+01  3.0026400E+01
 1.3725250E+01  3.0019775E+01
 1.3736751E+01  2.9973957E+01
 1.3748251E+01  2.9980829E+01
 1.3759750E+01  2.9896505E+01
 1.3771251E+01  2.9904253E+01
 1.3782751E+01  2.9840248E+01
 1.3794250E+01  2.9825706E+01
 1.3805751E+01  2.9898312E+01
 1.3817250E+01  2.9846331E+01
 1.3828751E+01  2.9913969E+01
 1.3840251E+01  3.0065453E+01
 1.3851750E+01  3.0179890E+01
 1.3863251E+01  3.0894539E+01
 1.3874751E+01  3.1369257E+01
 1.3886250E+01  3.1977516E+01
 1.3897751E+01  3.4185913E+01
 1.3909250E+01  3.5137573E+01
 1.3920751E+01  3.7848843E+01
 1.3932251E+01  4.0824806E+01
 1.3943750E+01  4.1849735E+01
 1.3955251E+01  4.5517792E+01
 1.3966751E+01  4.4276531E+01
 1.3978251E+01  4.4585995E+01
 1.3989751E+01  4.1865093E+01
 1.4001250E+01  3.8726437E+01
 1.4012751E+01  3.7557056E+01
 1.4024251E+01  3.3687363E+01
 1.4035750E+01  3.2832314E+01
 1.4047251E+01  3.0703827E+01
 1.4058751E+01  2.9706009E+01
 1.4070251E+01  2.9427336E+01
 1.4081751E+01  2.8664873E+01
 1.4093250E+01  2.8433369E+01
 1.4104751E+01  2.8199623E+01
 1.4116251E+01  2.8013685E+01
 1.4127750E+01  2.7945179E+01
 1.4139251E+01  2.7807011E+01
 1.4150751E+01  2.7687216E+01
 1.4162251E+01  2.7670292E+01
 1.4173751E+01  2.7530973E+01
 1.4185250E+01  2.7456404E+01
 1.4196751E+01  2.7357182E+01
 1.4208251E+01  2.7250292E+01
 1.4219750E+01  2.7139297E+01
 1.4231251E+01  2.6983801E+01
 1.4242751E+01  2.6922459E+01
 1.4254251E+01  2.6886860E+01
 1.4265751E+01  2.6844687E+01
 1.4277250E+01  2.6799904E+01
 1.4288751E+01  2.6773325E+01
 1.4300251E+01  2.6749632E+01
 1.4311750E+01  2.6738348E+01
 1.4323251E+01  2.6667114E+01
 1.4334751E+01  2.6577101E+01
 1.4346251E+01  2.6557762E+01
 1.4357751E+01  2.6494177E+01
 1.4369250E+01  2.6463524E+01
 1.4380751E+01  2.6390862E+01
 1.4392251E+01  2.6351685E+01
 1.4403750E+01  2.6338243E+01
 1.4415251E+01  2.6306253E+01
 1.4426751E+01  2.6280716E+01
 1.4438251E+01  2.6273909E+01
 1.4449751E+01  2.6194359E+01
 1.4461250E+01  2.6145510E+01
 1.4472751E+01  2.6026566E+01
 1.4484251E+01  2.6005911E+01
 1.4495750E+01  2.5994120E+01
 1.4507251E+01  2.6021290E+01
 1.4518751E+01  2.5973598E+01
 1.4530251E+01  2.5939993E+01
 1.4541751E+01  2.5865082E+01
 1.4553250E+01  2.5855743E+01
 1.4564751E+01  2.5863186E+01
 1.4576251E+01  2.5871201E+01
 1.4587750E+01  2.5830038E+01
 1.4599251E+01  2.5730265E+01
 1.4610751E+01  2.5679327E+01
 1.4622251E+01  2.5632341E+01
 1.4633751E+01  2.5572990E+01
 1.4645250E+01  2.5521652E+01
 1.4656751E+01  2.5463116E+01
 1.4668251E+01  2.5446196E+01
 1.4679750E+01  2.5458536E+01
 1.4691251E+01  2.5464443E+01
 1.4702751E+01  2.5512604E+01
 1.4714251E+01  2.5505123E+01
 1.4725751E+01  2.5543755E+01
 1.4737250E+01  2.5523403E+01
 1.4748751E+01  2.5500982E+01
 1.4760251E+01  2.5458977E+01
 1.4771750E+01  2.5455389E+01
 1.4783251E+01  2.5473372E+01
 1.4794751E+01  2.5505922E+01
 1.4806251E+01  2.5487867E+01
 1.4817751E+01  2.5456324E+01
 1.4829250E+01  2.5439064E+01
 1.4840751E+01  2.5411549E+01
 1.4852251E+01  2.5388489E+01
 1.4863750E+01  2.5317667E+01
 1.4875251E+01  2.5242050E+01
 1.4886751E+01  2.5161356E+01
 1.4898251E+01  2.5146654E+01
 1.4909751E+01  2.5171263E+01
 1.4921250E+01  2.5222204E+01
 1.4932751E+01  2.5270590E+01
 1.4944251E+01  2.5312033E+01
 1.4955750E+01  2.5319523E+01
 1.4967251E+01  2.5316753E+01
 1.4978751E+01  2.5246311E+01
 1.4990251E+01  2.5165384E+01
 1.5001751E+01  2.5119093E+01
 1.5013250E+01  2.5188869E+01
 1.5024751E+01  2.5328270E+01
 1.5036251E+01  2.5379932E+01
 1.5047750E+01  2.5383522E+01
 1.5059251E+01  2.5392031E+01
 1.5070751E+01  2.5410172E+01
 1.5082251E+01  2.5431976E+01
 1.5093751E+01  2.5484806E+01
 1.5105250E+01  2.5640800E+01
 1.5116751E+01  2.5808310E+01
 1.5128251E+01  2.6058960E+01
 1.5139750E+01  2.6544731E+01
 1.5151251E+01  2.7399771E+01
 1.5162751E+01  2.8674480E+01
 1.5174251E+01  3.0068201E+01
 1.5185751E+01  3.1777138E+01
 1.5197250E+01  3.2667908E+01
 1.5208751E+01  3.2825043E+01
 1.5220251E+01  3.2051319E+01
 1.5231750E+01  3.0484953E+01
 1.5243251E+01  2.8800163E+01
 1.5254751E+01  2.7266653E+01
 1.5266251E+01  2.6393496E+01
 1.5277751E+01  2.5834435E+01
 1.5289250E+01  2.5486219E+01
 1.5300751E+01  2.5342438E+01
 1.5312251E+01  2.5219107E+01
 1.5323750E+01  2.5118673E+01
 1.5335251E+01  2.5087938E+01
 1.5346751E+01  2.5034197E+01
 1.5358251E+01  2.5043745E+01
 1.5369751E+01  2.5004705E+01
 1.5381250E+01  2.4998116E+01
 1.5392751E+01  2.4959705E+01
 1.5404251E+01  2.4962862E+01
 1.5415751E+01  2.4927935E+01
 1.5427251E+01  2.4896141E+01
 1.5438751E+01  2.4885366E+01
 1.5450251E+01  2.4878801E+01
 1.5461751E+01  2.4871151E+01
 1.5473250E+01  2.4815214E+01
 1.5484751E+01  2.4826553E+01
 1.5496251E+01  2.4867990E+01
 1.5507751E+01  2.4887972E+01
 1.5519251E+01  2.4890192E+01
 1.5530751E+01  2.4925024E+01
 1.5542251E+01  2.4942186E+01
 1.5553751E+01  2.4905159E+01
 1.5565250E+01  2.4852055E+01
 1.5576751E+01  2.4817225E+01
 1.5588251E+01  2.4813808E+01
 1.5599751E+01  2.4812571E+01
 1.5611251E+01  2.4810173E+01
 1.5622751E+01  2.4790718E+01
 1.5634251E+01  2.4779825E+01
 1.5645751E+01  2.4856262E+01
 1.5657250E+01  2.4907143E+01
 1.5668751E+01  2.4925346E+01
 1.5680251E+01  2.4916367E+01
 1.5691751E+01  2.4949842E+01
 1.5703251E+01  2.4994513E+01
 1.5714751E+01  2.4970226E+01
 1.5726251E+01  2.4972778E+01
 1.5737751E+01  2.4927610E+01
 1.5749250E+01  2.4997158E+01
 1.5760751E+01  2.5005781E+01
 1.5772251E+01  2.5036707E+01
 1.5783751E+01  2.4951977E+01
 1.5795251E+01  2.4917072E+01
 1.5806751E+01  2.4871662E+01
 1.5818251E+01  2.4837908E+01
 1.5829751E+01  2.4797565E+01
 1.5841250E+01  2.4797951E+01
 1.5852751E+01  2.4834003E+01
 1.5864251E+01  2.4849741E+01
 1.5875751E+01  2.4907675E+01
 1.5887251E+01  2.4902025E+01
 1.5898750E+01  2.4891878E+01
 1.5910251E+01  2.4879015E+01
 1.5921751E+01  2.4888264E+01
 1.5933250E+01  2.4925230E+01
 1.5944751E+01  2.4895819E+01
 1.5956251E+01  2.4939707E+01
 1.5967751E+01  2.4906851E+01
 1.5979251E+01  2.4939278E+01
 1.5990750E+01  2.4968397E+01
 1.6002251E+01  2.4953581E+01
 1.6013750E+01  2.4909903E+01
 1.6025251E+01  2.4893476E+01
 1.6036751E+01  2.4950871E+01
 1.6048250E+01  2.5045389E+01
 1.6059752E+01  2.5087685E+01
 1.6071251E+01  2.5126455E+01
 1.6082750E+01  2.5132399E+01
 1.6094252E+01  2.5177671E+01
 1.6105751E+01  2.5219999E+01
 1.6117250E+01  2.5285017E+01
 1.6128750E+01  2.5295849E+01
 1.6140251E+01  2.5345051E+01
 1.6151751E+01  2.5275267E+01
 1.6163250E+01  2.5317289E+01
 1.6174751E+01  2.5250311E+01
 1.6186251E+01  2.5563950E+01
 1.6197750E+01  2.5484243E+01
 1.6209251E+01  2.6087381E+01
 1.6220751E+01  2.6010996E+01
 1.6232250E+01  2.6639009E+01
 1.6243752E+01  2.6716301E+01
 1.6255251E+01  2.7055674E+01
 1.6266750E+01  2.7254784E+01
 1.6278252E+01  2.6835014E+01
 1.6289751E+01  2.6765787E+01
 1.6301250E+01  2.5847532E+01
 1.6312750E+01  2.5854094E+01
 1.6324251E+01  2.5307011E+01
 1.6335751E+01  2.5328291E+01
 1.6347250E+01  2.5070152E+01
 1.6358751E+01  2.5049189E+01
 1.6370251E+01  2.4933495E+01
 1.6381750E+01  2.4857216E+01
 1.6393251E+01  2.4860601E+01
 1.6404751E+01  2.4896666E+01
 1.6416250E+01  2.5009949E+01
 1.6427752E+01  2.5050308E+01
 1.6439251E+01  2.5136953E+01
 1.6450750E+01  2.5161381E+01
 1.6462252E+01  2.5121157E+01
 1.6473751E+01  2.5012976E+01
 1.6485250E+01  2.4994576E+01
 1.6496750E+01  2.4989681E+01
 1.6508251E+01  2.4975273E+01
 1.6519751E+01  2.4920002E+01
 1.6531250E+01  2.4883242E+01
 1.6542751E+01  2.4886314E+01
 1.6554251E+01  2.4878702E+01
 1.6565750E+01  2.4972519E+01
 1.6577251E+01  2.4999811E+01
 1.6588751E+01  2.5049885E+01
 1.6600250E+01  2.5028397E+01
 1.6611752E+01  2.5028715E+01
 1.6623251E+01  2.4927589E+01
 1.6634750E+01  2.4859495E+01
 1.6646252E+01  2.4795275E+01
 1.6657751E+01  2.4785889E+01
 1.6669250E+01  2.4814219E+01
 1.6680750E+01  2.4843246E+01
 1.6692251E+01  2.4870562E+01
 1.6703751E+01  2.4839386E+01
 1.6715250E+01  2.4841806E+01
 1.6726751E+01  2.4839754E+01
 1.6738251E+01  2.4880878E+01
 1.6749750E+01  2.4899218E+01
 1.6761251E+01  2.4871876E+01
 1.6772751E+01  2.4803051E+01
 1.6784250E+01  2.4731445E+01
 1.6795752E+01  2.4648895E+01
 1.6807251E+01  2.4638077E+01
 1.6818750E+01  2.4616041E+01
 1.6830252E+01  2.4613138E+01
 1.6841751E+01  2.4566917E+01
 1.6853251E+01  2.4553638E+01
 1.6864750E+01  2.4549923E+01
 1.6876251E+01  2.4599468E+01
 1.6887751E+01  2.4608700E+01
 1.6899250E+01  2.4656147E+01
 1.6910751E+01  2.4646830E+01
 1.6922251E+01  2.4697464E+01
 1.6933750E+01  2.4668196E+01
 1.6945251E+01  2.4665291E+01
 1.6956751E+01  2.4677444E+01
 1.6968250E+01  2.4663963E+01
 1.6979752E+01  2.4655094E+01
 1.6991251E+01  2.4626511E+01
 1.7002750E+01  2.4600016E+01
 1.7014252E+01  2.4567736E+01
 1.7025751E+01  2.4562546E+01
 1.7037251E+01  2.4565630E+01
 1.7048750E+01  2.4527250E+01
 1.7060251E+01  2.4560076E+01
 1.7071751E+01  2.4565918E+01
 1.7083250E+01  2.4641581E+01
 1.7094751E+01  2.4606586E+01
 1.7106251E+01  2.4608950E+01
 1.7117750E+01  2.4576643E+01
 1.7129251E+01  2.4544041E+01
 1.7140751E+01  2.4501623E+01
 1.7152250E+01  2.4441175E+01
 1.7163752E+01  2.4440670E+01
 1.7175251E+01  2.4468149E+01
 1.7186750E+01  2.4480873E+01
 1.7198252E+01  2.4517904E+01
 1.7209751E+01  2.4536207E+01
 1.7221251E+01  2.4554754E+01
 1.7232750E+01  2.4548910E+01
 1.7244251E+01  2.4521904E+01
 1.7255751E+01  2.4456396E+01
 1.7267250E+01  2.4383947E+01
 1.7278751E+01  2.4349516E+01
 1.7290251E+01  2.4314812E+01
 1.7301750E+01  2.4341387E+01
 1.7313251E+01  2.4336853E+01
 1.7324751E+01  2.4385441E+01
 1.7336250E+01  2.4414051E+01
 1.7347752E+01  2.4403254E+01
 1.7359251E+01  2.4364016E+01
 1.7370750E+01  2.4303734E+01
 1.7382252E+01  2.4316521E+01
 1.7393751E+01  2.4307154E+01
 1.7405251E+01  2.4290651E+01
 1.7416750E+01  2.4258759E+01
 1.7428251E+01  2.4301310E+01
 1.7439751E+01  2.4297670E+01
 1.7451250E+01  2.4324333E+01
 1.7462751E+01  2.4305901E+01
 1.7474251E+01  2.4276365E+01
 1.7485750E+01  2.4266039E+01
 1.7497252E+01  2.4245934E+01
 1.7508751E+01  2.4202868E+01
 1.7520250E+01  2.4183039E+01
 1.7531752E+01  2.4178162E+01
 1.7543251E+01  2.4225584E+01
 1.7554750E+01  2.4201443E+01
 1.7566252E+01  2.4159260E+01
 1.7577751E+01  2.4100416E+01
 1.7589251E+01  2.4099794E+01
 1.7600750E+01  2.4149282E+01
 1.7612251E+01  2.4159077E+01
 1.7623751E+01  2.4193624E+01
 1.7635250E+01  2.4182745E+01
 1.7646751E+01  2.4164396E+01
 1.7658251E+01  2.4069555E+01
 1.7669750E+01  2.4067595E+01
 1.7681252E+01  2.4082817E+01
 1.7692751E+01  2.4107378E+01
 1.7704250E+01  2.4091679E+01
 1.7715752E+01  2.4090126E+01
 1.7727251E+01  2.4065706E+01
 1.7738750E+01  2.4088144E+01
 1.7750252E+01  2.4072996E+01
 1.7761751E+01  2.4101042E+01
 1.7773251E+01  2.4125891E+01
 1.7784750E+01  2.4151285E+01
 1.7796251E+01  2.4196972E+01
 1.7807751E+01  2.4172100E+01
 1.7819250E+01  2.4174980E+01
 1.7830751E+01  2.4206556E+01
 1.7842251E+01  2.4227224E+01
 1.7853750E+01  2.4290655E+01
 1.7865252E+01  2.4248735E+01
 1.7876751E+01  2.4269894E+01
 1.7888250E+01  2.4176640E+01
 1.7899752E+01  2.4162035E+01
 1.7911251E+01  2.4132381E+01
 1.7922750E+01  2.4180882E+01
 1.7934252E+01  2.4184834E+01
 1.7945751E+01  2.4189890E+01
 1.7957251E+01  2.4137362E+01
 1.7968750E+01  2.4122932E+01
 1.7980251E+01  2.4154165E+01
 1.7991751E+01  2.4272289E+01
 1.8003250E+01  2.4431870E+01
 1.8014751E+01  2.4610102E+01
 1.8026251E+01  2.4796940E+01
 1.8037750E+01  2.5031019E+01
 1.8049252E+01  2.5230450E+01
 1.8060751E+01  2.5508024E+01
 1.8072250E+01  2.5723042E+01
 1.8083752E+01  2.5948578E+01
 1.8095251E+01  2.6091511E+01
 1.8106750E+01  2.6094900E+01
 1.8118252E+01  2.5985527E+01
 1.8129751E+01  2.5684444E+01
 1.8141251E+01  2.5374565E+01
 1.8152750E+01  2.5037022E+01
 1.8164251E+01  2.4754972E+01
 1.8175751E+01  2.4590343E+01
 1.8187250E+01  2.4432016E+01
 1.8198751E+01  2.4292574E+01
 1.8210251E+01  2.4191116E+01
 1.8221750E+01  2.4088339E+01
 1.8233252E+01  2.4037270E+01
 1.8244751E+01  2.3997217E+01
 1.8256250E+01  2.3972170E+01
 1.8267752E+01  2.3918619E+01
 1.8279251E+01  2.3886171E+01
 1.8290751E+01  2.3930271E+01
 1.8302252E+01  2.3962297E+01
 1.8313751E+01  2.3969105E+01
 1.8325251E+01  2.3919922E+01
 1.8336750E+01  2.3969950E+01
 1.8348251E+01  2.4024479E+01
 1.8359751E+01  2.4024004E+01
 1.8371250E+01  2.3984163E+01
 1.8382751E+01  2.3926058E+01
 1.8394251E+01  2.3945435E+01
 1.8405750E+01  2.3892719E+01
 1.8417252E+01  2.3857267E+01
 1.8428751E+01  2.3830376E+01
 1.8440250E+01  2.3825035E+01
 1.8451752E+01  2.3833437E+01
 1.8463251E+01  2.3814577E+01
 1.8474751E+01  2.3828144E+01
 1.8486252E+01  2.3830273E+01
 1.8497751E+01  2.3838802E+01
 1.8509251E+01  2.3857040E+01
 1.8520750E+01  2.3845060E+01
 1.8532251E+01  2.3836384E+01
 1.8543751E+01  2.3765007E+01
 1.8555250E+01  2.3740463E+01
 1.8566751E+01  2.3735569E+01
 1.8578251E+01  2.3796658E+01
 1.8589750E+01  2.3846968E+01
 1.8601252E+01  2.3886549E+01
 1.8612751E+01  2.3896271E+01
 1.8624250E+01  2.3831116E+01
 1.8635752E+01  2.3801193E+01
 1.8647251E+01  2.3761959E+01
 1.8658751E+01  2.3736725E+01
 1.8670252E+01  2.3766375E+01
 1.8681751E+01  2.3820662E+01
 1.8693251E+01  2.3910900E+01
 1.8704750E+01  2.3884174E+01
 1.8716251E+01  2.3837322E+01
 1.8727751E+01  2.3793795E+01
 1.8739250E+01  2.3769373E+01
 1.8750751E+01  2.3860144E+01
 1.8762251E+01  2.3846031E+01
 1.8773750E+01  2.3857304E+01
 1.8785252E+01  2.3846693E+01
 1.8796751E+01  2.3874485E+01
 1.8808250E+01  2.3881062E+01
 1.8819752E+01  2.3874289E+01
 1.8831251E+01  2.3854126E+01
 1.8842751E+01  2.3823000E+01
 1.8854252E+01  2.3812471E+01
 1.8865751E+01  2.3799784E+01
 1.8877251E+01  2.3777941E+01
 1.8888750E+01  2.3762407E+01
 1.8900251E+01  2.3788467E+01
 1.8911751E+01  2.3764431E+01
 1.8923250E+01  2.3830149E+01
 1.8934752E+01  2.3863468E+01
 1.8946251E+01  2.3897989E+01
 1.8957750E+01  2.3862761E+01
 1.8969252E+01  2.3852028E+01
 1.8980751E+01  2.3850718E+01
 1.8992250E+01  2.3849386E+01
 1.9003752E+01  2.3854738E+01
 1.9015251E+01  2.3851395E+01
 1.9026751E+01  2.3890465E+01
 1.9038252E+01  2.3825899E+01
 1.9049751E+01  2.3790228E+01
 1.9061251E+01  2.3742607E+01
 1.9072750E+01  2.3721762E+01
 1.9084251E+01  2.3724552E+01
 1.9095751E+01  2.3678564E+01
 1.9107250E+01  2.3695246E+01
 1.9118752E+01  2.3677874E+01
 1.9130251E+01  2.3795004E+01
 1.9141750E+01  2.3835108E+01
 1.9153252E+01  2.3921551E+01
 1.9164751E+01  2.3883200E+01
 1.9176250E+01  2.3900591E+01
 1.9187752E+01  2.3859240E+01
 1.9199251E+01  2.3836464E+01
 1.9210751E+01  2.3796801E+01
 1.9222252E+01  2.3750664E+01
 1.9233751E+01  2.3733408E+01
 1.9245251E+01  2.3758722E+01
 1.9256750E+01  2.3802841E+01
 1.9268251E+01  2.3831827E+01
 1.9279751E+01  2.3805021E+01
 1.9291250E+01  2.3825239E+01
 1.9302752E+01  2.3849060E+01
 1.9314251E+01  2.3894781E+01
 1.9325750E+01  2.3947245E+01
 1.9337252E+01  2.3992649E+01
 1.9348751E+01  2.4009037E+01
 1.9360250E+01  2.3966516E+01
 1.9371752E+01  2.3945145E+01
 1.9383251E+01  2.3952585E+01
 1.9394751E+01  2.3983927E+01
 1.9406250E+01  2.3993317E+01
 1.9417751E+01  2.4009768E+01
 1.9429251E+01  2.4026524E+01
 1.9440750E+01  2.4055990E+01
 1.9452251E+01  2.4103167E+01
 1.9463751E+01  2.4141794E+01
 1.9475250E+01  2.4155546E+01
 1.9486752E+01  2.4155430E+01
 1.9498251E+01  2.4143629E+01
 1.9509750E+01  2.4148306E+01
 1.9521252E+01  2.4195061E+01
 1.9532751E+01  2.4253424E+01
 1.9544250E+01  2.4268356E+01
 1.9555752E+01  2.4252230E+01
 1.9567251E+01  2.4238739E+01
 1.9578751E+01  2.4358013E+01
 1.9590250E+01  2.4466026E+01
 1.9601751E+01  2.4576986E+01
 1.9613251E+01  2.4688408E+01
 1.9624750E+01  2.4829329E+01
 1.9636251E+01  2.5230398E+01
 1.9647751E+01  2.5602650E+01
 1.9659250E+01  2.6459415E+01
 1.9670752E+01  2.7247051E+01
 1.9682251E+01  2.8091230E+01
 1.9693750E+01  2.8834919E+01
 1.9705252E+01  2.8992865E+01
 1.9716751E+01  2.9265600E+01
 1.9728251E+01  2.8865782E+01
 1.9739752E+01  2.8561071E+01
 1.9751251E+01  2.8011393E+01
 1.9762751E+01  2.7290810E+01
 1.9774250E+01  2.6983006E+01
 1.9785751E+01  2.6589605E+01
 1.9797251E+01  2.7105246E+01
 1.9808750E+01  2.7820042E+01
 1.9820251E+01  2.8517895E+01
 1.9831751E+01  2.9510292E+01
 1.9843250E+01  2.9681093E+01
 1.9854752E+01  2.9741535E+01
 1.9866251E+01  2.8797152E+01
 1.9877750E+01  2.8272146E+01
 1.9889252E+01  2.7202415E+01
 1.9900751E+01  2.6497866E+01
 1.9912251E+01  2.5813070E+01
 1.9923752E+01  2.5233706E+01
 1.9935251E+01  2.4860344E+01
 1.9946751E+01  2.4593159E+01
 1.9958250E+01  2.4443750E+01
 1.9969751E+01  2.4356419E+01
 1.9981251E+01  2.4307577E+01
 1.9992750E+01  2.4305967E+01
 2.0004251E+01  2.4272446E+01
 2.0015751E+01  2.4234280E+01
 2.0027250E+01  2.4193121E+01
 2.0038752E+01  2.4191122E+01
 2.0050251E+01  2.4167219E+01
 2.0061750E+01  2.4075779E+01
 2.0073252E+01  2.3996925E+01
 2.0084751E+01  2.4012390E+01
 2.0096251E+01  2.4116259E+01
 2.0107752E+01  2.4148930E+01
 2.0119251E+01  2.4164221E+01
 2.0130751E+01  2.4140638E+01
 2.0142250E+01  2.4149849E+01
 2.0153751E+01  2.4096333E+01
 2.0165251E+01  2.4075661E+01
 2.0176750E+01  2.4036053E+01
 2.0188251E+01  2.4040791E+01
 2.0199751E+01  2.4013163E+01
 2.0211250E+01  2.4028326E+01
 2.0222752E+01  2.4085606E+01
 2.0234251E+01  2.4127640E+01
 2.0245750E+01  2.4098032E+01
 2.0257252E+01  2.4032040E+01
 2.0268751E+01  2.4019939E+01
 2.0280251E+01  2.4023415E+01
 2.0291752E+01  2.4033705E+01
 2.0303251E+01  2.3986853E+01
 2.0314751E+01  2.3923117E+01
 2.0326250E+01  2.3908318E+01
 2.0337751E+01  2.3945494E+01
 2.0349251E+01  2.3994434E+01
 2.0360750E+01  2.4010742E+01
 2.0372252E+01  2.4034269E+01
 2.0383751E+01  2.4044426E+01
 2.0395250E+01  2.4097116E+01
 2.0406752E+01  2.4105036E+01
 2.0418251E+01  2.4141314E+01
 2.0429750E+01  2.4150118E+01
 2.0441252E+01  2.4156429E+01
 2.0452751E+01  2.4148422E+01
 2.0464251E+01  2.4126995E+01
 2.0475752E+01  2.4106089E+01
 2.0487251E+01  2.4068542E+01
 2.0498751E+01  2.4116922E+01
 2.0510250E+01  2.4171738E+01
 2.0521751E+01  2.4188654E+01
 2.0533251E+01  2.4155678E+01
 2.0544750E+01  2.4142868E+01
 2.0556252E+01  2.4140369E+01
 2.0567751E+01  2.4138433E+01
 2.0579250E+01  2.4142540E+01
 2.0590752E+01  2.4178795E+01
 2.0602251E+01  2.4260754E+01
 2.0613750E+01  2.4281219E+01
 2.0625252E+01  2.4292696E+01
 2.0636751E+01  2.4290598E+01
 2.0648251E+01  2.4297400E+01
 2.0659752E+01  2.4352337E+01
 2.0671251E+01  2.4442255E+01
 2.0682751E+01  2.4652531E+01
 2.0694250E+01  2.4895634E+01
 2.0705751E+01  2.5201290E+01
 2.0717251E+01  2.5520338E+01
 2.0728750E+01  2.5857737E+01
 2.0740252E+01  2.6227230E+01
 2.0751751E+01  2.6609154E+01
 2.0763250E+01  2.6978689E+01
 2.0774752E+01  2.7140860E+01
 2.0786251E+01  2.7001545E+01
 2.0797750E+01  2.6754288E+01
 2.0809252E+01  2.6261568E+01
 2.0820751E+01  2.5864315E+01
 2.0832251E+01  2.5378817E+01
 2.0843752E+01  2.5030317E+01
 2.0855251E+01  2.4735518E+01
 2.0866751E+01  2.4548441E+01
 2.0878250E+01  2.4431448E+01
 2.0889751E+01  2.4343882E+01
 2.0901251E+01  2.4282877E+01
 2.0912750E+01  2.4293938E+01
 2.0924252E+01  2.4296982E+01
 2.0935751E+01  2.4334984E+01
 2.0947250E+01  2.4372503E+01
 2.0958752E+01  2.4392834E+01
 2.0970251E+01  2.4381268E+01
 2.0981750E+01  2.4349545E+01
 2.0993252E+01  2.4333435E+01
 2.1004751E+01  2.4325743E+01
 2.1016251E+01  2.4301489E+01
 2.1027752E+01  2.4301901E+01
 2.1039251E+01  2.4285915E+01
 2.1050751E+01  2.4277691E+01
 2.1062250E+01  2.4295935E+01
 2.1073751E+01  2.4307714E+01
 2.1085251E+01  2.4341066E+01
 2.1096750E+01  2.4261929E+01
 2.1108252E+01  2.4283566E+01
 2.1119751E+01  2.4293146E+01
 2.1131250E+01  2.4346989E+01
 2.1142752E+01  2.4294689E+01
 2.1154251E+01  2.4246019E+01
 2.1165751E+01  2.4215971E+01
 2.1177252E+01  2.4220003E+01
 2.1188751E+01  2.4173212E+01
 2.1200251E+01  2.4181314E+01
 2.1211752E+01  2.4190243E+01
 2.1223251E+01  2.4191124E+01
 2.1234751E+01  2.4171982E+01
 2.1246250E+01  2.4247404E+01
 2.1257751E+01  2.4250235E+01
 2.1269251E+01  2.4256224E+01
 2.1280750E+01  2.4220957E+01
 2.1292252E+01  2.4229776E+01
 2.1303751E+01  2.4210133E+01
 2.1315250E+01  2.4159040E+01
 2.1326752E+01  2.4165476E+01
 2.1338251E+01  2.4179895E+01
 2.1349751E+01  2.4204786E+01
 2.1361252E+01  2.4229614E+01
 2.1372751E+01  2.4273609E+01
 2.1384251E+01  2.4247717E+01
 2.1395752E+01  2.4251585E+01
 2.1407251E+01  2.4240150E+01
 2.1418751E+01  2.4289112E+01
 2.1430250E+01  2.4274969E+01
 2.1441751E+01  2.4294950E+01
 2.1453251E+01  2.4286377E+01
 2.1464750E+01  2.4261883E+01
 2.1476252E+01  2.4163919E+01
 2.1487751E+01  2.4217056E+01
 2.1499250E+01  2.4247782E+01
 2.1510752E+01  2.4263680E+01
 2.1522251E+01  2.4272778E+01
 2.1533751E+01  2.4302752E+01
 2.1545252E+01  2.4294327E+01
 2.1556751E+01  2.4303141E+01
 2.1568251E+01  2.4321926E+01
 2.1579752E+01  2.4344183E+01
 2.1591251E+01  2.4394176E+01
 2.1602751E+01  2.4422918E+01
 2.1614250E+01  2.4420048E+01
 2.1625751E+01  2.4397884E+01
 2.1637251E+01  2.4365891E+01
 2.1648750E+01  2.4348772E+01
 2.1660252E+01  2.4359528E+01
 2.1671751E+01  2.4365669E+01
 2.1683250E+01  2.4354223E+01
 2.1694752E+01  2.4339188E+01
 2.1706251E+01  2.4337233E+01
 2.1717751E+01  2.4359760E+01
 2.1729252E+01  2.4370441E+01
 2.1740751E+01  2.4408972E+01
 2.1752251E+01  2.4369904E+01
 2.1763752E+01  2.4313879E+01
 2.1775251E+01  2.4300962E+01
 2.1786751E+01  2.4316412E+01
 2.1798250E+01  2.4346722E+01
 2.1809752E+01  2.4363974E+01
 2.1821251E+01  2.4382990E+01
 2.1832750E+01  2.4349533E+01
 2.1844252E+01  2.4354309E+01
 2.1855751E+01  2.4350229E+01
 2.1867250E+01  2.4400135E+01
 2.1878752E+01  2.4423248E+01
 2.1890251E+01  2.4400681E+01
 2.1901751E+01  2.4411869E+01
 2.1913252E+01  2.4472031E+01
 2.1924751E+01  2.4524584E+01
 2.1936251E+01  2.4486406E+01
 2.1947752E+01  2.4458710E+01
 2.1959251E+01  2.4424551E+01
 2.1970751E+01  2.4389856E+01
 2.1982250E+01  2.4396338E+01
 2.1993752E+01  2.4460194E+01
 2.2005251E+01  2.4512438E+01
 2.2016750E+01  2.4500973E+01
 2.2028252E+01  2.4517647E+01
 2.2039751E+01  2.4507231E+01
 2.2051250E+01  2.4479856E+01
 2.2062752E+01  2.4454296E+01
 2.2074251E+01  2.4486767E+01
 2.2085751E+01  2.4503675E+01
 2.2097252E+01  2.4547834E+01
 2.2108751E+01  2.4561731E+01
 2.2120251E+01  2.4615984E+01
 2.2131752E+01  2.4627872E+01
 2.2143251E+01  2.4663574E+01
 2.2154751E+01  2.4606737E+01
 2.2166250E+01  2.4579433E+01
 2.2177752E+01  2.4544346E+01
 2.2189251E+01  2.4566635E+01
 2.2200750E+01  2.4558678E+01
 2.2212252E+01  2.4615183E+01
 2.2223751E+01  2.4660345E+01
 2.2235250E+01  2.4714209E+01
 2.2246752E+01  2.4730659E+01
 2.2258251E+01  2.4753227E+01
 2.2269751E+01  2.4708017E+01
 2.2281252E+01  2.4685022E+01
 2.2292751E+01  2.4666380E+01
 2.2304251E+01  2.4722572E+01
 2.2315752E+01  2.4730694E+01
 2.2327251E+01  2.4740105E+01
 2.2338751E+01  2.4748983E+01
 2.2350250E+01  2.4773977E+01
 2.2361752E+01  2.4762093E+01
 2.2373251E+01  2.4755598E+01
 2.2384750E+01  2.4745226E+01
 2.2396252E+01  2.4748625E+01
 2.2407751E+01  2.4725424E+01
 2.2419250E+01  2.4744461E+01
 2.2430752E+01  2.4797827E+01
 2.2442251E+01  2.4852829E+01
 2.2453751E+01  2.4876553E+01
 2.2465252E+01  2.4870815E+01
 2.2476751E+01  2.4886547E+01
 2.2488251E+01  2.4926598E+01
 2.2499752E+01  2.4976744E+01
 2.2511251E+01  2.4997814E+01
 2.2522751E+01  2.5018129E+01
 2.2534250E+01  2.5028870E+01
 2.2545752E+01  2.5048752E+01
 2.2557251E+01  2.5059362E+01
 2.2568750E+01  2.5088039E+01
 2.2580252E+01  2.5123814E+01
 2.2591751E+01  2.5163279E+01
 2.2603251E+01  2.5216276E+01
 2.2614752E+01  2.5277966E+01
 2.2626251E+01  2.5308708E+01
 2.2637751E+01  2.5309418E+01
 2.2649252E+01  2.5286436E+01
 2.2660751E+01  2.5281822E+01
 2.2672251E+01  2.5294861E+01
 2.2683752E+01  2.5342463E+01
 2.2695251E+01  2.5444782E+01
 2.2706751E+01  2.5465595E+01
 2.2718250E+01  2.5454781E+01
 2.2729752E+01  2.5403299E+01
 2.2741251E+01  2.5411940E+01
 2.2752750E+01  2.5472095E+01
 2.2764252E+01  2.5552303E+01
 2.2775751E+01  2.5611897E+01
 2.2787251E+01  2.5553028E+01
 2.2798752E+01  2.5569508E+01
 2.2810251E+01  2.5597792E+01
 2.2821751E+01  2.5635883E+01
 2.2833252E+01  2.5697903E+01
 2.2844751E+01  2.5746666E+01
 2.2856251E+01  2.5770224E+01
 2.2867750E+01  2.5786726E+01
 2.2879251E+01  2.5829229E+01
 2.2890751E+01  2.5915833E+01
 2.2902250E+01  2.5987398E+01
 2.2913752E+01  2.6079739E+01
 2.2925251E+01  2.6157827E+01
 2.2936750E+01  2.6199530E+01
 2.2948252E+01  2.6271791E+01
 2.2959751E+01  2.6324186E+01
 2.2971251E+01  2.6413013E+01
 2.2982752E+01  2.6452320E+01
 2.2994251E+01  2.6521112E+01
