F:\20151113_APS_34IDE\\Brian\Particle1\OCV\Data_0031.tif
2-Theta Angle (Degrees)
Intensity
       2000
 5.7500005E-03  0.0000000E+00
 1.7250001E-02  0.0000000E+00
 2.8750001E-02  0.0000000E+00
 4.0250003E-02  0.0000000E+00
 5.1750004E-02  0.0000000E+00
 6.3250005E-02  0.0000000E+00
 7.4750006E-02  0.0000000E+00
 8.6250007E-02  0.0000000E+00
 9.7750008E-02  0.0000000E+00
 1.0925001E-01  0.0000000E+00
 1.2075000E-01  0.0000000E+00
 1.3225001E-01  0.0000000E+00
 1.4375001E-01  0.0000000E+00
 1.5525001E-01  0.0000000E+00
 1.6675001E-01  0.0000000E+00
 1.7825001E-01  0.0000000E+00
 1.8975002E-01  0.0000000E+00
 2.0125002E-01  0.0000000E+00
 2.1275002E-01  0.0000000E+00
 2.2425000E-01  0.0000000E+00
 2.3575000E-01  0.0000000E+00
 2.4725001E-01  0.0000000E+00
 2.5875002E-01  0.0000000E+00
 2.7025002E-01  0.0000000E+00
 2.8175002E-01  0.0000000E+00
 2.9325002E-01  0.0000000E+00
 3.0475003E-01  0.0000000E+00
 3.1625003E-01  0.0000000E+00
 3.2775003E-01  0.0000000E+00
 3.3925003E-01  0.0000000E+00
 3.5075003E-01  0.0000000E+00
 3.6225003E-01  0.0000000E+00
 3.7375003E-01  0.0000000E+00
 3.8525003E-01  0.0000000E+00
 3.9675003E-01  0.0000000E+00
 4.0825003E-01  0.0000000E+00
 4.1975003E-01  0.0000000E+00
 4.3125004E-01  0.0000000E+00
 4.4275001E-01  0.0000000E+00
 4.5425001E-01  0.0000000E+00
 4.6575001E-01  0.0000000E+00
 4.7725001E-01  0.0000000E+00
 4.8875001E-01  0.0000000E+00
 5.0025004E-01  0.0000000E+00
 5.1175004E-01  0.0000000E+00
 5.2325004E-01  0.0000000E+00
 5.3475004E-01  0.0000000E+00
 5.4625005E-01  0.0000000E+00
 5.5775005E-01  0.0000000E+00
 5.6925005E-01  0.0000000E+00
 5.8075005E-01  0.0000000E+00
 5.9225005E-01  0.0000000E+00
 6.0375005E-01  0.0000000E+00
 6.1525005E-01  0.0000000E+00
 6.2675005E-01  0.0000000E+00
 6.3825005E-01  0.0000000E+00
 6.4975005E-01  0.0000000E+00
 6.6125005E-01  0.0000000E+00
 6.7275006E-01  0.0000000E+00
 6.8425006E-01  0.0000000E+00
 6.9575006E-01  0.0000000E+00
 7.0725006E-01  0.0000000E+00
 7.1875006E-01  0.0000000E+00
 7.3025006E-01  0.0000000E+00
 7.4175006E-01  0.0000000E+00
 7.5325006E-01  0.0000000E+00
 7.6475006E-01  0.0000000E+00
 7.7625006E-01  0.0000000E+00
 7.8775007E-01  0.0000000E+00
 7.9925007E-01  0.0000000E+00
 8.1075007E-01  0.0000000E+00
 8.2225007E-01  0.0000000E+00
 8.3375007E-01  0.0000000E+00
 8.4525007E-01  0.0000000E+00
 8.5675007E-01  0.0000000E+00
 8.6825007E-01  0.0000000E+00
 8.7975001E-01  0.0000000E+00
 8.9125001E-01  0.0000000E+00
 9.0275002E-01  0.0000000E+00
 9.1425002E-01  0.0000000E+00
 9.2575002E-01  0.0000000E+00
 9.3725002E-01  0.0000000E+00
 9.4875002E-01  0.0000000E+00
 9.6025002E-01  0.0000000E+00
 9.7175002E-01  0.0000000E+00
 9.8325002E-01  0.0000000E+00
 9.9475002E-01  0.0000000E+00
 1.0062500E+00  0.0000000E+00
 1.0177500E+00  0.0000000E+00
 1.0292500E+00  0.0000000E+00
 1.0407500E+00  0.0000000E+00
 1.0522500E+00  0.0000000E+00
 1.0637500E+00  0.0000000E+00
 1.0752500E+00  0.0000000E+00
 1.0867500E+00  0.0000000E+00
 1.0982500E+00  0.0000000E+00
 1.1097500E+00  0.0000000E+00
 1.1212500E+00  0.0000000E+00
 1.1327500E+00  0.0000000E+00
 1.1442500E+00  0.0000000E+00
 1.1557500E+00  0.0000000E+00
 1.1672500E+00  0.0000000E+00
 1.1787500E+00  0.0000000E+00
 1.1902500E+00  0.0000000E+00
 1.2017500E+00  0.0000000E+00
 1.2132500E+00  0.0000000E+00
 1.2247500E+00  0.0000000E+00
 1.2362500E+00  0.0000000E+00
 1.2477500E+00  0.0000000E+00
 1.2592500E+00  0.0000000E+00
 1.2707500E+00  0.0000000E+00
 1.2822500E+00  0.0000000E+00
 1.2937500E+00  0.0000000E+00
 1.3052500E+00  0.0000000E+00
 1.3167500E+00  0.0000000E+00
 1.3282501E+00  0.0000000E+00
 1.3397501E+00  0.0000000E+00
 1.3512501E+00  0.0000000E+00
 1.3627501E+00  0.0000000E+00
 1.3742501E+00  0.0000000E+00
 1.3857501E+00  0.0000000E+00
 1.3972501E+00  0.0000000E+00
 1.4087501E+00  0.0000000E+00
 1.4202501E+00  0.0000000E+00
 1.4317501E+00  0.0000000E+00
 1.4432501E+00  0.0000000E+00
 1.4547501E+00  0.0000000E+00
 1.4662501E+00  0.0000000E+00
 1.4777501E+00  0.0000000E+00
 1.4892501E+00  0.0000000E+00
 1.5007501E+00  0.0000000E+00
 1.5122501E+00  0.0000000E+00
 1.5237501E+00  0.0000000E+00
 1.5352501E+00  0.0000000E+00
 1.5467501E+00  0.0000000E+00
 1.5582501E+00  0.0000000E+00
 1.5697501E+00  0.0000000E+00
 1.5812501E+00  0.0000000E+00
 1.5927501E+00  0.0000000E+00
 1.6042501E+00  0.0000000E+00
 1.6157501E+00  0.0000000E+00
 1.6272501E+00  0.0000000E+00
 1.6387501E+00  0.0000000E+00
 1.6502501E+00  0.0000000E+00
 1.6617501E+00  0.0000000E+00
 1.6732501E+00  0.0000000E+00
 1.6847501E+00  0.0000000E+00
 1.6962501E+00  0.0000000E+00
 1.7077501E+00  0.0000000E+00
 1.7192501E+00  0.0000000E+00
 1.7307501E+00  0.0000000E+00
 1.7422501E+00  0.0000000E+00
 1.7537501E+00  0.0000000E+00
 1.7652501E+00  0.0000000E+00
 1.7767501E+00  0.0000000E+00
 1.7882501E+00  0.0000000E+00
 1.7997501E+00  0.0000000E+00
 1.8112501E+00  0.0000000E+00
 1.8227501E+00  0.0000000E+00
 1.8342501E+00  0.0000000E+00
 1.8457501E+00  0.0000000E+00
 1.8572501E+00  0.0000000E+00
 1.8687501E+00  0.0000000E+00
 1.8802501E+00  0.0000000E+00
 1.8917501E+00  0.0000000E+00
 1.9032501E+00  0.0000000E+00
 1.9147501E+00  0.0000000E+00
 1.9262501E+00  0.0000000E+00
 1.9377501E+00  0.0000000E+00
 1.9492501E+00  0.0000000E+00
 1.9607501E+00  0.0000000E+00
 1.9722501E+00  0.0000000E+00
 1.9837501E+00  0.0000000E+00
 1.9952501E+00  0.0000000E+00
 2.0067501E+00  0.0000000E+00
 2.0182500E+00  0.0000000E+00
 2.0297501E+00  0.0000000E+00
 2.0412500E+00  0.0000000E+00
 2.0527501E+00  0.0000000E+00
 2.0642500E+00  0.0000000E+00
 2.0757501E+00  0.0000000E+00
 2.0872500E+00  0.0000000E+00
 2.0987501E+00  0.0000000E+00
 2.1102500E+00  0.0000000E+00
 2.1217501E+00  0.0000000E+00
 2.1332500E+00  0.0000000E+00
 2.1447501E+00  0.0000000E+00
 2.1562500E+00  0.0000000E+00
 2.1677501E+00  0.0000000E+00
 2.1792500E+00  0.0000000E+00
 2.1907501E+00  0.0000000E+00
 2.2022500E+00  0.0000000E+00
 2.2137501E+00  0.0000000E+00
 2.2252500E+00  0.0000000E+00
 2.2367501E+00  0.0000000E+00
 2.2482500E+00  0.0000000E+00
 2.2597501E+00  0.0000000E+00
 2.2712500E+00  0.0000000E+00
 2.2827501E+00  0.0000000E+00
 2.2942500E+00  0.0000000E+00
 2.3057501E+00  0.0000000E+00
 2.3172500E+00  0.0000000E+00
 2.3287501E+00  0.0000000E+00
 2.3402500E+00  0.0000000E+00
 2.3517501E+00  0.0000000E+00
 2.3632500E+00  0.0000000E+00
 2.3747501E+00  0.0000000E+00
 2.3862500E+00  0.0000000E+00
 2.3977501E+00  0.0000000E+00
 2.4092500E+00  0.0000000E+00
 2.4207501E+00  0.0000000E+00
 2.4322500E+00  0.0000000E+00
 2.4437501E+00  0.0000000E+00
 2.4552500E+00  0.0000000E+00
 2.4667501E+00  0.0000000E+00
 2.4782500E+00  0.0000000E+00
 2.4897501E+00  0.0000000E+00
 2.5012500E+00  0.0000000E+00
 2.5127501E+00  0.0000000E+00
 2.5242500E+00  0.0000000E+00
 2.5357502E+00  0.0000000E+00
 2.5472500E+00  0.0000000E+00
 2.5587502E+00  0.0000000E+00
 2.5702500E+00  0.0000000E+00
 2.5817502E+00  0.0000000E+00
 2.5932500E+00  0.0000000E+00
 2.6047502E+00  0.0000000E+00
 2.6162500E+00  0.0000000E+00
 2.6277502E+00  0.0000000E+00
 2.6392500E+00  0.0000000E+00
 2.6507502E+00  0.0000000E+00
 2.6622500E+00  0.0000000E+00
 2.6737502E+00  0.0000000E+00
 2.6852500E+00  0.0000000E+00
 2.6967502E+00  0.0000000E+00
 2.7082500E+00  0.0000000E+00
 2.7197502E+00  0.0000000E+00
 2.7312500E+00  0.0000000E+00
 2.7427502E+00  0.0000000E+00
 2.7542500E+00  0.0000000E+00
 2.7657502E+00  0.0000000E+00
 2.7772501E+00  0.0000000E+00
 2.7887502E+00  0.0000000E+00
 2.8002501E+00  0.0000000E+00
 2.8117502E+00  0.0000000E+00
 2.8232501E+00  3.5158680E+01
 2.8347502E+00  3.5835098E+01
 2.8462501E+00  3.5516136E+01
 2.8577502E+00  3.5295948E+01
 2.8692501E+00  3.5451073E+01
 2.8807502E+00  3.5336151E+01
 2.8922501E+00  3.5415680E+01
 2.9037502E+00  3.5345810E+01
 2.9152501E+00  3.5239925E+01
 2.9267502E+00  3.5230183E+01
 2.9382501E+00  3.4937222E+01
 2.9497502E+00  3.5364227E+01
 2.9612501E+00  3.5344151E+01
 2.9727502E+00  3.5607990E+01
 2.9842501E+00  3.5633572E+01
 2.9957502E+00  3.5859921E+01
 3.0072501E+00  3.6483624E+01
 3.0187502E+00  3.7036312E+01
 3.0302501E+00  3.7789093E+01
 3.0417502E+00  3.7997890E+01
 3.0532501E+00  3.7856178E+01
 3.0647502E+00  3.7162617E+01
 3.0762501E+00  3.6394882E+01
 3.0877502E+00  3.5529938E+01
 3.0992501E+00  3.5371258E+01
 3.1107502E+00  3.4657806E+01
 3.1222501E+00  3.4247669E+01
 3.1337502E+00  3.3862030E+01
 3.1452501E+00  3.4079140E+01
 3.1567502E+00  3.4390793E+01
 3.1682501E+00  3.4799797E+01
 3.1797502E+00  3.5304951E+01
 3.1912501E+00  3.5617203E+01
 3.2027502E+00  3.6051525E+01
 3.2142501E+00  3.6040176E+01
 3.2257502E+00  3.6300007E+01
 3.2372501E+00  3.5964218E+01
 3.2487502E+00  3.5945618E+01
 3.2602501E+00  3.5995758E+01
 3.2717502E+00  3.5941429E+01
 3.2832501E+00  3.5819580E+01
 3.2947502E+00  3.5853241E+01
 3.3062501E+00  3.5753456E+01
 3.3177502E+00  3.5748390E+01
 3.3292501E+00  3.5471233E+01
 3.3407502E+00  3.5233162E+01
 3.3522501E+00  3.5196663E+01
 3.3637502E+00  3.4878178E+01
 3.3752501E+00  3.4975983E+01
 3.3867502E+00  3.4520214E+01
 3.3982501E+00  3.4454891E+01
 3.4097502E+00  3.4215889E+01
 3.4212501E+00  3.4643135E+01
 3.4327502E+00  3.4668377E+01
 3.4442501E+00  3.4942593E+01
 3.4557502E+00  3.4642956E+01
 3.4672501E+00  3.4741947E+01
 3.4787502E+00  3.4523758E+01
 3.4902501E+00  3.4605423E+01
 3.5017502E+00  3.4673023E+01
 3.5132501E+00  3.4750832E+01
 3.5247502E+00  3.4594551E+01
 3.5362501E+00  3.4612827E+01
 3.5477502E+00  3.4553398E+01
 3.5592501E+00  3.4633389E+01
 3.5707502E+00  3.4692158E+01
 3.5822501E+00  3.4551121E+01
 3.5937502E+00  3.4379105E+01
 3.6052501E+00  3.4041027E+01
 3.6167502E+00  3.3816750E+01
 3.6282501E+00  3.3518494E+01
 3.6397502E+00  3.3397110E+01
 3.6512501E+00  3.3326153E+01
 3.6627502E+00  3.3463020E+01
 3.6742501E+00  3.3583122E+01
 3.6857502E+00  3.3543762E+01
 3.6972501E+00  3.3544628E+01
 3.7087502E+00  3.3309467E+01
 3.7202501E+00  3.3362232E+01
 3.7317502E+00  3.3353222E+01
 3.7432501E+00  3.3561916E+01
 3.7547503E+00  3.3468918E+01
 3.7662501E+00  3.3432838E+01
 3.7777503E+00  3.3284981E+01
 3.7892501E+00  3.3110077E+01
 3.8007503E+00  3.2884380E+01
 3.8122501E+00  3.2715141E+01
 3.8237503E+00  3.2770741E+01
 3.8352501E+00  3.2805622E+01
 3.8467503E+00  3.2924538E+01
 3.8582501E+00  3.2989979E+01
 3.8697503E+00  3.3017220E+01
 3.8812501E+00  3.2925014E+01
 3.8927503E+00  3.2646198E+01
 3.9042501E+00  3.2427639E+01
 3.9157503E+00  3.2185825E+01
 3.9272501E+00  3.2227730E+01
 3.9387503E+00  3.2429081E+01
 3.9502501E+00  3.2768421E+01
 3.9617503E+00  3.2991596E+01
 3.9732502E+00  3.2903584E+01
 3.9847503E+00  3.2945488E+01
 3.9962502E+00  3.2699963E+01
 4.0077500E+00  3.2660038E+01
 4.0192504E+00  3.2538723E+01
 4.0307503E+00  3.2530838E+01
 4.0422502E+00  3.2598969E+01
 4.0537500E+00  3.2575794E+01
 4.0652504E+00  3.2586899E+01
 4.0767503E+00  3.2614586E+01
 4.0882502E+00  3.2688248E+01
 4.0997500E+00  3.2716328E+01
 4.1112504E+00  3.2894875E+01
 4.1227503E+00  3.2945633E+01
 4.1342502E+00  3.3161469E+01
 4.1457500E+00  3.3163876E+01
 4.1572504E+00  3.3123039E+01
 4.1687503E+00  3.2943230E+01
 4.1802502E+00  3.2687279E+01
 4.1917500E+00  3.2594051E+01
 4.2032504E+00  3.2593563E+01
 4.2147503E+00  3.2739357E+01
 4.2262502E+00  3.2806263E+01
 4.2377501E+00  3.2794079E+01
 4.2492504E+00  3.2696873E+01
 4.2607503E+00  3.2722149E+01
 4.2722502E+00  3.2573128E+01
 4.2837501E+00  3.2640717E+01
 4.2952504E+00  3.2585899E+01
 4.3067503E+00  3.2747711E+01
 4.3182502E+00  3.2830578E+01
 4.3297501E+00  3.2944950E+01
 4.3412504E+00  3.2989021E+01
 4.3527503E+00  3.3122440E+01
 4.3642502E+00  3.3178097E+01
 4.3757501E+00  3.3239220E+01
 4.3872504E+00  3.3097454E+01
 4.3987503E+00  3.3086384E+01
 4.4102502E+00  3.3135506E+01
 4.4217501E+00  3.3179356E+01
 4.4332504E+00  3.3245457E+01
 4.4447503E+00  3.3279232E+01
 4.4562502E+00  3.3268669E+01
 4.4677501E+00  3.3242096E+01
 4.4792504E+00  3.3235943E+01
 4.4907503E+00  3.3285576E+01
 4.5022502E+00  3.3457901E+01
 4.5137501E+00  3.3632950E+01
 4.5252504E+00  3.3783741E+01
 4.5367503E+00  3.3891029E+01
 4.5482502E+00  3.3696751E+01
 4.5597501E+00  3.3503639E+01
 4.5712504E+00  3.3366852E+01
 4.5827503E+00  3.3295628E+01
 4.5942502E+00  3.3351837E+01
 4.6057501E+00  3.3316200E+01
 4.6172504E+00  3.3287846E+01
 4.6287503E+00  3.3303864E+01
 4.6402502E+00  3.3363632E+01
 4.6517501E+00  3.3483665E+01
 4.6632504E+00  3.3502571E+01
 4.6747503E+00  3.3463303E+01
 4.6862502E+00  3.3224087E+01
 4.6977501E+00  3.3229450E+01
 4.7092505E+00  3.2995590E+01
 4.7207503E+00  3.2930740E+01
 4.7322502E+00  3.2765434E+01
 4.7437501E+00  3.2786705E+01
 4.7552505E+00  3.2783783E+01
 4.7667503E+00  3.2826115E+01
 4.7782502E+00  3.2825298E+01
 4.7897501E+00  3.2889011E+01
 4.8012505E+00  3.2982010E+01
 4.8127503E+00  3.2931480E+01
 4.8242502E+00  3.3065113E+01
 4.8357501E+00  3.3007767E+01
 4.8472505E+00  3.3119678E+01
 4.8587503E+00  3.3183617E+01
 4.8702502E+00  3.3247974E+01
 4.8817501E+00  3.3304340E+01
 4.8932505E+00  3.3272564E+01
 4.9047503E+00  3.3302723E+01
 4.9162502E+00  3.3385509E+01
 4.9277501E+00  3.3435356E+01
 4.9392505E+00  3.3489105E+01
 4.9507504E+00  3.3440716E+01
 4.9622502E+00  3.3375114E+01
 4.9737501E+00  3.3344475E+01
 4.9852505E+00  3.3351067E+01
 4.9967504E+00  3.3437309E+01
 5.0082502E+00  3.3541660E+01
 5.0197501E+00  3.3607090E+01
 5.0312505E+00  3.3618656E+01
 5.0427504E+00  3.3522617E+01
 5.0542502E+00  3.3460281E+01
 5.0657501E+00  3.3569744E+01
 5.0772505E+00  3.3688305E+01
 5.0887504E+00  3.3859165E+01
 5.1002502E+00  3.3938400E+01
 5.1117501E+00  3.4037590E+01
 5.1232505E+00  3.3918945E+01
 5.1347504E+00  3.3944511E+01
 5.1462502E+00  3.4050800E+01
 5.1577501E+00  3.4234165E+01
 5.1692505E+00  3.4413582E+01
 5.1807504E+00  3.4494595E+01
 5.1922503E+00  3.4687191E+01
 5.2037501E+00  3.4665150E+01
 5.2152505E+00  3.4655476E+01
 5.2267504E+00  3.4534424E+01
 5.2382503E+00  3.4532608E+01
 5.2497501E+00  3.4472878E+01
 5.2612505E+00  3.4493484E+01
 5.2727504E+00  3.4479431E+01
 5.2842503E+00  3.4502342E+01
 5.2957501E+00  3.4624008E+01
 5.3072500E+00  3.4648270E+01
 5.3187504E+00  3.4727474E+01
 5.3302503E+00  3.4743374E+01
 5.3417501E+00  3.4825050E+01
 5.3532500E+00  3.4859489E+01
 5.3647504E+00  3.4930130E+01
 5.3762503E+00  3.4977409E+01
 5.3877501E+00  3.5057171E+01
 5.3992500E+00  3.5123089E+01
 5.4107504E+00  3.5277096E+01
 5.4222503E+00  3.5314072E+01
 5.4337502E+00  3.5188335E+01
 5.4452500E+00  3.5067852E+01
 5.4567504E+00  3.4983803E+01
 5.4682503E+00  3.4909939E+01
 5.4797502E+00  3.4948723E+01
 5.4912500E+00  3.4969444E+01
 5.5027504E+00  3.5059006E+01
 5.5142503E+00  3.5221863E+01
 5.5257502E+00  3.5383945E+01
 5.5372500E+00  3.5509621E+01
 5.5487504E+00  3.5507210E+01
 5.5602503E+00  3.5403648E+01
 5.5717502E+00  3.5403946E+01
 5.5832500E+00  3.5365547E+01
 5.5947504E+00  3.5469574E+01
 5.6062503E+00  3.5631493E+01
 5.6177502E+00  3.5587837E+01
 5.6292500E+00  3.5515781E+01
 5.6407504E+00  3.5441620E+01
 5.6522503E+00  3.5453354E+01
 5.6637502E+00  3.5560127E+01
 5.6752501E+00  3.5654732E+01
 5.6867504E+00  3.5736897E+01
 5.6982503E+00  3.5905933E+01
 5.7097502E+00  3.5958508E+01
 5.7212501E+00  3.6086319E+01
 5.7327504E+00  3.6112232E+01
 5.7442503E+00  3.6169807E+01
 5.7557502E+00  3.6264969E+01
 5.7672501E+00  3.6230667E+01
 5.7787504E+00  3.6274899E+01
 5.7902503E+00  3.6299709E+01
 5.8017502E+00  3.6398010E+01
 5.8132501E+00  3.6517197E+01
 5.8247504E+00  3.6587822E+01
 5.8362503E+00  3.6789520E+01
 5.8477502E+00  3.6918903E+01
 5.8592501E+00  3.7152782E+01
 5.8707504E+00  3.7501125E+01
 5.8822503E+00  3.7813068E+01
 5.8937502E+00  3.8451801E+01
 5.9052501E+00  3.8664619E+01
 5.9167504E+00  4.0227123E+01
 5.9282503E+00  4.3697979E+01
 5.9397502E+00  4.4389320E+01
 5.9512501E+00  5.3429630E+01
 5.9627504E+00  5.8886642E+01
 5.9742503E+00  6.1252975E+01
 5.9857502E+00  7.4575737E+01
 5.9972501E+00  7.1969231E+01
 6.0087504E+00  7.1999664E+01
 6.0202503E+00  5.7864700E+01
 6.0317502E+00  4.9135845E+01
 6.0432501E+00  4.7303932E+01
 6.0547504E+00  4.0502190E+01
 6.0662503E+00  3.9240524E+01
 6.0777502E+00  3.8779526E+01
 6.0892501E+00  3.8120121E+01
 6.1007504E+00  3.8013721E+01
 6.1122503E+00  3.7849926E+01
 6.1237502E+00  3.7722145E+01
 6.1352501E+00  3.7591354E+01
 6.1467505E+00  3.7469826E+01
 6.1582503E+00  3.7492096E+01
 6.1697502E+00  3.7581955E+01
 6.1812501E+00  3.7778748E+01
 6.1927505E+00  3.7957409E+01
 6.2042503E+00  3.7926067E+01
 6.2157502E+00  3.7899841E+01
 6.2272501E+00  3.7828857E+01
 6.2387505E+00  3.7867386E+01
 6.2502503E+00  3.7918056E+01
 6.2617502E+00  3.7971298E+01
 6.2732501E+00  3.8162601E+01
 6.2847505E+00  3.8243896E+01
 6.2962503E+00  3.8310482E+01
 6.3077502E+00  3.8297825E+01
 6.3192501E+00  3.8269897E+01
 6.3307505E+00  3.8382877E+01
 6.3422503E+00  3.8447414E+01
 6.3537502E+00  3.8551933E+01
 6.3652501E+00  3.8560699E+01
 6.3767505E+00  3.8615616E+01
 6.3882504E+00  3.8748039E+01
 6.3997502E+00  3.8831753E+01
 6.4112501E+00  3.8886593E+01
 6.4227505E+00  3.8970093E+01
 6.4342504E+00  3.9006104E+01
 6.4457502E+00  3.9253262E+01
 6.4572501E+00  3.9267044E+01
 6.4687505E+00  3.9461887E+01
 6.4802504E+00  3.9466251E+01
 6.4917502E+00  3.9573017E+01
 6.5032501E+00  3.9754265E+01
 6.5147505E+00  3.9930164E+01
 6.5262504E+00  4.0216541E+01
 6.5377502E+00  4.0280552E+01
 6.5492501E+00  4.0251232E+01
 6.5607505E+00  4.0116692E+01
 6.5722504E+00  4.0071808E+01
 6.5837502E+00  4.0075703E+01
 6.5952501E+00  4.0165813E+01
 6.6067505E+00  4.0243179E+01
 6.6182504E+00  4.0382717E+01
 6.6297503E+00  4.0414272E+01
 6.6412501E+00  4.0566120E+01
 6.6527505E+00  4.0615967E+01
 6.6642504E+00  4.0736782E+01
 6.6757503E+00  4.0725838E+01
 6.6872501E+00  4.0796894E+01
 6.6987505E+00  4.0832500E+01
 6.7102504E+00  4.0902786E+01
 6.7217503E+00  4.1010307E+01
 6.7332501E+00  4.1211918E+01
 6.7447505E+00  4.1352272E+01
 6.7562504E+00  4.1450401E+01
 6.7677503E+00  4.1534840E+01
 6.7792501E+00  4.1516895E+01
 6.7907505E+00  4.1563133E+01
 6.8022504E+00  4.1521656E+01
 6.8137503E+00  4.1634693E+01
 6.8252501E+00  4.1712124E+01
 6.8367505E+00  4.1798225E+01
 6.8482504E+00  4.1849815E+01
 6.8597503E+00  4.1852619E+01
 6.8712502E+00  4.1919159E+01
 6.8827505E+00  4.2004555E+01
 6.8942504E+00  4.2050728E+01
 6.9057503E+00  4.2081318E+01
 6.9172502E+00  4.2202892E+01
 6.9287505E+00  4.2302258E+01
 6.9402504E+00  4.2380711E+01
 6.9517503E+00  4.2332722E+01
 6.9632502E+00  4.2370625E+01
 6.9747505E+00  4.2416542E+01
 6.9862504E+00  4.2447693E+01
 6.9977503E+00  4.2468964E+01
 7.0092502E+00  4.2565960E+01
 7.0207505E+00  4.2728889E+01
 7.0322504E+00  4.2901356E+01
 7.0437503E+00  4.3095192E+01
 7.0552502E+00  4.3221634E+01
 7.0667505E+00  4.3338902E+01
 7.0782504E+00  4.3275257E+01
 7.0897503E+00  4.3287865E+01
 7.1012502E+00  4.3219730E+01
 7.1127505E+00  4.3246357E+01
 7.1242504E+00  4.3264175E+01
 7.1357503E+00  4.3344883E+01
 7.1472502E+00  4.3465950E+01
 7.1587505E+00  4.3533947E+01
 7.1702504E+00  4.3579948E+01
 7.1817503E+00  4.3754883E+01
 7.1932502E+00  4.3941433E+01
 7.2047505E+00  4.4117722E+01
 7.2162504E+00  4.4169628E+01
 7.2277503E+00  4.4264683E+01
 7.2392502E+00  4.4258327E+01
 7.2507505E+00  4.4319511E+01
 7.2622504E+00  4.4228230E+01
 7.2737503E+00  4.4356232E+01
 7.2852502E+00  4.4319618E+01
 7.2967505E+00  4.4429150E+01
 7.3082504E+00  4.4451992E+01
 7.3197503E+00  4.4469398E+01
 7.3312502E+00  4.4473152E+01
 7.3427505E+00  4.4367027E+01
 7.3542504E+00  4.4431744E+01
 7.3657503E+00  4.4455982E+01
 7.3772502E+00  4.4520950E+01
 7.3887506E+00  4.4519329E+01
 7.4002504E+00  4.4530331E+01
 7.4117503E+00  4.4571011E+01
 7.4232502E+00  4.4600834E+01
 7.4347506E+00  4.4554863E+01
 7.4462504E+00  4.4480198E+01
 7.4577503E+00  4.4434738E+01
 7.4692502E+00  4.4459099E+01
 7.4807506E+00  4.4527149E+01
 7.4922504E+00  4.4639057E+01
 7.5037503E+00  4.4648365E+01
 7.5152502E+00  4.4780109E+01
 7.5267506E+00  4.4797012E+01
 7.5382504E+00  4.4841705E+01
 7.5497503E+00  4.4832233E+01
 7.5612502E+00  4.4942871E+01
 7.5727506E+00  4.4981628E+01
 7.5842505E+00  4.4964672E+01
 7.5957503E+00  4.4890469E+01
 7.6072502E+00  4.4849678E+01
 7.6187506E+00  4.4806225E+01
 7.6302505E+00  4.4681484E+01
 7.6417503E+00  4.4583668E+01
 7.6532502E+00  4.4386314E+01
 7.6647506E+00  4.4340599E+01
 7.6762505E+00  4.4324749E+01
 7.6877503E+00  4.4459938E+01
 7.6992502E+00  4.4468918E+01
 7.7107506E+00  4.4517090E+01
 7.7222505E+00  4.4570396E+01
 7.7337503E+00  4.4662872E+01
 7.7452502E+00  4.4682655E+01
 7.7567506E+00  4.4744949E+01
 7.7682505E+00  4.4731674E+01
 7.7797503E+00  4.4664845E+01
 7.7912502E+00  4.4575245E+01
 7.8027506E+00  4.4545513E+01
 7.8142505E+00  4.4682930E+01
 7.8257504E+00  4.4717224E+01
 7.8372502E+00  4.4737831E+01
 7.8487506E+00  4.4665871E+01
 7.8602505E+00  4.4654488E+01
 7.8717504E+00  4.4599098E+01
 7.8832502E+00  4.4578499E+01
 7.8947506E+00  4.4524712E+01
 7.9062505E+00  4.4573471E+01
 7.9177504E+00  4.4595631E+01
 7.9292502E+00  4.4617599E+01
 7.9407506E+00  4.4534180E+01
 7.9522505E+00  4.4377068E+01
 7.9637504E+00  4.4238083E+01
 7.9752502E+00  4.4026844E+01
 7.9867506E+00  4.3959641E+01
 7.9982505E+00  4.3968708E+01
 8.0097504E+00  4.3844421E+01
 8.0212507E+00  4.3816772E+01
 8.0327501E+00  4.3707489E+01
 8.0442505E+00  4.3733685E+01
 8.0557508E+00  4.3680286E+01
 8.0672503E+00  4.3583019E+01
 8.0787506E+00  4.3557892E+01
 8.0902500E+00  4.3486591E+01
 8.1017504E+00  4.3339134E+01
 8.1132507E+00  4.3212166E+01
 8.1247501E+00  4.3093044E+01
 8.1362505E+00  4.2998081E+01
 8.1477509E+00  4.2970306E+01
 8.1592503E+00  4.2872169E+01
 8.1707506E+00  4.2835663E+01
 8.1822500E+00  4.2665131E+01
 8.1937504E+00  4.2513371E+01
 8.2052507E+00  4.2299900E+01
 8.2167501E+00  4.2087318E+01
 8.2282505E+00  4.1960728E+01
 8.2397509E+00  4.1805607E+01
 8.2512503E+00  4.1715366E+01
 8.2627506E+00  4.1517063E+01
 8.2742500E+00  4.1448177E+01
 8.2857504E+00  4.1272614E+01
 8.2972507E+00  4.1184692E+01
 8.3087502E+00  4.1005894E+01
 8.3202505E+00  4.0953590E+01
 8.3317509E+00  4.0828476E+01
 8.3432503E+00  4.0713715E+01
 8.3547506E+00  4.0570389E+01
 8.3662500E+00  4.0420692E+01
 8.3777504E+00  4.0201141E+01
 8.3892508E+00  3.9985970E+01
 8.4007502E+00  3.9848446E+01
 8.4122505E+00  3.9718754E+01
 8.4237509E+00  3.9587852E+01
 8.4352503E+00  3.9323952E+01
 8.4467506E+00  3.9135780E+01
 8.4582500E+00  3.8974720E+01
 8.4697504E+00  3.8811691E+01
 8.4812508E+00  3.8667988E+01
 8.4927502E+00  3.8490345E+01
 8.5042505E+00  3.8455009E+01
 8.5157509E+00  3.8282143E+01
 8.5272503E+00  3.8146099E+01
 8.5387506E+00  3.7930168E+01
 8.5502501E+00  3.7753998E+01
 8.5617504E+00  3.7504265E+01
 8.5732508E+00  3.7327236E+01
 8.5847502E+00  3.7115124E+01
 8.5962505E+00  3.7023933E+01
 8.6077509E+00  3.6795372E+01
 8.6192503E+00  3.6644463E+01
 8.6307507E+00  3.6427158E+01
 8.6422501E+00  3.6157570E+01
 8.6537504E+00  3.5946487E+01
 8.6652508E+00  3.5747234E+01
 8.6767502E+00  3.5602837E+01
 8.6882505E+00  3.5444626E+01
 8.6997509E+00  3.5208706E+01
 8.7112503E+00  3.4997623E+01
 8.7227507E+00  3.4850525E+01
 8.7342501E+00  3.4658482E+01
 8.7457504E+00  3.4515800E+01
 8.7572508E+00  3.4334316E+01
 8.7687502E+00  3.4238632E+01
 8.7802505E+00  3.4157516E+01
 8.7917500E+00  3.4038261E+01
 8.8032503E+00  3.3905914E+01
 8.8147507E+00  3.3741718E+01
 8.8262501E+00  3.3627193E+01
 8.8377504E+00  3.3483112E+01
 8.8492508E+00  3.3245670E+01
 8.8607502E+00  3.3058727E+01
 8.8722506E+00  3.2829136E+01
 8.8837500E+00  3.2661453E+01
 8.8952503E+00  3.2411224E+01
 8.9067507E+00  3.2224178E+01
 8.9182501E+00  3.2024891E+01
 8.9297504E+00  3.1886749E+01
 8.9412508E+00  3.1715790E+01
 8.9527502E+00  3.1649244E+01
 8.9642506E+00  3.1523075E+01
 8.9757500E+00  3.1386600E+01
 8.9872503E+00  3.1280825E+01
 8.9987507E+00  3.1091131E+01
 9.0102501E+00  3.0995848E+01
 9.0217505E+00  3.0817120E+01
 9.0332508E+00  3.0728176E+01
 9.0447502E+00  3.0575903E+01
 9.0562506E+00  3.0401014E+01
 9.0677500E+00  3.0252777E+01
 9.0792503E+00  3.0118235E+01
 9.0907507E+00  3.0076874E+01
 9.1022501E+00  2.9958132E+01
 9.1137505E+00  2.9807180E+01
 9.1252508E+00  2.9647064E+01
 9.1367502E+00  2.9507641E+01
 9.1482506E+00  2.9399027E+01
 9.1597500E+00  2.9228735E+01
 9.1712503E+00  2.9016073E+01
 9.1827507E+00  2.8890862E+01
 9.1942501E+00  2.8702164E+01
 9.2057505E+00  2.8644667E+01
 9.2172508E+00  2.8580032E+01
 9.2287502E+00  2.8549574E+01
 9.2402506E+00  2.8496161E+01
 9.2517500E+00  2.8378611E+01
 9.2632504E+00  2.8291649E+01
 9.2747507E+00  2.8183163E+01
 9.2862501E+00  2.8107992E+01
 9.2977505E+00  2.8013935E+01
 9.3092508E+00  2.7875347E+01
 9.3207502E+00  2.7806850E+01
 9.3322506E+00  2.7696474E+01
 9.3437500E+00  2.7642418E+01
 9.3552504E+00  2.7528763E+01
 9.3667507E+00  2.7433008E+01
 9.3782501E+00  2.7327753E+01
 9.3897505E+00  2.7197317E+01
 9.4012508E+00  2.7065783E+01
 9.4127502E+00  2.6951048E+01
 9.4242506E+00  2.6821302E+01
 9.4357500E+00  2.6691561E+01
 9.4472504E+00  2.6619953E+01
 9.4587507E+00  2.6599474E+01
 9.4702501E+00  2.6649967E+01
 9.4817505E+00  2.6660479E+01
 9.4932508E+00  2.6569954E+01
 9.5047503E+00  2.6422598E+01
 9.5162506E+00  2.6299257E+01
 9.5277500E+00  2.6218838E+01
 9.5392504E+00  2.6208782E+01
 9.5507507E+00  2.6124411E+01
 9.5622501E+00  2.6056261E+01
 9.5737505E+00  2.5940477E+01
 9.5852509E+00  2.5893858E+01
 9.5967503E+00  2.5871363E+01
 9.6082506E+00  2.5893539E+01
 9.6197500E+00  2.5912670E+01
 9.6312504E+00  2.5895067E+01
 9.6427507E+00  2.5788315E+01
 9.6542501E+00  2.5722744E+01
 9.6657505E+00  2.5629410E+01
 9.6772509E+00  2.5569586E+01
 9.6887503E+00  2.5464273E+01
 9.7002506E+00  2.5389050E+01
 9.7117500E+00  2.5366961E+01
 9.7232504E+00  2.5331394E+01
 9.7347507E+00  2.5309654E+01
 9.7462502E+00  2.5371454E+01
 9.7577505E+00  2.5345972E+01
 9.7692509E+00  2.5440544E+01
 9.7807503E+00  2.5371712E+01
 9.7922506E+00  2.5359959E+01
 9.8037500E+00  2.5222460E+01
 9.8152504E+00  2.5073092E+01
 9.8267508E+00  2.4878641E+01
 9.8382502E+00  2.4790190E+01
 9.8497505E+00  2.4706011E+01
 9.8612509E+00  2.4670177E+01
 9.8727503E+00  2.4634348E+01
 9.8842506E+00  2.4612553E+01
 9.8957500E+00  2.4659306E+01
 9.9072504E+00  2.4656448E+01
 9.9187508E+00  2.4688189E+01
 9.9302502E+00  2.4697313E+01
 9.9417505E+00  2.4609003E+01
 9.9532509E+00  2.4564274E+01
 9.9647503E+00  2.4523909E+01
 9.9762506E+00  2.4558191E+01
 9.9877501E+00  2.4497969E+01
 9.9992504E+00  2.4422993E+01
 1.0010751E+01  2.4286148E+01
 1.0022250E+01  2.4195601E+01
 1.0033751E+01  2.4170284E+01
 1.0045251E+01  2.4224447E+01
 1.0056750E+01  2.4255543E+01
 1.0068251E+01  2.4330528E+01
 1.0079750E+01  2.4304497E+01
 1.0091250E+01  2.4351795E+01
 1.0102751E+01  2.4328741E+01
 1.0114250E+01  2.4293865E+01
 1.0125751E+01  2.4237528E+01
 1.0137251E+01  2.4102934E+01
 1.0148750E+01  2.4066875E+01
 1.0160251E+01  2.4051855E+01
 1.0171750E+01  2.4061859E+01
 1.0183250E+01  2.4122696E+01
 1.0194751E+01  2.4100677E+01
 1.0206250E+01  2.4062487E+01
 1.0217751E+01  2.4019634E+01
 1.0229251E+01  2.3983038E+01
 1.0240750E+01  2.3928270E+01
 1.0252251E+01  2.3810032E+01
 1.0263750E+01  2.3773724E+01
 1.0275250E+01  2.3736246E+01
 1.0286751E+01  2.3743214E+01
 1.0298250E+01  2.3713915E+01
 1.0309751E+01  2.3765652E+01
 1.0321251E+01  2.3745291E+01
 1.0332750E+01  2.3728420E+01
 1.0344251E+01  2.3652636E+01
 1.0355750E+01  2.3602364E+01
 1.0367250E+01  2.3542042E+01
 1.0378751E+01  2.3550350E+01
 1.0390250E+01  2.3551432E+01
 1.0401751E+01  2.3559473E+01
 1.0413251E+01  2.3478174E+01
 1.0424750E+01  2.3438534E+01
 1.0436251E+01  2.3410624E+01
 1.0447750E+01  2.3395645E+01
 1.0459250E+01  2.3386097E+01
 1.0470751E+01  2.3323191E+01
 1.0482250E+01  2.3346106E+01
 1.0493751E+01  2.3371958E+01
 1.0505251E+01  2.3335157E+01
 1.0516750E+01  2.3315279E+01
 1.0528251E+01  2.3232883E+01
 1.0539750E+01  2.3256866E+01
 1.0551250E+01  2.3240234E+01
 1.0562751E+01  2.3307657E+01
 1.0574250E+01  2.3278389E+01
 1.0585751E+01  2.3265766E+01
 1.0597251E+01  2.3178085E+01
 1.0608750E+01  2.3182287E+01
 1.0620251E+01  2.3159103E+01
 1.0631750E+01  2.3186657E+01
 1.0643250E+01  2.3161814E+01
 1.0654751E+01  2.3201572E+01
 1.0666250E+01  2.3136818E+01
 1.0677751E+01  2.3163063E+01
 1.0689251E+01  2.3082701E+01
 1.0700750E+01  2.3121838E+01
 1.0712251E+01  2.3121418E+01
 1.0723750E+01  2.3139425E+01
 1.0735250E+01  2.3077480E+01
 1.0746751E+01  2.3023531E+01
 1.0758250E+01  2.2975140E+01
 1.0769751E+01  2.2991735E+01
 1.0781251E+01  2.3014006E+01
 1.0792750E+01  2.2987196E+01
 1.0804251E+01  2.2951231E+01
 1.0815750E+01  2.2850607E+01
 1.0827250E+01  2.2786339E+01
 1.0838751E+01  2.2698137E+01
 1.0850250E+01  2.2691816E+01
 1.0861751E+01  2.2736910E+01
 1.0873251E+01  2.2771805E+01
 1.0884750E+01  2.2781363E+01
 1.0896251E+01  2.2777996E+01
 1.0907750E+01  2.2786236E+01
 1.0919250E+01  2.2767113E+01
 1.0930751E+01  2.2747530E+01
 1.0942250E+01  2.2704092E+01
 1.0953751E+01  2.2684786E+01
 1.0965251E+01  2.2623507E+01
 1.0976750E+01  2.2674917E+01
 1.0988251E+01  2.2634508E+01
 1.0999750E+01  2.2627625E+01
 1.1011250E+01  2.2522419E+01
 1.1022751E+01  2.2543123E+01
 1.1034250E+01  2.2557920E+01
 1.1045751E+01  2.2561625E+01
 1.1057251E+01  2.2547531E+01
 1.1068750E+01  2.2597775E+01
 1.1080251E+01  2.2663979E+01
 1.1091750E+01  2.2669577E+01
 1.1103251E+01  2.2640551E+01
 1.1114751E+01  2.2598776E+01
 1.1126250E+01  2.2590450E+01
 1.1137751E+01  2.2562788E+01
 1.1149251E+01  2.2565010E+01
 1.1160750E+01  2.2569027E+01
 1.1172251E+01  2.2573601E+01
 1.1183750E+01  2.2548660E+01
 1.1195251E+01  2.2542753E+01
 1.1206751E+01  2.2499474E+01
 1.1218250E+01  2.2514904E+01
 1.1229751E+01  2.2466108E+01
 1.1241251E+01  2.2479921E+01
 1.1252750E+01  2.2487970E+01
 1.1264251E+01  2.2511999E+01
 1.1275750E+01  2.2512735E+01
 1.1287251E+01  2.2447189E+01
 1.1298751E+01  2.2402542E+01
 1.1310250E+01  2.2407196E+01
 1.1321751E+01  2.2452717E+01
 1.1333251E+01  2.2469770E+01
 1.1344750E+01  2.2467939E+01
 1.1356251E+01  2.2407995E+01
 1.1367750E+01  2.2456196E+01
 1.1379251E+01  2.2457891E+01
 1.1390751E+01  2.2502590E+01
 1.1402250E+01  2.2664707E+01
 1.1413751E+01  2.2670694E+01
 1.1425251E+01  2.2696215E+01
 1.1436750E+01  2.2599360E+01
 1.1448251E+01  2.2646387E+01
 1.1459750E+01  2.2720961E+01
 1.1471251E+01  2.2693754E+01
 1.1482751E+01  2.2722624E+01
 1.1494250E+01  2.2762922E+01
 1.1505751E+01  2.2830235E+01
 1.1517251E+01  2.2992849E+01
 1.1528750E+01  2.3218098E+01
 1.1540251E+01  2.3548473E+01
 1.1551750E+01  2.4075371E+01
 1.1563251E+01  2.4619030E+01
 1.1574751E+01  2.5155399E+01
 1.1586250E+01  2.5676109E+01
 1.1597751E+01  2.5951908E+01
 1.1609251E+01  2.5742044E+01
 1.1620750E+01  2.5487812E+01
 1.1632251E+01  2.4883638E+01
 1.1643750E+01  2.4434286E+01
 1.1655251E+01  2.3715530E+01
 1.1666751E+01  2.3253479E+01
 1.1678250E+01  2.3006031E+01
 1.1689751E+01  2.2710102E+01
 1.1701251E+01  2.2639360E+01
 1.1712750E+01  2.2591940E+01
 1.1724251E+01  2.2586979E+01
 1.1735750E+01  2.2572155E+01
 1.1747251E+01  2.2538612E+01
 1.1758751E+01  2.2538109E+01
 1.1770250E+01  2.2514545E+01
 1.1781751E+01  2.2533829E+01
 1.1793251E+01  2.2530874E+01
 1.1804750E+01  2.2592869E+01
 1.1816251E+01  2.2626816E+01
 1.1827750E+01  2.2688686E+01
 1.1839251E+01  2.2717789E+01
 1.1850751E+01  2.2717798E+01
 1.1862250E+01  2.2679396E+01
 1.1873751E+01  2.2564949E+01
 1.1885251E+01  2.2469589E+01
 1.1896750E+01  2.2496986E+01
 1.1908251E+01  2.2557505E+01
 1.1919750E+01  2.2670538E+01
 1.1931251E+01  2.2803278E+01
 1.1942751E+01  2.3060926E+01
 1.1954250E+01  2.3357389E+01
 1.1965751E+01  2.3744368E+01
 1.1977251E+01  2.3967909E+01
 1.1988750E+01  2.3986233E+01
 1.2000251E+01  2.3828341E+01
 1.2011750E+01  2.3666727E+01
 1.2023251E+01  2.3504391E+01
 1.2034751E+01  2.3437605E+01
 1.2046250E+01  2.3495934E+01
 1.2057751E+01  2.3907337E+01
 1.2069251E+01  2.4421253E+01
 1.2080750E+01  2.4834087E+01
 1.2092251E+01  2.5278088E+01
 1.2103750E+01  2.5367426E+01
 1.2115251E+01  2.5110874E+01
 1.2126751E+01  2.4576584E+01
 1.2138250E+01  2.3961012E+01
 1.2149751E+01  2.3666658E+01
 1.2161251E+01  2.3305708E+01
 1.2172750E+01  2.3115114E+01
 1.2184251E+01  2.2916029E+01
 1.2195750E+01  2.2796793E+01
 1.2207251E+01  2.2652260E+01
 1.2218751E+01  2.2608158E+01
 1.2230250E+01  2.2533688E+01
 1.2241751E+01  2.2526560E+01
 1.2253251E+01  2.2566725E+01
 1.2264750E+01  2.2596523E+01
 1.2276251E+01  2.2604418E+01
 1.2287750E+01  2.2605877E+01
 1.2299251E+01  2.2584358E+01
 1.2310751E+01  2.2650085E+01
 1.2322250E+01  2.2585794E+01
 1.2333751E+01  2.2608965E+01
 1.2345250E+01  2.2572229E+01
 1.2356750E+01  2.2621603E+01
 1.2368251E+01  2.2610821E+01
 1.2379750E+01  2.2619984E+01
 1.2391251E+01  2.2587564E+01
 1.2402751E+01  2.2584494E+01
 1.2414250E+01  2.2582170E+01
 1.2425751E+01  2.2603836E+01
 1.2437250E+01  2.2627275E+01
 1.2448750E+01  2.2612682E+01
 1.2460251E+01  2.2650063E+01
 1.2471750E+01  2.2682100E+01
 1.2483251E+01  2.2715252E+01
 1.2494751E+01  2.2674921E+01
 1.2506250E+01  2.2664734E+01
 1.2517751E+01  2.2728458E+01
 1.2529250E+01  2.2782572E+01
 1.2540751E+01  2.2810543E+01
 1.2552251E+01  2.2777939E+01
 1.2563750E+01  2.2759073E+01
 1.2575251E+01  2.2750750E+01
 1.2586751E+01  2.2768450E+01
 1.2598250E+01  2.2807171E+01
 1.2609751E+01  2.2836491E+01
 1.2621250E+01  2.2889893E+01
 1.2632751E+01  2.2924973E+01
 1.2644251E+01  2.2921751E+01
 1.2655750E+01  2.2927732E+01
 1.2667251E+01  2.2972647E+01
 1.2678751E+01  2.3052313E+01
 1.2690250E+01  2.3044893E+01
 1.2701751E+01  2.2999331E+01
 1.2713250E+01  2.2980101E+01
 1.2724751E+01  2.2940519E+01
 1.2736251E+01  2.2955851E+01
 1.2747750E+01  2.2979616E+01
 1.2759251E+01  2.3101313E+01
 1.2770751E+01  2.3175201E+01
 1.2782250E+01  2.3241110E+01
 1.2793751E+01  2.3200365E+01
 1.2805250E+01  2.3202648E+01
 1.2816751E+01  2.3183929E+01
 1.2828251E+01  2.3246027E+01
 1.2839750E+01  2.3310244E+01
 1.2851251E+01  2.3334955E+01
 1.2862751E+01  2.3359354E+01
 1.2874250E+01  2.3408735E+01
 1.2885751E+01  2.3502632E+01
 1.2897250E+01  2.3571690E+01
 1.2908751E+01  2.3617579E+01
 1.2920251E+01  2.3685215E+01
 1.2931750E+01  2.3781908E+01
 1.2943251E+01  2.3871883E+01
 1.2954751E+01  2.3929651E+01
 1.2966250E+01  2.3984558E+01
 1.2977751E+01  2.4002810E+01
 1.2989250E+01  2.4019682E+01
 1.3000751E+01  2.4055258E+01
 1.3012251E+01  2.4152403E+01
 1.3023750E+01  2.4250713E+01
 1.3035251E+01  2.4352404E+01
 1.3046751E+01  2.4407837E+01
 1.3058250E+01  2.4489138E+01
 1.3069751E+01  2.4537554E+01
 1.3081250E+01  2.4632147E+01
 1.3092751E+01  2.4716261E+01
 1.3104251E+01  2.4823996E+01
 1.3115750E+01  2.4941525E+01
 1.3127251E+01  2.5036278E+01
 1.3138751E+01  2.5128374E+01
 1.3150250E+01  2.5234646E+01
 1.3161751E+01  2.5304123E+01
 1.3173250E+01  2.5424004E+01
 1.3184751E+01  2.5497795E+01
 1.3196251E+01  2.5656569E+01
 1.3207750E+01  2.5780485E+01
 1.3219251E+01  2.5928061E+01
 1.3230751E+01  2.6075422E+01
 1.3242250E+01  2.6260977E+01
 1.3253751E+01  2.6494486E+01
 1.3265250E+01  2.6659964E+01
 1.3276751E+01  2.6823395E+01
 1.3288251E+01  2.6920259E+01
 1.3299750E+01  2.7096973E+01
 1.3311251E+01  2.7219021E+01
 1.3322751E+01  2.7423504E+01
 1.3334250E+01  2.7626377E+01
 1.3345751E+01  2.7791475E+01
 1.3357250E+01  2.7926161E+01
 1.3368751E+01  2.8026882E+01
 1.3380251E+01  2.8171741E+01
 1.3391750E+01  2.8296494E+01
 1.3403251E+01  2.8404678E+01
 1.3414751E+01  2.8527893E+01
 1.3426250E+01  2.8610601E+01
 1.3437751E+01  2.8713295E+01
 1.3449250E+01  2.8782692E+01
 1.3460751E+01  2.8880810E+01
 1.3472251E+01  2.8992729E+01
 1.3483750E+01  2.9119020E+01
 1.3495251E+01  2.9200624E+01
 1.3506751E+01  2.9244858E+01
 1.3518250E+01  2.9352770E+01
 1.3529751E+01  2.9531382E+01
 1.3541250E+01  2.9673120E+01
 1.3552751E+01  2.9690006E+01
 1.3564251E+01  2.9708529E+01
 1.3575750E+01  2.9709743E+01
 1.3587251E+01  2.9756876E+01
 1.3598751E+01  2.9762651E+01
 1.3610250E+01  2.9760313E+01
 1.3621751E+01  2.9817802E+01
 1.3633250E+01  2.9864733E+01
 1.3644751E+01  2.9946259E+01
 1.3656251E+01  2.9924604E+01
 1.3667750E+01  2.9940514E+01
 1.3679251E+01  2.9842691E+01
 1.3690751E+01  2.9799334E+01
 1.3702250E+01  2.9714212E+01
 1.3713751E+01  2.9700619E+01
 1.3725250E+01  2.9708738E+01
 1.3736751E+01  2.9705805E+01
 1.3748251E+01  2.9775099E+01
 1.3759750E+01  2.9663704E+01
 1.3771251E+01  2.9536184E+01
 1.3782751E+01  2.9395077E+01
 1.3794250E+01  2.9290031E+01
 1.3805751E+01  2.9231905E+01
 1.3817250E+01  2.9184254E+01
 1.3828751E+01  2.9202084E+01
 1.3840251E+01  2.9218287E+01
 1.3851750E+01  2.9249914E+01
 1.3863251E+01  2.9333536E+01
 1.3874751E+01  2.9410086E+01
 1.3886250E+01  2.9615185E+01
 1.3897751E+01  2.9897053E+01
 1.3909250E+01  3.0212317E+01
 1.3920751E+01  3.0657013E+01
 1.3932251E+01  3.0973682E+01
 1.3943750E+01  3.1133991E+01
 1.3955251E+01  3.1069025E+01
 1.3966751E+01  3.0836948E+01
 1.3978251E+01  3.0417234E+01
 1.3989751E+01  2.9867544E+01
 1.4001250E+01  2.9355160E+01
 1.4012751E+01  2.8976486E+01
 1.4024251E+01  2.8574417E+01
 1.4035750E+01  2.8339466E+01
 1.4047251E+01  2.8153599E+01
 1.4058751E+01  2.8048004E+01
 1.4070251E+01  2.7895193E+01
 1.4081751E+01  2.7736641E+01
 1.4093250E+01  2.7594166E+01
 1.4104751E+01  2.7493967E+01
 1.4116251E+01  2.7409828E+01
 1.4127750E+01  2.7348642E+01
 1.4139251E+01  2.7250046E+01
 1.4150751E+01  2.7152966E+01
 1.4162251E+01  2.7086489E+01
 1.4173751E+01  2.7037632E+01
 1.4185250E+01  2.6964121E+01
 1.4196751E+01  2.6883553E+01
 1.4208251E+01  2.6833872E+01
 1.4219750E+01  2.6804678E+01
 1.4231251E+01  2.6739618E+01
 1.4242751E+01  2.6731371E+01
 1.4254251E+01  2.6664703E+01
 1.4265751E+01  2.6610903E+01
 1.4277250E+01  2.6490307E+01
 1.4288751E+01  2.6491354E+01
 1.4300251E+01  2.6469606E+01
 1.4311750E+01  2.6456224E+01
 1.4323251E+01  2.6384340E+01
 1.4334751E+01  2.6312204E+01
 1.4346251E+01  2.6213465E+01
 1.4357751E+01  2.6122002E+01
 1.4369250E+01  2.6054901E+01
 1.4380751E+01  2.6047985E+01
 1.4392251E+01  2.6031698E+01
 1.4403750E+01  2.6032785E+01
 1.4415251E+01  2.6030857E+01
 1.4426751E+01  2.6022617E+01
 1.4438251E+01  2.5978830E+01
 1.4449751E+01  2.5890833E+01
 1.4461250E+01  2.5847235E+01
 1.4472751E+01  2.5807394E+01
 1.4484251E+01  2.5781727E+01
 1.4495750E+01  2.5779337E+01
 1.4507251E+01  2.5782772E+01
 1.4518751E+01  2.5757336E+01
 1.4530251E+01  2.5686327E+01
 1.4541751E+01  2.5636534E+01
 1.4553250E+01  2.5618256E+01
 1.4564751E+01  2.5565233E+01
 1.4576251E+01  2.5494423E+01
 1.4587750E+01  2.5468367E+01
 1.4599251E+01  2.5450274E+01
 1.4610751E+01  2.5433325E+01
 1.4622251E+01  2.5415459E+01
 1.4633751E+01  2.5408718E+01
 1.4645250E+01  2.5430088E+01
 1.4656751E+01  2.5398769E+01
 1.4668251E+01  2.5356174E+01
 1.4679750E+01  2.5319466E+01
 1.4691251E+01  2.5297798E+01
 1.4702751E+01  2.5273886E+01
 1.4714251E+01  2.5265755E+01
 1.4725751E+01  2.5207214E+01
 1.4737250E+01  2.5208981E+01
 1.4748751E+01  2.5182068E+01
 1.4760251E+01  2.5171797E+01
 1.4771750E+01  2.5207275E+01
 1.4783251E+01  2.5227100E+01
 1.4794751E+01  2.5296175E+01
 1.4806251E+01  2.5253727E+01
 1.4817751E+01  2.5196501E+01
 1.4829250E+01  2.5160492E+01
 1.4840751E+01  2.5143158E+01
 1.4852251E+01  2.5195774E+01
 1.4863750E+01  2.5127155E+01
 1.4875251E+01  2.5145039E+01
 1.4886751E+01  2.5155632E+01
 1.4898251E+01  2.5200138E+01
 1.4909751E+01  2.5265121E+01
 1.4921250E+01  2.5272915E+01
 1.4932751E+01  2.5313442E+01
 1.4944251E+01  2.5218061E+01
 1.4955750E+01  2.5198351E+01
 1.4967251E+01  2.5162832E+01
 1.4978751E+01  2.5178663E+01
 1.4990251E+01  2.5170691E+01
 1.5001751E+01  2.5184996E+01
 1.5013250E+01  2.5196787E+01
 1.5024751E+01  2.5173239E+01
 1.5036251E+01  2.5103188E+01
 1.5047750E+01  2.5064953E+01
 1.5059251E+01  2.5077362E+01
 1.5070751E+01  2.5101467E+01
 1.5082251E+01  2.5166964E+01
 1.5093751E+01  2.5244738E+01
 1.5105250E+01  2.5430899E+01
 1.5116751E+01  2.5659519E+01
 1.5128251E+01  2.5953415E+01
 1.5139750E+01  2.7133108E+01
 1.5151251E+01  2.7663506E+01
 1.5162751E+01  3.0509207E+01
 1.5174251E+01  3.2407146E+01
 1.5185751E+01  3.5846577E+01
 1.5197250E+01  3.6957443E+01
 1.5208751E+01  3.8170074E+01
 1.5220251E+01  3.7041302E+01
 1.5231750E+01  3.4490612E+01
 1.5243251E+01  3.1743450E+01
 1.5254751E+01  2.9227337E+01
 1.5266251E+01  2.7263926E+01
 1.5277751E+01  2.6149368E+01
 1.5289250E+01  2.5603022E+01
 1.5300751E+01  2.5337025E+01
 1.5312251E+01  2.5195896E+01
 1.5323750E+01  2.5048214E+01
 1.5335251E+01  2.4980175E+01
 1.5346751E+01  2.4912037E+01
 1.5358251E+01  2.4890121E+01
 1.5369751E+01  2.4848404E+01
 1.5381250E+01  2.4814280E+01
 1.5392751E+01  2.4801771E+01
 1.5404251E+01  2.4773579E+01
 1.5415751E+01  2.4705553E+01
 1.5427251E+01  2.4660503E+01
 1.5438751E+01  2.4648863E+01
 1.5450251E+01  2.4583155E+01
 1.5461751E+01  2.4530300E+01
 1.5473250E+01  2.4506861E+01
 1.5484751E+01  2.4609877E+01
 1.5496251E+01  2.4687296E+01
 1.5507751E+01  2.4727325E+01
 1.5519251E+01  2.4718025E+01
 1.5530751E+01  2.4705677E+01
 1.5542251E+01  2.4684961E+01
 1.5553751E+01  2.4659992E+01
 1.5565250E+01  2.4656633E+01
 1.5576751E+01  2.4650719E+01
 1.5588251E+01  2.4664217E+01
 1.5599751E+01  2.4654991E+01
 1.5611251E+01  2.4684162E+01
 1.5622751E+01  2.4683603E+01
 1.5634251E+01  2.4636360E+01
 1.5645751E+01  2.4667753E+01
 1.5657250E+01  2.4687922E+01
 1.5668751E+01  2.4723877E+01
 1.5680251E+01  2.4693827E+01
 1.5691751E+01  2.4694256E+01
 1.5703251E+01  2.4760454E+01
 1.5714751E+01  2.4754576E+01
 1.5726251E+01  2.4763042E+01
 1.5737751E+01  2.4692923E+01
 1.5749250E+01  2.4682434E+01
 1.5760751E+01  2.4646002E+01
 1.5772251E+01  2.4633188E+01
 1.5783751E+01  2.4596548E+01
 1.5795251E+01  2.4614552E+01
 1.5806751E+01  2.4660170E+01
 1.5818251E+01  2.4704208E+01
 1.5829751E+01  2.4706488E+01
 1.5841250E+01  2.4651913E+01
 1.5852751E+01  2.4685059E+01
 1.5864251E+01  2.4673857E+01
 1.5875751E+01  2.4713213E+01
 1.5887251E+01  2.4706566E+01
 1.5898750E+01  2.4687881E+01
 1.5910251E+01  2.4687704E+01
 1.5921751E+01  2.4681179E+01
 1.5933250E+01  2.4697636E+01
 1.5944751E+01  2.4673933E+01
 1.5956251E+01  2.4628281E+01
 1.5967751E+01  2.4628220E+01
 1.5979251E+01  2.4662785E+01
 1.5990750E+01  2.4741722E+01
 1.6002251E+01  2.4753311E+01
 1.6013750E+01  2.4765581E+01
 1.6025251E+01  2.4792242E+01
 1.6036751E+01  2.4845840E+01
 1.6048250E+01  2.4794277E+01
 1.6059752E+01  2.4767855E+01
 1.6071251E+01  2.4717377E+01
 1.6082750E+01  2.4827162E+01
 1.6094252E+01  2.4863111E+01
 1.6105751E+01  2.4956015E+01
 1.6117250E+01  2.4922724E+01
 1.6128750E+01  2.4884336E+01
 1.6140251E+01  2.4873768E+01
 1.6151751E+01  2.4843782E+01
 1.6163250E+01  2.4896891E+01
 1.6174751E+01  2.4900911E+01
 1.6186251E+01  2.5027843E+01
 1.6197750E+01  2.4970865E+01
 1.6209251E+01  2.5127201E+01
 1.6220751E+01  2.5069769E+01
 1.6232250E+01  2.5172672E+01
 1.6243752E+01  2.5182238E+01
 1.6255251E+01  2.5271872E+01
 1.6266750E+01  2.5450083E+01
 1.6278252E+01  2.5379280E+01
 1.6289751E+01  2.5510981E+01
 1.6301250E+01  2.5159643E+01
 1.6312750E+01  2.5228176E+01
 1.6324251E+01  2.4919922E+01
 1.6335751E+01  2.4956594E+01
 1.6347250E+01  2.4786161E+01
 1.6358751E+01  2.4813169E+01
 1.6370251E+01  2.4741060E+01
 1.6381750E+01  2.4775539E+01
 1.6393251E+01  2.4788475E+01
 1.6404751E+01  2.4817219E+01
 1.6416250E+01  2.4866482E+01
 1.6427752E+01  2.4837872E+01
 1.6439251E+01  2.4847309E+01
 1.6450750E+01  2.4776962E+01
 1.6462252E+01  2.4732044E+01
 1.6473751E+01  2.4672029E+01
 1.6485250E+01  2.4671738E+01
 1.6496750E+01  2.4674053E+01
 1.6508251E+01  2.4674639E+01
 1.6519751E+01  2.4655369E+01
 1.6531250E+01  2.4681236E+01
 1.6542751E+01  2.4693403E+01
 1.6554251E+01  2.4678505E+01
 1.6565750E+01  2.4685381E+01
 1.6577251E+01  2.4690392E+01
 1.6588751E+01  2.4691210E+01
 1.6600250E+01  2.4664917E+01
 1.6611752E+01  2.4674593E+01
 1.6623251E+01  2.4647182E+01
 1.6634750E+01  2.4637537E+01
 1.6646252E+01  2.4593765E+01
 1.6657751E+01  2.4626499E+01
 1.6669250E+01  2.4630169E+01
 1.6680750E+01  2.4650860E+01
 1.6692251E+01  2.4650557E+01
 1.6703751E+01  2.4589603E+01
 1.6715250E+01  2.4561550E+01
 1.6726751E+01  2.4535082E+01
 1.6738251E+01  2.4565554E+01
 1.6749750E+01  2.4599791E+01
 1.6761251E+01  2.4593874E+01
 1.6772751E+01  2.4615215E+01
 1.6784250E+01  2.4562622E+01
 1.6795752E+01  2.4594652E+01
 1.6807251E+01  2.4568794E+01
 1.6818750E+01  2.4544426E+01
 1.6830252E+01  2.4497887E+01
 1.6841751E+01  2.4497766E+01
 1.6853251E+01  2.4527864E+01
 1.6864750E+01  2.4554810E+01
 1.6876251E+01  2.4582458E+01
 1.6887751E+01  2.4575142E+01
 1.6899250E+01  2.4583858E+01
 1.6910751E+01  2.4567616E+01
 1.6922251E+01  2.4537075E+01
 1.6933750E+01  2.4493258E+01
 1.6945251E+01  2.4427095E+01
 1.6956751E+01  2.4347006E+01
 1.6968250E+01  2.4303669E+01
 1.6979752E+01  2.4275751E+01
 1.6991251E+01  2.4278885E+01
 1.7002750E+01  2.4290382E+01
 1.7014252E+01  2.4333755E+01
 1.7025751E+01  2.4343596E+01
 1.7037251E+01  2.4328638E+01
 1.7048750E+01  2.4296257E+01
 1.7060251E+01  2.4234320E+01
 1.7071751E+01  2.4210876E+01
 1.7083250E+01  2.4255655E+01
 1.7094751E+01  2.4295933E+01
 1.7106251E+01  2.4306574E+01
 1.7117750E+01  2.4262663E+01
 1.7129251E+01  2.4270941E+01
 1.7140751E+01  2.4250559E+01
 1.7152250E+01  2.4262495E+01
 1.7163752E+01  2.4272240E+01
 1.7175251E+01  2.4284241E+01
 1.7186750E+01  2.4278616E+01
 1.7198252E+01  2.4250210E+01
 1.7209751E+01  2.4241945E+01
 1.7221251E+01  2.4226450E+01
 1.7232750E+01  2.4223118E+01
 1.7244251E+01  2.4190617E+01
 1.7255751E+01  2.4130877E+01
 1.7267250E+01  2.4163698E+01
 1.7278751E+01  2.4184021E+01
 1.7290251E+01  2.4202255E+01
 1.7301750E+01  2.4179688E+01
 1.7313251E+01  2.4149555E+01
 1.7324751E+01  2.4134937E+01
 1.7336250E+01  2.4064253E+01
 1.7347752E+01  2.4039160E+01
 1.7359251E+01  2.4005995E+01
 1.7370750E+01  2.4049349E+01
 1.7382252E+01  2.4050236E+01
 1.7393751E+01  2.4034197E+01
 1.7405251E+01  2.4003483E+01
 1.7416750E+01  2.4002748E+01
 1.7428251E+01  2.4032230E+01
 1.7439751E+01  2.4059265E+01
 1.7451250E+01  2.3999792E+01
 1.7462751E+01  2.3922693E+01
 1.7474251E+01  2.3872646E+01
 1.7485750E+01  2.3888481E+01
 1.7497252E+01  2.3915014E+01
 1.7508751E+01  2.3904591E+01
 1.7520250E+01  2.3915701E+01
 1.7531752E+01  2.3931845E+01
 1.7543251E+01  2.4009373E+01
 1.7554750E+01  2.3977682E+01
 1.7566252E+01  2.3959379E+01
 1.7577751E+01  2.3926569E+01
 1.7589251E+01  2.3936295E+01
 1.7600750E+01  2.3940916E+01
 1.7612251E+01  2.3947344E+01
 1.7623751E+01  2.3982834E+01
 1.7635250E+01  2.3924395E+01
 1.7646751E+01  2.3910275E+01
 1.7658251E+01  2.3823790E+01
 1.7669750E+01  2.3797035E+01
 1.7681252E+01  2.3776192E+01
 1.7692751E+01  2.3796194E+01
 1.7704250E+01  2.3838215E+01
 1.7715752E+01  2.3866348E+01
 1.7727251E+01  2.3892721E+01
 1.7738750E+01  2.3884289E+01
 1.7750252E+01  2.3858559E+01
 1.7761751E+01  2.3844414E+01
 1.7773251E+01  2.3802164E+01
 1.7784750E+01  2.3770695E+01
 1.7796251E+01  2.3768419E+01
 1.7807751E+01  2.3736681E+01
 1.7819250E+01  2.3779640E+01
 1.7830751E+01  2.3760462E+01
 1.7842251E+01  2.3774237E+01
 1.7853750E+01  2.3717228E+01
 1.7865252E+01  2.3735258E+01
 1.7876751E+01  2.3784552E+01
 1.7888250E+01  2.3787380E+01
 1.7899752E+01  2.3822655E+01
 1.7911251E+01  2.3826220E+01
 1.7922750E+01  2.3843426E+01
 1.7934252E+01  2.3754253E+01
 1.7945751E+01  2.3766939E+01
 1.7957251E+01  2.3790499E+01
 1.7968750E+01  2.3862236E+01
 1.7980251E+01  2.3898870E+01
 1.7991751E+01  2.3971933E+01
 1.8003250E+01  2.4066399E+01
 1.8014751E+01  2.4159063E+01
 1.8026251E+01  2.4298700E+01
 1.8037750E+01  2.4443996E+01
 1.8049252E+01  2.4669285E+01
 1.8060751E+01  2.5029648E+01
 1.8072250E+01  2.5452913E+01
 1.8083752E+01  2.6092823E+01
 1.8095251E+01  2.6711685E+01
 1.8106750E+01  2.7234486E+01
 1.8118252E+01  2.7415785E+01
 1.8129751E+01  2.7112558E+01
 1.8141251E+01  2.6670095E+01
 1.8152750E+01  2.5958452E+01
 1.8164251E+01  2.5274414E+01
 1.8175751E+01  2.4625677E+01
 1.8187250E+01  2.4275473E+01
 1.8198751E+01  2.4099527E+01
 1.8210251E+01  2.4022203E+01
 1.8221750E+01  2.3973661E+01
 1.8233252E+01  2.3932617E+01
 1.8244751E+01  2.3866167E+01
 1.8256250E+01  2.3801600E+01
 1.8267752E+01  2.3702450E+01
 1.8279251E+01  2.3640387E+01
 1.8290751E+01  2.3600136E+01
 1.8302252E+01  2.3579279E+01
 1.8313751E+01  2.3523035E+01
 1.8325251E+01  2.3524256E+01
 1.8336750E+01  2.3572683E+01
 1.8348251E+01  2.3629484E+01
 1.8359751E+01  2.3681915E+01
 1.8371250E+01  2.3707037E+01
 1.8382751E+01  2.3703577E+01
 1.8394251E+01  2.3683174E+01
 1.8405750E+01  2.3693621E+01
 1.8417252E+01  2.3688492E+01
 1.8428751E+01  2.3681480E+01
 1.8440250E+01  2.3663599E+01
 1.8451752E+01  2.3619234E+01
 1.8463251E+01  2.3593513E+01
 1.8474751E+01  2.3574343E+01
 1.8486252E+01  2.3586908E+01
 1.8497751E+01  2.3622240E+01
 1.8509251E+01  2.3661417E+01
 1.8520750E+01  2.3671110E+01
 1.8532251E+01  2.3618195E+01
 1.8543751E+01  2.3565708E+01
 1.8555250E+01  2.3540148E+01
 1.8566751E+01  2.3543709E+01
 1.8578251E+01  2.3571407E+01
 1.8589750E+01  2.3603632E+01
 1.8601252E+01  2.3620352E+01
 1.8612751E+01  2.3619101E+01
 1.8624250E+01  2.3584999E+01
 1.8635752E+01  2.3585920E+01
 1.8647251E+01  2.3544910E+01
 1.8658751E+01  2.3550571E+01
 1.8670252E+01  2.3537046E+01
 1.8681751E+01  2.3563734E+01
 1.8693251E+01  2.3538101E+01
 1.8704750E+01  2.3502827E+01
 1.8716251E+01  2.3465105E+01
 1.8727751E+01  2.3396076E+01
 1.8739250E+01  2.3354383E+01
 1.8750751E+01  2.3376671E+01
 1.8762251E+01  2.3415363E+01
 1.8773750E+01  2.3421713E+01
 1.8785252E+01  2.3448492E+01
 1.8796751E+01  2.3478317E+01
 1.8808250E+01  2.3519012E+01
 1.8819752E+01  2.3553404E+01
 1.8831251E+01  2.3609278E+01
 1.8842751E+01  2.3686880E+01
 1.8854252E+01  2.3668528E+01
 1.8865751E+01  2.3648718E+01
 1.8877251E+01  2.3584656E+01
 1.8888750E+01  2.3558281E+01
 1.8900251E+01  2.3536554E+01
 1.8911751E+01  2.3512016E+01
 1.8923250E+01  2.3512018E+01
 1.8934752E+01  2.3505754E+01
 1.8946251E+01  2.3549759E+01
 1.8957750E+01  2.3559679E+01
 1.8969252E+01  2.3537849E+01
 1.8980751E+01  2.3471542E+01
 1.8992250E+01  2.3448074E+01
 1.9003752E+01  2.3458094E+01
 1.9015251E+01  2.3461542E+01
 1.9026751E+01  2.3483688E+01
 1.9038252E+01  2.3469950E+01
 1.9049751E+01  2.3502872E+01
 1.9061251E+01  2.3537895E+01
 1.9072750E+01  2.3627146E+01
 1.9084251E+01  2.3689581E+01
 1.9095751E+01  2.3675270E+01
 1.9107250E+01  2.3653759E+01
 1.9118752E+01  2.3560751E+01
 1.9130251E+01  2.3603079E+01
 1.9141750E+01  2.3605215E+01
 1.9153252E+01  2.3676823E+01
 1.9164751E+01  2.3630911E+01
 1.9176250E+01  2.3590677E+01
 1.9187752E+01  2.3542377E+01
 1.9199251E+01  2.3513536E+01
 1.9210751E+01  2.3528152E+01
 1.9222252E+01  2.3483170E+01
 1.9233751E+01  2.3457998E+01
 1.9245251E+01  2.3457724E+01
 1.9256750E+01  2.3540133E+01
 1.9268251E+01  2.3579468E+01
 1.9279751E+01  2.3563852E+01
 1.9291250E+01  2.3538744E+01
 1.9302752E+01  2.3570965E+01
 1.9314251E+01  2.3593222E+01
 1.9325750E+01  2.3615406E+01
 1.9337252E+01  2.3653528E+01
 1.9348751E+01  2.3694426E+01
 1.9360250E+01  2.3666212E+01
 1.9371752E+01  2.3644352E+01
 1.9383251E+01  2.3632841E+01
 1.9394751E+01  2.3660543E+01
 1.9406250E+01  2.3636839E+01
 1.9417751E+01  2.3627766E+01
 1.9429251E+01  2.3622810E+01
 1.9440750E+01  2.3652002E+01
 1.9452251E+01  2.3659290E+01
 1.9463751E+01  2.3694775E+01
 1.9475250E+01  2.3688587E+01
 1.9486752E+01  2.3711206E+01
 1.9498251E+01  2.3696016E+01
 1.9509750E+01  2.3622561E+01
 1.9521252E+01  2.3605349E+01
 1.9532751E+01  2.3606539E+01
 1.9544250E+01  2.3733799E+01
 1.9555752E+01  2.3708885E+01
 1.9567251E+01  2.3738440E+01
 1.9578751E+01  2.3730757E+01
 1.9590250E+01  2.3799969E+01
 1.9601751E+01  2.3875826E+01
 1.9613251E+01  2.3946178E+01
 1.9624750E+01  2.3999577E+01
 1.9636251E+01  2.4063086E+01
 1.9647751E+01  2.4132736E+01
 1.9659250E+01  2.4470829E+01
 1.9670752E+01  2.4662460E+01
 1.9682251E+01  2.5219175E+01
 1.9693750E+01  2.5748236E+01
 1.9705252E+01  2.6053070E+01
 1.9716751E+01  2.6336363E+01
 1.9728251E+01  2.6384665E+01
 1.9739752E+01  2.6429569E+01
 1.9751251E+01  2.6184338E+01
 1.9762751E+01  2.5952690E+01
 1.9774250E+01  2.5466719E+01
 1.9785751E+01  2.4991343E+01
 1.9797251E+01  2.4733198E+01
 1.9808750E+01  2.4541906E+01
 1.9820251E+01  2.4503296E+01
 1.9831751E+01  2.4675032E+01
 1.9843250E+01  2.4782518E+01
 1.9854752E+01  2.4866735E+01
 1.9866251E+01  2.4871937E+01
 1.9877750E+01  2.4891298E+01
 1.9889252E+01  2.4785725E+01
 1.9900751E+01  2.4638184E+01
 1.9912251E+01  2.4458590E+01
 1.9923752E+01  2.4222866E+01
 1.9935251E+01  2.4066738E+01
 1.9946751E+01  2.3979059E+01
 1.9958250E+01  2.3888939E+01
 1.9969751E+01  2.3854223E+01
 1.9981251E+01  2.3815311E+01
 1.9992750E+01  2.3829512E+01
 2.0004251E+01  2.3774874E+01
 2.0015751E+01  2.3748585E+01
 2.0027250E+01  2.3713509E+01
 2.0038752E+01  2.3701256E+01
 2.0050251E+01  2.3724588E+01
 2.0061750E+01  2.3692421E+01
 2.0073252E+01  2.3722525E+01
 2.0084751E+01  2.3708605E+01
 2.0096251E+01  2.3757029E+01
 2.0107752E+01  2.3737215E+01
 2.0119251E+01  2.3698826E+01
 2.0130751E+01  2.3633793E+01
 2.0142250E+01  2.3602848E+01
 2.0153751E+01  2.3623489E+01
 2.0165251E+01  2.3664726E+01
 2.0176750E+01  2.3708595E+01
 2.0188251E+01  2.3706444E+01
 2.0199751E+01  2.3692871E+01
 2.0211250E+01  2.3703867E+01
 2.0222752E+01  2.3743319E+01
 2.0234251E+01  2.3755337E+01
 2.0245750E+01  2.3755526E+01
 2.0257252E+01  2.3739246E+01
 2.0268751E+01  2.3684526E+01
 2.0280251E+01  2.3697174E+01
 2.0291752E+01  2.3712837E+01
 2.0303251E+01  2.3739901E+01
 2.0314751E+01  2.3718641E+01
 2.0326250E+01  2.3682934E+01
 2.0337751E+01  2.3649679E+01
 2.0349251E+01  2.3662607E+01
 2.0360750E+01  2.3684937E+01
 2.0372252E+01  2.3692122E+01
 2.0383751E+01  2.3705275E+01
 2.0395250E+01  2.3754128E+01
 2.0406752E+01  2.3778965E+01
 2.0418251E+01  2.3757683E+01
 2.0429750E+01  2.3783293E+01
 2.0441252E+01  2.3793467E+01
 2.0452751E+01  2.3780432E+01
 2.0464251E+01  2.3757954E+01
 2.0475752E+01  2.3735226E+01
 2.0487251E+01  2.3742823E+01
 2.0498751E+01  2.3715370E+01
 2.0510250E+01  2.3704700E+01
 2.0521751E+01  2.3695156E+01
 2.0533251E+01  2.3684965E+01
 2.0544750E+01  2.3703527E+01
 2.0556252E+01  2.3730413E+01
 2.0567751E+01  2.3771484E+01
 2.0579250E+01  2.3768156E+01
 2.0590752E+01  2.3817102E+01
 2.0602251E+01  2.3836752E+01
 2.0613750E+01  2.3853825E+01
 2.0625252E+01  2.3903505E+01
 2.0636751E+01  2.3952635E+01
 2.0648251E+01  2.3993078E+01
 2.0659752E+01  2.4016314E+01
 2.0671251E+01  2.4085764E+01
 2.0682751E+01  2.4174831E+01
 2.0694250E+01  2.4274527E+01
 2.0705751E+01  2.4398619E+01
 2.0717251E+01  2.4575176E+01
 2.0728750E+01  2.4791107E+01
 2.0740252E+01  2.4932301E+01
 2.0751751E+01  2.5139078E+01
 2.0763250E+01  2.5185379E+01
 2.0774752E+01  2.5301104E+01
 2.0786251E+01  2.5127554E+01
 2.0797750E+01  2.4938253E+01
 2.0809252E+01  2.4574575E+01
 2.0820751E+01  2.4313759E+01
 2.0832251E+01  2.4076727E+01
 2.0843752E+01  2.3952707E+01
 2.0855251E+01  2.3868521E+01
 2.0866751E+01  2.3788445E+01
 2.0878250E+01  2.3779245E+01
 2.0889751E+01  2.3824032E+01
 2.0901251E+01  2.3880299E+01
 2.0912750E+01  2.3914017E+01
 2.0924252E+01  2.3889257E+01
 2.0935751E+01  2.3864122E+01
 2.0947250E+01  2.3839609E+01
 2.0958752E+01  2.3846916E+01
 2.0970251E+01  2.3857445E+01
 2.0981750E+01  2.3840179E+01
 2.0993252E+01  2.3840399E+01
 2.1004751E+01  2.3806070E+01
 2.1016251E+01  2.3807859E+01
 2.1027752E+01  2.3809273E+01
 2.1039251E+01  2.3859102E+01
 2.1050751E+01  2.3854727E+01
 2.1062250E+01  2.3845598E+01
 2.1073751E+01  2.3852287E+01
 2.1085251E+01  2.3825294E+01
 2.1096750E+01  2.3750124E+01
 2.1108252E+01  2.3734217E+01
 2.1119751E+01  2.3794703E+01
 2.1131250E+01  2.3821037E+01
 2.1142752E+01  2.3833105E+01
 2.1154251E+01  2.3768660E+01
 2.1165751E+01  2.3791389E+01
 2.1177252E+01  2.3834213E+01
 2.1188751E+01  2.3895857E+01
 2.1200251E+01  2.3920467E+01
 2.1211752E+01  2.3896046E+01
 2.1223251E+01  2.3901449E+01
 2.1234751E+01  2.3892418E+01
 2.1246250E+01  2.3894806E+01
 2.1257751E+01  2.3834309E+01
 2.1269251E+01  2.3832047E+01
 2.1280750E+01  2.3853477E+01
 2.1292252E+01  2.3866524E+01
 2.1303751E+01  2.3871124E+01
 2.1315250E+01  2.3882391E+01
 2.1326752E+01  2.3937902E+01
 2.1338251E+01  2.3973150E+01
 2.1349751E+01  2.3973684E+01
 2.1361252E+01  2.3981199E+01
 2.1372751E+01  2.3994410E+01
 2.1384251E+01  2.3973736E+01
 2.1395752E+01  2.3956898E+01
 2.1407251E+01  2.3930250E+01
 2.1418751E+01  2.3931437E+01
 2.1430250E+01  2.3923346E+01
 2.1441751E+01  2.3922279E+01
 2.1453251E+01  2.3922525E+01
 2.1464750E+01  2.3941727E+01
 2.1476252E+01  2.3965872E+01
 2.1487751E+01  2.4009745E+01
 2.1499250E+01  2.3957968E+01
 2.1510752E+01  2.3907730E+01
 2.1522251E+01  2.3880724E+01
 2.1533751E+01  2.3932106E+01
 2.1545252E+01  2.3938351E+01
 2.1556751E+01  2.3915636E+01
 2.1568251E+01  2.3895056E+01
 2.1579752E+01  2.3918343E+01
 2.1591251E+01  2.4002798E+01
 2.1602751E+01  2.4045258E+01
 2.1614250E+01  2.4084929E+01
 2.1625751E+01  2.4075489E+01
 2.1637251E+01  2.4092117E+01
 2.1648750E+01  2.4067659E+01
 2.1660252E+01  2.4061569E+01
 2.1671751E+01  2.4054216E+01
 2.1683250E+01  2.4075598E+01
 2.1694752E+01  2.4056641E+01
 2.1706251E+01  2.4060139E+01
 2.1717751E+01  2.4065542E+01
 2.1729252E+01  2.4088453E+01
 2.1740751E+01  2.4154011E+01
 2.1752251E+01  2.4145451E+01
 2.1763752E+01  2.4084984E+01
 2.1775251E+01  2.3958389E+01
 2.1786751E+01  2.3977531E+01
 2.1798250E+01  2.3994085E+01
 2.1809752E+01  2.4031900E+01
 2.1821251E+01  2.4062395E+01
 2.1832750E+01  2.4071434E+01
 2.1844252E+01  2.4083044E+01
 2.1855751E+01  2.4083214E+01
 2.1867250E+01  2.4125980E+01
 2.1878752E+01  2.4111988E+01
 2.1890251E+01  2.4134485E+01
 2.1901751E+01  2.4155172E+01
 2.1913252E+01  2.4166466E+01
 2.1924751E+01  2.4186325E+01
 2.1936251E+01  2.4207012E+01
 2.1947752E+01  2.4198711E+01
 2.1959251E+01  2.4198503E+01
 2.1970751E+01  2.4195978E+01
 2.1982250E+01  2.4199312E+01
 2.1993752E+01  2.4211487E+01
 2.2005251E+01  2.4232378E+01
 2.2016750E+01  2.4284176E+01
 2.2028252E+01  2.4327421E+01
 2.2039751E+01  2.4351711E+01
 2.2051250E+01  2.4323719E+01
 2.2062752E+01  2.4264105E+01
 2.2074251E+01  2.4258316E+01
 2.2085751E+01  2.4253876E+01
 2.2097252E+01  2.4263109E+01
 2.2108751E+01  2.4229090E+01
 2.2120251E+01  2.4326612E+01
 2.2131752E+01  2.4366251E+01
 2.2143251E+01  2.4400059E+01
 2.2154751E+01  2.4385857E+01
 2.2166250E+01  2.4369123E+01
 2.2177752E+01  2.4314106E+01
 2.2189251E+01  2.4266026E+01
 2.2200750E+01  2.4289837E+01
 2.2212252E+01  2.4330322E+01
 2.2223751E+01  2.4406149E+01
 2.2235250E+01  2.4381495E+01
 2.2246752E+01  2.4346024E+01
 2.2258251E+01  2.4319984E+01
 2.2269751E+01  2.4315166E+01
 2.2281252E+01  2.4323423E+01
 2.2292751E+01  2.4385317E+01
 2.2304251E+01  2.4506680E+01
 2.2315752E+01  2.4534882E+01
 2.2327251E+01  2.4563511E+01
 2.2338751E+01  2.4558304E+01
 2.2350250E+01  2.4623672E+01
 2.2361752E+01  2.4626554E+01
 2.2373251E+01  2.4617395E+01
 2.2384750E+01  2.4533915E+01
 2.2396252E+01  2.4483391E+01
 2.2407751E+01  2.4427580E+01
 2.2419250E+01  2.4393404E+01
 2.2430752E+01  2.4448128E+01
 2.2442251E+01  2.4502796E+01
 2.2453751E+01  2.4562180E+01
 2.2465252E+01  2.4575336E+01
 2.2476751E+01  2.4539011E+01
 2.2488251E+01  2.4547501E+01
 2.2499752E+01  2.4555643E+01
 2.2511251E+01  2.4621149E+01
 2.2522751E+01  2.4699259E+01
 2.2534250E+01  2.4712852E+01
 2.2545752E+01  2.4726757E+01
 2.2557251E+01  2.4723297E+01
 2.2568750E+01  2.4771315E+01
 2.2580252E+01  2.4870216E+01
 2.2591751E+01  2.4921295E+01
 2.2603251E+01  2.4946218E+01
 2.2614752E+01  2.4910746E+01
 2.2626251E+01  2.4897684E+01
 2.2637751E+01  2.4878246E+01
 2.2649252E+01  2.4949350E+01
 2.2660751E+01  2.5007017E+01
 2.2672251E+01  2.5001709E+01
 2.2683752E+01  2.4989840E+01
 2.2695251E+01  2.5049919E+01
 2.2706751E+01  2.5074793E+01
 2.2718250E+01  2.5163851E+01
 2.2729752E+01  2.5191923E+01
 2.2741251E+01  2.5219961E+01
 2.2752750E+01  2.5217871E+01
 2.2764252E+01  2.5246538E+01
 2.2775751E+01  2.5306379E+01
 2.2787251E+01  2.5328859E+01
 2.2798752E+01  2.5419256E+01
 2.2810251E+01  2.5517361E+01
 2.2821751E+01  2.5510138E+01
 2.2833252E+01  2.5561190E+01
 2.2844751E+01  2.5558884E+01
 2.2856251E+01  2.5576748E+01
 2.2867750E+01  2.5551584E+01
 2.2879251E+01  2.5556896E+01
 2.2890751E+01  2.5627190E+01
 2.2902250E+01  2.5718172E+01
 2.2913752E+01  2.5886005E+01
 2.2925251E+01  2.5959509E+01
 2.2936750E+01  2.5979452E+01
 2.2948252E+01  2.5989548E+01
 2.2959751E+01  2.6016024E+01
 2.2971251E+01  2.6088478E+01
 2.2982752E+01  2.6181583E+01
 2.2994251E+01  2.6274622E+01
