F:\20151113_APS_34IDE\\Brian\Particle1\OCV\Data_0014.tif
2-Theta Angle (Degrees)
Intensity
       2000
 5.7500005E-03  0.0000000E+00
 1.7250001E-02  0.0000000E+00
 2.8750001E-02  0.0000000E+00
 4.0250003E-02  0.0000000E+00
 5.1750004E-02  0.0000000E+00
 6.3250005E-02  0.0000000E+00
 7.4750006E-02  0.0000000E+00
 8.6250007E-02  0.0000000E+00
 9.7750008E-02  0.0000000E+00
 1.0925001E-01  0.0000000E+00
 1.2075000E-01  0.0000000E+00
 1.3225001E-01  0.0000000E+00
 1.4375001E-01  0.0000000E+00
 1.5525001E-01  0.0000000E+00
 1.6675001E-01  0.0000000E+00
 1.7825001E-01  0.0000000E+00
 1.8975002E-01  0.0000000E+00
 2.0125002E-01  0.0000000E+00
 2.1275002E-01  0.0000000E+00
 2.2425000E-01  0.0000000E+00
 2.3575000E-01  0.0000000E+00
 2.4725001E-01  0.0000000E+00
 2.5875002E-01  0.0000000E+00
 2.7025002E-01  0.0000000E+00
 2.8175002E-01  0.0000000E+00
 2.9325002E-01  0.0000000E+00
 3.0475003E-01  0.0000000E+00
 3.1625003E-01  0.0000000E+00
 3.2775003E-01  0.0000000E+00
 3.3925003E-01  0.0000000E+00
 3.5075003E-01  0.0000000E+00
 3.6225003E-01  0.0000000E+00
 3.7375003E-01  0.0000000E+00
 3.8525003E-01  0.0000000E+00
 3.9675003E-01  0.0000000E+00
 4.0825003E-01  0.0000000E+00
 4.1975003E-01  0.0000000E+00
 4.3125004E-01  0.0000000E+00
 4.4275001E-01  0.0000000E+00
 4.5425001E-01  0.0000000E+00
 4.6575001E-01  0.0000000E+00
 4.7725001E-01  0.0000000E+00
 4.8875001E-01  0.0000000E+00
 5.0025004E-01  0.0000000E+00
 5.1175004E-01  0.0000000E+00
 5.2325004E-01  0.0000000E+00
 5.3475004E-01  0.0000000E+00
 5.4625005E-01  0.0000000E+00
 5.5775005E-01  0.0000000E+00
 5.6925005E-01  0.0000000E+00
 5.8075005E-01  0.0000000E+00
 5.9225005E-01  0.0000000E+00
 6.0375005E-01  0.0000000E+00
 6.1525005E-01  0.0000000E+00
 6.2675005E-01  0.0000000E+00
 6.3825005E-01  0.0000000E+00
 6.4975005E-01  0.0000000E+00
 6.6125005E-01  0.0000000E+00
 6.7275006E-01  0.0000000E+00
 6.8425006E-01  0.0000000E+00
 6.9575006E-01  0.0000000E+00
 7.0725006E-01  0.0000000E+00
 7.1875006E-01  0.0000000E+00
 7.3025006E-01  0.0000000E+00
 7.4175006E-01  0.0000000E+00
 7.5325006E-01  0.0000000E+00
 7.6475006E-01  0.0000000E+00
 7.7625006E-01  0.0000000E+00
 7.8775007E-01  0.0000000E+00
 7.9925007E-01  0.0000000E+00
 8.1075007E-01  0.0000000E+00
 8.2225007E-01  0.0000000E+00
 8.3375007E-01  0.0000000E+00
 8.4525007E-01  0.0000000E+00
 8.5675007E-01  0.0000000E+00
 8.6825007E-01  0.0000000E+00
 8.7975001E-01  0.0000000E+00
 8.9125001E-01  0.0000000E+00
 9.0275002E-01  0.0000000E+00
 9.1425002E-01  0.0000000E+00
 9.2575002E-01  0.0000000E+00
 9.3725002E-01  0.0000000E+00
 9.4875002E-01  0.0000000E+00
 9.6025002E-01  0.0000000E+00
 9.7175002E-01  0.0000000E+00
 9.8325002E-01  0.0000000E+00
 9.9475002E-01  0.0000000E+00
 1.0062500E+00  0.0000000E+00
 1.0177500E+00  0.0000000E+00
 1.0292500E+00  0.0000000E+00
 1.0407500E+00  0.0000000E+00
 1.0522500E+00  0.0000000E+00
 1.0637500E+00  0.0000000E+00
 1.0752500E+00  0.0000000E+00
 1.0867500E+00  0.0000000E+00
 1.0982500E+00  0.0000000E+00
 1.1097500E+00  0.0000000E+00
 1.1212500E+00  0.0000000E+00
 1.1327500E+00  0.0000000E+00
 1.1442500E+00  0.0000000E+00
 1.1557500E+00  0.0000000E+00
 1.1672500E+00  0.0000000E+00
 1.1787500E+00  0.0000000E+00
 1.1902500E+00  0.0000000E+00
 1.2017500E+00  0.0000000E+00
 1.2132500E+00  0.0000000E+00
 1.2247500E+00  0.0000000E+00
 1.2362500E+00  0.0000000E+00
 1.2477500E+00  0.0000000E+00
 1.2592500E+00  0.0000000E+00
 1.2707500E+00  0.0000000E+00
 1.2822500E+00  0.0000000E+00
 1.2937500E+00  0.0000000E+00
 1.3052500E+00  0.0000000E+00
 1.3167500E+00  0.0000000E+00
 1.3282501E+00  0.0000000E+00
 1.3397501E+00  0.0000000E+00
 1.3512501E+00  0.0000000E+00
 1.3627501E+00  0.0000000E+00
 1.3742501E+00  0.0000000E+00
 1.3857501E+00  0.0000000E+00
 1.3972501E+00  0.0000000E+00
 1.4087501E+00  0.0000000E+00
 1.4202501E+00  0.0000000E+00
 1.4317501E+00  0.0000000E+00
 1.4432501E+00  0.0000000E+00
 1.4547501E+00  0.0000000E+00
 1.4662501E+00  0.0000000E+00
 1.4777501E+00  0.0000000E+00
 1.4892501E+00  0.0000000E+00
 1.5007501E+00  0.0000000E+00
 1.5122501E+00  0.0000000E+00
 1.5237501E+00  0.0000000E+00
 1.5352501E+00  0.0000000E+00
 1.5467501E+00  0.0000000E+00
 1.5582501E+00  0.0000000E+00
 1.5697501E+00  0.0000000E+00
 1.5812501E+00  0.0000000E+00
 1.5927501E+00  0.0000000E+00
 1.6042501E+00  0.0000000E+00
 1.6157501E+00  0.0000000E+00
 1.6272501E+00  0.0000000E+00
 1.6387501E+00  0.0000000E+00
 1.6502501E+00  0.0000000E+00
 1.6617501E+00  0.0000000E+00
 1.6732501E+00  0.0000000E+00
 1.6847501E+00  0.0000000E+00
 1.6962501E+00  0.0000000E+00
 1.7077501E+00  0.0000000E+00
 1.7192501E+00  0.0000000E+00
 1.7307501E+00  0.0000000E+00
 1.7422501E+00  0.0000000E+00
 1.7537501E+00  0.0000000E+00
 1.7652501E+00  0.0000000E+00
 1.7767501E+00  0.0000000E+00
 1.7882501E+00  0.0000000E+00
 1.7997501E+00  0.0000000E+00
 1.8112501E+00  0.0000000E+00
 1.8227501E+00  0.0000000E+00
 1.8342501E+00  0.0000000E+00
 1.8457501E+00  0.0000000E+00
 1.8572501E+00  0.0000000E+00
 1.8687501E+00  0.0000000E+00
 1.8802501E+00  0.0000000E+00
 1.8917501E+00  0.0000000E+00
 1.9032501E+00  0.0000000E+00
 1.9147501E+00  0.0000000E+00
 1.9262501E+00  0.0000000E+00
 1.9377501E+00  0.0000000E+00
 1.9492501E+00  0.0000000E+00
 1.9607501E+00  0.0000000E+00
 1.9722501E+00  0.0000000E+00
 1.9837501E+00  0.0000000E+00
 1.9952501E+00  0.0000000E+00
 2.0067501E+00  0.0000000E+00
 2.0182500E+00  0.0000000E+00
 2.0297501E+00  0.0000000E+00
 2.0412500E+00  0.0000000E+00
 2.0527501E+00  0.0000000E+00
 2.0642500E+00  0.0000000E+00
 2.0757501E+00  0.0000000E+00
 2.0872500E+00  0.0000000E+00
 2.0987501E+00  0.0000000E+00
 2.1102500E+00  0.0000000E+00
 2.1217501E+00  0.0000000E+00
 2.1332500E+00  0.0000000E+00
 2.1447501E+00  0.0000000E+00
 2.1562500E+00  0.0000000E+00
 2.1677501E+00  0.0000000E+00
 2.1792500E+00  0.0000000E+00
 2.1907501E+00  0.0000000E+00
 2.2022500E+00  0.0000000E+00
 2.2137501E+00  0.0000000E+00
 2.2252500E+00  0.0000000E+00
 2.2367501E+00  0.0000000E+00
 2.2482500E+00  0.0000000E+00
 2.2597501E+00  0.0000000E+00
 2.2712500E+00  0.0000000E+00
 2.2827501E+00  0.0000000E+00
 2.2942500E+00  0.0000000E+00
 2.3057501E+00  0.0000000E+00
 2.3172500E+00  0.0000000E+00
 2.3287501E+00  0.0000000E+00
 2.3402500E+00  0.0000000E+00
 2.3517501E+00  0.0000000E+00
 2.3632500E+00  0.0000000E+00
 2.3747501E+00  0.0000000E+00
 2.3862500E+00  0.0000000E+00
 2.3977501E+00  0.0000000E+00
 2.4092500E+00  0.0000000E+00
 2.4207501E+00  0.0000000E+00
 2.4322500E+00  0.0000000E+00
 2.4437501E+00  0.0000000E+00
 2.4552500E+00  0.0000000E+00
 2.4667501E+00  0.0000000E+00
 2.4782500E+00  0.0000000E+00
 2.4897501E+00  0.0000000E+00
 2.5012500E+00  0.0000000E+00
 2.5127501E+00  0.0000000E+00
 2.5242500E+00  0.0000000E+00
 2.5357502E+00  0.0000000E+00
 2.5472500E+00  0.0000000E+00
 2.5587502E+00  0.0000000E+00
 2.5702500E+00  0.0000000E+00
 2.5817502E+00  0.0000000E+00
 2.5932500E+00  0.0000000E+00
 2.6047502E+00  0.0000000E+00
 2.6162500E+00  0.0000000E+00
 2.6277502E+00  0.0000000E+00
 2.6392500E+00  0.0000000E+00
 2.6507502E+00  0.0000000E+00
 2.6622500E+00  0.0000000E+00
 2.6737502E+00  0.0000000E+00
 2.6852500E+00  0.0000000E+00
 2.6967502E+00  0.0000000E+00
 2.7082500E+00  0.0000000E+00
 2.7197502E+00  0.0000000E+00
 2.7312500E+00  0.0000000E+00
 2.7427502E+00  0.0000000E+00
 2.7542500E+00  0.0000000E+00
 2.7657502E+00  0.0000000E+00
 2.7772501E+00  0.0000000E+00
 2.7887502E+00  0.0000000E+00
 2.8002501E+00  0.0000000E+00
 2.8117502E+00  0.0000000E+00
 2.8232501E+00  3.6512676E+01
 2.8347502E+00  3.6216900E+01
 2.8462501E+00  3.6094173E+01
 2.8577502E+00  3.5751411E+01
 2.8692501E+00  3.5608879E+01
 2.8807502E+00  3.5274242E+01
 2.8922501E+00  3.4887932E+01
 2.9037502E+00  3.4666668E+01
 2.9152501E+00  3.4851246E+01
 2.9267502E+00  3.5291069E+01
 2.9382501E+00  3.5412407E+01
 2.9497502E+00  3.5634960E+01
 2.9612501E+00  3.5025646E+01
 2.9727502E+00  3.4740227E+01
 2.9842501E+00  3.4258209E+01
 2.9957502E+00  3.4521706E+01
 3.0072501E+00  3.4885612E+01
 3.0187502E+00  3.5275684E+01
 3.0302501E+00  3.5340534E+01
 3.0417502E+00  3.5653881E+01
 3.0532501E+00  3.5411415E+01
 3.0647502E+00  3.5269691E+01
 3.0762501E+00  3.4755959E+01
 3.0877502E+00  3.4590199E+01
 3.0992501E+00  3.4430698E+01
 3.1107502E+00  3.4390240E+01
 3.1222501E+00  3.4418865E+01
 3.1337502E+00  3.4588753E+01
 3.1452501E+00  3.4910519E+01
 3.1567502E+00  3.5529949E+01
 3.1682501E+00  3.5678497E+01
 3.1797502E+00  3.5820297E+01
 3.1912501E+00  3.5629654E+01
 3.2027502E+00  3.5551861E+01
 3.2142501E+00  3.5563740E+01
 3.2257502E+00  3.5456589E+01
 3.2372501E+00  3.5428150E+01
 3.2487502E+00  3.5281738E+01
 3.2602501E+00  3.5264297E+01
 3.2717502E+00  3.4804970E+01
 3.2832501E+00  3.4773926E+01
 3.2947502E+00  3.4501831E+01
 3.3062501E+00  3.4429459E+01
 3.3177502E+00  3.4327011E+01
 3.3292501E+00  3.4137371E+01
 3.3407502E+00  3.4036922E+01
 3.3522501E+00  3.4139503E+01
 3.3637502E+00  3.4202728E+01
 3.3752501E+00  3.4701847E+01
 3.3867502E+00  3.4881729E+01
 3.3982501E+00  3.4805656E+01
 3.4097502E+00  3.4649681E+01
 3.4212501E+00  3.4428936E+01
 3.4327502E+00  3.4198475E+01
 3.4442501E+00  3.3940987E+01
 3.4557502E+00  3.3591038E+01
 3.4672501E+00  3.3587624E+01
 3.4787502E+00  3.3638680E+01
 3.4902501E+00  3.3700775E+01
 3.5017502E+00  3.3639244E+01
 3.5132501E+00  3.3621124E+01
 3.5247502E+00  3.3446125E+01
 3.5362501E+00  3.3576443E+01
 3.5477502E+00  3.3499641E+01
 3.5592501E+00  3.3610466E+01
 3.5707502E+00  3.3371216E+01
 3.5822501E+00  3.3415565E+01
 3.5937502E+00  3.3159492E+01
 3.6052501E+00  3.2928486E+01
 3.6167502E+00  3.2819481E+01
 3.6282501E+00  3.2877945E+01
 3.6397502E+00  3.3015736E+01
 3.6512501E+00  3.3093235E+01
 3.6627502E+00  3.3043896E+01
 3.6742501E+00  3.3166321E+01
 3.6857502E+00  3.3244923E+01
 3.6972501E+00  3.3331024E+01
 3.7087502E+00  3.3172848E+01
 3.7202501E+00  3.2598099E+01
 3.7317502E+00  3.2360744E+01
 3.7432501E+00  3.2066696E+01
 3.7547503E+00  3.2173286E+01
 3.7662501E+00  3.2167702E+01
 3.7777503E+00  3.2199146E+01
 3.7892501E+00  3.2090038E+01
 3.8007503E+00  3.1832947E+01
 3.8122501E+00  3.1692898E+01
 3.8237503E+00  3.1614021E+01
 3.8352501E+00  3.1779631E+01
 3.8467503E+00  3.1889605E+01
 3.8582501E+00  3.2136349E+01
 3.8697503E+00  3.2223312E+01
 3.8812501E+00  3.2168488E+01
 3.8927503E+00  3.2115417E+01
 3.9042501E+00  3.1838810E+01
 3.9157503E+00  3.1828684E+01
 3.9272501E+00  3.1854496E+01
 3.9387503E+00  3.2004795E+01
 3.9502501E+00  3.2064629E+01
 3.9617503E+00  3.2148312E+01
 3.9732502E+00  3.2382805E+01
 3.9847503E+00  3.2542763E+01
 3.9962502E+00  3.2585125E+01
 4.0077500E+00  3.2633503E+01
 4.0192504E+00  3.2528362E+01
 4.0307503E+00  3.2400093E+01
 4.0422502E+00  3.2201241E+01
 4.0537500E+00  3.2176449E+01
 4.0652504E+00  3.2240402E+01
 4.0767503E+00  3.2319817E+01
 4.0882502E+00  3.2375000E+01
 4.0997500E+00  3.2494415E+01
 4.1112504E+00  3.2466248E+01
 4.1227503E+00  3.2466724E+01
 4.1342502E+00  3.2498924E+01
 4.1457500E+00  3.2416840E+01
 4.1572504E+00  3.2381176E+01
 4.1687503E+00  3.2284386E+01
 4.1802502E+00  3.2382183E+01
 4.1917500E+00  3.2533985E+01
 4.2032504E+00  3.2520542E+01
 4.2147503E+00  3.2435646E+01
 4.2262502E+00  3.2413437E+01
 4.2377501E+00  3.2334267E+01
 4.2492504E+00  3.2221138E+01
 4.2607503E+00  3.2132565E+01
 4.2722502E+00  3.1951300E+01
 4.2837501E+00  3.2024925E+01
 4.2952504E+00  3.2034786E+01
 4.3067503E+00  3.2149086E+01
 4.3182502E+00  3.2195374E+01
 4.3297501E+00  3.2101540E+01
 4.3412504E+00  3.2037128E+01
 4.3527503E+00  3.1946501E+01
 4.3642502E+00  3.1781672E+01
 4.3757501E+00  3.1707123E+01
 4.3872504E+00  3.1749798E+01
 4.3987503E+00  3.1860369E+01
 4.4102502E+00  3.2068665E+01
 4.4217501E+00  3.2101807E+01
 4.4332504E+00  3.2353302E+01
 4.4447503E+00  3.2224052E+01
 4.4562502E+00  3.2281311E+01
 4.4677501E+00  3.2212379E+01
 4.4792504E+00  3.2237347E+01
 4.4907503E+00  3.2213005E+01
 4.5022502E+00  3.2145756E+01
 4.5137501E+00  3.2183750E+01
 4.5252504E+00  3.2092510E+01
 4.5367503E+00  3.2131378E+01
 4.5482502E+00  3.2219864E+01
 4.5597501E+00  3.2460945E+01
 4.5712504E+00  3.2575123E+01
 4.5827503E+00  3.2623219E+01
 4.5942502E+00  3.2527218E+01
 4.6057501E+00  3.2573067E+01
 4.6172504E+00  3.2619431E+01
 4.6287503E+00  3.2736668E+01
 4.6402502E+00  3.2756184E+01
 4.6517501E+00  3.2642368E+01
 4.6632504E+00  3.2750561E+01
 4.6747503E+00  3.2690014E+01
 4.6862502E+00  3.2755383E+01
 4.6977501E+00  3.2717213E+01
 4.7092505E+00  3.2743610E+01
 4.7207503E+00  3.2832684E+01
 4.7322502E+00  3.2643219E+01
 4.7437501E+00  3.2488800E+01
 4.7552505E+00  3.2242275E+01
 4.7667503E+00  3.2191460E+01
 4.7782502E+00  3.2175514E+01
 4.7897501E+00  3.2154320E+01
 4.8012505E+00  3.2202480E+01
 4.8127503E+00  3.2266567E+01
 4.8242502E+00  3.2270878E+01
 4.8357501E+00  3.2249741E+01
 4.8472505E+00  3.2371891E+01
 4.8587503E+00  3.2566616E+01
 4.8702502E+00  3.2750233E+01
 4.8817501E+00  3.2707703E+01
 4.8932505E+00  3.2829247E+01
 4.9047503E+00  3.2848492E+01
 4.9162502E+00  3.2938408E+01
 4.9277501E+00  3.2791298E+01
 4.9392505E+00  3.2781693E+01
 4.9507504E+00  3.2686081E+01
 4.9622502E+00  3.2765644E+01
 4.9737501E+00  3.2796871E+01
 4.9852505E+00  3.2927193E+01
 4.9967504E+00  3.3063911E+01
 5.0082502E+00  3.3201851E+01
 5.0197501E+00  3.3194580E+01
 5.0312505E+00  3.3302570E+01
 5.0427504E+00  3.3269817E+01
 5.0542502E+00  3.3389572E+01
 5.0657501E+00  3.3427113E+01
 5.0772505E+00  3.3464138E+01
 5.0887504E+00  3.3474438E+01
 5.1002502E+00  3.3496059E+01
 5.1117501E+00  3.3461132E+01
 5.1232505E+00  3.3520481E+01
 5.1347504E+00  3.3504398E+01
 5.1462502E+00  3.3613907E+01
 5.1577501E+00  3.3667797E+01
 5.1692505E+00  3.3694324E+01
 5.1807504E+00  3.3703560E+01
 5.1922503E+00  3.3641750E+01
 5.2037501E+00  3.3555965E+01
 5.2152505E+00  3.3546429E+01
 5.2267504E+00  3.3544270E+01
 5.2382503E+00  3.3680729E+01
 5.2497501E+00  3.3686405E+01
 5.2612505E+00  3.3818756E+01
 5.2727504E+00  3.3898842E+01
 5.2842503E+00  3.4017582E+01
 5.2957501E+00  3.4168594E+01
 5.3072500E+00  3.4084698E+01
 5.3187504E+00  3.4233334E+01
 5.3302503E+00  3.4296852E+01
 5.3417501E+00  3.4472717E+01
 5.3532500E+00  3.4378059E+01
 5.3647504E+00  3.4345169E+01
 5.3762503E+00  3.4372971E+01
 5.3877501E+00  3.4434814E+01
 5.3992500E+00  3.4502609E+01
 5.4107504E+00  3.4513000E+01
 5.4222503E+00  3.4556816E+01
 5.4337502E+00  3.4544834E+01
 5.4452500E+00  3.4530098E+01
 5.4567504E+00  3.4637676E+01
 5.4682503E+00  3.4592453E+01
 5.4797502E+00  3.4567520E+01
 5.4912500E+00  3.4488239E+01
 5.5027504E+00  3.4551186E+01
 5.5142503E+00  3.4428631E+01
 5.5257502E+00  3.4448212E+01
 5.5372500E+00  3.4389591E+01
 5.5487504E+00  3.4652161E+01
 5.5602503E+00  3.4840446E+01
 5.5717502E+00  3.5074707E+01
 5.5832500E+00  3.5213387E+01
 5.5947504E+00  3.5187195E+01
 5.6062503E+00  3.5139446E+01
 5.6177502E+00  3.4986858E+01
 5.6292500E+00  3.5009743E+01
 5.6407504E+00  3.5056034E+01
 5.6522503E+00  3.5166157E+01
 5.6637502E+00  3.5321987E+01
 5.6752501E+00  3.5323017E+01
 5.6867504E+00  3.5409626E+01
 5.6982503E+00  3.5318539E+01
 5.7097502E+00  3.5294598E+01
 5.7212501E+00  3.5292034E+01
 5.7327504E+00  3.5272823E+01
 5.7442503E+00  3.5309616E+01
 5.7557502E+00  3.5247643E+01
 5.7672501E+00  3.5305721E+01
 5.7787504E+00  3.5442352E+01
 5.7902503E+00  3.5592049E+01
 5.8017502E+00  3.5594414E+01
 5.8132501E+00  3.5602913E+01
 5.8247504E+00  3.5574253E+01
 5.8362503E+00  3.5732632E+01
 5.8477502E+00  3.5829830E+01
 5.8592501E+00  3.5917141E+01
 5.8707504E+00  3.6069035E+01
 5.8822503E+00  3.6280998E+01
 5.8937502E+00  3.6540447E+01
 5.9052501E+00  3.6905651E+01
 5.9167504E+00  3.7288052E+01
 5.9282503E+00  3.8091175E+01
 5.9397502E+00  3.9255917E+01
 5.9512501E+00  4.0985786E+01
 5.9627504E+00  4.2116745E+01
 5.9742503E+00  4.4033794E+01
 5.9857502E+00  4.3994965E+01
 5.9972501E+00  4.4062740E+01
 6.0087504E+00  4.2379456E+01
 6.0202503E+00  4.0999878E+01
 6.0317502E+00  3.9592705E+01
 6.0432501E+00  3.8556370E+01
 6.0547504E+00  3.7863522E+01
 6.0662503E+00  3.7541382E+01
 6.0777502E+00  3.7256668E+01
 6.0892501E+00  3.7143993E+01
 6.1007504E+00  3.7151123E+01
 6.1122503E+00  3.7190598E+01
 6.1237502E+00  3.7162155E+01
 6.1352501E+00  3.7124149E+01
 6.1467505E+00  3.6899628E+01
 6.1582503E+00  3.6870476E+01
 6.1697502E+00  3.6788963E+01
 6.1812501E+00  3.6858208E+01
 6.1927505E+00  3.6859097E+01
 6.2042503E+00  3.6935120E+01
 6.2157502E+00  3.7025932E+01
 6.2272501E+00  3.7173870E+01
 6.2387505E+00  3.7159107E+01
 6.2502503E+00  3.7312119E+01
 6.2617502E+00  3.7393242E+01
 6.2732501E+00  3.7606236E+01
 6.2847505E+00  3.7784756E+01
 6.2962503E+00  3.7875137E+01
 6.3077502E+00  3.7988686E+01
 6.3192501E+00  3.8013306E+01
 6.3307505E+00  3.8063831E+01
 6.3422503E+00  3.8024841E+01
 6.3537502E+00  3.7991081E+01
 6.3652501E+00  3.7998497E+01
 6.3767505E+00  3.8052868E+01
 6.3882504E+00  3.8033791E+01
 6.3997502E+00  3.8120300E+01
 6.4112501E+00  3.8236252E+01
 6.4227505E+00  3.8290943E+01
 6.4342504E+00  3.8362720E+01
 6.4457502E+00  3.8501221E+01
 6.4572501E+00  3.8681622E+01
 6.4687505E+00  3.8853329E+01
 6.4802504E+00  3.8865124E+01
 6.4917502E+00  3.8981117E+01
 6.5032501E+00  3.9019833E+01
 6.5147505E+00  3.9200130E+01
 6.5262504E+00  3.9231842E+01
 6.5377502E+00  3.9328419E+01
 6.5492501E+00  3.9259331E+01
 6.5607505E+00  3.9413521E+01
 6.5722504E+00  3.9465176E+01
 6.5837502E+00  3.9619350E+01
 6.5952501E+00  3.9636917E+01
 6.6067505E+00  3.9780170E+01
 6.6182504E+00  3.9910225E+01
 6.6297503E+00  3.9991642E+01
 6.6412501E+00  4.0132496E+01
 6.6527505E+00  4.0183838E+01
 6.6642504E+00  4.0353279E+01
 6.6757503E+00  4.0345066E+01
 6.6872501E+00  4.0367668E+01
 6.6987505E+00  4.0383087E+01
 6.7102504E+00  4.0480415E+01
 6.7217503E+00  4.0573635E+01
 6.7332501E+00  4.0693516E+01
 6.7447505E+00  4.0810787E+01
 6.7562504E+00  4.0884064E+01
 6.7677503E+00  4.0973728E+01
 6.7792501E+00  4.0997692E+01
 6.7907505E+00  4.1063255E+01
 6.8022504E+00  4.1206509E+01
 6.8137503E+00  4.1424007E+01
 6.8252501E+00  4.1583282E+01
 6.8367505E+00  4.1743446E+01
 6.8482504E+00  4.1794392E+01
 6.8597503E+00  4.1879185E+01
 6.8712502E+00  4.1868214E+01
 6.8827505E+00  4.1918896E+01
 6.8942504E+00  4.1898037E+01
 6.9057503E+00  4.1969700E+01
 6.9172502E+00  4.2048992E+01
 6.9287505E+00  4.2168007E+01
 6.9402504E+00  4.2282585E+01
 6.9517503E+00  4.2386459E+01
 6.9632502E+00  4.2495316E+01
 6.9747505E+00  4.2642727E+01
 6.9862504E+00  4.2750286E+01
 6.9977503E+00  4.2810001E+01
 7.0092502E+00  4.2839893E+01
 7.0207505E+00  4.2807610E+01
 7.0322504E+00  4.2906685E+01
 7.0437503E+00  4.2975422E+01
 7.0552502E+00  4.3071781E+01
 7.0667505E+00  4.3148331E+01
 7.0782504E+00  4.3137520E+01
 7.0897503E+00  4.3195450E+01
 7.1012502E+00  4.3182343E+01
 7.1127505E+00  4.3248173E+01
 7.1242504E+00  4.3229404E+01
 7.1357503E+00  4.3252895E+01
 7.1472502E+00  4.3254211E+01
 7.1587505E+00  4.3227951E+01
 7.1702504E+00  4.3167061E+01
 7.1817503E+00  4.3076664E+01
 7.1932502E+00  4.3265850E+01
 7.2047505E+00  4.3376804E+01
 7.2162504E+00  4.3576000E+01
 7.2277503E+00  4.3609070E+01
 7.2392502E+00  4.3639275E+01
 7.2507505E+00  4.3714752E+01
 7.2622504E+00  4.3683556E+01
 7.2737503E+00  4.3685974E+01
 7.2852502E+00  4.3680267E+01
 7.2967505E+00  4.3705387E+01
 7.3082504E+00  4.3809555E+01
 7.3197503E+00  4.3904182E+01
 7.3312502E+00  4.3973450E+01
 7.3427505E+00  4.4013542E+01
 7.3542504E+00  4.3968166E+01
 7.3657503E+00  4.3946552E+01
 7.3772502E+00  4.3836357E+01
 7.3887506E+00  4.3876598E+01
 7.4002504E+00  4.3956425E+01
 7.4117503E+00  4.4299946E+01
 7.4232502E+00  4.4434959E+01
 7.4347506E+00  4.4525261E+01
 7.4462504E+00  4.4569164E+01
 7.4577503E+00  4.4628395E+01
 7.4692502E+00  4.4646854E+01
 7.4807506E+00  4.4501808E+01
 7.4922504E+00  4.4442806E+01
 7.5037503E+00  4.4392746E+01
 7.5152502E+00  4.4534878E+01
 7.5267506E+00  4.4591583E+01
 7.5382504E+00  4.4729725E+01
 7.5497503E+00  4.4632671E+01
 7.5612502E+00  4.4724865E+01
 7.5727506E+00  4.4860249E+01
 7.5842505E+00  4.4985554E+01
 7.5957503E+00  4.5048763E+01
 7.6072502E+00  4.5081509E+01
 7.6187506E+00  4.5172733E+01
 7.6302505E+00  4.5208248E+01
 7.6417503E+00  4.5118729E+01
 7.6532502E+00  4.4919777E+01
 7.6647506E+00  4.4765678E+01
 7.6762505E+00  4.4698399E+01
 7.6877503E+00  4.4713516E+01
 7.6992502E+00  4.4702007E+01
 7.7107506E+00  4.4761505E+01
 7.7222505E+00  4.4791286E+01
 7.7337503E+00  4.4765266E+01
 7.7452502E+00  4.4677750E+01
 7.7567506E+00  4.4696320E+01
 7.7682505E+00  4.4752048E+01
 7.7797503E+00  4.4799782E+01
 7.7912502E+00  4.4766689E+01
 7.8027506E+00  4.4726791E+01
 7.8142505E+00  4.4670231E+01
 7.8257504E+00  4.4651276E+01
 7.8372502E+00  4.4654530E+01
 7.8487506E+00  4.4634007E+01
 7.8602505E+00  4.4610355E+01
 7.8717504E+00  4.4561329E+01
 7.8832502E+00  4.4473900E+01
 7.8947506E+00  4.4390171E+01
 7.9062505E+00  4.4393990E+01
 7.9177504E+00  4.4375549E+01
 7.9292502E+00  4.4432777E+01
 7.9407506E+00  4.4391491E+01
 7.9522505E+00  4.4302547E+01
 7.9637504E+00  4.4184895E+01
 7.9752502E+00  4.4041710E+01
 7.9867506E+00  4.4098953E+01
 7.9982505E+00  4.4005913E+01
 8.0097504E+00  4.3956867E+01
 8.0212507E+00  4.3861370E+01
 8.0327501E+00  4.3796227E+01
 8.0442505E+00  4.3779568E+01
 8.0557508E+00  4.3715542E+01
 8.0672503E+00  4.3641212E+01
 8.0787506E+00  4.3610516E+01
 8.0902500E+00  4.3562832E+01
 8.1017504E+00  4.3527088E+01
 8.1132507E+00  4.3459511E+01
 8.1247501E+00  4.3233032E+01
 8.1362505E+00  4.3112007E+01
 8.1477509E+00  4.2892857E+01
 8.1592503E+00  4.2761230E+01
 8.1707506E+00  4.2705326E+01
 8.1822500E+00  4.2648293E+01
 8.1937504E+00  4.2714508E+01
 8.2052507E+00  4.2622646E+01
 8.2167501E+00  4.2505707E+01
 8.2282505E+00  4.2345882E+01
 8.2397509E+00  4.2161777E+01
 8.2512503E+00  4.2049591E+01
 8.2627506E+00  4.1897732E+01
 8.2742500E+00  4.1697186E+01
 8.2857504E+00  4.1581505E+01
 8.2972507E+00  4.1375565E+01
 8.3087502E+00  4.1289341E+01
 8.3202505E+00  4.1126331E+01
 8.3317509E+00  4.1007015E+01
 8.3432503E+00  4.0829060E+01
 8.3547506E+00  4.0670158E+01
 8.3662500E+00  4.0632721E+01
 8.3777504E+00  4.0463436E+01
 8.3892508E+00  4.0326843E+01
 8.4007502E+00  4.0021317E+01
 8.4122505E+00  3.9914043E+01
 8.4237509E+00  3.9655910E+01
 8.4352503E+00  3.9524742E+01
 8.4467506E+00  3.9354851E+01
 8.4582500E+00  3.9283752E+01
 8.4697504E+00  3.9115055E+01
 8.4812508E+00  3.8905251E+01
 8.4927502E+00  3.8727028E+01
 8.5042505E+00  3.8579071E+01
 8.5157509E+00  3.8464752E+01
 8.5272503E+00  3.8247105E+01
 8.5387506E+00  3.8052555E+01
 8.5502501E+00  3.7790836E+01
 8.5617504E+00  3.7620262E+01
 8.5732508E+00  3.7428204E+01
 8.5847502E+00  3.7196850E+01
 8.5962505E+00  3.6981915E+01
 8.6077509E+00  3.6757427E+01
 8.6192503E+00  3.6689186E+01
 8.6307507E+00  3.6558189E+01
 8.6422501E+00  3.6430069E+01
 8.6537504E+00  3.6219944E+01
 8.6652508E+00  3.6079990E+01
 8.6767502E+00  3.5863983E+01
 8.6882505E+00  3.5699196E+01
 8.6997509E+00  3.5521183E+01
 8.7112503E+00  3.5306301E+01
 8.7227507E+00  3.5199970E+01
 8.7342501E+00  3.4986614E+01
 8.7457504E+00  3.4833015E+01
 8.7572508E+00  3.4564594E+01
 8.7687502E+00  3.4431480E+01
 8.7802505E+00  3.4253033E+01
 8.7917500E+00  3.4078278E+01
 8.8032503E+00  3.3806480E+01
 8.8147507E+00  3.3668293E+01
 8.8262501E+00  3.3583435E+01
 8.8377504E+00  3.3528118E+01
 8.8492508E+00  3.3512394E+01
 8.8607502E+00  3.3443180E+01
 8.8722506E+00  3.3303158E+01
 8.8837500E+00  3.3060551E+01
 8.8952503E+00  3.2807682E+01
 8.9067507E+00  3.2624088E+01
 8.9182501E+00  3.2490608E+01
 8.9297504E+00  3.2371742E+01
 8.9412508E+00  3.2322227E+01
 8.9527502E+00  3.2236713E+01
 8.9642506E+00  3.2269867E+01
 8.9757500E+00  3.2152649E+01
 8.9872503E+00  3.2033028E+01
 8.9987507E+00  3.1753296E+01
 9.0102501E+00  3.1527178E+01
 9.0217505E+00  3.1228256E+01
 9.0332508E+00  3.1136993E+01
 9.0447502E+00  3.1042086E+01
 9.0562506E+00  3.0917782E+01
 9.0677500E+00  3.0780426E+01
 9.0792503E+00  3.0658058E+01
 9.0907507E+00  3.0572367E+01
 9.1022501E+00  3.0385326E+01
 9.1137505E+00  3.0301090E+01
 9.1252508E+00  3.0287207E+01
 9.1367502E+00  3.0166538E+01
 9.1482506E+00  3.0035757E+01
 9.1597500E+00  2.9813211E+01
 9.1712503E+00  2.9730181E+01
 9.1827507E+00  2.9515381E+01
 9.1942501E+00  2.9431509E+01
 9.2057505E+00  2.9299273E+01
 9.2172508E+00  2.9233067E+01
 9.2287502E+00  2.9073908E+01
 9.2402506E+00  2.8977259E+01
 9.2517500E+00  2.8895479E+01
 9.2632504E+00  2.8774328E+01
 9.2747507E+00  2.8717621E+01
 9.2862501E+00  2.8546680E+01
 9.2977505E+00  2.8472733E+01
 9.3092508E+00  2.8306353E+01
 9.3207502E+00  2.8203659E+01
 9.3322506E+00  2.8127153E+01
 9.3437500E+00  2.8025497E+01
 9.3552504E+00  2.7931883E+01
 9.3667507E+00  2.7781870E+01
 9.3782501E+00  2.7681768E+01
 9.3897505E+00  2.7605259E+01
 9.4012508E+00  2.7554939E+01
 9.4127502E+00  2.7458492E+01
 9.4242506E+00  2.7424900E+01
 9.4357500E+00  2.7284365E+01
 9.4472504E+00  2.7239477E+01
 9.4587507E+00  2.7189648E+01
 9.4702501E+00  2.7208975E+01
 9.4817505E+00  2.7214928E+01
 9.4932508E+00  2.7079475E+01
 9.5047503E+00  2.7028536E+01
 9.5162506E+00  2.6900684E+01
 9.5277500E+00  2.6919811E+01
 9.5392504E+00  2.6824902E+01
 9.5507507E+00  2.6789061E+01
 9.5622501E+00  2.6670584E+01
 9.5737505E+00  2.6587322E+01
 9.5852509E+00  2.6452105E+01
 9.5967503E+00  2.6413549E+01
 9.6082506E+00  2.6411781E+01
 9.6197500E+00  2.6454756E+01
 9.6312504E+00  2.6448704E+01
 9.6427507E+00  2.6389784E+01
 9.6542501E+00  2.6297026E+01
 9.6657505E+00  2.6190006E+01
 9.6772509E+00  2.6009232E+01
 9.6887503E+00  2.5908352E+01
 9.7002506E+00  2.5875895E+01
 9.7117500E+00  2.5910454E+01
 9.7232504E+00  2.5894732E+01
 9.7347507E+00  2.5826193E+01
 9.7462502E+00  2.5786711E+01
 9.7577505E+00  2.5707443E+01
 9.7692509E+00  2.5650885E+01
 9.7807503E+00  2.5532991E+01
 9.7922506E+00  2.5540234E+01
 9.8037500E+00  2.5489275E+01
 9.8152504E+00  2.5517803E+01
 9.8267508E+00  2.5481609E+01
 9.8382502E+00  2.5465994E+01
 9.8497505E+00  2.5375118E+01
 9.8612509E+00  2.5302185E+01
 9.8727503E+00  2.5237265E+01
 9.8842506E+00  2.5186199E+01
 9.8957500E+00  2.5167334E+01
 9.9072504E+00  2.5163637E+01
 9.9187508E+00  2.5172525E+01
 9.9302502E+00  2.5112291E+01
 9.9417505E+00  2.5034241E+01
 9.9532509E+00  2.4920240E+01
 9.9647503E+00  2.4871685E+01
 9.9762506E+00  2.4848234E+01
 9.9877501E+00  2.4858095E+01
 9.9992504E+00  2.4794888E+01
 1.0010751E+01  2.4693544E+01
 1.0022250E+01  2.4645061E+01
 1.0033751E+01  2.4559368E+01
 1.0045251E+01  2.4533449E+01
 1.0056750E+01  2.4434427E+01
 1.0068251E+01  2.4463526E+01
 1.0079750E+01  2.4417641E+01
 1.0091250E+01  2.4408369E+01
 1.0102751E+01  2.4331343E+01
 1.0114250E+01  2.4288280E+01
 1.0125751E+01  2.4254396E+01
 1.0137251E+01  2.4205124E+01
 1.0148750E+01  2.4243637E+01
 1.0160251E+01  2.4318430E+01
 1.0171750E+01  2.4407145E+01
 1.0183250E+01  2.4465574E+01
 1.0194751E+01  2.4383675E+01
 1.0206250E+01  2.4291246E+01
 1.0217751E+01  2.4232721E+01
 1.0229251E+01  2.4224855E+01
 1.0240750E+01  2.4238068E+01
 1.0252251E+01  2.4214228E+01
 1.0263750E+01  2.4202768E+01
 1.0275250E+01  2.4221882E+01
 1.0286751E+01  2.4201246E+01
 1.0298250E+01  2.4192156E+01
 1.0309751E+01  2.4168180E+01
 1.0321251E+01  2.4043427E+01
 1.0332750E+01  2.3987122E+01
 1.0344251E+01  2.3860210E+01
 1.0355750E+01  2.3859333E+01
 1.0367250E+01  2.3821014E+01
 1.0378751E+01  2.3857691E+01
 1.0390250E+01  2.3909142E+01
 1.0401751E+01  2.3919542E+01
 1.0413251E+01  2.3888247E+01
 1.0424750E+01  2.3807058E+01
 1.0436251E+01  2.3721527E+01
 1.0447750E+01  2.3619097E+01
 1.0459250E+01  2.3565178E+01
 1.0470751E+01  2.3546722E+01
 1.0482250E+01  2.3583729E+01
 1.0493751E+01  2.3595669E+01
 1.0505251E+01  2.3564863E+01
 1.0516750E+01  2.3551390E+01
 1.0528251E+01  2.3499527E+01
 1.0539750E+01  2.3544365E+01
 1.0551250E+01  2.3517933E+01
 1.0562751E+01  2.3536524E+01
 1.0574250E+01  2.3465492E+01
 1.0585751E+01  2.3430998E+01
 1.0597251E+01  2.3357321E+01
 1.0608750E+01  2.3315878E+01
 1.0620251E+01  2.3323704E+01
 1.0631750E+01  2.3365250E+01
 1.0643250E+01  2.3379246E+01
 1.0654751E+01  2.3350033E+01
 1.0666250E+01  2.3295422E+01
 1.0677751E+01  2.3273005E+01
 1.0689251E+01  2.3224060E+01
 1.0700750E+01  2.3209707E+01
 1.0712251E+01  2.3164141E+01
 1.0723750E+01  2.3159992E+01
 1.0735250E+01  2.3118053E+01
 1.0746751E+01  2.3094637E+01
 1.0758250E+01  2.3057348E+01
 1.0769751E+01  2.3076025E+01
 1.0781251E+01  2.3086351E+01
 1.0792750E+01  2.3136099E+01
 1.0804251E+01  2.3217894E+01
 1.0815750E+01  2.3288231E+01
 1.0827250E+01  2.3336403E+01
 1.0838751E+01  2.3256851E+01
 1.0850250E+01  2.3205271E+01
 1.0861751E+01  2.3178165E+01
 1.0873251E+01  2.3244715E+01
 1.0884750E+01  2.3218184E+01
 1.0896251E+01  2.3204161E+01
 1.0907750E+01  2.3171690E+01
 1.0919250E+01  2.3224197E+01
 1.0930751E+01  2.3247396E+01
 1.0942250E+01  2.3230984E+01
 1.0953751E+01  2.3251930E+01
 1.0965251E+01  2.3208305E+01
 1.0976750E+01  2.3207287E+01
 1.0988251E+01  2.3085138E+01
 1.0999750E+01  2.3050699E+01
 1.1011250E+01  2.3001839E+01
 1.1022751E+01  2.3027170E+01
 1.1034250E+01  2.3003922E+01
 1.1045751E+01  2.2966349E+01
 1.1057251E+01  2.2943466E+01
 1.1068750E+01  2.2977995E+01
 1.1080251E+01  2.2949522E+01
 1.1091750E+01  2.2958469E+01
 1.1103251E+01  2.2886742E+01
 1.1114751E+01  2.2918928E+01
 1.1126250E+01  2.2948839E+01
 1.1137751E+01  2.2935448E+01
 1.1149251E+01  2.2932110E+01
 1.1160750E+01  2.2863224E+01
 1.1172251E+01  2.2827362E+01
 1.1183750E+01  2.2765600E+01
 1.1195251E+01  2.2733412E+01
 1.1206751E+01  2.2735355E+01
 1.1218250E+01  2.2754200E+01
 1.1229751E+01  2.2778460E+01
 1.1241251E+01  2.2802034E+01
 1.1252750E+01  2.2776695E+01
 1.1264251E+01  2.2751766E+01
 1.1275750E+01  2.2744549E+01
 1.1287251E+01  2.2759552E+01
 1.1298751E+01  2.2789494E+01
 1.1310250E+01  2.2858570E+01
 1.1321751E+01  2.2932295E+01
 1.1333251E+01  2.2989359E+01
 1.1344750E+01  2.3012854E+01
 1.1356251E+01  2.3030237E+01
 1.1367750E+01  2.3078945E+01
 1.1379251E+01  2.3150187E+01
 1.1390751E+01  2.3167282E+01
 1.1402250E+01  2.3258959E+01
 1.1413751E+01  2.3238472E+01
 1.1425251E+01  2.3284954E+01
 1.1436750E+01  2.3250919E+01
 1.1448251E+01  2.3269371E+01
 1.1459750E+01  2.3346430E+01
 1.1471251E+01  2.3365658E+01
 1.1482751E+01  2.3440639E+01
 1.1494250E+01  2.3519855E+01
 1.1505751E+01  2.3683617E+01
 1.1517251E+01  2.3936773E+01
 1.1528750E+01  2.4475595E+01
 1.1540251E+01  2.5343557E+01
 1.1551750E+01  2.6693535E+01
 1.1563251E+01  2.8587528E+01
 1.1574751E+01  3.0810625E+01
 1.1586250E+01  3.2362747E+01
 1.1597751E+01  3.3150349E+01
 1.1609251E+01  3.2483036E+01
 1.1620750E+01  3.1201572E+01
 1.1632251E+01  2.9175957E+01
 1.1643750E+01  2.7236340E+01
 1.1655251E+01  2.5704922E+01
 1.1666751E+01  2.4542925E+01
 1.1678250E+01  2.3933022E+01
 1.1689751E+01  2.3510714E+01
 1.1701251E+01  2.3266439E+01
 1.1712750E+01  2.3114294E+01
 1.1724251E+01  2.3039894E+01
 1.1735750E+01  2.2985067E+01
 1.1747251E+01  2.2952257E+01
 1.1758751E+01  2.2909872E+01
 1.1770250E+01  2.2878382E+01
 1.1781751E+01  2.2850439E+01
 1.1793251E+01  2.2879225E+01
 1.1804750E+01  2.2869564E+01
 1.1816251E+01  2.2893095E+01
 1.1827750E+01  2.2832159E+01
 1.1839251E+01  2.2830702E+01
 1.1850751E+01  2.2719839E+01
 1.1862250E+01  2.2700899E+01
 1.1873751E+01  2.2631550E+01
 1.1885251E+01  2.2662212E+01
 1.1896750E+01  2.2715309E+01
 1.1908251E+01  2.2800327E+01
 1.1919750E+01  2.2914534E+01
 1.1931251E+01  2.3057676E+01
 1.1942751E+01  2.3251471E+01
 1.1954250E+01  2.3480806E+01
 1.1965751E+01  2.3777102E+01
 1.1977251E+01  2.3963007E+01
 1.1988750E+01  2.4169735E+01
 1.2000251E+01  2.4121344E+01
 1.2011750E+01  2.4074301E+01
 1.2023251E+01  2.3879957E+01
 1.2034751E+01  2.3999886E+01
 1.2046250E+01  2.4098307E+01
 1.2057751E+01  2.4290304E+01
 1.2069251E+01  2.4540600E+01
 1.2080750E+01  2.4737371E+01
 1.2092251E+01  2.4981266E+01
 1.2103750E+01  2.4796787E+01
 1.2115251E+01  2.4614262E+01
 1.2126751E+01  2.4198643E+01
 1.2138250E+01  2.3833834E+01
 1.2149751E+01  2.3497665E+01
 1.2161251E+01  2.3248028E+01
 1.2172750E+01  2.3065069E+01
 1.2184251E+01  2.2971796E+01
 1.2195750E+01  2.2911249E+01
 1.2207251E+01  2.2881800E+01
 1.2218751E+01  2.2822859E+01
 1.2230250E+01  2.2792309E+01
 1.2241751E+01  2.2816761E+01
 1.2253251E+01  2.2838284E+01
 1.2264750E+01  2.2872839E+01
 1.2276251E+01  2.2843822E+01
 1.2287750E+01  2.2866398E+01
 1.2299251E+01  2.2839903E+01
 1.2310751E+01  2.2872564E+01
 1.2322250E+01  2.2815092E+01
 1.2333751E+01  2.2845119E+01
 1.2345250E+01  2.2775846E+01
 1.2356750E+01  2.2804726E+01
 1.2368251E+01  2.2770025E+01
 1.2379750E+01  2.2804306E+01
 1.2391251E+01  2.2818565E+01
 1.2402751E+01  2.2838614E+01
 1.2414250E+01  2.2879688E+01
 1.2425751E+01  2.2936512E+01
 1.2437250E+01  2.2979828E+01
 1.2448750E+01  2.2991436E+01
 1.2460251E+01  2.2971966E+01
 1.2471750E+01  2.2900711E+01
 1.2483251E+01  2.2895672E+01
 1.2494751E+01  2.2868441E+01
 1.2506250E+01  2.2901340E+01
 1.2517751E+01  2.2929640E+01
 1.2529250E+01  2.2985245E+01
 1.2540751E+01  2.3028551E+01
 1.2552251E+01  2.3051823E+01
 1.2563750E+01  2.3063004E+01
 1.2575251E+01  2.3109537E+01
 1.2586751E+01  2.3127514E+01
 1.2598250E+01  2.3197922E+01
 1.2609751E+01  2.3156219E+01
 1.2621250E+01  2.3177584E+01
 1.2632751E+01  2.3145056E+01
 1.2644251E+01  2.3125414E+01
 1.2655750E+01  2.3065994E+01
 1.2667251E+01  2.3079025E+01
 1.2678751E+01  2.3152731E+01
 1.2690250E+01  2.3231054E+01
 1.2701751E+01  2.3289143E+01
 1.2713250E+01  2.3381413E+01
 1.2724751E+01  2.3371429E+01
 1.2736251E+01  2.3368246E+01
 1.2747750E+01  2.3326700E+01
 1.2759251E+01  2.3367762E+01
 1.2770751E+01  2.3359966E+01
 1.2782250E+01  2.3477783E+01
 1.2793751E+01  2.3551924E+01
 1.2805250E+01  2.3610939E+01
 1.2816751E+01  2.3628777E+01
 1.2828251E+01  2.3663998E+01
 1.2839750E+01  2.3677525E+01
 1.2851251E+01  2.3657848E+01
 1.2862751E+01  2.3644445E+01
 1.2874250E+01  2.3692696E+01
 1.2885751E+01  2.3654060E+01
 1.2897250E+01  2.3613802E+01
 1.2908751E+01  2.3640446E+01
 1.2920251E+01  2.3729885E+01
 1.2931750E+01  2.3839273E+01
 1.2943251E+01  2.3860823E+01
 1.2954751E+01  2.3881754E+01
 1.2966250E+01  2.3976103E+01
 1.2977751E+01  2.4029819E+01
 1.2989250E+01  2.4112848E+01
 1.3000751E+01  2.4133867E+01
 1.3012251E+01  2.4233265E+01
 1.3023750E+01  2.4315378E+01
 1.3035251E+01  2.4398657E+01
 1.3046751E+01  2.4514423E+01
 1.3058250E+01  2.4625578E+01
 1.3069751E+01  2.4711927E+01
 1.3081250E+01  2.4753618E+01
 1.3092751E+01  2.4830809E+01
 1.3104251E+01  2.4957001E+01
 1.3115750E+01  2.5091135E+01
 1.3127251E+01  2.5218557E+01
 1.3138751E+01  2.5320793E+01
 1.3150250E+01  2.5475574E+01
 1.3161751E+01  2.5580050E+01
 1.3173250E+01  2.5700760E+01
 1.3184751E+01  2.5780983E+01
 1.3196251E+01  2.5882215E+01
 1.3207750E+01  2.6070225E+01
 1.3219251E+01  2.6282892E+01
 1.3230751E+01  2.6482874E+01
 1.3242250E+01  2.6591887E+01
 1.3253751E+01  2.6696289E+01
 1.3265250E+01  2.6775244E+01
 1.3276751E+01  2.6861256E+01
 1.3288251E+01  2.7001186E+01
 1.3299750E+01  2.7140759E+01
 1.3311251E+01  2.7275501E+01
 1.3322751E+01  2.7403467E+01
 1.3334250E+01  2.7620029E+01
 1.3345751E+01  2.7819408E+01
 1.3357250E+01  2.8034168E+01
 1.3368751E+01  2.8158421E+01
 1.3380251E+01  2.8294636E+01
 1.3391750E+01  2.8385145E+01
 1.3403251E+01  2.8530193E+01
 1.3414751E+01  2.8623743E+01
 1.3426250E+01  2.8689299E+01
 1.3437751E+01  2.8743896E+01
 1.3449250E+01  2.8799934E+01
 1.3460751E+01  2.8929621E+01
 1.3472251E+01  2.9098999E+01
 1.3483750E+01  2.9334608E+01
 1.3495251E+01  2.9504576E+01
 1.3506751E+01  2.9653728E+01
 1.3518250E+01  2.9761101E+01
 1.3529751E+01  2.9791393E+01
 1.3541250E+01  2.9851452E+01
 1.3552751E+01  2.9851812E+01
 1.3564251E+01  2.9896595E+01
 1.3575750E+01  2.9878510E+01
 1.3587251E+01  2.9906446E+01
 1.3598751E+01  2.9996710E+01
 1.3610250E+01  3.0055132E+01
 1.3621751E+01  3.0126465E+01
 1.3633250E+01  3.0035198E+01
 1.3644751E+01  2.9986458E+01
 1.3656251E+01  2.9940174E+01
 1.3667750E+01  2.9994209E+01
 1.3679251E+01  3.0000511E+01
 1.3690751E+01  3.0001350E+01
 1.3702250E+01  2.9943693E+01
 1.3713751E+01  2.9938465E+01
 1.3725250E+01  2.9873526E+01
 1.3736751E+01  2.9823679E+01
 1.3748251E+01  2.9778975E+01
 1.3759750E+01  2.9739975E+01
 1.3771251E+01  2.9764414E+01
 1.3782751E+01  2.9738886E+01
 1.3794250E+01  2.9709173E+01
 1.3805751E+01  2.9719786E+01
 1.3817250E+01  2.9636873E+01
 1.3828751E+01  2.9614132E+01
 1.3840251E+01  2.9576828E+01
 1.3851750E+01  2.9602575E+01
 1.3863251E+01  2.9921692E+01
 1.3874751E+01  3.0081572E+01
 1.3886250E+01  3.0402037E+01
 1.3897751E+01  3.1437918E+01
 1.3909250E+01  3.1939610E+01
 1.3920751E+01  3.3931572E+01
 1.3932251E+01  3.5329277E+01
 1.3943750E+01  3.6015812E+01
 1.3955251E+01  3.9580776E+01
 1.3966751E+01  3.8542160E+01
 1.3978251E+01  3.9057919E+01
 1.3989751E+01  3.5885242E+01
 1.4001250E+01  3.4689487E+01
 1.4012751E+01  3.3547707E+01
 1.4024251E+01  3.1076000E+01
 1.4035750E+01  3.0709646E+01
 1.4047251E+01  2.9291964E+01
 1.4058751E+01  2.8806183E+01
 1.4070251E+01  2.8664303E+01
 1.4081751E+01  2.8200905E+01
 1.4093250E+01  2.8050896E+01
 1.4104751E+01  2.7887037E+01
 1.4116251E+01  2.7750893E+01
 1.4127750E+01  2.7712320E+01
 1.4139251E+01  2.7549692E+01
 1.4150751E+01  2.7436846E+01
 1.4162251E+01  2.7409847E+01
 1.4173751E+01  2.7342190E+01
 1.4185250E+01  2.7286427E+01
 1.4196751E+01  2.7242409E+01
 1.4208251E+01  2.7161980E+01
 1.4219750E+01  2.7159620E+01
 1.4231251E+01  2.7022181E+01
 1.4242751E+01  2.6940567E+01
 1.4254251E+01  2.6845875E+01
 1.4265751E+01  2.6765903E+01
 1.4277250E+01  2.6693790E+01
 1.4288751E+01  2.6642788E+01
 1.4300251E+01  2.6548269E+01
 1.4311750E+01  2.6537489E+01
 1.4323251E+01  2.6434132E+01
 1.4334751E+01  2.6455750E+01
 1.4346251E+01  2.6441422E+01
 1.4357751E+01  2.6506155E+01
 1.4369250E+01  2.6462103E+01
 1.4380751E+01  2.6436127E+01
 1.4392251E+01  2.6334229E+01
 1.4403750E+01  2.6286915E+01
 1.4415251E+01  2.6240076E+01
 1.4426751E+01  2.6177696E+01
 1.4438251E+01  2.6157749E+01
 1.4449751E+01  2.6050911E+01
 1.4461250E+01  2.5981838E+01
 1.4472751E+01  2.5938852E+01
 1.4484251E+01  2.5901363E+01
 1.4495750E+01  2.5926275E+01
 1.4507251E+01  2.5897882E+01
 1.4518751E+01  2.5896387E+01
 1.4530251E+01  2.5828133E+01
 1.4541751E+01  2.5800158E+01
 1.4553250E+01  2.5763315E+01
 1.4564751E+01  2.5783596E+01
 1.4576251E+01  2.5709370E+01
 1.4587750E+01  2.5701639E+01
 1.4599251E+01  2.5638065E+01
 1.4610751E+01  2.5629133E+01
 1.4622251E+01  2.5600361E+01
 1.4633751E+01  2.5562376E+01
 1.4645250E+01  2.5583941E+01
 1.4656751E+01  2.5571056E+01
 1.4668251E+01  2.5574469E+01
 1.4679750E+01  2.5544950E+01
 1.4691251E+01  2.5556593E+01
 1.4702751E+01  2.5557634E+01
 1.4714251E+01  2.5592325E+01
 1.4725751E+01  2.5513227E+01
 1.4737250E+01  2.5503103E+01
 1.4748751E+01  2.5448950E+01
 1.4760251E+01  2.5417961E+01
 1.4771750E+01  2.5318998E+01
 1.4783251E+01  2.5255844E+01
 1.4794751E+01  2.5273895E+01
 1.4806251E+01  2.5284487E+01
 1.4817751E+01  2.5274368E+01
 1.4829250E+01  2.5249683E+01
 1.4840751E+01  2.5296200E+01
 1.4852251E+01  2.5303154E+01
 1.4863750E+01  2.5292765E+01
 1.4875251E+01  2.5280087E+01
 1.4886751E+01  2.5324863E+01
 1.4898251E+01  2.5346956E+01
 1.4909751E+01  2.5351742E+01
 1.4921250E+01  2.5322142E+01
 1.4932751E+01  2.5306286E+01
 1.4944251E+01  2.5272516E+01
 1.4955750E+01  2.5266670E+01
 1.4967251E+01  2.5253605E+01
 1.4978751E+01  2.5226225E+01
 1.4990251E+01  2.5187490E+01
 1.5001751E+01  2.5192656E+01
 1.5013250E+01  2.5220316E+01
 1.5024751E+01  2.5263947E+01
 1.5036251E+01  2.5301003E+01
 1.5047750E+01  2.5346626E+01
 1.5059251E+01  2.5449013E+01
 1.5070751E+01  2.5493938E+01
 1.5082251E+01  2.5516602E+01
 1.5093751E+01  2.5492668E+01
 1.5105250E+01  2.5558464E+01
 1.5116751E+01  2.5605509E+01
 1.5128251E+01  2.5697977E+01
 1.5139750E+01  2.5951294E+01
 1.5151251E+01  2.6414236E+01
 1.5162751E+01  2.7027885E+01
 1.5174251E+01  2.7740677E+01
 1.5185751E+01  2.8342875E+01
 1.5197250E+01  2.8674753E+01
 1.5208751E+01  2.8572382E+01
 1.5220251E+01  2.8210243E+01
 1.5231750E+01  2.7610373E+01
 1.5243251E+01  2.6953959E+01
 1.5254751E+01  2.6391335E+01
 1.5266251E+01  2.5931940E+01
 1.5277751E+01  2.5699417E+01
 1.5289250E+01  2.5474121E+01
 1.5300751E+01  2.5365585E+01
 1.5312251E+01  2.5190771E+01
 1.5323750E+01  2.5066317E+01
 1.5335251E+01  2.5013336E+01
 1.5346751E+01  2.4991604E+01
 1.5358251E+01  2.4955044E+01
 1.5369751E+01  2.4924074E+01
 1.5381250E+01  2.4910954E+01
 1.5392751E+01  2.4929068E+01
 1.5404251E+01  2.4964922E+01
 1.5415751E+01  2.4941530E+01
 1.5427251E+01  2.4958878E+01
 1.5438751E+01  2.4943073E+01
 1.5450251E+01  2.4943577E+01
 1.5461751E+01  2.4939442E+01
 1.5473250E+01  2.4866873E+01
 1.5484751E+01  2.4886965E+01
 1.5496251E+01  2.4831430E+01
 1.5507751E+01  2.4858828E+01
 1.5519251E+01  2.4838068E+01
 1.5530751E+01  2.4878925E+01
 1.5542251E+01  2.4934303E+01
 1.5553751E+01  2.4955877E+01
 1.5565250E+01  2.4966845E+01
 1.5576751E+01  2.4948925E+01
 1.5588251E+01  2.4925270E+01
 1.5599751E+01  2.4842241E+01
 1.5611251E+01  2.4832140E+01
 1.5622751E+01  2.4830742E+01
 1.5634251E+01  2.4853745E+01
 1.5645751E+01  2.4828394E+01
 1.5657250E+01  2.4808094E+01
 1.5668751E+01  2.4829763E+01
 1.5680251E+01  2.4808847E+01
 1.5691751E+01  2.4832438E+01
 1.5703251E+01  2.4865562E+01
 1.5714751E+01  2.4867411E+01
 1.5726251E+01  2.4870562E+01
 1.5737751E+01  2.4811872E+01
 1.5749250E+01  2.4852030E+01
 1.5760751E+01  2.4850031E+01
 1.5772251E+01  2.4891499E+01
 1.5783751E+01  2.4876354E+01
 1.5795251E+01  2.4886890E+01
 1.5806751E+01  2.4888660E+01
 1.5818251E+01  2.4896372E+01
 1.5829751E+01  2.4826147E+01
 1.5841250E+01  2.4778641E+01
 1.5852751E+01  2.4781046E+01
 1.5864251E+01  2.4782007E+01
 1.5875751E+01  2.4829363E+01
 1.5887251E+01  2.4864557E+01
 1.5898750E+01  2.4954430E+01
 1.5910251E+01  2.4989950E+01
 1.5921751E+01  2.5044996E+01
 1.5933250E+01  2.5107592E+01
 1.5944751E+01  2.5091412E+01
 1.5956251E+01  2.5074379E+01
 1.5967751E+01  2.5015314E+01
 1.5979251E+01  2.4989956E+01
 1.5990750E+01  2.4973928E+01
 1.6002251E+01  2.4908037E+01
 1.6013750E+01  2.4872969E+01
 1.6025251E+01  2.4851704E+01
 1.6036751E+01  2.4872047E+01
 1.6048250E+01  2.4897602E+01
 1.6059752E+01  2.4913017E+01
 1.6071251E+01  2.4946951E+01
 1.6082750E+01  2.5026428E+01
 1.6094252E+01  2.5069218E+01
 1.6105751E+01  2.5159168E+01
 1.6117250E+01  2.5142517E+01
 1.6128750E+01  2.5134249E+01
 1.6140251E+01  2.5136621E+01
 1.6151751E+01  2.5140270E+01
 1.6163250E+01  2.5240973E+01
 1.6174751E+01  2.5194855E+01
 1.6186251E+01  2.5530836E+01
 1.6197750E+01  2.5450775E+01
 1.6209251E+01  2.6065136E+01
 1.6220751E+01  2.6003071E+01
 1.6232250E+01  2.6631975E+01
 1.6243752E+01  2.6702236E+01
 1.6255251E+01  2.6976982E+01
 1.6266750E+01  2.7159494E+01
 1.6278252E+01  2.6764669E+01
 1.6289751E+01  2.6757725E+01
 1.6301250E+01  2.5913500E+01
 1.6312750E+01  2.5928059E+01
 1.6324251E+01  2.5362032E+01
 1.6335751E+01  2.5358393E+01
 1.6347250E+01  2.5116077E+01
 1.6358751E+01  2.5125889E+01
 1.6370251E+01  2.5056934E+01
 1.6381750E+01  2.5015221E+01
 1.6393251E+01  2.4971441E+01
 1.6404751E+01  2.4934456E+01
 1.6416250E+01  2.4946075E+01
 1.6427752E+01  2.4871189E+01
 1.6439251E+01  2.4899137E+01
 1.6450750E+01  2.4852310E+01
 1.6462252E+01  2.4912359E+01
 1.6473751E+01  2.4870008E+01
 1.6485250E+01  2.4941273E+01
 1.6496750E+01  2.4962942E+01
 1.6508251E+01  2.4970583E+01
 1.6519751E+01  2.4967968E+01
 1.6531250E+01  2.4919352E+01
 1.6542751E+01  2.4968218E+01
 1.6554251E+01  2.4921110E+01
 1.6565750E+01  2.4977230E+01
 1.6577251E+01  2.4942272E+01
 1.6588751E+01  2.4935587E+01
 1.6600250E+01  2.4886122E+01
 1.6611752E+01  2.4865372E+01
 1.6623251E+01  2.4789415E+01
 1.6634750E+01  2.4759972E+01
 1.6646252E+01  2.4695141E+01
 1.6657751E+01  2.4698189E+01
 1.6669250E+01  2.4679680E+01
 1.6680750E+01  2.4676699E+01
 1.6692251E+01  2.4705666E+01
 1.6703751E+01  2.4698755E+01
 1.6715250E+01  2.4724739E+01
 1.6726751E+01  2.4697411E+01
 1.6738251E+01  2.4701027E+01
 1.6749750E+01  2.4676125E+01
 1.6761251E+01  2.4702835E+01
 1.6772751E+01  2.4707714E+01
 1.6784250E+01  2.4739004E+01
 1.6795752E+01  2.4780846E+01
 1.6807251E+01  2.4786551E+01
 1.6818750E+01  2.4765165E+01
 1.6830252E+01  2.4694700E+01
 1.6841751E+01  2.4655750E+01
 1.6853251E+01  2.4602505E+01
 1.6864750E+01  2.4586725E+01
 1.6876251E+01  2.4585758E+01
 1.6887751E+01  2.4587833E+01
 1.6899250E+01  2.4571325E+01
 1.6910751E+01  2.4533800E+01
 1.6922251E+01  2.4531572E+01
 1.6933750E+01  2.4515783E+01
 1.6945251E+01  2.4526876E+01
 1.6956751E+01  2.4516262E+01
 1.6968250E+01  2.4562483E+01
 1.6979752E+01  2.4593502E+01
 1.6991251E+01  2.4626022E+01
 1.7002750E+01  2.4580383E+01
 1.7014252E+01  2.4585070E+01
 1.7025751E+01  2.4564249E+01
 1.7037251E+01  2.4558002E+01
 1.7048750E+01  2.4503136E+01
 1.7060251E+01  2.4476986E+01
 1.7071751E+01  2.4523142E+01
 1.7083250E+01  2.4563242E+01
 1.7094751E+01  2.4538986E+01
 1.7106251E+01  2.4523067E+01
 1.7117750E+01  2.4459417E+01
 1.7129251E+01  2.4468487E+01
 1.7140751E+01  2.4438465E+01
 1.7152250E+01  2.4443567E+01
 1.7163752E+01  2.4423487E+01
 1.7175251E+01  2.4420170E+01
 1.7186750E+01  2.4449099E+01
 1.7198252E+01  2.4467691E+01
 1.7209751E+01  2.4494368E+01
 1.7221251E+01  2.4498734E+01
 1.7232750E+01  2.4556269E+01
 1.7244251E+01  2.4556734E+01
 1.7255751E+01  2.4515018E+01
 1.7267250E+01  2.4441774E+01
 1.7278751E+01  2.4402609E+01
 1.7290251E+01  2.4404758E+01
 1.7301750E+01  2.4407719E+01
 1.7313251E+01  2.4384678E+01
 1.7324751E+01  2.4348919E+01
 1.7336250E+01  2.4383890E+01
 1.7347752E+01  2.4341143E+01
 1.7359251E+01  2.4300909E+01
 1.7370750E+01  2.4258707E+01
 1.7382252E+01  2.4281086E+01
 1.7393751E+01  2.4299217E+01
 1.7405251E+01  2.4293449E+01
 1.7416750E+01  2.4279577E+01
 1.7428251E+01  2.4285593E+01
 1.7439751E+01  2.4305243E+01
 1.7451250E+01  2.4341675E+01
 1.7462751E+01  2.4358042E+01
 1.7474251E+01  2.4345310E+01
 1.7485750E+01  2.4367945E+01
 1.7497252E+01  2.4283215E+01
 1.7508751E+01  2.4245020E+01
 1.7520250E+01  2.4175455E+01
 1.7531752E+01  2.4194481E+01
 1.7543251E+01  2.4215080E+01
 1.7554750E+01  2.4209051E+01
 1.7566252E+01  2.4194286E+01
 1.7577751E+01  2.4186914E+01
 1.7589251E+01  2.4176981E+01
 1.7600750E+01  2.4224779E+01
 1.7612251E+01  2.4261414E+01
 1.7623751E+01  2.4267904E+01
 1.7635250E+01  2.4213665E+01
 1.7646751E+01  2.4151329E+01
 1.7658251E+01  2.4157240E+01
 1.7669750E+01  2.4200171E+01
 1.7681252E+01  2.4261116E+01
 1.7692751E+01  2.4295691E+01
 1.7704250E+01  2.4242035E+01
 1.7715752E+01  2.4168705E+01
 1.7727251E+01  2.4078526E+01
 1.7738750E+01  2.4034767E+01
 1.7750252E+01  2.3976042E+01
 1.7761751E+01  2.3917360E+01
 1.7773251E+01  2.3934351E+01
 1.7784750E+01  2.3984596E+01
 1.7796251E+01  2.4050129E+01
 1.7807751E+01  2.4017618E+01
 1.7819250E+01  2.4003405E+01
 1.7830751E+01  2.3994583E+01
 1.7842251E+01  2.4029034E+01
 1.7853750E+01  2.4037903E+01
 1.7865252E+01  2.4074055E+01
 1.7876751E+01  2.4055422E+01
 1.7888250E+01  2.4059820E+01
 1.7899752E+01  2.4024120E+01
 1.7911251E+01  2.4091911E+01
 1.7922750E+01  2.4153769E+01
 1.7934252E+01  2.4159983E+01
 1.7945751E+01  2.4125599E+01
 1.7957251E+01  2.4047819E+01
 1.7968750E+01  2.4074753E+01
 1.7980251E+01  2.4130390E+01
 1.7991751E+01  2.4241489E+01
 1.8003250E+01  2.4306862E+01
 1.8014751E+01  2.4441006E+01
 1.8026251E+01  2.4632275E+01
 1.8037750E+01  2.4857367E+01
 1.8049252E+01  2.5088404E+01
 1.8060751E+01  2.5559471E+01
 1.8072250E+01  2.5852541E+01
 1.8083752E+01  2.6143505E+01
 1.8095251E+01  2.6281689E+01
 1.8106750E+01  2.6274275E+01
 1.8118252E+01  2.6136839E+01
 1.8129751E+01  2.5826376E+01
 1.8141251E+01  2.5555613E+01
 1.8152750E+01  2.5214090E+01
 1.8164251E+01  2.4949955E+01
 1.8175751E+01  2.4723169E+01
 1.8187250E+01  2.4465178E+01
 1.8198751E+01  2.4300312E+01
 1.8210251E+01  2.4179855E+01
 1.8221750E+01  2.4154779E+01
 1.8233252E+01  2.4088537E+01
 1.8244751E+01  2.4082529E+01
 1.8256250E+01  2.4042381E+01
 1.8267752E+01  2.3997784E+01
 1.8279251E+01  2.3984291E+01
 1.8290751E+01  2.3971779E+01
 1.8302252E+01  2.3971134E+01
 1.8313751E+01  2.3924469E+01
 1.8325251E+01  2.3923059E+01
 1.8336750E+01  2.3955725E+01
 1.8348251E+01  2.4014645E+01
 1.8359751E+01  2.4053228E+01
 1.8371250E+01  2.4038000E+01
 1.8382751E+01  2.4014297E+01
 1.8394251E+01  2.4019239E+01
 1.8405750E+01  2.4022743E+01
 1.8417252E+01  2.4016119E+01
 1.8428751E+01  2.4005350E+01
 1.8440250E+01  2.3991693E+01
 1.8451752E+01  2.3955791E+01
 1.8463251E+01  2.3899061E+01
 1.8474751E+01  2.3900990E+01
 1.8486252E+01  2.3905539E+01
 1.8497751E+01  2.3918207E+01
 1.8509251E+01  2.3903166E+01
 1.8520750E+01  2.3889833E+01
 1.8532251E+01  2.3915157E+01
 1.8543751E+01  2.3874733E+01
 1.8555250E+01  2.3887386E+01
 1.8566751E+01  2.3845339E+01
 1.8578251E+01  2.3914713E+01
 1.8589750E+01  2.3880243E+01
 1.8601252E+01  2.3911423E+01
 1.8612751E+01  2.3878832E+01
 1.8624250E+01  2.3853088E+01
 1.8635752E+01  2.3796885E+01
 1.8647251E+01  2.3716722E+01
 1.8658751E+01  2.3694195E+01
 1.8670252E+01  2.3698526E+01
 1.8681751E+01  2.3768240E+01
 1.8693251E+01  2.3818323E+01
 1.8704750E+01  2.3851231E+01
 1.8716251E+01  2.3857323E+01
 1.8727751E+01  2.3855227E+01
 1.8739250E+01  2.3830494E+01
 1.8750751E+01  2.3763498E+01
 1.8762251E+01  2.3679207E+01
 1.8773750E+01  2.3637062E+01
 1.8785252E+01  2.3621962E+01
 1.8796751E+01  2.3756243E+01
 1.8808250E+01  2.3874805E+01
 1.8819752E+01  2.4024290E+01
 1.8831251E+01  2.3983683E+01
 1.8842751E+01  2.3950308E+01
 1.8854252E+01  2.3876265E+01
 1.8865751E+01  2.3863234E+01
 1.8877251E+01  2.3843040E+01
 1.8888750E+01  2.3867382E+01
 1.8900251E+01  2.3885754E+01
 1.8911751E+01  2.3944395E+01
 1.8923250E+01  2.4015942E+01
 1.8934752E+01  2.4046677E+01
 1.8946251E+01  2.4102196E+01
 1.8957750E+01  2.4012402E+01
 1.8969252E+01  2.3953299E+01
 1.8980751E+01  2.3893845E+01
 1.8992250E+01  2.3900099E+01
 1.9003752E+01  2.3872093E+01
 1.9015251E+01  2.3866676E+01
 1.9026751E+01  2.3877106E+01
 1.9038252E+01  2.3838690E+01
 1.9049751E+01  2.3800865E+01
 1.9061251E+01  2.3798590E+01
 1.9072750E+01  2.3795547E+01
 1.9084251E+01  2.3759466E+01
 1.9095751E+01  2.3759071E+01
 1.9107250E+01  2.3762186E+01
 1.9118752E+01  2.3795341E+01
 1.9130251E+01  2.3816629E+01
 1.9141750E+01  2.3824051E+01
 1.9153252E+01  2.3844982E+01
 1.9164751E+01  2.3849966E+01
 1.9176250E+01  2.3896582E+01
 1.9187752E+01  2.3937897E+01
 1.9199251E+01  2.3952602E+01
 1.9210751E+01  2.3915249E+01
 1.9222252E+01  2.3852060E+01
 1.9233751E+01  2.3848907E+01
 1.9245251E+01  2.3914684E+01
 1.9256750E+01  2.4018133E+01
 1.9268251E+01  2.4026913E+01
 1.9279751E+01  2.3986795E+01
 1.9291250E+01  2.3940172E+01
 1.9302752E+01  2.3951418E+01
 1.9314251E+01  2.3897505E+01
 1.9325750E+01  2.3859089E+01
 1.9337252E+01  2.3844143E+01
 1.9348751E+01  2.3840397E+01
 1.9360250E+01  2.3747412E+01
 1.9371752E+01  2.3791010E+01
 1.9383251E+01  2.3804110E+01
 1.9394751E+01  2.3859035E+01
 1.9406250E+01  2.3862116E+01
 1.9417751E+01  2.3907204E+01
 1.9429251E+01  2.3900204E+01
 1.9440750E+01  2.3883331E+01
 1.9452251E+01  2.3914806E+01
 1.9463751E+01  2.3974630E+01
 1.9475250E+01  2.4021807E+01
 1.9486752E+01  2.4001884E+01
 1.9498251E+01  2.3998005E+01
 1.9509750E+01  2.3983997E+01
 1.9521252E+01  2.4057566E+01
 1.9532751E+01  2.4094425E+01
 1.9544250E+01  2.4165291E+01
 1.9555752E+01  2.4163071E+01
 1.9567251E+01  2.4216967E+01
 1.9578751E+01  2.4243500E+01
 1.9590250E+01  2.4270679E+01
 1.9601751E+01  2.4323730E+01
 1.9613251E+01  2.4405844E+01
 1.9624750E+01  2.4686895E+01
 1.9636251E+01  2.4944939E+01
 1.9647751E+01  2.5540899E+01
 1.9659250E+01  2.6204868E+01
 1.9670752E+01  2.6936354E+01
 1.9682251E+01  2.7732437E+01
 1.9693750E+01  2.7704636E+01
 1.9705252E+01  2.8132769E+01
 1.9716751E+01  2.7349188E+01
 1.9728251E+01  2.7129953E+01
 1.9739752E+01  2.6405024E+01
 1.9751251E+01  2.5935255E+01
 1.9762751E+01  2.5572107E+01
 1.9774250E+01  2.5347315E+01
 1.9785751E+01  2.5251171E+01
 1.9797251E+01  2.5315775E+01
 1.9808750E+01  2.5494671E+01
 1.9820251E+01  2.5778254E+01
 1.9831751E+01  2.6106049E+01
 1.9843250E+01  2.6398342E+01
 1.9854752E+01  2.6498592E+01
 1.9866251E+01  2.6376835E+01
 1.9877750E+01  2.6148897E+01
 1.9889252E+01  2.5710377E+01
 1.9900751E+01  2.5364630E+01
 1.9912251E+01  2.5036633E+01
 1.9923752E+01  2.4794521E+01
 1.9935251E+01  2.4603376E+01
 1.9946751E+01  2.4480103E+01
 1.9958250E+01  2.4388535E+01
 1.9969751E+01  2.4349964E+01
 1.9981251E+01  2.4270113E+01
 1.9992750E+01  2.4242842E+01
 2.0004251E+01  2.4185019E+01
 2.0015751E+01  2.4150169E+01
 2.0027250E+01  2.4103689E+01
 2.0038752E+01  2.4051676E+01
 2.0050251E+01  2.4084002E+01
 2.0061750E+01  2.4078375E+01
 2.0073252E+01  2.4071524E+01
 2.0084751E+01  2.4007210E+01
 2.0096251E+01  2.4054644E+01
 2.0107752E+01  2.4077242E+01
 2.0119251E+01  2.4138229E+01
 2.0130751E+01  2.4105791E+01
 2.0142250E+01  2.4128845E+01
 2.0153751E+01  2.4109791E+01
 2.0165251E+01  2.4127014E+01
 2.0176750E+01  2.4129366E+01
 2.0188251E+01  2.4072620E+01
 2.0199751E+01  2.4055225E+01
 2.0211250E+01  2.4033350E+01
 2.0222752E+01  2.4061958E+01
 2.0234251E+01  2.4043222E+01
 2.0245750E+01  2.3978132E+01
 2.0257252E+01  2.3945492E+01
 2.0268751E+01  2.3933094E+01
 2.0280251E+01  2.4016914E+01
 2.0291752E+01  2.4027739E+01
 2.0303251E+01  2.4024641E+01
 2.0314751E+01  2.3962713E+01
 2.0326250E+01  2.3936417E+01
 2.0337751E+01  2.3881763E+01
 2.0349251E+01  2.3918552E+01
 2.0360750E+01  2.3960886E+01
 2.0372252E+01  2.4020411E+01
 2.0383751E+01  2.4047838E+01
 2.0395250E+01  2.4112020E+01
 2.0406752E+01  2.4116510E+01
 2.0418251E+01  2.4114943E+01
 2.0429750E+01  2.4069241E+01
 2.0441252E+01  2.4046122E+01
 2.0452751E+01  2.4023344E+01
 2.0464251E+01  2.3963202E+01
 2.0475752E+01  2.3972960E+01
 2.0487251E+01  2.4001461E+01
 2.0498751E+01  2.4073109E+01
 2.0510250E+01  2.4072592E+01
 2.0521751E+01  2.4069210E+01
 2.0533251E+01  2.4057453E+01
 2.0544750E+01  2.4086971E+01
 2.0556252E+01  2.4130238E+01
 2.0567751E+01  2.4104708E+01
 2.0579250E+01  2.4076574E+01
 2.0590752E+01  2.4147585E+01
 2.0602251E+01  2.4200150E+01
 2.0613750E+01  2.4224371E+01
 2.0625252E+01  2.4208448E+01
 2.0636751E+01  2.4232679E+01
 2.0648251E+01  2.4269638E+01
 2.0659752E+01  2.4306187E+01
 2.0671251E+01  2.4381840E+01
 2.0682751E+01  2.4484364E+01
 2.0694250E+01  2.4607801E+01
 2.0705751E+01  2.4790930E+01
 2.0717251E+01  2.5049742E+01
 2.0728750E+01  2.5413010E+01
 2.0740252E+01  2.5791550E+01
 2.0751751E+01  2.6278374E+01
 2.0763250E+01  2.6600523E+01
 2.0774752E+01  2.6736195E+01
 2.0786251E+01  2.6648458E+01
 2.0797750E+01  2.6352776E+01
 2.0809252E+01  2.5864798E+01
 2.0820751E+01  2.5365719E+01
 2.0832251E+01  2.4982670E+01
 2.0843752E+01  2.4772772E+01
 2.0855251E+01  2.4626726E+01
 2.0866751E+01  2.4529177E+01
 2.0878250E+01  2.4465546E+01
 2.0889751E+01  2.4408873E+01
 2.0901251E+01  2.4382866E+01
 2.0912750E+01  2.4324106E+01
 2.0924252E+01  2.4249256E+01
 2.0935751E+01  2.4200788E+01
 2.0947250E+01  2.4152390E+01
 2.0958752E+01  2.4169008E+01
 2.0970251E+01  2.4172520E+01
 2.0981750E+01  2.4233074E+01
 2.0993252E+01  2.4218580E+01
 2.1004751E+01  2.4235062E+01
 2.1016251E+01  2.4212389E+01
 2.1027752E+01  2.4202419E+01
 2.1039251E+01  2.4197081E+01
 2.1050751E+01  2.4178532E+01
 2.1062250E+01  2.4204937E+01
 2.1073751E+01  2.4183613E+01
 2.1085251E+01  2.4203123E+01
 2.1096750E+01  2.4143679E+01
 2.1108252E+01  2.4152561E+01
 2.1119751E+01  2.4129679E+01
 2.1131250E+01  2.4180988E+01
 2.1142752E+01  2.4182016E+01
 2.1154251E+01  2.4145924E+01
 2.1165751E+01  2.4157295E+01
 2.1177252E+01  2.4226913E+01
 2.1188751E+01  2.4247030E+01
 2.1200251E+01  2.4205334E+01
 2.1211752E+01  2.4180719E+01
 2.1223251E+01  2.4156109E+01
 2.1234751E+01  2.4126209E+01
 2.1246250E+01  2.4150517E+01
 2.1257751E+01  2.4192764E+01
 2.1269251E+01  2.4186766E+01
 2.1280750E+01  2.4200943E+01
 2.1292252E+01  2.4189558E+01
 2.1303751E+01  2.4199169E+01
 2.1315250E+01  2.4168005E+01
 2.1326752E+01  2.4211908E+01
 2.1338251E+01  2.4170774E+01
 2.1349751E+01  2.4160286E+01
 2.1361252E+01  2.4189775E+01
 2.1372751E+01  2.4240126E+01
 2.1384251E+01  2.4223278E+01
 2.1395752E+01  2.4206396E+01
 2.1407251E+01  2.4203745E+01
 2.1418751E+01  2.4188887E+01
 2.1430250E+01  2.4237835E+01
 2.1441751E+01  2.4274555E+01
 2.1453251E+01  2.4354214E+01
 2.1464750E+01  2.4394917E+01
 2.1476252E+01  2.4396896E+01
 2.1487751E+01  2.4426176E+01
 2.1499250E+01  2.4425804E+01
 2.1510752E+01  2.4416168E+01
 2.1522251E+01  2.4404772E+01
 2.1533751E+01  2.4397408E+01
 2.1545252E+01  2.4426773E+01
 2.1556751E+01  2.4416756E+01
 2.1568251E+01  2.4406404E+01
 2.1579752E+01  2.4401772E+01
 2.1591251E+01  2.4396250E+01
 2.1602751E+01  2.4365303E+01
 2.1614250E+01  2.4391613E+01
 2.1625751E+01  2.4359325E+01
 2.1637251E+01  2.4361477E+01
 2.1648750E+01  2.4392355E+01
 2.1660252E+01  2.4443666E+01
 2.1671751E+01  2.4442307E+01
 2.1683250E+01  2.4427303E+01
 2.1694752E+01  2.4410700E+01
 2.1706251E+01  2.4399426E+01
 2.1717751E+01  2.4370689E+01
 2.1729252E+01  2.4367718E+01
 2.1740751E+01  2.4404951E+01
 2.1752251E+01  2.4392210E+01
 2.1763752E+01  2.4431648E+01
 2.1775251E+01  2.4446716E+01
 2.1786751E+01  2.4440535E+01
 2.1798250E+01  2.4394087E+01
 2.1809752E+01  2.4396887E+01
 2.1821251E+01  2.4427652E+01
 2.1832750E+01  2.4410973E+01
 2.1844252E+01  2.4423542E+01
 2.1855751E+01  2.4437571E+01
 2.1867250E+01  2.4501020E+01
 2.1878752E+01  2.4523722E+01
 2.1890251E+01  2.4490273E+01
 2.1901751E+01  2.4431181E+01
 2.1913252E+01  2.4453568E+01
 2.1924751E+01  2.4475302E+01
 2.1936251E+01  2.4549500E+01
 2.1947752E+01  2.4521179E+01
 2.1959251E+01  2.4494015E+01
 2.1970751E+01  2.4444130E+01
 2.1982250E+01  2.4404236E+01
 2.1993752E+01  2.4419760E+01
 2.2005251E+01  2.4434721E+01
 2.2016750E+01  2.4485374E+01
 2.2028252E+01  2.4545906E+01
 2.2039751E+01  2.4586060E+01
 2.2051250E+01  2.4594563E+01
 2.2062752E+01  2.4574614E+01
 2.2074251E+01  2.4623362E+01
 2.2085751E+01  2.4687580E+01
 2.2097252E+01  2.4787083E+01
 2.2108751E+01  2.4838837E+01
 2.2120251E+01  2.4891897E+01
 2.2131752E+01  2.4863333E+01
 2.2143251E+01  2.4795191E+01
 2.2154751E+01  2.4744860E+01
 2.2166250E+01  2.4709179E+01
 2.2177752E+01  2.4687239E+01
 2.2189251E+01  2.4598942E+01
 2.2200750E+01  2.4558113E+01
 2.2212252E+01  2.4547274E+01
 2.2223751E+01  2.4599039E+01
 2.2235250E+01  2.4669596E+01
 2.2246752E+01  2.4744694E+01
 2.2258251E+01  2.4774572E+01
 2.2269751E+01  2.4803553E+01
 2.2281252E+01  2.4823061E+01
 2.2292751E+01  2.4848866E+01
 2.2304251E+01  2.4881029E+01
 2.2315752E+01  2.4838396E+01
 2.2327251E+01  2.4819582E+01
 2.2338751E+01  2.4835876E+01
 2.2350250E+01  2.4929907E+01
 2.2361752E+01  2.4987026E+01
 2.2373251E+01  2.4974497E+01
 2.2384750E+01  2.4922106E+01
 2.2396252E+01  2.4874647E+01
 2.2407751E+01  2.4799770E+01
 2.2419250E+01  2.4796093E+01
 2.2430752E+01  2.4830067E+01
 2.2442251E+01  2.4929880E+01
 2.2453751E+01  2.4966703E+01
 2.2465252E+01  2.4995745E+01
 2.2476751E+01  2.4938839E+01
 2.2488251E+01  2.4986959E+01
 2.2499752E+01  2.5033127E+01
 2.2511251E+01  2.5063856E+01
 2.2522751E+01  2.5116470E+01
 2.2534250E+01  2.5145956E+01
 2.2545752E+01  2.5171034E+01
 2.2557251E+01  2.5119389E+01
 2.2568750E+01  2.5090658E+01
 2.2580252E+01  2.5072729E+01
 2.2591751E+01  2.5101086E+01
 2.2603251E+01  2.5120134E+01
 2.2614752E+01  2.5211246E+01
 2.2626251E+01  2.5269339E+01
 2.2637751E+01  2.5296761E+01
 2.2649252E+01  2.5244513E+01
 2.2660751E+01  2.5231949E+01
 2.2672251E+01  2.5216257E+01
 2.2683752E+01  2.5251038E+01
 2.2695251E+01  2.5292128E+01
 2.2706751E+01  2.5380751E+01
 2.2718250E+01  2.5454576E+01
 2.2729752E+01  2.5452335E+01
 2.2741251E+01  2.5484434E+01
 2.2752750E+01  2.5537363E+01
 2.2764252E+01  2.5575731E+01
 2.2775751E+01  2.5577593E+01
 2.2787251E+01  2.5611830E+01
 2.2798752E+01  2.5714367E+01
 2.2810251E+01  2.5734081E+01
 2.2821751E+01  2.5752581E+01
 2.2833252E+01  2.5801720E+01
 2.2844751E+01  2.5856524E+01
 2.2856251E+01  2.5845472E+01
 2.2867750E+01  2.5900633E+01
 2.2879251E+01  2.5948988E+01
 2.2890751E+01  2.5987999E+01
 2.2902250E+01  2.5978148E+01
 2.2913752E+01  2.6116491E+01
 2.2925251E+01  2.6245306E+01
 2.2936750E+01  2.6361980E+01
 2.2948252E+01  2.6433018E+01
 2.2959751E+01  2.6506138E+01
 2.2971251E+01  2.6599001E+01
 2.2982752E+01  2.6728449E+01
 2.2994251E+01  2.6870218E+01
