F:\20151113_APS_34IDE\\Brian\Particle1\OCV\Data_0090.tif
2-Theta Angle (Degrees)
Intensity
       2000
 5.7500005E-03  0.0000000E+00
 1.7250001E-02  0.0000000E+00
 2.8750001E-02  0.0000000E+00
 4.0250003E-02  0.0000000E+00
 5.1750004E-02  0.0000000E+00
 6.3250005E-02  0.0000000E+00
 7.4750006E-02  0.0000000E+00
 8.6250007E-02  0.0000000E+00
 9.7750008E-02  0.0000000E+00
 1.0925001E-01  0.0000000E+00
 1.2075000E-01  0.0000000E+00
 1.3225001E-01  0.0000000E+00
 1.4375001E-01  0.0000000E+00
 1.5525001E-01  0.0000000E+00
 1.6675001E-01  0.0000000E+00
 1.7825001E-01  0.0000000E+00
 1.8975002E-01  0.0000000E+00
 2.0125002E-01  0.0000000E+00
 2.1275002E-01  0.0000000E+00
 2.2425000E-01  0.0000000E+00
 2.3575000E-01  0.0000000E+00
 2.4725001E-01  0.0000000E+00
 2.5875002E-01  0.0000000E+00
 2.7025002E-01  0.0000000E+00
 2.8175002E-01  0.0000000E+00
 2.9325002E-01  0.0000000E+00
 3.0475003E-01  0.0000000E+00
 3.1625003E-01  0.0000000E+00
 3.2775003E-01  0.0000000E+00
 3.3925003E-01  0.0000000E+00
 3.5075003E-01  0.0000000E+00
 3.6225003E-01  0.0000000E+00
 3.7375003E-01  0.0000000E+00
 3.8525003E-01  0.0000000E+00
 3.9675003E-01  0.0000000E+00
 4.0825003E-01  0.0000000E+00
 4.1975003E-01  0.0000000E+00
 4.3125004E-01  0.0000000E+00
 4.4275001E-01  0.0000000E+00
 4.5425001E-01  0.0000000E+00
 4.6575001E-01  0.0000000E+00
 4.7725001E-01  0.0000000E+00
 4.8875001E-01  0.0000000E+00
 5.0025004E-01  0.0000000E+00
 5.1175004E-01  0.0000000E+00
 5.2325004E-01  0.0000000E+00
 5.3475004E-01  0.0000000E+00
 5.4625005E-01  0.0000000E+00
 5.5775005E-01  0.0000000E+00
 5.6925005E-01  0.0000000E+00
 5.8075005E-01  0.0000000E+00
 5.9225005E-01  0.0000000E+00
 6.0375005E-01  0.0000000E+00
 6.1525005E-01  0.0000000E+00
 6.2675005E-01  0.0000000E+00
 6.3825005E-01  0.0000000E+00
 6.4975005E-01  0.0000000E+00
 6.6125005E-01  0.0000000E+00
 6.7275006E-01  0.0000000E+00
 6.8425006E-01  0.0000000E+00
 6.9575006E-01  0.0000000E+00
 7.0725006E-01  0.0000000E+00
 7.1875006E-01  0.0000000E+00
 7.3025006E-01  0.0000000E+00
 7.4175006E-01  0.0000000E+00
 7.5325006E-01  0.0000000E+00
 7.6475006E-01  0.0000000E+00
 7.7625006E-01  0.0000000E+00
 7.8775007E-01  0.0000000E+00
 7.9925007E-01  0.0000000E+00
 8.1075007E-01  0.0000000E+00
 8.2225007E-01  0.0000000E+00
 8.3375007E-01  0.0000000E+00
 8.4525007E-01  0.0000000E+00
 8.5675007E-01  0.0000000E+00
 8.6825007E-01  0.0000000E+00
 8.7975001E-01  0.0000000E+00
 8.9125001E-01  0.0000000E+00
 9.0275002E-01  0.0000000E+00
 9.1425002E-01  0.0000000E+00
 9.2575002E-01  0.0000000E+00
 9.3725002E-01  0.0000000E+00
 9.4875002E-01  0.0000000E+00
 9.6025002E-01  0.0000000E+00
 9.7175002E-01  0.0000000E+00
 9.8325002E-01  0.0000000E+00
 9.9475002E-01  0.0000000E+00
 1.0062500E+00  0.0000000E+00
 1.0177500E+00  0.0000000E+00
 1.0292500E+00  0.0000000E+00
 1.0407500E+00  0.0000000E+00
 1.0522500E+00  0.0000000E+00
 1.0637500E+00  0.0000000E+00
 1.0752500E+00  0.0000000E+00
 1.0867500E+00  0.0000000E+00
 1.0982500E+00  0.0000000E+00
 1.1097500E+00  0.0000000E+00
 1.1212500E+00  0.0000000E+00
 1.1327500E+00  0.0000000E+00
 1.1442500E+00  0.0000000E+00
 1.1557500E+00  0.0000000E+00
 1.1672500E+00  0.0000000E+00
 1.1787500E+00  0.0000000E+00
 1.1902500E+00  0.0000000E+00
 1.2017500E+00  0.0000000E+00
 1.2132500E+00  0.0000000E+00
 1.2247500E+00  0.0000000E+00
 1.2362500E+00  0.0000000E+00
 1.2477500E+00  0.0000000E+00
 1.2592500E+00  0.0000000E+00
 1.2707500E+00  0.0000000E+00
 1.2822500E+00  0.0000000E+00
 1.2937500E+00  0.0000000E+00
 1.3052500E+00  0.0000000E+00
 1.3167500E+00  0.0000000E+00
 1.3282501E+00  0.0000000E+00
 1.3397501E+00  0.0000000E+00
 1.3512501E+00  0.0000000E+00
 1.3627501E+00  0.0000000E+00
 1.3742501E+00  0.0000000E+00
 1.3857501E+00  0.0000000E+00
 1.3972501E+00  0.0000000E+00
 1.4087501E+00  0.0000000E+00
 1.4202501E+00  0.0000000E+00
 1.4317501E+00  0.0000000E+00
 1.4432501E+00  0.0000000E+00
 1.4547501E+00  0.0000000E+00
 1.4662501E+00  0.0000000E+00
 1.4777501E+00  0.0000000E+00
 1.4892501E+00  0.0000000E+00
 1.5007501E+00  0.0000000E+00
 1.5122501E+00  0.0000000E+00
 1.5237501E+00  0.0000000E+00
 1.5352501E+00  0.0000000E+00
 1.5467501E+00  0.0000000E+00
 1.5582501E+00  0.0000000E+00
 1.5697501E+00  0.0000000E+00
 1.5812501E+00  0.0000000E+00
 1.5927501E+00  0.0000000E+00
 1.6042501E+00  0.0000000E+00
 1.6157501E+00  0.0000000E+00
 1.6272501E+00  0.0000000E+00
 1.6387501E+00  0.0000000E+00
 1.6502501E+00  0.0000000E+00
 1.6617501E+00  0.0000000E+00
 1.6732501E+00  0.0000000E+00
 1.6847501E+00  0.0000000E+00
 1.6962501E+00  0.0000000E+00
 1.7077501E+00  0.0000000E+00
 1.7192501E+00  0.0000000E+00
 1.7307501E+00  0.0000000E+00
 1.7422501E+00  0.0000000E+00
 1.7537501E+00  0.0000000E+00
 1.7652501E+00  0.0000000E+00
 1.7767501E+00  0.0000000E+00
 1.7882501E+00  0.0000000E+00
 1.7997501E+00  0.0000000E+00
 1.8112501E+00  0.0000000E+00
 1.8227501E+00  0.0000000E+00
 1.8342501E+00  0.0000000E+00
 1.8457501E+00  0.0000000E+00
 1.8572501E+00  0.0000000E+00
 1.8687501E+00  0.0000000E+00
 1.8802501E+00  0.0000000E+00
 1.8917501E+00  0.0000000E+00
 1.9032501E+00  0.0000000E+00
 1.9147501E+00  0.0000000E+00
 1.9262501E+00  0.0000000E+00
 1.9377501E+00  0.0000000E+00
 1.9492501E+00  0.0000000E+00
 1.9607501E+00  0.0000000E+00
 1.9722501E+00  0.0000000E+00
 1.9837501E+00  0.0000000E+00
 1.9952501E+00  0.0000000E+00
 2.0067501E+00  0.0000000E+00
 2.0182500E+00  0.0000000E+00
 2.0297501E+00  0.0000000E+00
 2.0412500E+00  0.0000000E+00
 2.0527501E+00  0.0000000E+00
 2.0642500E+00  0.0000000E+00
 2.0757501E+00  0.0000000E+00
 2.0872500E+00  0.0000000E+00
 2.0987501E+00  0.0000000E+00
 2.1102500E+00  0.0000000E+00
 2.1217501E+00  0.0000000E+00
 2.1332500E+00  0.0000000E+00
 2.1447501E+00  0.0000000E+00
 2.1562500E+00  0.0000000E+00
 2.1677501E+00  0.0000000E+00
 2.1792500E+00  0.0000000E+00
 2.1907501E+00  0.0000000E+00
 2.2022500E+00  0.0000000E+00
 2.2137501E+00  0.0000000E+00
 2.2252500E+00  0.0000000E+00
 2.2367501E+00  0.0000000E+00
 2.2482500E+00  0.0000000E+00
 2.2597501E+00  0.0000000E+00
 2.2712500E+00  0.0000000E+00
 2.2827501E+00  0.0000000E+00
 2.2942500E+00  0.0000000E+00
 2.3057501E+00  0.0000000E+00
 2.3172500E+00  0.0000000E+00
 2.3287501E+00  0.0000000E+00
 2.3402500E+00  0.0000000E+00
 2.3517501E+00  0.0000000E+00
 2.3632500E+00  0.0000000E+00
 2.3747501E+00  0.0000000E+00
 2.3862500E+00  0.0000000E+00
 2.3977501E+00  0.0000000E+00
 2.4092500E+00  0.0000000E+00
 2.4207501E+00  0.0000000E+00
 2.4322500E+00  0.0000000E+00
 2.4437501E+00  0.0000000E+00
 2.4552500E+00  0.0000000E+00
 2.4667501E+00  0.0000000E+00
 2.4782500E+00  0.0000000E+00
 2.4897501E+00  0.0000000E+00
 2.5012500E+00  0.0000000E+00
 2.5127501E+00  0.0000000E+00
 2.5242500E+00  0.0000000E+00
 2.5357502E+00  0.0000000E+00
 2.5472500E+00  0.0000000E+00
 2.5587502E+00  0.0000000E+00
 2.5702500E+00  0.0000000E+00
 2.5817502E+00  0.0000000E+00
 2.5932500E+00  0.0000000E+00
 2.6047502E+00  0.0000000E+00
 2.6162500E+00  0.0000000E+00
 2.6277502E+00  0.0000000E+00
 2.6392500E+00  0.0000000E+00
 2.6507502E+00  0.0000000E+00
 2.6622500E+00  0.0000000E+00
 2.6737502E+00  0.0000000E+00
 2.6852500E+00  0.0000000E+00
 2.6967502E+00  0.0000000E+00
 2.7082500E+00  0.0000000E+00
 2.7197502E+00  0.0000000E+00
 2.7312500E+00  0.0000000E+00
 2.7427502E+00  0.0000000E+00
 2.7542500E+00  0.0000000E+00
 2.7657502E+00  0.0000000E+00
 2.7772501E+00  0.0000000E+00
 2.7887502E+00  0.0000000E+00
 2.8002501E+00  0.0000000E+00
 2.8117502E+00  0.0000000E+00
 2.8232501E+00  3.4052395E+01
 2.8347502E+00  3.3595615E+01
 2.8462501E+00  3.3421833E+01
 2.8577502E+00  3.3854847E+01
 2.8692501E+00  3.4054230E+01
 2.8807502E+00  3.4299370E+01
 2.8922501E+00  3.4428726E+01
 2.9037502E+00  3.4478870E+01
 2.9152501E+00  3.4759907E+01
 2.9267502E+00  3.5176796E+01
 2.9382501E+00  3.5209736E+01
 2.9497502E+00  3.5424461E+01
 2.9612501E+00  3.5088215E+01
 2.9727502E+00  3.5031376E+01
 2.9842501E+00  3.4951180E+01
 2.9957502E+00  3.5742889E+01
 3.0072501E+00  3.6441635E+01
 3.0187502E+00  3.7067928E+01
 3.0302501E+00  3.6949238E+01
 3.0417502E+00  3.7045349E+01
 3.0532501E+00  3.6628452E+01
 3.0647502E+00  3.6482300E+01
 3.0762501E+00  3.6381649E+01
 3.0877502E+00  3.6219189E+01
 3.0992501E+00  3.6561760E+01
 3.1107502E+00  3.6153305E+01
 3.1222501E+00  3.6348591E+01
 3.1337502E+00  3.6028118E+01
 3.1452501E+00  3.6333652E+01
 3.1567502E+00  3.6350765E+01
 3.1682501E+00  3.6482220E+01
 3.1797502E+00  3.6194500E+01
 3.1912501E+00  3.6253819E+01
 3.2027502E+00  3.5928791E+01
 3.2142501E+00  3.6027767E+01
 3.2257502E+00  3.6008823E+01
 3.2372501E+00  3.5889217E+01
 3.2487502E+00  3.5923691E+01
 3.2602501E+00  3.6130272E+01
 3.2717502E+00  3.6226749E+01
 3.2832501E+00  3.6220947E+01
 3.2947502E+00  3.5982014E+01
 3.3062501E+00  3.5783497E+01
 3.3177502E+00  3.5942078E+01
 3.3292501E+00  3.5761547E+01
 3.3407502E+00  3.5823246E+01
 3.3522501E+00  3.5536106E+01
 3.3637502E+00  3.5386738E+01
 3.3752501E+00  3.5410187E+01
 3.3867502E+00  3.5173702E+01
 3.3982501E+00  3.4989254E+01
 3.4097502E+00  3.4829945E+01
 3.4212501E+00  3.4707325E+01
 3.4327502E+00  3.4857124E+01
 3.4442501E+00  3.4798805E+01
 3.4557502E+00  3.4850712E+01
 3.4672501E+00  3.4551895E+01
 3.4787502E+00  3.4006351E+01
 3.4902501E+00  3.3389343E+01
 3.5017502E+00  3.3075253E+01
 3.5132501E+00  3.3034733E+01
 3.5247502E+00  3.3268318E+01
 3.5362501E+00  3.3406265E+01
 3.5477502E+00  3.3328259E+01
 3.5592501E+00  3.3349155E+01
 3.5707502E+00  3.3135433E+01
 3.5822501E+00  3.3162636E+01
 3.5937502E+00  3.3080627E+01
 3.6052501E+00  3.3207249E+01
 3.6167502E+00  3.3376858E+01
 3.6282501E+00  3.3481804E+01
 3.6397502E+00  3.3547558E+01
 3.6512501E+00  3.3626072E+01
 3.6627502E+00  3.3667797E+01
 3.6742501E+00  3.3602543E+01
 3.6857502E+00  3.3614338E+01
 3.6972501E+00  3.3599430E+01
 3.7087502E+00  3.3618488E+01
 3.7202501E+00  3.3672951E+01
 3.7317502E+00  3.3645721E+01
 3.7432501E+00  3.3910786E+01
 3.7547503E+00  3.3583103E+01
 3.7662501E+00  3.3433159E+01
 3.7777503E+00  3.3271790E+01
 3.7892501E+00  3.3089809E+01
 3.8007503E+00  3.3088020E+01
 3.8122501E+00  3.3127312E+01
 3.8237503E+00  3.3007137E+01
 3.8352501E+00  3.3102711E+01
 3.8467503E+00  3.2936016E+01
 3.8582501E+00  3.3382591E+01
 3.8697503E+00  3.3504997E+01
 3.8812501E+00  3.3579865E+01
 3.8927503E+00  3.3076389E+01
 3.9042501E+00  3.2938915E+01
 3.9157503E+00  3.2534988E+01
 3.9272501E+00  3.2596386E+01
 3.9387503E+00  3.2675304E+01
 3.9502501E+00  3.2857262E+01
 3.9617503E+00  3.3128292E+01
 3.9732502E+00  3.3207745E+01
 3.9847503E+00  3.3381065E+01
 3.9962502E+00  3.3504459E+01
 4.0077500E+00  3.3420876E+01
 4.0192504E+00  3.3040768E+01
 4.0307503E+00  3.2684830E+01
 4.0422502E+00  3.2330780E+01
 4.0537500E+00  3.2211826E+01
 4.0652504E+00  3.2286938E+01
 4.0767503E+00  3.2312397E+01
 4.0882502E+00  3.2405800E+01
 4.0997500E+00  3.2395557E+01
 4.1112504E+00  3.2426960E+01
 4.1227503E+00  3.2389091E+01
 4.1342502E+00  3.2321167E+01
 4.1457500E+00  3.2468113E+01
 4.1572504E+00  3.2384697E+01
 4.1687503E+00  3.2434158E+01
 4.1802502E+00  3.2243408E+01
 4.1917500E+00  3.2403004E+01
 4.2032504E+00  3.2531933E+01
 4.2147503E+00  3.2684792E+01
 4.2262502E+00  3.2744041E+01
 4.2377501E+00  3.2688839E+01
 4.2492504E+00  3.2636395E+01
 4.2607503E+00  3.2753365E+01
 4.2722502E+00  3.2798428E+01
 4.2837501E+00  3.2937996E+01
 4.2952504E+00  3.2945759E+01
 4.3067503E+00  3.2983891E+01
 4.3182502E+00  3.3065033E+01
 4.3297501E+00  3.3074581E+01
 4.3412504E+00  3.3181358E+01
 4.3527503E+00  3.3090660E+01
 4.3642502E+00  3.3026638E+01
 4.3757501E+00  3.2994141E+01
 4.3872504E+00  3.3007130E+01
 4.3987503E+00  3.2986862E+01
 4.4102502E+00  3.2910416E+01
 4.4217501E+00  3.2891541E+01
 4.4332504E+00  3.2858727E+01
 4.4447503E+00  3.2790005E+01
 4.4562502E+00  3.2741222E+01
 4.4677501E+00  3.2690750E+01
 4.4792504E+00  3.2645657E+01
 4.4907503E+00  3.2534435E+01
 4.5022502E+00  3.2624386E+01
 4.5137501E+00  3.2809174E+01
 4.5252504E+00  3.2989189E+01
 4.5367503E+00  3.3130325E+01
 4.5482502E+00  3.3045376E+01
 4.5597501E+00  3.2833870E+01
 4.5712504E+00  3.2748611E+01
 4.5827503E+00  3.2695656E+01
 4.5942502E+00  3.2904953E+01
 4.6057501E+00  3.2937199E+01
 4.6172504E+00  3.3009663E+01
 4.6287503E+00  3.2994293E+01
 4.6402502E+00  3.3019455E+01
 4.6517501E+00  3.3107094E+01
 4.6632504E+00  3.3151936E+01
 4.6747503E+00  3.3252789E+01
 4.6862502E+00  3.3325012E+01
 4.6977501E+00  3.3326336E+01
 4.7092505E+00  3.3289516E+01
 4.7207503E+00  3.3175007E+01
 4.7322502E+00  3.3097042E+01
 4.7437501E+00  3.3010155E+01
 4.7552505E+00  3.2831345E+01
 4.7667503E+00  3.2855797E+01
 4.7782502E+00  3.2925259E+01
 4.7897501E+00  3.3018501E+01
 4.8012505E+00  3.3051601E+01
 4.8127503E+00  3.2966862E+01
 4.8242502E+00  3.2890457E+01
 4.8357501E+00  3.2964447E+01
 4.8472505E+00  3.3014008E+01
 4.8587503E+00  3.3191494E+01
 4.8702502E+00  3.3200859E+01
 4.8817501E+00  3.3182938E+01
 4.8932505E+00  3.3207031E+01
 4.9047503E+00  3.3279888E+01
 4.9162502E+00  3.3356445E+01
 4.9277501E+00  3.3313126E+01
 4.9392505E+00  3.3293270E+01
 4.9507504E+00  3.3216339E+01
 4.9622502E+00  3.3099396E+01
 4.9737501E+00  3.3029736E+01
 4.9852505E+00  3.3053757E+01
 4.9967504E+00  3.3186649E+01
 5.0082502E+00  3.3350670E+01
 5.0197501E+00  3.3496159E+01
 5.0312505E+00  3.3660072E+01
 5.0427504E+00  3.3784443E+01
 5.0542502E+00  3.3839565E+01
 5.0657501E+00  3.3806477E+01
 5.0772505E+00  3.3679085E+01
 5.0887504E+00  3.3622337E+01
 5.1002502E+00  3.3569988E+01
 5.1117501E+00  3.3580807E+01
 5.1232505E+00  3.3594490E+01
 5.1347504E+00  3.3627331E+01
 5.1462502E+00  3.3845051E+01
 5.1577501E+00  3.3854420E+01
 5.1692505E+00  3.3977425E+01
 5.1807504E+00  3.4027454E+01
 5.1922503E+00  3.4087082E+01
 5.2037501E+00  3.4242146E+01
 5.2152505E+00  3.4308891E+01
 5.2267504E+00  3.4488098E+01
 5.2382503E+00  3.4533649E+01
 5.2497501E+00  3.4584663E+01
 5.2612505E+00  3.4595604E+01
 5.2727504E+00  3.4499294E+01
 5.2842503E+00  3.4369759E+01
 5.2957501E+00  3.4235821E+01
 5.3072500E+00  3.4166992E+01
 5.3187504E+00  3.4226048E+01
 5.3302503E+00  3.4382900E+01
 5.3417501E+00  3.4508286E+01
 5.3532500E+00  3.4688538E+01
 5.3647504E+00  3.4757172E+01
 5.3762503E+00  3.4958439E+01
 5.3877501E+00  3.5077484E+01
 5.3992500E+00  3.5183552E+01
 5.4107504E+00  3.5288689E+01
 5.4222503E+00  3.5275036E+01
 5.4337502E+00  3.5176662E+01
 5.4452500E+00  3.5161312E+01
 5.4567504E+00  3.5215439E+01
 5.4682503E+00  3.5231827E+01
 5.4797502E+00  3.5329720E+01
 5.4912500E+00  3.5166954E+01
 5.5027504E+00  3.5192566E+01
 5.5142503E+00  3.5130035E+01
 5.5257502E+00  3.5259785E+01
 5.5372500E+00  3.5240879E+01
 5.5487504E+00  3.5242283E+01
 5.5602503E+00  3.5329918E+01
 5.5717502E+00  3.5526054E+01
 5.5832500E+00  3.5590725E+01
 5.5947504E+00  3.5643757E+01
 5.6062503E+00  3.5680141E+01
 5.6177502E+00  3.5856075E+01
 5.6292500E+00  3.5894508E+01
 5.6407504E+00  3.6020466E+01
 5.6522503E+00  3.6091743E+01
 5.6637502E+00  3.6181767E+01
 5.6752501E+00  3.6170921E+01
 5.6867504E+00  3.6122242E+01
 5.6982503E+00  3.6041592E+01
 5.7097502E+00  3.6098392E+01
 5.7212501E+00  3.6227718E+01
 5.7327504E+00  3.6268280E+01
 5.7442503E+00  3.6310799E+01
 5.7557502E+00  3.6328484E+01
 5.7672501E+00  3.6422226E+01
 5.7787504E+00  3.6449139E+01
 5.7902503E+00  3.6603100E+01
 5.8017502E+00  3.6660011E+01
 5.8132501E+00  3.6725082E+01
 5.8247504E+00  3.6878124E+01
 5.8362503E+00  3.6972340E+01
 5.8477502E+00  3.7076153E+01
 5.8592501E+00  3.7339405E+01
 5.8707504E+00  3.7387997E+01
 5.8822503E+00  3.7830303E+01
 5.8937502E+00  3.8757141E+01
 5.9052501E+00  3.9254593E+01
 5.9167504E+00  4.3374477E+01
 5.9282503E+00  4.6232018E+01
 5.9397502E+00  4.8929764E+01
 5.9512501E+00  6.6135925E+01
 5.9627504E+00  7.0745842E+01
 5.9742503E+00  7.4453438E+01
 5.9857502E+00  7.0594574E+01
 5.9972501E+00  6.3031300E+01
 6.0087504E+00  6.0982147E+01
 6.0202503E+00  4.8187729E+01
 6.0317502E+00  4.5152607E+01
 6.0432501E+00  4.2197750E+01
 6.0547504E+00  3.9983742E+01
 6.0662503E+00  3.9018379E+01
 6.0777502E+00  3.8521252E+01
 6.0892501E+00  3.8072559E+01
 6.1007504E+00  3.8017654E+01
 6.1122503E+00  3.8006031E+01
 6.1237502E+00  3.7892288E+01
 6.1352501E+00  3.7834946E+01
 6.1467505E+00  3.7584225E+01
 6.1582503E+00  3.7456825E+01
 6.1697502E+00  3.7497677E+01
 6.1812501E+00  3.7477852E+01
 6.1927505E+00  3.7564968E+01
 6.2042503E+00  3.7618645E+01
 6.2157502E+00  3.7762657E+01
 6.2272501E+00  3.7910885E+01
 6.2387505E+00  3.8005882E+01
 6.2502503E+00  3.8043171E+01
 6.2617502E+00  3.8066490E+01
 6.2732501E+00  3.8209270E+01
 6.2847505E+00  3.8294060E+01
 6.2962503E+00  3.8314861E+01
 6.3077502E+00  3.8234516E+01
 6.3192501E+00  3.8169422E+01
 6.3307505E+00  3.8271545E+01
 6.3422503E+00  3.8357788E+01
 6.3537502E+00  3.8512707E+01
 6.3652501E+00  3.8638332E+01
 6.3767505E+00  3.8682693E+01
 6.3882504E+00  3.8692295E+01
 6.3997502E+00  3.8593578E+01
 6.4112501E+00  3.8592793E+01
 6.4227505E+00  3.8624565E+01
 6.4342504E+00  3.8715733E+01
 6.4457502E+00  3.8832157E+01
 6.4572501E+00  3.8912613E+01
 6.4687505E+00  3.9052437E+01
 6.4802504E+00  3.9167145E+01
 6.4917502E+00  3.9432743E+01
 6.5032501E+00  3.9679195E+01
 6.5147505E+00  3.9944256E+01
 6.5262504E+00  4.0106045E+01
 6.5377502E+00  4.0179016E+01
 6.5492501E+00  4.0122471E+01
 6.5607505E+00  4.0104343E+01
 6.5722504E+00  4.0025860E+01
 6.5837502E+00  4.0020756E+01
 6.5952501E+00  4.0019909E+01
 6.6067505E+00  4.0106808E+01
 6.6182504E+00  4.0263374E+01
 6.6297503E+00  4.0495842E+01
 6.6412501E+00  4.0655102E+01
 6.6527505E+00  4.0768276E+01
 6.6642504E+00  4.0760395E+01
 6.6757503E+00  4.0708061E+01
 6.6872501E+00  4.0656704E+01
 6.6987505E+00  4.0633881E+01
 6.7102504E+00  4.0704620E+01
 6.7217503E+00  4.0816086E+01
 6.7332501E+00  4.0971550E+01
 6.7447505E+00  4.1096409E+01
 6.7562504E+00  4.1169346E+01
 6.7677503E+00  4.1234066E+01
 6.7792501E+00  4.1431858E+01
 6.7907505E+00  4.1534859E+01
 6.8022504E+00  4.1742508E+01
 6.8137503E+00  4.1865074E+01
 6.8252501E+00  4.2037495E+01
 6.8367505E+00  4.2151150E+01
 6.8482504E+00  4.2143600E+01
 6.8597503E+00  4.2157516E+01
 6.8712502E+00  4.2103416E+01
 6.8827505E+00  4.2138847E+01
 6.8942504E+00  4.2275181E+01
 6.9057503E+00  4.2387764E+01
 6.9172502E+00  4.2520245E+01
 6.9287505E+00  4.2516865E+01
 6.9402504E+00  4.2485161E+01
 6.9517503E+00  4.2504177E+01
 6.9632502E+00  4.2477955E+01
 6.9747505E+00  4.2479244E+01
 6.9862504E+00  4.2458759E+01
 6.9977503E+00  4.2429794E+01
 7.0092502E+00  4.2527500E+01
 7.0207505E+00  4.2595360E+01
 7.0322504E+00  4.2812977E+01
 7.0437503E+00  4.3013775E+01
 7.0552502E+00  4.3209888E+01
 7.0667505E+00  4.3252228E+01
 7.0782504E+00  4.3220684E+01
 7.0897503E+00  4.3251335E+01
 7.1012502E+00  4.3336987E+01
 7.1127505E+00  4.3488964E+01
 7.1242504E+00  4.3644508E+01
 7.1357503E+00  4.3736008E+01
 7.1472502E+00  4.3783085E+01
 7.1587505E+00  4.3840466E+01
 7.1702504E+00  4.3863079E+01
 7.1817503E+00  4.3878647E+01
 7.1932502E+00  4.3852615E+01
 7.2047505E+00  4.3815105E+01
 7.2162504E+00  4.3796234E+01
 7.2277503E+00  4.3873425E+01
 7.2392502E+00  4.3921886E+01
 7.2507505E+00  4.4125916E+01
 7.2622504E+00  4.4196754E+01
 7.2737503E+00  4.4358536E+01
 7.2852502E+00  4.4387531E+01
 7.2967505E+00  4.4450542E+01
 7.3082504E+00  4.4481808E+01
 7.3197503E+00  4.4624081E+01
 7.3312502E+00  4.4645126E+01
 7.3427505E+00  4.4667728E+01
 7.3542504E+00  4.4595749E+01
 7.3657503E+00  4.4620895E+01
 7.3772502E+00  4.4693485E+01
 7.3887506E+00  4.4784569E+01
 7.4002504E+00  4.4810253E+01
 7.4117503E+00  4.4888596E+01
 7.4232502E+00  4.4930588E+01
 7.4347506E+00  4.4994522E+01
 7.4462504E+00  4.4913490E+01
 7.4577503E+00  4.4891911E+01
 7.4692502E+00  4.4815010E+01
 7.4807506E+00  4.4833187E+01
 7.4922504E+00  4.4841179E+01
 7.5037503E+00  4.4908253E+01
 7.5152502E+00  4.5009594E+01
 7.5267506E+00  4.5009594E+01
 7.5382504E+00  4.5009846E+01
 7.5497503E+00  4.4840096E+01
 7.5612502E+00  4.4864918E+01
 7.5727506E+00  4.4796383E+01
 7.5842505E+00  4.4783154E+01
 7.5957503E+00  4.4681911E+01
 7.6072502E+00  4.4614216E+01
 7.6187506E+00  4.4617477E+01
 7.6302505E+00  4.4664772E+01
 7.6417503E+00  4.4778046E+01
 7.6532502E+00  4.4777416E+01
 7.6647506E+00  4.4838711E+01
 7.6762505E+00  4.4877937E+01
 7.6877503E+00  4.4974403E+01
 7.6992502E+00  4.4977173E+01
 7.7107506E+00  4.4833290E+01
 7.7222505E+00  4.4838882E+01
 7.7337503E+00  4.4771229E+01
 7.7452502E+00  4.4809727E+01
 7.7567506E+00  4.4831905E+01
 7.7682505E+00  4.4883053E+01
 7.7797503E+00  4.4893543E+01
 7.7912502E+00  4.4843758E+01
 7.8027506E+00  4.4755459E+01
 7.8142505E+00  4.4748680E+01
 7.8257504E+00  4.4737942E+01
 7.8372502E+00  4.4680611E+01
 7.8487506E+00  4.4671032E+01
 7.8602505E+00  4.4559803E+01
 7.8717504E+00  4.4464523E+01
 7.8832502E+00  4.4380924E+01
 7.8947506E+00  4.4296524E+01
 7.9062505E+00  4.4265640E+01
 7.9177504E+00  4.4143513E+01
 7.9292502E+00  4.4021057E+01
 7.9407506E+00  4.3960567E+01
 7.9522505E+00  4.3925526E+01
 7.9637504E+00  4.3965332E+01
 7.9752502E+00  4.4040764E+01
 7.9867506E+00  4.4139420E+01
 7.9982505E+00  4.4224995E+01
 8.0097504E+00  4.4204636E+01
 8.0212507E+00  4.4050591E+01
 8.0327501E+00  4.3884285E+01
 8.0442505E+00  4.3836906E+01
 8.0557508E+00  4.3717712E+01
 8.0672503E+00  4.3671680E+01
 8.0787506E+00  4.3613865E+01
 8.0902500E+00  4.3528709E+01
 8.1017504E+00  4.3408756E+01
 8.1132507E+00  4.3192402E+01
 8.1247501E+00  4.3059452E+01
 8.1362505E+00  4.2886200E+01
 8.1477509E+00  4.2714314E+01
 8.1592503E+00  4.2586075E+01
 8.1707506E+00  4.2448910E+01
 8.1822500E+00  4.2305546E+01
 8.1937504E+00  4.2226078E+01
 8.2052507E+00  4.2194004E+01
 8.2167501E+00  4.2136311E+01
 8.2282505E+00  4.1938339E+01
 8.2397509E+00  4.1789539E+01
 8.2512503E+00  4.1603924E+01
 8.2627506E+00  4.1445076E+01
 8.2742500E+00  4.1216698E+01
 8.2857504E+00  4.1093910E+01
 8.2972507E+00  4.1011600E+01
 8.3087502E+00  4.0925938E+01
 8.3202505E+00  4.0777317E+01
 8.3317509E+00  4.0731098E+01
 8.3432503E+00  4.0564781E+01
 8.3547506E+00  4.0488419E+01
 8.3662500E+00  4.0309822E+01
 8.3777504E+00  4.0129406E+01
 8.3892508E+00  3.9984734E+01
 8.4007502E+00  3.9782692E+01
 8.4122505E+00  3.9604687E+01
 8.4237509E+00  3.9404072E+01
 8.4352503E+00  3.9124840E+01
 8.4467506E+00  3.8996120E+01
 8.4582500E+00  3.8822235E+01
 8.4697504E+00  3.8755283E+01
 8.4812508E+00  3.8674828E+01
 8.4927502E+00  3.8600342E+01
 8.5042505E+00  3.8473339E+01
 8.5157509E+00  3.8337135E+01
 8.5272503E+00  3.8070732E+01
 8.5387506E+00  3.7945335E+01
 8.5502501E+00  3.7653122E+01
 8.5617504E+00  3.7455906E+01
 8.5732508E+00  3.7134228E+01
 8.5847502E+00  3.6931118E+01
 8.5962505E+00  3.6703716E+01
 8.6077509E+00  3.6593239E+01
 8.6192503E+00  3.6498890E+01
 8.6307507E+00  3.6393074E+01
 8.6422501E+00  3.6185123E+01
 8.6537504E+00  3.5968498E+01
 8.6652508E+00  3.5784000E+01
 8.6767502E+00  3.5559250E+01
 8.6882505E+00  3.5354115E+01
 8.6997509E+00  3.5138523E+01
 8.7112503E+00  3.5040291E+01
 8.7227507E+00  3.4794724E+01
 8.7342501E+00  3.4630913E+01
 8.7457504E+00  3.4365005E+01
 8.7572508E+00  3.4241585E+01
 8.7687502E+00  3.4055340E+01
 8.7802505E+00  3.3932308E+01
 8.7917500E+00  3.3757607E+01
 8.8032503E+00  3.3663074E+01
 8.8147507E+00  3.3557793E+01
 8.8262501E+00  3.3413975E+01
 8.8377504E+00  3.3184868E+01
 8.8492508E+00  3.2905220E+01
 8.8607502E+00  3.2700493E+01
 8.8722506E+00  3.2494434E+01
 8.8837500E+00  3.2348717E+01
 8.8952503E+00  3.2154537E+01
 8.9067507E+00  3.1990467E+01
 8.9182501E+00  3.1813828E+01
 8.9297504E+00  3.1684874E+01
 8.9412508E+00  3.1564922E+01
 8.9527502E+00  3.1438868E+01
 8.9642506E+00  3.1292305E+01
 8.9757500E+00  3.1124155E+01
 8.9872503E+00  3.1037928E+01
 8.9987507E+00  3.0873924E+01
 9.0102501E+00  3.0788809E+01
 9.0217505E+00  3.0582458E+01
 9.0332508E+00  3.0492851E+01
 9.0447502E+00  3.0379360E+01
 9.0562506E+00  3.0256615E+01
 9.0677500E+00  3.0151342E+01
 9.0792503E+00  3.0014763E+01
 9.0907507E+00  2.9859640E+01
 9.1022501E+00  2.9678404E+01
 9.1137505E+00  2.9512238E+01
 9.1252508E+00  2.9442747E+01
 9.1367502E+00  2.9319252E+01
 9.1482506E+00  2.9225122E+01
 9.1597500E+00  2.9041321E+01
 9.1712503E+00  2.8941730E+01
 9.1827507E+00  2.8805906E+01
 9.1942501E+00  2.8759216E+01
 9.2057505E+00  2.8620861E+01
 9.2172508E+00  2.8566835E+01
 9.2287502E+00  2.8419268E+01
 9.2402506E+00  2.8297077E+01
 9.2517500E+00  2.8134806E+01
 9.2632504E+00  2.8039431E+01
 9.2747507E+00  2.8008190E+01
 9.2862501E+00  2.7981623E+01
 9.2977505E+00  2.7908789E+01
 9.3092508E+00  2.7801292E+01
 9.3207502E+00  2.7673880E+01
 9.3322506E+00  2.7532482E+01
 9.3437500E+00  2.7391092E+01
 9.3552504E+00  2.7264290E+01
 9.3667507E+00  2.7186897E+01
 9.3782501E+00  2.7091747E+01
 9.3897505E+00  2.7031891E+01
 9.4012508E+00  2.6993378E+01
 9.4127502E+00  2.7009815E+01
 9.4242506E+00  2.6960068E+01
 9.4357500E+00  2.6940790E+01
 9.4472504E+00  2.6874922E+01
 9.4587507E+00  2.6835178E+01
 9.4702501E+00  2.6745861E+01
 9.4817505E+00  2.6656992E+01
 9.4932508E+00  2.6541046E+01
 9.5047503E+00  2.6441132E+01
 9.5162506E+00  2.6413803E+01
 9.5277500E+00  2.6426176E+01
 9.5392504E+00  2.6357327E+01
 9.5507507E+00  2.6229822E+01
 9.5622501E+00  2.6146887E+01
 9.5737505E+00  2.6097746E+01
 9.5852509E+00  2.6051474E+01
 9.5967503E+00  2.6053783E+01
 9.6082506E+00  2.6027906E+01
 9.6197500E+00  2.6012400E+01
 9.6312504E+00  2.5890711E+01
 9.6427507E+00  2.5758568E+01
 9.6542501E+00  2.5658438E+01
 9.6657505E+00  2.5501440E+01
 9.6772509E+00  2.5422222E+01
 9.6887503E+00  2.5310476E+01
 9.7002506E+00  2.5306332E+01
 9.7117500E+00  2.5278553E+01
 9.7232504E+00  2.5312866E+01
 9.7347507E+00  2.5280315E+01
 9.7462502E+00  2.5281740E+01
 9.7577505E+00  2.5267899E+01
 9.7692509E+00  2.5265633E+01
 9.7807503E+00  2.5273340E+01
 9.7922506E+00  2.5193058E+01
 9.8037500E+00  2.5208263E+01
 9.8152504E+00  2.5088854E+01
 9.8267508E+00  2.5015436E+01
 9.8382502E+00  2.4906900E+01
 9.8497505E+00  2.4830523E+01
 9.8612509E+00  2.4719690E+01
 9.8727503E+00  2.4637421E+01
 9.8842506E+00  2.4594414E+01
 9.8957500E+00  2.4659882E+01
 9.9072504E+00  2.4692650E+01
 9.9187508E+00  2.4678310E+01
 9.9302502E+00  2.4637148E+01
 9.9417505E+00  2.4555635E+01
 9.9532509E+00  2.4510084E+01
 9.9647503E+00  2.4471985E+01
 9.9762506E+00  2.4466316E+01
 9.9877501E+00  2.4416918E+01
 9.9992504E+00  2.4379725E+01
 1.0010751E+01  2.4315348E+01
 1.0022250E+01  2.4317400E+01
 1.0033751E+01  2.4331408E+01
 1.0045251E+01  2.4332666E+01
 1.0056750E+01  2.4334829E+01
 1.0068251E+01  2.4269369E+01
 1.0079750E+01  2.4238415E+01
 1.0091250E+01  2.4208635E+01
 1.0102751E+01  2.4185345E+01
 1.0114250E+01  2.4179928E+01
 1.0125751E+01  2.4173052E+01
 1.0137251E+01  2.4159803E+01
 1.0148750E+01  2.4137928E+01
 1.0160251E+01  2.4152361E+01
 1.0171750E+01  2.4085962E+01
 1.0183250E+01  2.3968750E+01
 1.0194751E+01  2.3828756E+01
 1.0206250E+01  2.3787066E+01
 1.0217751E+01  2.3761362E+01
 1.0229251E+01  2.3675743E+01
 1.0240750E+01  2.3563221E+01
 1.0252251E+01  2.3482548E+01
 1.0263750E+01  2.3471395E+01
 1.0275250E+01  2.3526752E+01
 1.0286751E+01  2.3530293E+01
 1.0298250E+01  2.3566463E+01
 1.0309751E+01  2.3543774E+01
 1.0321251E+01  2.3559662E+01
 1.0332750E+01  2.3566259E+01
 1.0344251E+01  2.3547434E+01
 1.0355750E+01  2.3566826E+01
 1.0367250E+01  2.3551485E+01
 1.0378751E+01  2.3591211E+01
 1.0390250E+01  2.3622499E+01
 1.0401751E+01  2.3625797E+01
 1.0413251E+01  2.3600328E+01
 1.0424750E+01  2.3520172E+01
 1.0436251E+01  2.3418020E+01
 1.0447750E+01  2.3352491E+01
 1.0459250E+01  2.3292057E+01
 1.0470751E+01  2.3295237E+01
 1.0482250E+01  2.3318382E+01
 1.0493751E+01  2.3394693E+01
 1.0505251E+01  2.3433998E+01
 1.0516750E+01  2.3473099E+01
 1.0528251E+01  2.3448854E+01
 1.0539750E+01  2.3462772E+01
 1.0551250E+01  2.3450445E+01
 1.0562751E+01  2.3418997E+01
 1.0574250E+01  2.3339884E+01
 1.0585751E+01  2.3240284E+01
 1.0597251E+01  2.3182730E+01
 1.0608750E+01  2.3141043E+01
 1.0620251E+01  2.3103968E+01
 1.0631750E+01  2.3121410E+01
 1.0643250E+01  2.3068811E+01
 1.0654751E+01  2.3132187E+01
 1.0666250E+01  2.3096359E+01
 1.0677751E+01  2.3170450E+01
 1.0689251E+01  2.3178057E+01
 1.0700750E+01  2.3227310E+01
 1.0712251E+01  2.3234665E+01
 1.0723750E+01  2.3184460E+01
 1.0735250E+01  2.3109043E+01
 1.0746751E+01  2.3076870E+01
 1.0758250E+01  2.3002316E+01
 1.0769751E+01  2.3029825E+01
 1.0781251E+01  2.3044331E+01
 1.0792750E+01  2.3098707E+01
 1.0804251E+01  2.3043480E+01
 1.0815750E+01  2.3027443E+01
 1.0827250E+01  2.3003674E+01
 1.0838751E+01  2.3022636E+01
 1.0850250E+01  2.2986589E+01
 1.0861751E+01  2.3017675E+01
 1.0873251E+01  2.3038929E+01
 1.0884750E+01  2.3038773E+01
 1.0896251E+01  2.3020927E+01
 1.0907750E+01  2.2995203E+01
 1.0919250E+01  2.2976616E+01
 1.0930751E+01  2.2940296E+01
 1.0942250E+01  2.2853901E+01
 1.0953751E+01  2.2812420E+01
 1.0965251E+01  2.2680889E+01
 1.0976750E+01  2.2683760E+01
 1.0988251E+01  2.2621229E+01
 1.0999750E+01  2.2663641E+01
 1.1011250E+01  2.2618790E+01
 1.1022751E+01  2.2659258E+01
 1.1034250E+01  2.2663465E+01
 1.1045751E+01  2.2647997E+01
 1.1057251E+01  2.2616913E+01
 1.1068750E+01  2.2614462E+01
 1.1080251E+01  2.2608797E+01
 1.1091750E+01  2.2636597E+01
 1.1103251E+01  2.2579304E+01
 1.1114751E+01  2.2652946E+01
 1.1126250E+01  2.2590876E+01
 1.1137751E+01  2.2588869E+01
 1.1149251E+01  2.2518805E+01
 1.1160750E+01  2.2514524E+01
 1.1172251E+01  2.2523010E+01
 1.1183750E+01  2.2526871E+01
 1.1195251E+01  2.2542191E+01
 1.1206751E+01  2.2584452E+01
 1.1218250E+01  2.2589039E+01
 1.1229751E+01  2.2608187E+01
 1.1241251E+01  2.2638891E+01
 1.1252750E+01  2.2655500E+01
 1.1264251E+01  2.2652113E+01
 1.1275750E+01  2.2609190E+01
 1.1287251E+01  2.2588892E+01
 1.1298751E+01  2.2587929E+01
 1.1310250E+01  2.2601578E+01
 1.1321751E+01  2.2620726E+01
 1.1333251E+01  2.2614857E+01
 1.1344750E+01  2.2578718E+01
 1.1356251E+01  2.2594774E+01
 1.1367750E+01  2.2639969E+01
 1.1379251E+01  2.2694284E+01
 1.1390751E+01  2.2821039E+01
 1.1402250E+01  2.2917812E+01
 1.1413751E+01  2.2991177E+01
 1.1425251E+01  2.2988262E+01
 1.1436750E+01  2.2957514E+01
 1.1448251E+01  2.3074461E+01
 1.1459750E+01  2.3175480E+01
 1.1471251E+01  2.3287617E+01
 1.1482751E+01  2.3454317E+01
 1.1494250E+01  2.3502531E+01
 1.1505751E+01  2.3725729E+01
 1.1517251E+01  2.4051395E+01
 1.1528750E+01  2.4513996E+01
 1.1540251E+01  2.5897947E+01
 1.1551750E+01  2.7115206E+01
 1.1563251E+01  2.9617140E+01
 1.1574751E+01  3.2554527E+01
 1.1586250E+01  3.4448193E+01
 1.1597751E+01  3.6844486E+01
 1.1609251E+01  3.7781216E+01
 1.1620750E+01  3.5686142E+01
 1.1632251E+01  3.7504681E+01
 1.1643750E+01  3.3318604E+01
 1.1655251E+01  3.2518356E+01
 1.1666751E+01  2.6373610E+01
 1.1678250E+01  2.5168537E+01
 1.1689751E+01  2.4591854E+01
 1.1701251E+01  2.3428230E+01
 1.1712750E+01  2.3276163E+01
 1.1724251E+01  2.3186888E+01
 1.1735750E+01  2.3045101E+01
 1.1747251E+01  2.3054291E+01
 1.1758751E+01  2.2920773E+01
 1.1770250E+01  2.2816139E+01
 1.1781751E+01  2.2770330E+01
 1.1793251E+01  2.2735905E+01
 1.1804750E+01  2.2794037E+01
 1.1816251E+01  2.2842052E+01
 1.1827750E+01  2.2817648E+01
 1.1839251E+01  2.2787796E+01
 1.1850751E+01  2.2738712E+01
 1.1862250E+01  2.2667816E+01
 1.1873751E+01  2.2653219E+01
 1.1885251E+01  2.2651785E+01
 1.1896750E+01  2.2713636E+01
 1.1908251E+01  2.2785690E+01
 1.1919750E+01  2.2877415E+01
 1.1931251E+01  2.2999552E+01
 1.1942751E+01  2.3073349E+01
 1.1954250E+01  2.3196165E+01
 1.1965751E+01  2.3344482E+01
 1.1977251E+01  2.3484272E+01
 1.1988750E+01  2.3581112E+01
 1.2000251E+01  2.3594313E+01
 1.2011750E+01  2.3542704E+01
 1.2023251E+01  2.3490917E+01
 1.2034751E+01  2.3510044E+01
 1.2046250E+01  2.3693104E+01
 1.2057751E+01  2.4062572E+01
 1.2069251E+01  2.4511806E+01
 1.2080750E+01  2.5319141E+01
 1.2092251E+01  2.5893080E+01
 1.2103750E+01  2.6547548E+01
 1.2115251E+01  2.6647306E+01
 1.2126751E+01  2.6744493E+01
 1.2138250E+01  2.6269100E+01
 1.2149751E+01  2.5673054E+01
 1.2161251E+01  2.4824087E+01
 1.2172750E+01  2.4150480E+01
 1.2184251E+01  2.3630877E+01
 1.2195750E+01  2.3300127E+01
 1.2207251E+01  2.3019852E+01
 1.2218751E+01  2.2806583E+01
 1.2230250E+01  2.2677326E+01
 1.2241751E+01  2.2652573E+01
 1.2253251E+01  2.2653299E+01
 1.2264750E+01  2.2673241E+01
 1.2276251E+01  2.2657690E+01
 1.2287750E+01  2.2683752E+01
 1.2299251E+01  2.2673361E+01
 1.2310751E+01  2.2747833E+01
 1.2322250E+01  2.2749943E+01
 1.2333751E+01  2.2773487E+01
 1.2345250E+01  2.2733532E+01
 1.2356750E+01  2.2704445E+01
 1.2368251E+01  2.2689817E+01
 1.2379750E+01  2.2707382E+01
 1.2391251E+01  2.2758812E+01
 1.2402751E+01  2.2770485E+01
 1.2414250E+01  2.2751732E+01
 1.2425751E+01  2.2667688E+01
 1.2437250E+01  2.2621515E+01
 1.2448750E+01  2.2594702E+01
 1.2460251E+01  2.2602423E+01
 1.2471750E+01  2.2599918E+01
 1.2483251E+01  2.2582561E+01
 1.2494751E+01  2.2585558E+01
 1.2506250E+01  2.2569939E+01
 1.2517751E+01  2.2583181E+01
 1.2529250E+01  2.2583786E+01
 1.2540751E+01  2.2635597E+01
 1.2552251E+01  2.2669394E+01
 1.2563750E+01  2.2719017E+01
 1.2575251E+01  2.2741787E+01
 1.2586751E+01  2.2782469E+01
 1.2598250E+01  2.2794493E+01
 1.2609751E+01  2.2885853E+01
 1.2621250E+01  2.2947826E+01
 1.2632751E+01  2.3043917E+01
 1.2644251E+01  2.3022215E+01
 1.2655750E+01  2.2989250E+01
 1.2667251E+01  2.2956554E+01
 1.2678751E+01  2.2928074E+01
 1.2690250E+01  2.2981176E+01
 1.2701751E+01  2.3036844E+01
 1.2713250E+01  2.3094448E+01
 1.2724751E+01  2.3051247E+01
 1.2736251E+01  2.3025242E+01
 1.2747750E+01  2.3057240E+01
 1.2759251E+01  2.3120077E+01
 1.2770751E+01  2.3124773E+01
 1.2782250E+01  2.3180542E+01
 1.2793751E+01  2.3137594E+01
 1.2805250E+01  2.3138681E+01
 1.2816751E+01  2.3126369E+01
 1.2828251E+01  2.3230461E+01
 1.2839750E+01  2.3298618E+01
 1.2851251E+01  2.3328045E+01
 1.2862751E+01  2.3381989E+01
 1.2874250E+01  2.3444925E+01
 1.2885751E+01  2.3472395E+01
 1.2897250E+01  2.3481153E+01
 1.2908751E+01  2.3584867E+01
 1.2920251E+01  2.3626505E+01
 1.2931750E+01  2.3770811E+01
 1.2943251E+01  2.3801466E+01
 1.2954751E+01  2.3946079E+01
 1.2966250E+01  2.3963720E+01
 1.2977751E+01  2.4022593E+01
 1.2989250E+01  2.4027115E+01
 1.3000751E+01  2.4059237E+01
 1.3012251E+01  2.4114826E+01
 1.3023750E+01  2.4185114E+01
 1.3035251E+01  2.4277809E+01
 1.3046751E+01  2.4350985E+01
 1.3058250E+01  2.4483803E+01
 1.3069751E+01  2.4585060E+01
 1.3081250E+01  2.4723646E+01
 1.3092751E+01  2.4879065E+01
 1.3104251E+01  2.5063255E+01
 1.3115750E+01  2.5170231E+01
 1.3127251E+01  2.5235498E+01
 1.3138751E+01  2.5261856E+01
 1.3150250E+01  2.5360559E+01
 1.3161751E+01  2.5410645E+01
 1.3173250E+01  2.5564684E+01
 1.3184751E+01  2.5592339E+01
 1.3196251E+01  2.5732964E+01
 1.3207750E+01  2.5834080E+01
 1.3219251E+01  2.6000385E+01
 1.3230751E+01  2.6128635E+01
 1.3242250E+01  2.6275850E+01
 1.3253751E+01  2.6417635E+01
 1.3265250E+01  2.6534901E+01
 1.3276751E+01  2.6660030E+01
 1.3288251E+01  2.6836046E+01
 1.3299750E+01  2.7028421E+01
 1.3311251E+01  2.7157549E+01
 1.3322751E+01  2.7392590E+01
 1.3334250E+01  2.7593513E+01
 1.3345751E+01  2.7777159E+01
 1.3357250E+01  2.7865290E+01
 1.3368751E+01  2.7878067E+01
 1.3380251E+01  2.7980015E+01
 1.3391750E+01  2.8087196E+01
 1.3403251E+01  2.8305487E+01
 1.3414751E+01  2.8433460E+01
 1.3426250E+01  2.8541357E+01
 1.3437751E+01  2.8689255E+01
 1.3449250E+01  2.8832067E+01
 1.3460751E+01  2.8969877E+01
 1.3472251E+01  2.9087309E+01
 1.3483750E+01  2.9241688E+01
 1.3495251E+01  2.9326063E+01
 1.3506751E+01  2.9390324E+01
 1.3518250E+01  2.9462788E+01
 1.3529751E+01  2.9552683E+01
 1.3541250E+01  2.9643721E+01
 1.3552751E+01  2.9717796E+01
 1.3564251E+01  2.9820763E+01
 1.3575750E+01  2.9918324E+01
 1.3587251E+01  2.9967834E+01
 1.3598751E+01  3.0041018E+01
 1.3610250E+01  3.0058998E+01
 1.3621751E+01  3.0114817E+01
 1.3633250E+01  3.0166224E+01
 1.3644751E+01  3.0164534E+01
 1.3656251E+01  3.0161417E+01
 1.3667750E+01  3.0094612E+01
 1.3679251E+01  3.0000891E+01
 1.3690751E+01  2.9902740E+01
 1.3702250E+01  2.9794132E+01
 1.3713751E+01  2.9787615E+01
 1.3725250E+01  2.9733683E+01
 1.3736751E+01  2.9735714E+01
 1.3748251E+01  2.9738710E+01
 1.3759750E+01  2.9748655E+01
 1.3771251E+01  2.9751865E+01
 1.3782751E+01  2.9761183E+01
 1.3794250E+01  2.9762440E+01
 1.3805751E+01  2.9790098E+01
 1.3817250E+01  2.9792976E+01
 1.3828751E+01  2.9792629E+01
 1.3840251E+01  2.9932877E+01
 1.3851750E+01  3.0054955E+01
 1.3863251E+01  3.0455755E+01
 1.3874751E+01  3.1036266E+01
 1.3886250E+01  3.1506897E+01
 1.3897751E+01  3.3334347E+01
 1.3909250E+01  3.4966606E+01
 1.3920751E+01  3.7284054E+01
 1.3932251E+01  4.0816536E+01
 1.3943750E+01  4.2164970E+01
 1.3955251E+01  4.5476448E+01
 1.3966751E+01  4.4358898E+01
 1.3978251E+01  4.3628853E+01
 1.3989751E+01  3.9768604E+01
 1.4001250E+01  3.6443741E+01
 1.4012751E+01  3.3999207E+01
 1.4024251E+01  3.1541245E+01
 1.4035750E+01  3.0306099E+01
 1.4047251E+01  2.9385523E+01
 1.4058751E+01  2.8797356E+01
 1.4070251E+01  2.8577335E+01
 1.4081751E+01  2.8313633E+01
 1.4093250E+01  2.8120140E+01
 1.4104751E+01  2.7919882E+01
 1.4116251E+01  2.7777107E+01
 1.4127750E+01  2.7688940E+01
 1.4139251E+01  2.7631187E+01
 1.4150751E+01  2.7535515E+01
 1.4162251E+01  2.7509750E+01
 1.4173751E+01  2.7443695E+01
 1.4185250E+01  2.7317474E+01
 1.4196751E+01  2.7232834E+01
 1.4208251E+01  2.7130003E+01
 1.4219750E+01  2.7097153E+01
 1.4231251E+01  2.7012842E+01
 1.4242751E+01  2.6948822E+01
 1.4254251E+01  2.6888170E+01
 1.4265751E+01  2.6817257E+01
 1.4277250E+01  2.6761240E+01
 1.4288751E+01  2.6711428E+01
 1.4300251E+01  2.6603735E+01
 1.4311750E+01  2.6533630E+01
 1.4323251E+01  2.6353525E+01
 1.4334751E+01  2.6299356E+01
 1.4346251E+01  2.6187008E+01
 1.4357751E+01  2.6182922E+01
 1.4369250E+01  2.6151302E+01
 1.4380751E+01  2.6154453E+01
 1.4392251E+01  2.6086353E+01
 1.4403750E+01  2.5970518E+01
 1.4415251E+01  2.5885437E+01
 1.4426751E+01  2.5823511E+01
 1.4438251E+01  2.5790789E+01
 1.4449751E+01  2.5825619E+01
 1.4461250E+01  2.5816290E+01
 1.4472751E+01  2.5802477E+01
 1.4484251E+01  2.5760128E+01
 1.4495750E+01  2.5761772E+01
 1.4507251E+01  2.5754084E+01
 1.4518751E+01  2.5734743E+01
 1.4530251E+01  2.5710670E+01
 1.4541751E+01  2.5709785E+01
 1.4553250E+01  2.5709599E+01
 1.4564751E+01  2.5737278E+01
 1.4576251E+01  2.5707172E+01
 1.4587750E+01  2.5655775E+01
 1.4599251E+01  2.5598364E+01
 1.4610751E+01  2.5551825E+01
 1.4622251E+01  2.5510920E+01
 1.4633751E+01  2.5450983E+01
 1.4645250E+01  2.5412920E+01
 1.4656751E+01  2.5360264E+01
 1.4668251E+01  2.5304430E+01
 1.4679750E+01  2.5343491E+01
 1.4691251E+01  2.5378231E+01
 1.4702751E+01  2.5408318E+01
 1.4714251E+01  2.5326929E+01
 1.4725751E+01  2.5249712E+01
 1.4737250E+01  2.5259586E+01
 1.4748751E+01  2.5251272E+01
 1.4760251E+01  2.5292383E+01
 1.4771750E+01  2.5298296E+01
 1.4783251E+01  2.5263660E+01
 1.4794751E+01  2.5225252E+01
 1.4806251E+01  2.5142717E+01
 1.4817751E+01  2.5146629E+01
 1.4829250E+01  2.5113050E+01
 1.4840751E+01  2.5150600E+01
 1.4852251E+01  2.5126759E+01
 1.4863750E+01  2.5130411E+01
 1.4875251E+01  2.5099367E+01
 1.4886751E+01  2.5101576E+01
 1.4898251E+01  2.5089609E+01
 1.4909751E+01  2.5048088E+01
 1.4921250E+01  2.5038746E+01
 1.4932751E+01  2.5046141E+01
 1.4944251E+01  2.5044931E+01
 1.4955750E+01  2.5051779E+01
 1.4967251E+01  2.5028738E+01
 1.4978751E+01  2.5045177E+01
 1.4990251E+01  2.5043896E+01
 1.5001751E+01  2.5044006E+01
 1.5013250E+01  2.5025045E+01
 1.5024751E+01  2.5011122E+01
 1.5036251E+01  2.4972523E+01
 1.5047750E+01  2.4937519E+01
 1.5059251E+01  2.4890638E+01
 1.5070751E+01  2.4888887E+01
 1.5082251E+01  2.4923635E+01
 1.5093751E+01  2.4982895E+01
 1.5105250E+01  2.5089712E+01
 1.5116751E+01  2.5246572E+01
 1.5128251E+01  2.5426439E+01
 1.5139750E+01  2.5698912E+01
 1.5151251E+01  2.6177601E+01
 1.5162751E+01  2.6819260E+01
 1.5174251E+01  2.7620630E+01
 1.5185751E+01  2.8249193E+01
 1.5197250E+01  2.8816729E+01
 1.5208751E+01  2.8756607E+01
 1.5220251E+01  2.8611303E+01
 1.5231750E+01  2.7837931E+01
 1.5243251E+01  2.7076351E+01
 1.5254751E+01  2.6239634E+01
 1.5266251E+01  2.5634298E+01
 1.5277751E+01  2.5305380E+01
 1.5289250E+01  2.5097256E+01
 1.5300751E+01  2.4984837E+01
 1.5312251E+01  2.5000340E+01
 1.5323750E+01  2.4925194E+01
 1.5335251E+01  2.4977095E+01
 1.5346751E+01  2.4909147E+01
 1.5358251E+01  2.4844652E+01
 1.5369751E+01  2.4736725E+01
 1.5381250E+01  2.4656422E+01
 1.5392751E+01  2.4624353E+01
 1.5404251E+01  2.4621355E+01
 1.5415751E+01  2.4632923E+01
 1.5427251E+01  2.4607540E+01
 1.5438751E+01  2.4630264E+01
 1.5450251E+01  2.4668362E+01
 1.5461751E+01  2.4759989E+01
 1.5473250E+01  2.4757706E+01
 1.5484751E+01  2.4793180E+01
 1.5496251E+01  2.4804945E+01
 1.5507751E+01  2.4865900E+01
 1.5519251E+01  2.4881882E+01
 1.5530751E+01  2.4943878E+01
 1.5542251E+01  2.4930511E+01
 1.5553751E+01  2.4890820E+01
 1.5565250E+01  2.4832018E+01
 1.5576751E+01  2.4755144E+01
 1.5588251E+01  2.4740061E+01
 1.5599751E+01  2.4699728E+01
 1.5611251E+01  2.4724295E+01
 1.5622751E+01  2.4696903E+01
 1.5634251E+01  2.4674095E+01
 1.5645751E+01  2.4684563E+01
 1.5657250E+01  2.4707201E+01
 1.5668751E+01  2.4737400E+01
 1.5680251E+01  2.4728529E+01
 1.5691751E+01  2.4733761E+01
 1.5703251E+01  2.4766386E+01
 1.5714751E+01  2.4798563E+01
 1.5726251E+01  2.4818550E+01
 1.5737751E+01  2.4718054E+01
 1.5749250E+01  2.4686422E+01
 1.5760751E+01  2.4619604E+01
 1.5772251E+01  2.4676786E+01
 1.5783751E+01  2.4655846E+01
 1.5795251E+01  2.4737324E+01
 1.5806751E+01  2.4774656E+01
 1.5818251E+01  2.4797581E+01
 1.5829751E+01  2.4759460E+01
 1.5841250E+01  2.4722631E+01
 1.5852751E+01  2.4707537E+01
 1.5864251E+01  2.4698837E+01
 1.5875751E+01  2.4751087E+01
 1.5887251E+01  2.4754227E+01
 1.5898750E+01  2.4791779E+01
 1.5910251E+01  2.4732296E+01
 1.5921751E+01  2.4698032E+01
 1.5933250E+01  2.4636404E+01
 1.5944751E+01  2.4609247E+01
 1.5956251E+01  2.4622063E+01
 1.5967751E+01  2.4643759E+01
 1.5979251E+01  2.4681047E+01
 1.5990750E+01  2.4726183E+01
 1.6002251E+01  2.4745678E+01
 1.6013750E+01  2.4836447E+01
 1.6025251E+01  2.4841167E+01
 1.6036751E+01  2.4933386E+01
 1.6048250E+01  2.4936165E+01
 1.6059752E+01  2.4987316E+01
 1.6071251E+01  2.4936144E+01
 1.6082750E+01  2.4959665E+01
 1.6094252E+01  2.4937515E+01
 1.6105751E+01  2.5002447E+01
 1.6117250E+01  2.4984957E+01
 1.6128750E+01  2.4964571E+01
 1.6140251E+01  2.5009706E+01
 1.6151751E+01  2.5026527E+01
 1.6163250E+01  2.5173063E+01
 1.6174751E+01  2.5147903E+01
 1.6186251E+01  2.5507902E+01
 1.6197750E+01  2.5515575E+01
 1.6209251E+01  2.6258715E+01
 1.6220751E+01  2.6329237E+01
 1.6232250E+01  2.7195894E+01
 1.6243752E+01  2.7367641E+01
 1.6255251E+01  2.7724859E+01
 1.6266750E+01  2.7746998E+01
 1.6278252E+01  2.7136593E+01
 1.6289751E+01  2.6947039E+01
 1.6301250E+01  2.5874407E+01
 1.6312750E+01  2.5811474E+01
 1.6324251E+01  2.5166424E+01
 1.6335751E+01  2.5206686E+01
 1.6347250E+01  2.4976782E+01
 1.6358751E+01  2.5003223E+01
 1.6370251E+01  2.4931774E+01
 1.6381750E+01  2.4908741E+01
 1.6393251E+01  2.4906559E+01
 1.6404751E+01  2.4924772E+01
 1.6416250E+01  2.4965891E+01
 1.6427752E+01  2.4959482E+01
 1.6439251E+01  2.5007635E+01
 1.6450750E+01  2.4978262E+01
 1.6462252E+01  2.4952827E+01
 1.6473751E+01  2.4842573E+01
 1.6485250E+01  2.4874369E+01
 1.6496750E+01  2.4853468E+01
 1.6508251E+01  2.4846651E+01
 1.6519751E+01  2.4811584E+01
 1.6531250E+01  2.4815321E+01
 1.6542751E+01  2.4838938E+01
 1.6554251E+01  2.4803383E+01
 1.6565750E+01  2.4791332E+01
 1.6577251E+01  2.4760618E+01
 1.6588751E+01  2.4797194E+01
 1.6600250E+01  2.4798367E+01
 1.6611752E+01  2.4822401E+01
 1.6623251E+01  2.4708151E+01
 1.6634750E+01  2.4680744E+01
 1.6646252E+01  2.4617731E+01
 1.6657751E+01  2.4604389E+01
 1.6669250E+01  2.4620502E+01
 1.6680750E+01  2.4629908E+01
 1.6692251E+01  2.4686155E+01
 1.6703751E+01  2.4674801E+01
 1.6715250E+01  2.4691833E+01
 1.6726751E+01  2.4660696E+01
 1.6738251E+01  2.4666525E+01
 1.6749750E+01  2.4674534E+01
 1.6761251E+01  2.4654322E+01
 1.6772751E+01  2.4622978E+01
 1.6784250E+01  2.4585455E+01
 1.6795752E+01  2.4557255E+01
 1.6807251E+01  2.4500124E+01
 1.6818750E+01  2.4454737E+01
 1.6830252E+01  2.4461826E+01
 1.6841751E+01  2.4501509E+01
 1.6853251E+01  2.4561031E+01
 1.6864750E+01  2.4575790E+01
 1.6876251E+01  2.4606588E+01
 1.6887751E+01  2.4656300E+01
 1.6899250E+01  2.4646542E+01
 1.6910751E+01  2.4592667E+01
 1.6922251E+01  2.4523668E+01
 1.6933750E+01  2.4517859E+01
 1.6945251E+01  2.4475407E+01
 1.6956751E+01  2.4471806E+01
 1.6968250E+01  2.4427038E+01
 1.6979752E+01  2.4402601E+01
 1.6991251E+01  2.4346399E+01
 1.7002750E+01  2.4308887E+01
 1.7014252E+01  2.4298086E+01
 1.7025751E+01  2.4413305E+01
 1.7037251E+01  2.4426563E+01
 1.7048750E+01  2.4548885E+01
 1.7060251E+01  2.4508518E+01
 1.7071751E+01  2.4472368E+01
 1.7083250E+01  2.4364563E+01
 1.7094751E+01  2.4329977E+01
 1.7106251E+01  2.4445313E+01
 1.7117750E+01  2.4407045E+01
 1.7129251E+01  2.4445150E+01
 1.7140751E+01  2.4379745E+01
 1.7152250E+01  2.4352444E+01
 1.7163752E+01  2.4367899E+01
 1.7175251E+01  2.4399805E+01
 1.7186750E+01  2.4474669E+01
 1.7198252E+01  2.4490305E+01
 1.7209751E+01  2.4549904E+01
 1.7221251E+01  2.4521872E+01
 1.7232750E+01  2.4475330E+01
 1.7244251E+01  2.4382069E+01
 1.7255751E+01  2.4323019E+01
 1.7267250E+01  2.4296026E+01
 1.7278751E+01  2.4306864E+01
 1.7290251E+01  2.4308378E+01
 1.7301750E+01  2.4301857E+01
 1.7313251E+01  2.4268417E+01
 1.7324751E+01  2.4227070E+01
 1.7336250E+01  2.4215696E+01
 1.7347752E+01  2.4197302E+01
 1.7359251E+01  2.4256149E+01
 1.7370750E+01  2.4248276E+01
 1.7382252E+01  2.4248926E+01
 1.7393751E+01  2.4204248E+01
 1.7405251E+01  2.4203218E+01
 1.7416750E+01  2.4204931E+01
 1.7428251E+01  2.4163876E+01
 1.7439751E+01  2.4117596E+01
 1.7451250E+01  2.4113544E+01
 1.7462751E+01  2.4136616E+01
 1.7474251E+01  2.4162985E+01
 1.7485750E+01  2.4124954E+01
 1.7497252E+01  2.4089802E+01
 1.7508751E+01  2.4046455E+01
 1.7520250E+01  2.4018089E+01
 1.7531752E+01  2.4001482E+01
 1.7543251E+01  2.4050039E+01
 1.7554750E+01  2.4042866E+01
 1.7566252E+01  2.4019907E+01
 1.7577751E+01  2.3954529E+01
 1.7589251E+01  2.3945122E+01
 1.7600750E+01  2.3962816E+01
 1.7612251E+01  2.3961733E+01
 1.7623751E+01  2.3952192E+01
 1.7635250E+01  2.3886229E+01
 1.7646751E+01  2.3876244E+01
 1.7658251E+01  2.3858683E+01
 1.7669750E+01  2.3877563E+01
 1.7681252E+01  2.3879202E+01
 1.7692751E+01  2.3947407E+01
 1.7704250E+01  2.4010506E+01
 1.7715752E+01  2.4040691E+01
 1.7727251E+01  2.4071333E+01
 1.7738750E+01  2.4054571E+01
 1.7750252E+01  2.4042564E+01
 1.7761751E+01  2.4028858E+01
 1.7773251E+01  2.4098816E+01
 1.7784750E+01  2.4149803E+01
 1.7796251E+01  2.4179758E+01
 1.7807751E+01  2.4114386E+01
 1.7819250E+01  2.4058895E+01
 1.7830751E+01  2.3960381E+01
 1.7842251E+01  2.3931194E+01
 1.7853750E+01  2.3960762E+01
 1.7865252E+01  2.4006458E+01
 1.7876751E+01  2.4038301E+01
 1.7888250E+01  2.3992052E+01
 1.7899752E+01  2.3995586E+01
 1.7911251E+01  2.4072144E+01
 1.7922750E+01  2.4137291E+01
 1.7934252E+01  2.4177633E+01
 1.7945751E+01  2.4223181E+01
 1.7957251E+01  2.4297626E+01
 1.7968750E+01  2.4402300E+01
 1.7980251E+01  2.4664108E+01
 1.7991751E+01  2.5156075E+01
 1.8003250E+01  2.6125383E+01
 1.8014751E+01  2.7446014E+01
 1.8026251E+01  2.9131727E+01
 1.8037750E+01  3.0634089E+01
 1.8049252E+01  3.1855705E+01
 1.8060751E+01  3.2308540E+01
 1.8072250E+01  3.1795713E+01
 1.8083752E+01  3.0333708E+01
 1.8095251E+01  2.9111044E+01
 1.8106750E+01  2.8237190E+01
 1.8118252E+01  2.7947317E+01
 1.8129751E+01  2.7350990E+01
 1.8141251E+01  2.6896774E+01
 1.8152750E+01  2.6134750E+01
 1.8164251E+01  2.5606300E+01
 1.8175751E+01  2.5068527E+01
 1.8187250E+01  2.4687189E+01
 1.8198751E+01  2.4364809E+01
 1.8210251E+01  2.4251633E+01
 1.8221750E+01  2.4127396E+01
 1.8233252E+01  2.4067482E+01
 1.8244751E+01  2.3978155E+01
 1.8256250E+01  2.3881046E+01
 1.8267752E+01  2.3847767E+01
 1.8279251E+01  2.3834349E+01
 1.8290751E+01  2.3848349E+01
 1.8302252E+01  2.3824387E+01
 1.8313751E+01  2.3789154E+01
 1.8325251E+01  2.3722685E+01
 1.8336750E+01  2.3690462E+01
 1.8348251E+01  2.3734039E+01
 1.8359751E+01  2.3832497E+01
 1.8371250E+01  2.3932482E+01
 1.8382751E+01  2.3977091E+01
 1.8394251E+01  2.3969498E+01
 1.8405750E+01  2.3975695E+01
 1.8417252E+01  2.3934196E+01
 1.8428751E+01  2.3840782E+01
 1.8440250E+01  2.3756496E+01
 1.8451752E+01  2.3677656E+01
 1.8463251E+01  2.3655684E+01
 1.8474751E+01  2.3614935E+01
 1.8486252E+01  2.3637939E+01
 1.8497751E+01  2.3612379E+01
 1.8509251E+01  2.3566883E+01
 1.8520750E+01  2.3578617E+01
 1.8532251E+01  2.3612444E+01
 1.8543751E+01  2.3664883E+01
 1.8555250E+01  2.3674444E+01
 1.8566751E+01  2.3646667E+01
 1.8578251E+01  2.3611536E+01
 1.8589750E+01  2.3584614E+01
 1.8601252E+01  2.3593163E+01
 1.8612751E+01  2.3651003E+01
 1.8624250E+01  2.3663660E+01
 1.8635752E+01  2.3673441E+01
 1.8647251E+01  2.3568054E+01
 1.8658751E+01  2.3531757E+01
 1.8670252E+01  2.3493065E+01
 1.8681751E+01  2.3564428E+01
 1.8693251E+01  2.3625139E+01
 1.8704750E+01  2.3676023E+01
 1.8716251E+01  2.3675726E+01
 1.8727751E+01  2.3632683E+01
 1.8739250E+01  2.3582300E+01
 1.8750751E+01  2.3560261E+01
 1.8762251E+01  2.3600618E+01
 1.8773750E+01  2.3613226E+01
 1.8785252E+01  2.3664762E+01
 1.8796751E+01  2.3667383E+01
 1.8808250E+01  2.3669641E+01
 1.8819752E+01  2.3602207E+01
 1.8831251E+01  2.3557938E+01
 1.8842751E+01  2.3506933E+01
 1.8854252E+01  2.3464109E+01
 1.8865751E+01  2.3461071E+01
 1.8877251E+01  2.3449820E+01
 1.8888750E+01  2.3487291E+01
 1.8900251E+01  2.3531044E+01
 1.8911751E+01  2.3600178E+01
 1.8923250E+01  2.3674574E+01
 1.8934752E+01  2.3719934E+01
 1.8946251E+01  2.3756235E+01
 1.8957750E+01  2.3671736E+01
 1.8969252E+01  2.3579203E+01
 1.8980751E+01  2.3508282E+01
 1.8992250E+01  2.3475393E+01
 1.9003752E+01  2.3495453E+01
 1.9015251E+01  2.3500223E+01
 1.9026751E+01  2.3558760E+01
 1.9038252E+01  2.3574955E+01
 1.9049751E+01  2.3594896E+01
 1.9061251E+01  2.3630775E+01
 1.9072750E+01  2.3646837E+01
 1.9084251E+01  2.3621965E+01
 1.9095751E+01  2.3572302E+01
 1.9107250E+01  2.3569313E+01
 1.9118752E+01  2.3585766E+01
 1.9130251E+01  2.3626175E+01
 1.9141750E+01  2.3618618E+01
 1.9153252E+01  2.3624714E+01
 1.9164751E+01  2.3608929E+01
 1.9176250E+01  2.3576468E+01
 1.9187752E+01  2.3613029E+01
 1.9199251E+01  2.3649099E+01
 1.9210751E+01  2.3748402E+01
 1.9222252E+01  2.3768536E+01
 1.9233751E+01  2.3737944E+01
 1.9245251E+01  2.3712294E+01
 1.9256750E+01  2.3684052E+01
 1.9268251E+01  2.3673836E+01
 1.9279751E+01  2.3655001E+01
 1.9291250E+01  2.3678993E+01
 1.9302752E+01  2.3733269E+01
 1.9314251E+01  2.3729681E+01
 1.9325750E+01  2.3765808E+01
 1.9337252E+01  2.3702284E+01
 1.9348751E+01  2.3697538E+01
 1.9360250E+01  2.3648413E+01
 1.9371752E+01  2.3703712E+01
 1.9383251E+01  2.3705053E+01
 1.9394751E+01  2.3745449E+01
 1.9406250E+01  2.3729460E+01
 1.9417751E+01  2.3732676E+01
 1.9429251E+01  2.3701912E+01
 1.9440750E+01  2.3737514E+01
 1.9452251E+01  2.3786015E+01
 1.9463751E+01  2.3826557E+01
 1.9475250E+01  2.3849602E+01
 1.9486752E+01  2.3844769E+01
 1.9498251E+01  2.3806110E+01
 1.9509750E+01  2.3827377E+01
 1.9521252E+01  2.3871861E+01
 1.9532751E+01  2.3967783E+01
 1.9544250E+01  2.3967882E+01
 1.9555752E+01  2.3982269E+01
 1.9567251E+01  2.3992191E+01
 1.9578751E+01  2.4016729E+01
 1.9590250E+01  2.4072432E+01
 1.9601751E+01  2.4150215E+01
 1.9613251E+01  2.4282236E+01
 1.9624750E+01  2.4454517E+01
 1.9636251E+01  2.4679605E+01
 1.9647751E+01  2.4924168E+01
 1.9659250E+01  2.5362162E+01
 1.9670752E+01  2.5905983E+01
 1.9682251E+01  2.6773357E+01
 1.9693750E+01  2.8006596E+01
 1.9705252E+01  2.9503042E+01
 1.9716751E+01  3.2294888E+01
 1.9728251E+01  3.4053619E+01
 1.9739752E+01  3.5518944E+01
 1.9751251E+01  3.4564766E+01
 1.9762751E+01  3.2910496E+01
 1.9774250E+01  3.0564341E+01
 1.9785751E+01  2.8503826E+01
 1.9797251E+01  2.7496260E+01
 1.9808750E+01  2.7207092E+01
 1.9820251E+01  2.7507969E+01
 1.9831751E+01  2.8201138E+01
 1.9843250E+01  2.8928059E+01
 1.9854752E+01  2.9436022E+01
 1.9866251E+01  2.9662447E+01
 1.9877750E+01  2.9358196E+01
 1.9889252E+01  2.8795433E+01
 1.9900751E+01  2.7953447E+01
 1.9912251E+01  2.6990450E+01
 1.9923752E+01  2.6083496E+01
 1.9935251E+01  2.5278387E+01
 1.9946751E+01  2.4788919E+01
 1.9958250E+01  2.4455936E+01
 1.9969751E+01  2.4281147E+01
 1.9981251E+01  2.4135042E+01
 1.9992750E+01  2.4032997E+01
 2.0004251E+01  2.3961502E+01
 2.0015751E+01  2.3918936E+01
 2.0027250E+01  2.3929890E+01
 2.0038752E+01  2.3949732E+01
 2.0050251E+01  2.4018204E+01
 2.0061750E+01  2.4002243E+01
 2.0073252E+01  2.3957907E+01
 2.0084751E+01  2.3881245E+01
 2.0096251E+01  2.3921778E+01
 2.0107752E+01  2.3938410E+01
 2.0119251E+01  2.4011677E+01
 2.0130751E+01  2.3994322E+01
 2.0142250E+01  2.4016336E+01
 2.0153751E+01  2.3955347E+01
 2.0165251E+01  2.3970812E+01
 2.0176750E+01  2.3924089E+01
 2.0188251E+01  2.3908819E+01
 2.0199751E+01  2.3851791E+01
 2.0211250E+01  2.3823950E+01
 2.0222752E+01  2.3822519E+01
 2.0234251E+01  2.3887930E+01
 2.0245750E+01  2.3924379E+01
 2.0257252E+01  2.3912462E+01
 2.0268751E+01  2.3846523E+01
 2.0280251E+01  2.3851816E+01
 2.0291752E+01  2.3839115E+01
 2.0303251E+01  2.3812225E+01
 2.0314751E+01  2.3819717E+01
 2.0326250E+01  2.3863859E+01
 2.0337751E+01  2.3941465E+01
 2.0349251E+01  2.3960325E+01
 2.0360750E+01  2.3959518E+01
 2.0372252E+01  2.3960732E+01
 2.0383751E+01  2.3924383E+01
 2.0395250E+01  2.3964300E+01
 2.0406752E+01  2.3977814E+01
 2.0418251E+01  2.4050293E+01
 2.0429750E+01  2.4071747E+01
 2.0441252E+01  2.4089249E+01
 2.0452751E+01  2.4101048E+01
 2.0464251E+01  2.4074936E+01
 2.0475752E+01  2.4072037E+01
 2.0487251E+01  2.4060408E+01
 2.0498751E+01  2.4126286E+01
 2.0510250E+01  2.4133320E+01
 2.0521751E+01  2.4209064E+01
 2.0533251E+01  2.4219500E+01
 2.0544750E+01  2.4287226E+01
 2.0556252E+01  2.4339983E+01
 2.0567751E+01  2.4355379E+01
 2.0579250E+01  2.4399559E+01
 2.0590752E+01  2.4485117E+01
 2.0602251E+01  2.4619663E+01
 2.0613750E+01  2.4716208E+01
 2.0625252E+01  2.4850965E+01
 2.0636751E+01  2.5034374E+01
 2.0648251E+01  2.5181362E+01
 2.0659752E+01  2.5400974E+01
 2.0671251E+01  2.5764769E+01
 2.0682751E+01  2.6443611E+01
 2.0694250E+01  2.7867142E+01
 2.0705751E+01  2.9680796E+01
 2.0717251E+01  3.3082546E+01
 2.0728750E+01  3.6841099E+01
 2.0740252E+01  3.9757965E+01
 2.0751751E+01  4.3732597E+01
 2.0763250E+01  4.3101524E+01
 2.0774752E+01  4.2451855E+01
 2.0786251E+01  3.8661453E+01
 2.0797750E+01  3.6384529E+01
 2.0809252E+01  3.1795982E+01
 2.0820751E+01  2.9802450E+01
 2.0832251E+01  2.7945070E+01
 2.0843752E+01  2.6252134E+01
 2.0855251E+01  2.5855761E+01
 2.0866751E+01  2.5294607E+01
 2.0878250E+01  2.5128376E+01
 2.0889751E+01  2.4958542E+01
 2.0901251E+01  2.4866703E+01
 2.0912750E+01  2.4819529E+01
 2.0924252E+01  2.4771334E+01
 2.0935751E+01  2.4705818E+01
 2.0947250E+01  2.4592163E+01
 2.0958752E+01  2.4475008E+01
 2.0970251E+01  2.4419947E+01
 2.0981750E+01  2.4385376E+01
 2.0993252E+01  2.4357338E+01
 2.1004751E+01  2.4320408E+01
 2.1016251E+01  2.4243797E+01
 2.1027752E+01  2.4257170E+01
 2.1039251E+01  2.4243431E+01
 2.1050751E+01  2.4255388E+01
 2.1062250E+01  2.4228540E+01
 2.1073751E+01  2.4225025E+01
 2.1085251E+01  2.4196917E+01
 2.1096750E+01  2.4094625E+01
 2.1108252E+01  2.4082762E+01
 2.1119751E+01  2.4076982E+01
 2.1131250E+01  2.4104700E+01
 2.1142752E+01  2.4068022E+01
 2.1154251E+01  2.4038364E+01
 2.1165751E+01  2.4018412E+01
 2.1177252E+01  2.4052910E+01
 2.1188751E+01  2.4025702E+01
 2.1200251E+01  2.4044493E+01
 2.1211752E+01  2.4029228E+01
 2.1223251E+01  2.3992153E+01
 2.1234751E+01  2.3948400E+01
 2.1246250E+01  2.3972532E+01
 2.1257751E+01  2.4035549E+01
 2.1269251E+01  2.4068359E+01
 2.1280750E+01  2.4087194E+01
 2.1292252E+01  2.4080666E+01
 2.1303751E+01  2.4065418E+01
 2.1315250E+01  2.4057272E+01
 2.1326752E+01  2.4035875E+01
 2.1338251E+01  2.4039097E+01
 2.1349751E+01  2.4078745E+01
 2.1361252E+01  2.4125738E+01
 2.1372751E+01  2.4094498E+01
 2.1384251E+01  2.4038740E+01
 2.1395752E+01  2.4050623E+01
 2.1407251E+01  2.4058182E+01
 2.1418751E+01  2.4070765E+01
 2.1430250E+01  2.4064156E+01
 2.1441751E+01  2.4045622E+01
 2.1453251E+01  2.4028072E+01
 2.1464750E+01  2.4025875E+01
 2.1476252E+01  2.4047283E+01
 2.1487751E+01  2.4077351E+01
 2.1499250E+01  2.4066151E+01
 2.1510752E+01  2.4089403E+01
 2.1522251E+01  2.4061489E+01
 2.1533751E+01  2.4049040E+01
 2.1545252E+01  2.4055624E+01
 2.1556751E+01  2.4100008E+01
 2.1568251E+01  2.4165058E+01
 2.1579752E+01  2.4224138E+01
 2.1591251E+01  2.4310562E+01
 2.1602751E+01  2.4308998E+01
 2.1614250E+01  2.4325087E+01
 2.1625751E+01  2.4320972E+01
 2.1637251E+01  2.4270428E+01
 2.1648750E+01  2.4247684E+01
 2.1660252E+01  2.4218409E+01
 2.1671751E+01  2.4211018E+01
 2.1683250E+01  2.4218943E+01
 2.1694752E+01  2.4252193E+01
 2.1706251E+01  2.4274574E+01
 2.1717751E+01  2.4272675E+01
 2.1729252E+01  2.4289295E+01
 2.1740751E+01  2.4322218E+01
 2.1752251E+01  2.4290354E+01
 2.1763752E+01  2.4275433E+01
 2.1775251E+01  2.4245974E+01
 2.1786751E+01  2.4254101E+01
 2.1798250E+01  2.4212326E+01
 2.1809752E+01  2.4216244E+01
 2.1821251E+01  2.4272823E+01
 2.1832750E+01  2.4288649E+01
 2.1844252E+01  2.4251060E+01
 2.1855751E+01  2.4218880E+01
 2.1867250E+01  2.4185532E+01
 2.1878752E+01  2.4220572E+01
 2.1890251E+01  2.4241297E+01
 2.1901751E+01  2.4319632E+01
 2.1913252E+01  2.4347878E+01
 2.1924751E+01  2.4399132E+01
 2.1936251E+01  2.4375694E+01
 2.1947752E+01  2.4387070E+01
 2.1959251E+01  2.4333967E+01
 2.1970751E+01  2.4288971E+01
 2.1982250E+01  2.4244165E+01
 2.1993752E+01  2.4248686E+01
 2.2005251E+01  2.4267635E+01
 2.2016750E+01  2.4311749E+01
 2.2028252E+01  2.4319521E+01
 2.2039751E+01  2.4320341E+01
 2.2051250E+01  2.4323137E+01
 2.2062752E+01  2.4291849E+01
 2.2074251E+01  2.4314465E+01
 2.2085751E+01  2.4329121E+01
 2.2097252E+01  2.4409084E+01
 2.2108751E+01  2.4422199E+01
 2.2120251E+01  2.4473738E+01
 2.2131752E+01  2.4467823E+01
 2.2143251E+01  2.4458344E+01
 2.2154751E+01  2.4378050E+01
 2.2166250E+01  2.4367060E+01
 2.2177752E+01  2.4348204E+01
 2.2189251E+01  2.4358198E+01
 2.2200750E+01  2.4360071E+01
 2.2212252E+01  2.4418827E+01
 2.2223751E+01  2.4491669E+01
 2.2235250E+01  2.4524092E+01
 2.2246752E+01  2.4526423E+01
 2.2258251E+01  2.4510675E+01
 2.2269751E+01  2.4475662E+01
 2.2281252E+01  2.4439928E+01
 2.2292751E+01  2.4441845E+01
 2.2304251E+01  2.4465702E+01
 2.2315752E+01  2.4474449E+01
 2.2327251E+01  2.4499714E+01
 2.2338751E+01  2.4494352E+01
 2.2350250E+01  2.4515753E+01
 2.2361752E+01  2.4525711E+01
 2.2373251E+01  2.4589630E+01
 2.2384750E+01  2.4583717E+01
 2.2396252E+01  2.4594101E+01
 2.2407751E+01  2.4535488E+01
 2.2419250E+01  2.4524347E+01
 2.2430752E+01  2.4550650E+01
 2.2442251E+01  2.4627041E+01
 2.2453751E+01  2.4710556E+01
 2.2465252E+01  2.4746008E+01
 2.2476751E+01  2.4776421E+01
 2.2488251E+01  2.4817726E+01
 2.2499752E+01  2.4817869E+01
 2.2511251E+01  2.4818155E+01
 2.2522751E+01  2.4808868E+01
 2.2534250E+01  2.4817766E+01
 2.2545752E+01  2.4844757E+01
 2.2557251E+01  2.4835573E+01
 2.2568750E+01  2.4883963E+01
 2.2580252E+01  2.4899933E+01
 2.2591751E+01  2.4960281E+01
 2.2603251E+01  2.4992817E+01
 2.2614752E+01  2.5003141E+01
 2.2626251E+01  2.5060753E+01
 2.2637751E+01  2.5083870E+01
 2.2649252E+01  2.5112423E+01
 2.2660751E+01  2.5098370E+01
 2.2672251E+01  2.5123674E+01
 2.2683752E+01  2.5171621E+01
 2.2695251E+01  2.5211611E+01
 2.2706751E+01  2.5208452E+01
 2.2718250E+01  2.5220066E+01
 2.2729752E+01  2.5244352E+01
 2.2741251E+01  2.5275320E+01
 2.2752750E+01  2.5259945E+01
 2.2764252E+01  2.5308851E+01
 2.2775751E+01  2.5336729E+01
 2.2787251E+01  2.5298464E+01
 2.2798752E+01  2.5329954E+01
 2.2810251E+01  2.5373642E+01
 2.2821751E+01  2.5443256E+01
 2.2833252E+01  2.5541481E+01
 2.2844751E+01  2.5635538E+01
 2.2856251E+01  2.5663313E+01
 2.2867750E+01  2.5649809E+01
 2.2879251E+01  2.5659496E+01
 2.2890751E+01  2.5721317E+01
 2.2902250E+01  2.5780563E+01
 2.2913752E+01  2.5891228E+01
 2.2925251E+01  2.5944275E+01
 2.2936750E+01  2.5975693E+01
 2.2948252E+01  2.6085161E+01
 2.2959751E+01  2.6160378E+01
 2.2971251E+01  2.6245764E+01
 2.2982752E+01  2.6283567E+01
 2.2994251E+01  2.6354668E+01
