F:\20151113_APS_34IDE\\Brian\Particle1\OCV\Data_0006.tif
2-Theta Angle (Degrees)
Intensity
       2000
 5.7500005E-03  0.0000000E+00
 1.7250001E-02  0.0000000E+00
 2.8750001E-02  0.0000000E+00
 4.0250003E-02  0.0000000E+00
 5.1750004E-02  0.0000000E+00
 6.3250005E-02  0.0000000E+00
 7.4750006E-02  0.0000000E+00
 8.6250007E-02  0.0000000E+00
 9.7750008E-02  0.0000000E+00
 1.0925001E-01  0.0000000E+00
 1.2075000E-01  0.0000000E+00
 1.3225001E-01  0.0000000E+00
 1.4375001E-01  0.0000000E+00
 1.5525001E-01  0.0000000E+00
 1.6675001E-01  0.0000000E+00
 1.7825001E-01  0.0000000E+00
 1.8975002E-01  0.0000000E+00
 2.0125002E-01  0.0000000E+00
 2.1275002E-01  0.0000000E+00
 2.2425000E-01  0.0000000E+00
 2.3575000E-01  0.0000000E+00
 2.4725001E-01  0.0000000E+00
 2.5875002E-01  0.0000000E+00
 2.7025002E-01  0.0000000E+00
 2.8175002E-01  0.0000000E+00
 2.9325002E-01  0.0000000E+00
 3.0475003E-01  0.0000000E+00
 3.1625003E-01  0.0000000E+00
 3.2775003E-01  0.0000000E+00
 3.3925003E-01  0.0000000E+00
 3.5075003E-01  0.0000000E+00
 3.6225003E-01  0.0000000E+00
 3.7375003E-01  0.0000000E+00
 3.8525003E-01  0.0000000E+00
 3.9675003E-01  0.0000000E+00
 4.0825003E-01  0.0000000E+00
 4.1975003E-01  0.0000000E+00
 4.3125004E-01  0.0000000E+00
 4.4275001E-01  0.0000000E+00
 4.5425001E-01  0.0000000E+00
 4.6575001E-01  0.0000000E+00
 4.7725001E-01  0.0000000E+00
 4.8875001E-01  0.0000000E+00
 5.0025004E-01  0.0000000E+00
 5.1175004E-01  0.0000000E+00
 5.2325004E-01  0.0000000E+00
 5.3475004E-01  0.0000000E+00
 5.4625005E-01  0.0000000E+00
 5.5775005E-01  0.0000000E+00
 5.6925005E-01  0.0000000E+00
 5.8075005E-01  0.0000000E+00
 5.9225005E-01  0.0000000E+00
 6.0375005E-01  0.0000000E+00
 6.1525005E-01  0.0000000E+00
 6.2675005E-01  0.0000000E+00
 6.3825005E-01  0.0000000E+00
 6.4975005E-01  0.0000000E+00
 6.6125005E-01  0.0000000E+00
 6.7275006E-01  0.0000000E+00
 6.8425006E-01  0.0000000E+00
 6.9575006E-01  0.0000000E+00
 7.0725006E-01  0.0000000E+00
 7.1875006E-01  0.0000000E+00
 7.3025006E-01  0.0000000E+00
 7.4175006E-01  0.0000000E+00
 7.5325006E-01  0.0000000E+00
 7.6475006E-01  0.0000000E+00
 7.7625006E-01  0.0000000E+00
 7.8775007E-01  0.0000000E+00
 7.9925007E-01  0.0000000E+00
 8.1075007E-01  0.0000000E+00
 8.2225007E-01  0.0000000E+00
 8.3375007E-01  0.0000000E+00
 8.4525007E-01  0.0000000E+00
 8.5675007E-01  0.0000000E+00
 8.6825007E-01  0.0000000E+00
 8.7975001E-01  0.0000000E+00
 8.9125001E-01  0.0000000E+00
 9.0275002E-01  0.0000000E+00
 9.1425002E-01  0.0000000E+00
 9.2575002E-01  0.0000000E+00
 9.3725002E-01  0.0000000E+00
 9.4875002E-01  0.0000000E+00
 9.6025002E-01  0.0000000E+00
 9.7175002E-01  0.0000000E+00
 9.8325002E-01  0.0000000E+00
 9.9475002E-01  0.0000000E+00
 1.0062500E+00  0.0000000E+00
 1.0177500E+00  0.0000000E+00
 1.0292500E+00  0.0000000E+00
 1.0407500E+00  0.0000000E+00
 1.0522500E+00  0.0000000E+00
 1.0637500E+00  0.0000000E+00
 1.0752500E+00  0.0000000E+00
 1.0867500E+00  0.0000000E+00
 1.0982500E+00  0.0000000E+00
 1.1097500E+00  0.0000000E+00
 1.1212500E+00  0.0000000E+00
 1.1327500E+00  0.0000000E+00
 1.1442500E+00  0.0000000E+00
 1.1557500E+00  0.0000000E+00
 1.1672500E+00  0.0000000E+00
 1.1787500E+00  0.0000000E+00
 1.1902500E+00  0.0000000E+00
 1.2017500E+00  0.0000000E+00
 1.2132500E+00  0.0000000E+00
 1.2247500E+00  0.0000000E+00
 1.2362500E+00  0.0000000E+00
 1.2477500E+00  0.0000000E+00
 1.2592500E+00  0.0000000E+00
 1.2707500E+00  0.0000000E+00
 1.2822500E+00  0.0000000E+00
 1.2937500E+00  0.0000000E+00
 1.3052500E+00  0.0000000E+00
 1.3167500E+00  0.0000000E+00
 1.3282501E+00  0.0000000E+00
 1.3397501E+00  0.0000000E+00
 1.3512501E+00  0.0000000E+00
 1.3627501E+00  0.0000000E+00
 1.3742501E+00  0.0000000E+00
 1.3857501E+00  0.0000000E+00
 1.3972501E+00  0.0000000E+00
 1.4087501E+00  0.0000000E+00
 1.4202501E+00  0.0000000E+00
 1.4317501E+00  0.0000000E+00
 1.4432501E+00  0.0000000E+00
 1.4547501E+00  0.0000000E+00
 1.4662501E+00  0.0000000E+00
 1.4777501E+00  0.0000000E+00
 1.4892501E+00  0.0000000E+00
 1.5007501E+00  0.0000000E+00
 1.5122501E+00  0.0000000E+00
 1.5237501E+00  0.0000000E+00
 1.5352501E+00  0.0000000E+00
 1.5467501E+00  0.0000000E+00
 1.5582501E+00  0.0000000E+00
 1.5697501E+00  0.0000000E+00
 1.5812501E+00  0.0000000E+00
 1.5927501E+00  0.0000000E+00
 1.6042501E+00  0.0000000E+00
 1.6157501E+00  0.0000000E+00
 1.6272501E+00  0.0000000E+00
 1.6387501E+00  0.0000000E+00
 1.6502501E+00  0.0000000E+00
 1.6617501E+00  0.0000000E+00
 1.6732501E+00  0.0000000E+00
 1.6847501E+00  0.0000000E+00
 1.6962501E+00  0.0000000E+00
 1.7077501E+00  0.0000000E+00
 1.7192501E+00  0.0000000E+00
 1.7307501E+00  0.0000000E+00
 1.7422501E+00  0.0000000E+00
 1.7537501E+00  0.0000000E+00
 1.7652501E+00  0.0000000E+00
 1.7767501E+00  0.0000000E+00
 1.7882501E+00  0.0000000E+00
 1.7997501E+00  0.0000000E+00
 1.8112501E+00  0.0000000E+00
 1.8227501E+00  0.0000000E+00
 1.8342501E+00  0.0000000E+00
 1.8457501E+00  0.0000000E+00
 1.8572501E+00  0.0000000E+00
 1.8687501E+00  0.0000000E+00
 1.8802501E+00  0.0000000E+00
 1.8917501E+00  0.0000000E+00
 1.9032501E+00  0.0000000E+00
 1.9147501E+00  0.0000000E+00
 1.9262501E+00  0.0000000E+00
 1.9377501E+00  0.0000000E+00
 1.9492501E+00  0.0000000E+00
 1.9607501E+00  0.0000000E+00
 1.9722501E+00  0.0000000E+00
 1.9837501E+00  0.0000000E+00
 1.9952501E+00  0.0000000E+00
 2.0067501E+00  0.0000000E+00
 2.0182500E+00  0.0000000E+00
 2.0297501E+00  0.0000000E+00
 2.0412500E+00  0.0000000E+00
 2.0527501E+00  0.0000000E+00
 2.0642500E+00  0.0000000E+00
 2.0757501E+00  0.0000000E+00
 2.0872500E+00  0.0000000E+00
 2.0987501E+00  0.0000000E+00
 2.1102500E+00  0.0000000E+00
 2.1217501E+00  0.0000000E+00
 2.1332500E+00  0.0000000E+00
 2.1447501E+00  0.0000000E+00
 2.1562500E+00  0.0000000E+00
 2.1677501E+00  0.0000000E+00
 2.1792500E+00  0.0000000E+00
 2.1907501E+00  0.0000000E+00
 2.2022500E+00  0.0000000E+00
 2.2137501E+00  0.0000000E+00
 2.2252500E+00  0.0000000E+00
 2.2367501E+00  0.0000000E+00
 2.2482500E+00  0.0000000E+00
 2.2597501E+00  0.0000000E+00
 2.2712500E+00  0.0000000E+00
 2.2827501E+00  0.0000000E+00
 2.2942500E+00  0.0000000E+00
 2.3057501E+00  0.0000000E+00
 2.3172500E+00  0.0000000E+00
 2.3287501E+00  0.0000000E+00
 2.3402500E+00  0.0000000E+00
 2.3517501E+00  0.0000000E+00
 2.3632500E+00  0.0000000E+00
 2.3747501E+00  0.0000000E+00
 2.3862500E+00  0.0000000E+00
 2.3977501E+00  0.0000000E+00
 2.4092500E+00  0.0000000E+00
 2.4207501E+00  0.0000000E+00
 2.4322500E+00  0.0000000E+00
 2.4437501E+00  0.0000000E+00
 2.4552500E+00  0.0000000E+00
 2.4667501E+00  0.0000000E+00
 2.4782500E+00  0.0000000E+00
 2.4897501E+00  0.0000000E+00
 2.5012500E+00  0.0000000E+00
 2.5127501E+00  0.0000000E+00
 2.5242500E+00  0.0000000E+00
 2.5357502E+00  0.0000000E+00
 2.5472500E+00  0.0000000E+00
 2.5587502E+00  0.0000000E+00
 2.5702500E+00  0.0000000E+00
 2.5817502E+00  0.0000000E+00
 2.5932500E+00  0.0000000E+00
 2.6047502E+00  0.0000000E+00
 2.6162500E+00  0.0000000E+00
 2.6277502E+00  0.0000000E+00
 2.6392500E+00  0.0000000E+00
 2.6507502E+00  0.0000000E+00
 2.6622500E+00  0.0000000E+00
 2.6737502E+00  0.0000000E+00
 2.6852500E+00  0.0000000E+00
 2.6967502E+00  0.0000000E+00
 2.7082500E+00  0.0000000E+00
 2.7197502E+00  0.0000000E+00
 2.7312500E+00  0.0000000E+00
 2.7427502E+00  0.0000000E+00
 2.7542500E+00  0.0000000E+00
 2.7657502E+00  0.0000000E+00
 2.7772501E+00  0.0000000E+00
 2.7887502E+00  0.0000000E+00
 2.8002501E+00  0.0000000E+00
 2.8117502E+00  0.0000000E+00
 2.8232501E+00  3.3267654E+01
 2.8347502E+00  3.4434246E+01
 2.8462501E+00  3.4430119E+01
 2.8577502E+00  3.4396412E+01
 2.8692501E+00  3.4109943E+01
 2.8807502E+00  3.4414494E+01
 2.8922501E+00  3.4371716E+01
 2.9037502E+00  3.4424446E+01
 2.9152501E+00  3.4491749E+01
 2.9267502E+00  3.4750282E+01
 2.9382501E+00  3.4940434E+01
 2.9497502E+00  3.5458920E+01
 2.9612501E+00  3.5355293E+01
 2.9727502E+00  3.5904442E+01
 2.9842501E+00  3.5853802E+01
 2.9957502E+00  3.6097996E+01
 3.0072501E+00  3.6184570E+01
 3.0187502E+00  3.5927223E+01
 3.0302501E+00  3.5743553E+01
 3.0417502E+00  3.5687603E+01
 3.0532501E+00  3.5695087E+01
 3.0647502E+00  3.6111801E+01
 3.0762501E+00  3.5738579E+01
 3.0877502E+00  3.5751186E+01
 3.0992501E+00  3.5282734E+01
 3.1107502E+00  3.5107563E+01
 3.1222501E+00  3.4973759E+01
 3.1337502E+00  3.4965477E+01
 3.1452501E+00  3.5271778E+01
 3.1567502E+00  3.5388519E+01
 3.1682501E+00  3.5499310E+01
 3.1797502E+00  3.5096272E+01
 3.1912501E+00  3.4953476E+01
 3.2027502E+00  3.4862164E+01
 3.2142501E+00  3.5054234E+01
 3.2257502E+00  3.5230740E+01
 3.2372501E+00  3.5326878E+01
 3.2487502E+00  3.5547340E+01
 3.2602501E+00  3.5748405E+01
 3.2717502E+00  3.5913456E+01
 3.2832501E+00  3.5712952E+01
 3.2947502E+00  3.5658955E+01
 3.3062501E+00  3.5284081E+01
 3.3177502E+00  3.5201412E+01
 3.3292501E+00  3.4947723E+01
 3.3407502E+00  3.4757351E+01
 3.3522501E+00  3.4826633E+01
 3.3637502E+00  3.4654369E+01
 3.3752501E+00  3.4772282E+01
 3.3867502E+00  3.4550198E+01
 3.3982501E+00  3.4501797E+01
 3.4097502E+00  3.4409389E+01
 3.4212501E+00  3.4416847E+01
 3.4327502E+00  3.4530449E+01
 3.4442501E+00  3.4582100E+01
 3.4557502E+00  3.4736134E+01
 3.4672501E+00  3.4676014E+01
 3.4787502E+00  3.4461586E+01
 3.4902501E+00  3.4015457E+01
 3.5017502E+00  3.3721767E+01
 3.5132501E+00  3.3508232E+01
 3.5247502E+00  3.3440269E+01
 3.5362501E+00  3.3427624E+01
 3.5477502E+00  3.3681580E+01
 3.5592501E+00  3.3859558E+01
 3.5707502E+00  3.3847839E+01
 3.5822501E+00  3.3997040E+01
 3.5937502E+00  3.4169758E+01
 3.6052501E+00  3.4131744E+01
 3.6167502E+00  3.4031971E+01
 3.6282501E+00  3.3901657E+01
 3.6397502E+00  3.3981552E+01
 3.6512501E+00  3.3833126E+01
 3.6627502E+00  3.3783142E+01
 3.6742501E+00  3.3660686E+01
 3.6857502E+00  3.3634029E+01
 3.6972501E+00  3.3576355E+01
 3.7087502E+00  3.3609615E+01
 3.7202501E+00  3.3738663E+01
 3.7317502E+00  3.3609673E+01
 3.7432501E+00  3.3922485E+01
 3.7547503E+00  3.3890858E+01
 3.7662501E+00  3.3869537E+01
 3.7777503E+00  3.3540554E+01
 3.7892501E+00  3.3471329E+01
 3.8007503E+00  3.3180889E+01
 3.8122501E+00  3.2943584E+01
 3.8237503E+00  3.2595364E+01
 3.8352501E+00  3.2509182E+01
 3.8467503E+00  3.2450840E+01
 3.8582501E+00  3.2541088E+01
 3.8697503E+00  3.2776119E+01
 3.8812501E+00  3.2953430E+01
 3.8927503E+00  3.2969650E+01
 3.9042501E+00  3.2872574E+01
 3.9157503E+00  3.2785835E+01
 3.9272501E+00  3.2768112E+01
 3.9387503E+00  3.2950264E+01
 3.9502501E+00  3.3015903E+01
 3.9617503E+00  3.3271019E+01
 3.9732502E+00  3.3336864E+01
 3.9847503E+00  3.3400631E+01
 3.9962502E+00  3.3409054E+01
 4.0077500E+00  3.3080219E+01
 4.0192504E+00  3.2930485E+01
 4.0307503E+00  3.2644264E+01
 4.0422502E+00  3.2552830E+01
 4.0537500E+00  3.2450333E+01
 4.0652504E+00  3.2470398E+01
 4.0767503E+00  3.2544659E+01
 4.0882502E+00  3.2785538E+01
 4.0997500E+00  3.2851223E+01
 4.1112504E+00  3.2873524E+01
 4.1227503E+00  3.2776417E+01
 4.1342502E+00  3.2878468E+01
 4.1457500E+00  3.3081905E+01
 4.1572504E+00  3.2920033E+01
 4.1687503E+00  3.2823326E+01
 4.1802502E+00  3.2475887E+01
 4.1917500E+00  3.2407440E+01
 4.2032504E+00  3.2181454E+01
 4.2147503E+00  3.2096405E+01
 4.2262502E+00  3.2191334E+01
 4.2377501E+00  3.2274570E+01
 4.2492504E+00  3.2330208E+01
 4.2607503E+00  3.2400173E+01
 4.2722502E+00  3.2357216E+01
 4.2837501E+00  3.2364811E+01
 4.2952504E+00  3.2301079E+01
 4.3067503E+00  3.2336895E+01
 4.3182502E+00  3.2310665E+01
 4.3297501E+00  3.2319965E+01
 4.3412504E+00  3.2324127E+01
 4.3527503E+00  3.2301838E+01
 4.3642502E+00  3.2350292E+01
 4.3757501E+00  3.2483292E+01
 4.3872504E+00  3.2669468E+01
 4.3987503E+00  3.2717136E+01
 4.4102502E+00  3.2778812E+01
 4.4217501E+00  3.2615593E+01
 4.4332504E+00  3.2601505E+01
 4.4447503E+00  3.2305862E+01
 4.4562502E+00  3.2344948E+01
 4.4677501E+00  3.2296398E+01
 4.4792504E+00  3.2535793E+01
 4.4907503E+00  3.2481606E+01
 4.5022502E+00  3.2537964E+01
 4.5137501E+00  3.2394470E+01
 4.5252504E+00  3.2440010E+01
 4.5367503E+00  3.2362751E+01
 4.5482502E+00  3.2407253E+01
 4.5597501E+00  3.2355766E+01
 4.5712504E+00  3.2255001E+01
 4.5827503E+00  3.2191048E+01
 4.5942502E+00  3.2255741E+01
 4.6057501E+00  3.2445488E+01
 4.6172504E+00  3.2713940E+01
 4.6287503E+00  3.2800880E+01
 4.6402502E+00  3.2950077E+01
 4.6517501E+00  3.3013844E+01
 4.6632504E+00  3.3127834E+01
 4.6747503E+00  3.3223122E+01
 4.6862502E+00  3.3226887E+01
 4.6977501E+00  3.3312725E+01
 4.7092505E+00  3.3328079E+01
 4.7207503E+00  3.3355209E+01
 4.7322502E+00  3.3319611E+01
 4.7437501E+00  3.3238712E+01
 4.7552505E+00  3.3005966E+01
 4.7667503E+00  3.2953564E+01
 4.7782502E+00  3.2865238E+01
 4.7897501E+00  3.2881359E+01
 4.8012505E+00  3.2772713E+01
 4.8127503E+00  3.2770710E+01
 4.8242502E+00  3.2841614E+01
 4.8357501E+00  3.2923893E+01
 4.8472505E+00  3.2830505E+01
 4.8587503E+00  3.2786736E+01
 4.8702502E+00  3.2678391E+01
 4.8817501E+00  3.2693714E+01
 4.8932505E+00  3.2685596E+01
 4.9047503E+00  3.2817810E+01
 4.9162502E+00  3.2959011E+01
 4.9277501E+00  3.3077938E+01
 4.9392505E+00  3.3176540E+01
 4.9507504E+00  3.3160854E+01
 4.9622502E+00  3.3022888E+01
 4.9737501E+00  3.2922462E+01
 4.9852505E+00  3.2899338E+01
 4.9967504E+00  3.2930874E+01
 5.0082502E+00  3.3088043E+01
 5.0197501E+00  3.3213764E+01
 5.0312505E+00  3.3463074E+01
 5.0427504E+00  3.3654957E+01
 5.0542502E+00  3.3604191E+01
 5.0657501E+00  3.3551369E+01
 5.0772505E+00  3.3405224E+01
 5.0887504E+00  3.3480358E+01
 5.1002502E+00  3.3572765E+01
 5.1117501E+00  3.3657814E+01
 5.1232505E+00  3.3727818E+01
 5.1347504E+00  3.3861031E+01
 5.1462502E+00  3.3917957E+01
 5.1577501E+00  3.3916843E+01
 5.1692505E+00  3.3880348E+01
 5.1807504E+00  3.3953316E+01
 5.1922503E+00  3.4066452E+01
 5.2037501E+00  3.4170048E+01
 5.2152505E+00  3.4055805E+01
 5.2267504E+00  3.4022770E+01
 5.2382503E+00  3.3934677E+01
 5.2497501E+00  3.3882290E+01
 5.2612505E+00  3.3933296E+01
 5.2727504E+00  3.3866714E+01
 5.2842503E+00  3.3888309E+01
 5.2957501E+00  3.3849998E+01
 5.3072500E+00  3.3809044E+01
 5.3187504E+00  3.3871933E+01
 5.3302503E+00  3.3945827E+01
 5.3417501E+00  3.4095638E+01
 5.3532500E+00  3.4190262E+01
 5.3647504E+00  3.4295834E+01
 5.3762503E+00  3.4442898E+01
 5.3877501E+00  3.4656067E+01
 5.3992500E+00  3.4742886E+01
 5.4107504E+00  3.4702003E+01
 5.4222503E+00  3.4692902E+01
 5.4337502E+00  3.4447472E+01
 5.4452500E+00  3.4533546E+01
 5.4567504E+00  3.4536144E+01
 5.4682503E+00  3.4740166E+01
 5.4797502E+00  3.4798023E+01
 5.4912500E+00  3.4788544E+01
 5.5027504E+00  3.4840797E+01
 5.5142503E+00  3.4908218E+01
 5.5257502E+00  3.4972694E+01
 5.5372500E+00  3.4958004E+01
 5.5487504E+00  3.4913021E+01
 5.5602503E+00  3.5003166E+01
 5.5717502E+00  3.5067966E+01
 5.5832500E+00  3.5168900E+01
 5.5947504E+00  3.5187920E+01
 5.6062503E+00  3.5243080E+01
 5.6177502E+00  3.5135334E+01
 5.6292500E+00  3.5051071E+01
 5.6407504E+00  3.5048695E+01
 5.6522503E+00  3.5190094E+01
 5.6637502E+00  3.5411526E+01
 5.6752501E+00  3.5564823E+01
 5.6867504E+00  3.5548790E+01
 5.6982503E+00  3.5499355E+01
 5.7097502E+00  3.5425594E+01
 5.7212501E+00  3.5483139E+01
 5.7327504E+00  3.5473446E+01
 5.7442503E+00  3.5511650E+01
 5.7557502E+00  3.5496864E+01
 5.7672501E+00  3.5499035E+01
 5.7787504E+00  3.5478477E+01
 5.7902503E+00  3.5611946E+01
 5.8017502E+00  3.5718941E+01
 5.8132501E+00  3.5980762E+01
 5.8247504E+00  3.6112923E+01
 5.8362503E+00  3.6229382E+01
 5.8477502E+00  3.6216118E+01
 5.8592501E+00  3.6187515E+01
 5.8707504E+00  3.6274513E+01
 5.8822503E+00  3.6377907E+01
 5.8937502E+00  3.6632889E+01
 5.9052501E+00  3.6890995E+01
 5.9167504E+00  3.7065228E+01
 5.9282503E+00  3.7459625E+01
 5.9397502E+00  3.7995789E+01
 5.9512501E+00  3.9119343E+01
 5.9627504E+00  4.0554306E+01
 5.9742503E+00  4.1203743E+01
 5.9857502E+00  4.1960281E+01
 5.9972501E+00  4.1261513E+01
 6.0087504E+00  4.0800694E+01
 6.0202503E+00  3.9564720E+01
 6.0317502E+00  3.8679993E+01
 6.0432501E+00  3.7917202E+01
 6.0547504E+00  3.7348511E+01
 6.0662503E+00  3.7013130E+01
 6.0777502E+00  3.6831837E+01
 6.0892501E+00  3.6759998E+01
 6.1007504E+00  3.6803802E+01
 6.1122503E+00  3.6879520E+01
 6.1237502E+00  3.7036777E+01
 6.1352501E+00  3.6960369E+01
 6.1467505E+00  3.6955948E+01
 6.1582503E+00  3.7057152E+01
 6.1697502E+00  3.7124046E+01
 6.1812501E+00  3.7239258E+01
 6.1927505E+00  3.7212574E+01
 6.2042503E+00  3.7253815E+01
 6.2157502E+00  3.7374866E+01
 6.2272501E+00  3.7449852E+01
 6.2387505E+00  3.7448349E+01
 6.2502503E+00  3.7610378E+01
 6.2617502E+00  3.7612820E+01
 6.2732501E+00  3.7858997E+01
 6.2847505E+00  3.7914795E+01
 6.2962503E+00  3.8004997E+01
 6.3077502E+00  3.7921188E+01
 6.3192501E+00  3.7799419E+01
 6.3307505E+00  3.7737991E+01
 6.3422503E+00  3.7774799E+01
 6.3537502E+00  3.7754749E+01
 6.3652501E+00  3.7940514E+01
 6.3767505E+00  3.8118195E+01
 6.3882504E+00  3.8340378E+01
 6.3997502E+00  3.8443283E+01
 6.4112501E+00  3.8576004E+01
 6.4227505E+00  3.8584167E+01
 6.4342504E+00  3.8583775E+01
 6.4457502E+00  3.8560108E+01
 6.4572501E+00  3.8626629E+01
 6.4687505E+00  3.8749496E+01
 6.4802504E+00  3.8842007E+01
 6.4917502E+00  3.8918064E+01
 6.5032501E+00  3.9111298E+01
 6.5147505E+00  3.9246090E+01
 6.5262504E+00  3.9436974E+01
 6.5377502E+00  3.9499134E+01
 6.5492501E+00  3.9395226E+01
 6.5607505E+00  3.9421959E+01
 6.5722504E+00  3.9370529E+01
 6.5837502E+00  3.9535542E+01
 6.5952501E+00  3.9593430E+01
 6.6067505E+00  3.9791824E+01
 6.6182504E+00  3.9862724E+01
 6.6297503E+00  4.0027203E+01
 6.6412501E+00  4.0084660E+01
 6.6527505E+00  4.0190956E+01
 6.6642504E+00  4.0264034E+01
 6.6757503E+00  4.0260567E+01
 6.6872501E+00  4.0324108E+01
 6.6987505E+00  4.0412983E+01
 6.7102504E+00  4.0510288E+01
 6.7217503E+00  4.0648357E+01
 6.7332501E+00  4.0729492E+01
 6.7447505E+00  4.0841728E+01
 6.7562504E+00  4.0932022E+01
 6.7677503E+00  4.0977161E+01
 6.7792501E+00  4.1026375E+01
 6.7907505E+00  4.1015224E+01
 6.8022504E+00  4.1216434E+01
 6.8137503E+00  4.1244877E+01
 6.8252501E+00  4.1345421E+01
 6.8367505E+00  4.1351387E+01
 6.8482504E+00  4.1517975E+01
 6.8597503E+00  4.1627754E+01
 6.8712502E+00  4.1719044E+01
 6.8827505E+00  4.1767078E+01
 6.8942504E+00  4.1836864E+01
 6.9057503E+00  4.1812424E+01
 6.9172502E+00  4.1872776E+01
 6.9287505E+00  4.1965324E+01
 6.9402504E+00  4.2186745E+01
 6.9517503E+00  4.2289280E+01
 6.9632502E+00  4.2441799E+01
 6.9747505E+00  4.2509430E+01
 6.9862504E+00  4.2579323E+01
 6.9977503E+00  4.2648682E+01
 7.0092502E+00  4.2695477E+01
 7.0207505E+00  4.2764183E+01
 7.0322504E+00  4.2827522E+01
 7.0437503E+00  4.2793427E+01
 7.0552502E+00  4.2827591E+01
 7.0667505E+00  4.2846584E+01
 7.0782504E+00  4.2870777E+01
 7.0897503E+00  4.2991985E+01
 7.1012502E+00  4.3003540E+01
 7.1127505E+00  4.3120350E+01
 7.1242504E+00  4.3150703E+01
 7.1357503E+00  4.3287941E+01
 7.1472502E+00  4.3390652E+01
 7.1587505E+00  4.3582283E+01
 7.1702504E+00  4.3713745E+01
 7.1817503E+00  4.3894695E+01
 7.1932502E+00  4.3930523E+01
 7.2047505E+00  4.3949398E+01
 7.2162504E+00  4.3887497E+01
 7.2277503E+00  4.3876431E+01
 7.2392502E+00  4.3832962E+01
 7.2507505E+00  4.3882019E+01
 7.2622504E+00  4.3914501E+01
 7.2737503E+00  4.3989239E+01
 7.2852502E+00  4.4049786E+01
 7.2967505E+00  4.4025845E+01
 7.3082504E+00  4.4023891E+01
 7.3197503E+00  4.4039783E+01
 7.3312502E+00  4.4053352E+01
 7.3427505E+00  4.4045624E+01
 7.3542504E+00  4.3998169E+01
 7.3657503E+00  4.4103283E+01
 7.3772502E+00  4.4203568E+01
 7.3887506E+00  4.4252960E+01
 7.4002504E+00  4.4207298E+01
 7.4117503E+00  4.4360195E+01
 7.4232502E+00  4.4314507E+01
 7.4347506E+00  4.4469563E+01
 7.4462504E+00  4.4424080E+01
 7.4577503E+00  4.4453129E+01
 7.4692502E+00  4.4512119E+01
 7.4807506E+00  4.4591633E+01
 7.4922504E+00  4.4719337E+01
 7.5037503E+00  4.4682308E+01
 7.5152502E+00  4.4574524E+01
 7.5267506E+00  4.4499584E+01
 7.5382504E+00  4.4531918E+01
 7.5497503E+00  4.4490269E+01
 7.5612502E+00  4.4553993E+01
 7.5727506E+00  4.4595036E+01
 7.5842505E+00  4.4668934E+01
 7.5957503E+00  4.4703754E+01
 7.6072502E+00  4.4655952E+01
 7.6187506E+00  4.4633213E+01
 7.6302505E+00  4.4601086E+01
 7.6417503E+00  4.4635056E+01
 7.6532502E+00  4.4612289E+01
 7.6647506E+00  4.4660618E+01
 7.6762505E+00  4.4605213E+01
 7.6877503E+00  4.4549782E+01
 7.6992502E+00  4.4486862E+01
 7.7107506E+00  4.4403629E+01
 7.7222505E+00  4.4381031E+01
 7.7337503E+00  4.4299633E+01
 7.7452502E+00  4.4339287E+01
 7.7567506E+00  4.4361397E+01
 7.7682505E+00  4.4402355E+01
 7.7797503E+00  4.4375095E+01
 7.7912502E+00  4.4417381E+01
 7.8027506E+00  4.4445133E+01
 7.8142505E+00  4.4403206E+01
 7.8257504E+00  4.4340729E+01
 7.8372502E+00  4.4336433E+01
 7.8487506E+00  4.4347595E+01
 7.8602505E+00  4.4331406E+01
 7.8717504E+00  4.4349846E+01
 7.8832502E+00  4.4345856E+01
 7.8947506E+00  4.4386959E+01
 7.9062505E+00  4.4330887E+01
 7.9177504E+00  4.4416737E+01
 7.9292502E+00  4.4285229E+01
 7.9407506E+00  4.4261677E+01
 7.9522505E+00  4.4107960E+01
 7.9637504E+00  4.4088108E+01
 7.9752502E+00  4.3893478E+01
 7.9867506E+00  4.3800655E+01
 7.9982505E+00  4.3739586E+01
 8.0097504E+00  4.3708992E+01
 8.0212507E+00  4.3638748E+01
 8.0327501E+00  4.3681999E+01
 8.0442505E+00  4.3780350E+01
 8.0557508E+00  4.3822456E+01
 8.0672503E+00  4.3751728E+01
 8.0787506E+00  4.3653427E+01
 8.0902500E+00  4.3640484E+01
 8.1017504E+00  4.3470997E+01
 8.1132507E+00  4.3417175E+01
 8.1247501E+00  4.3175201E+01
 8.1362505E+00  4.3010265E+01
 8.1477509E+00  4.2754173E+01
 8.1592503E+00  4.2574364E+01
 8.1707506E+00  4.2513329E+01
 8.1822500E+00  4.2410923E+01
 8.1937504E+00  4.2383430E+01
 8.2052507E+00  4.2239147E+01
 8.2167501E+00  4.2186001E+01
 8.2282505E+00  4.1975651E+01
 8.2397509E+00  4.1862019E+01
 8.2512503E+00  4.1668839E+01
 8.2627506E+00  4.1547073E+01
 8.2742500E+00  4.1384945E+01
 8.2857504E+00  4.1287022E+01
 8.2972507E+00  4.1164982E+01
 8.3087502E+00  4.1057743E+01
 8.3202505E+00  4.0876019E+01
 8.3317509E+00  4.0782932E+01
 8.3432503E+00  4.0700920E+01
 8.3547506E+00  4.0588856E+01
 8.3662500E+00  4.0456177E+01
 8.3777504E+00  4.0252884E+01
 8.3892508E+00  4.0079102E+01
 8.4007502E+00  3.9910339E+01
 8.4122505E+00  3.9745987E+01
 8.4237509E+00  3.9539181E+01
 8.4352503E+00  3.9248524E+01
 8.4467506E+00  3.9080658E+01
 8.4582500E+00  3.8948647E+01
 8.4697504E+00  3.8860737E+01
 8.4812508E+00  3.8652054E+01
 8.4927502E+00  3.8510902E+01
 8.5042505E+00  3.8332367E+01
 8.5157509E+00  3.8254658E+01
 8.5272503E+00  3.8068459E+01
 8.5387506E+00  3.7893505E+01
 8.5502501E+00  3.7658035E+01
 8.5617504E+00  3.7377407E+01
 8.5732508E+00  3.7199390E+01
 8.5847502E+00  3.6955521E+01
 8.5962505E+00  3.6882431E+01
 8.6077509E+00  3.6694561E+01
 8.6192503E+00  3.6658611E+01
 8.6307507E+00  3.6495068E+01
 8.6422501E+00  3.6403442E+01
 8.6537504E+00  3.6091705E+01
 8.6652508E+00  3.5893429E+01
 8.6767502E+00  3.5679848E+01
 8.6882505E+00  3.5524857E+01
 8.6997509E+00  3.5334820E+01
 8.7112503E+00  3.5078178E+01
 8.7227507E+00  3.4907181E+01
 8.7342501E+00  3.4699493E+01
 8.7457504E+00  3.4506493E+01
 8.7572508E+00  3.4317184E+01
 8.7687502E+00  3.4173145E+01
 8.7802505E+00  3.4021324E+01
 8.7917500E+00  3.3906799E+01
 8.8032503E+00  3.3771782E+01
 8.8147507E+00  3.3723114E+01
 8.8262501E+00  3.3716164E+01
 8.8377504E+00  3.3670216E+01
 8.8492508E+00  3.3591549E+01
 8.8607502E+00  3.3388126E+01
 8.8722506E+00  3.3137226E+01
 8.8837500E+00  3.2852211E+01
 8.8952503E+00  3.2580936E+01
 8.9067507E+00  3.2374603E+01
 8.9182501E+00  3.2256084E+01
 8.9297504E+00  3.2193184E+01
 8.9412508E+00  3.2108803E+01
 8.9527502E+00  3.1940413E+01
 8.9642506E+00  3.1787527E+01
 8.9757500E+00  3.1600073E+01
 8.9872503E+00  3.1457775E+01
 8.9987507E+00  3.1271681E+01
 9.0102501E+00  3.1145649E+01
 9.0217505E+00  3.0913471E+01
 9.0332508E+00  3.0737465E+01
 9.0447502E+00  3.0531563E+01
 9.0562506E+00  3.0399723E+01
 9.0677500E+00  3.0237087E+01
 9.0792503E+00  3.0158415E+01
 9.0907507E+00  3.0079966E+01
 9.1022501E+00  2.9922709E+01
 9.1137505E+00  2.9745173E+01
 9.1252508E+00  2.9606710E+01
 9.1367502E+00  2.9499689E+01
 9.1482506E+00  2.9443373E+01
 9.1597500E+00  2.9368259E+01
 9.1712503E+00  2.9273350E+01
 9.1827507E+00  2.9124512E+01
 9.1942501E+00  2.8968334E+01
 9.2057505E+00  2.8833855E+01
 9.2172508E+00  2.8766119E+01
 9.2287502E+00  2.8610706E+01
 9.2402506E+00  2.8490715E+01
 9.2517500E+00  2.8385979E+01
 9.2632504E+00  2.8305929E+01
 9.2747507E+00  2.8229557E+01
 9.2862501E+00  2.8094040E+01
 9.2977505E+00  2.7960957E+01
 9.3092508E+00  2.7863466E+01
 9.3207502E+00  2.7734962E+01
 9.3322506E+00  2.7692408E+01
 9.3437500E+00  2.7624193E+01
 9.3552504E+00  2.7584446E+01
 9.3667507E+00  2.7516039E+01
 9.3782501E+00  2.7521194E+01
 9.3897505E+00  2.7457998E+01
 9.4012508E+00  2.7458006E+01
 9.4127502E+00  2.7388872E+01
 9.4242506E+00  2.7316164E+01
 9.4357500E+00  2.7199154E+01
 9.4472504E+00  2.7038816E+01
 9.4587507E+00  2.6935204E+01
 9.4702501E+00  2.6824196E+01
 9.4817505E+00  2.6789408E+01
 9.4932508E+00  2.6729853E+01
 9.5047503E+00  2.6674770E+01
 9.5162506E+00  2.6658838E+01
 9.5277500E+00  2.6653721E+01
 9.5392504E+00  2.6655813E+01
 9.5507507E+00  2.6546289E+01
 9.5622501E+00  2.6525005E+01
 9.5737505E+00  2.6443710E+01
 9.5852509E+00  2.6409689E+01
 9.5967503E+00  2.6345741E+01
 9.6082506E+00  2.6305347E+01
 9.6197500E+00  2.6258812E+01
 9.6312504E+00  2.6198973E+01
 9.6427507E+00  2.6115036E+01
 9.6542501E+00  2.6050196E+01
 9.6657505E+00  2.5928724E+01
 9.6772509E+00  2.5854643E+01
 9.6887503E+00  2.5707945E+01
 9.7002506E+00  2.5571978E+01
 9.7117500E+00  2.5456713E+01
 9.7232504E+00  2.5451376E+01
 9.7347507E+00  2.5423134E+01
 9.7462502E+00  2.5432501E+01
 9.7577505E+00  2.5411602E+01
 9.7692509E+00  2.5450825E+01
 9.7807503E+00  2.5377460E+01
 9.7922506E+00  2.5331446E+01
 9.8037500E+00  2.5309408E+01
 9.8152504E+00  2.5269749E+01
 9.8267508E+00  2.5194681E+01
 9.8382502E+00  2.5111359E+01
 9.8497505E+00  2.5074680E+01
 9.8612509E+00  2.5022612E+01
 9.8727503E+00  2.4936399E+01
 9.8842506E+00  2.4870272E+01
 9.8957500E+00  2.4851387E+01
 9.9072504E+00  2.4787817E+01
 9.9187508E+00  2.4795870E+01
 9.9302502E+00  2.4796658E+01
 9.9417505E+00  2.4824320E+01
 9.9532509E+00  2.4763250E+01
 9.9647503E+00  2.4717379E+01
 9.9762506E+00  2.4723745E+01
 9.9877501E+00  2.4748665E+01
 9.9992504E+00  2.4685926E+01
 1.0010751E+01  2.4635056E+01
 1.0022250E+01  2.4600433E+01
 1.0033751E+01  2.4549160E+01
 1.0045251E+01  2.4517611E+01
 1.0056750E+01  2.4458216E+01
 1.0068251E+01  2.4435389E+01
 1.0079750E+01  2.4372976E+01
 1.0091250E+01  2.4325468E+01
 1.0102751E+01  2.4321987E+01
 1.0114250E+01  2.4328804E+01
 1.0125751E+01  2.4318012E+01
 1.0137251E+01  2.4287907E+01
 1.0148750E+01  2.4245502E+01
 1.0160251E+01  2.4185318E+01
 1.0171750E+01  2.4127460E+01
 1.0183250E+01  2.4066557E+01
 1.0194751E+01  2.4024357E+01
 1.0206250E+01  2.4070761E+01
 1.0217751E+01  2.4089342E+01
 1.0229251E+01  2.4115536E+01
 1.0240750E+01  2.4034737E+01
 1.0252251E+01  2.3967365E+01
 1.0263750E+01  2.3914152E+01
 1.0275250E+01  2.3926285E+01
 1.0286751E+01  2.3920448E+01
 1.0298250E+01  2.3926695E+01
 1.0309751E+01  2.3818937E+01
 1.0321251E+01  2.3695864E+01
 1.0332750E+01  2.3595110E+01
 1.0344251E+01  2.3594112E+01
 1.0355750E+01  2.3601698E+01
 1.0367250E+01  2.3645935E+01
 1.0378751E+01  2.3630289E+01
 1.0390250E+01  2.3678066E+01
 1.0401751E+01  2.3724262E+01
 1.0413251E+01  2.3729286E+01
 1.0424750E+01  2.3694645E+01
 1.0436251E+01  2.3628294E+01
 1.0447750E+01  2.3567366E+01
 1.0459250E+01  2.3598326E+01
 1.0470751E+01  2.3578369E+01
 1.0482250E+01  2.3614042E+01
 1.0493751E+01  2.3608730E+01
 1.0505251E+01  2.3553972E+01
 1.0516750E+01  2.3547495E+01
 1.0528251E+01  2.3480984E+01
 1.0539750E+01  2.3420757E+01
 1.0551250E+01  2.3378328E+01
 1.0562751E+01  2.3375561E+01
 1.0574250E+01  2.3364454E+01
 1.0585751E+01  2.3342373E+01
 1.0597251E+01  2.3323994E+01
 1.0608750E+01  2.3297487E+01
 1.0620251E+01  2.3247055E+01
 1.0631750E+01  2.3156311E+01
 1.0643250E+01  2.3124359E+01
 1.0654751E+01  2.3093866E+01
 1.0666250E+01  2.3094913E+01
 1.0677751E+01  2.3118198E+01
 1.0689251E+01  2.3065973E+01
 1.0700750E+01  2.3064678E+01
 1.0712251E+01  2.3041656E+01
 1.0723750E+01  2.3096891E+01
 1.0735250E+01  2.3149456E+01
 1.0746751E+01  2.3208054E+01
 1.0758250E+01  2.3202511E+01
 1.0769751E+01  2.3200634E+01
 1.0781251E+01  2.3196329E+01
 1.0792750E+01  2.3159243E+01
 1.0804251E+01  2.3131166E+01
 1.0815750E+01  2.3069759E+01
 1.0827250E+01  2.3049175E+01
 1.0838751E+01  2.2970242E+01
 1.0850250E+01  2.2943680E+01
 1.0861751E+01  2.2948969E+01
 1.0873251E+01  2.2956156E+01
 1.0884750E+01  2.2905828E+01
 1.0896251E+01  2.2849142E+01
 1.0907750E+01  2.2846272E+01
 1.0919250E+01  2.2845957E+01
 1.0930751E+01  2.2884005E+01
 1.0942250E+01  2.2854969E+01
 1.0953751E+01  2.2866520E+01
 1.0965251E+01  2.2809958E+01
 1.0976750E+01  2.2806606E+01
 1.0988251E+01  2.2737484E+01
 1.0999750E+01  2.2712126E+01
 1.1011250E+01  2.2699896E+01
 1.1022751E+01  2.2676737E+01
 1.1034250E+01  2.2672819E+01
 1.1045751E+01  2.2600920E+01
 1.1057251E+01  2.2597095E+01
 1.1068750E+01  2.2615345E+01
 1.1080251E+01  2.2652569E+01
 1.1091750E+01  2.2665352E+01
 1.1103251E+01  2.2653036E+01
 1.1114751E+01  2.2684280E+01
 1.1126250E+01  2.2747286E+01
 1.1137751E+01  2.2728262E+01
 1.1149251E+01  2.2693159E+01
 1.1160750E+01  2.2652252E+01
 1.1172251E+01  2.2641148E+01
 1.1183750E+01  2.2599922E+01
 1.1195251E+01  2.2560940E+01
 1.1206751E+01  2.2515015E+01
 1.1218250E+01  2.2492712E+01
 1.1229751E+01  2.2465387E+01
 1.1241251E+01  2.2500029E+01
 1.1252750E+01  2.2536070E+01
 1.1264251E+01  2.2555906E+01
 1.1275750E+01  2.2571272E+01
 1.1287251E+01  2.2540686E+01
 1.1298751E+01  2.2526747E+01
 1.1310250E+01  2.2473995E+01
 1.1321751E+01  2.2457405E+01
 1.1333251E+01  2.2477827E+01
 1.1344750E+01  2.2553465E+01
 1.1356251E+01  2.2622553E+01
 1.1367750E+01  2.2728552E+01
 1.1379251E+01  2.2815691E+01
 1.1390751E+01  2.2883474E+01
 1.1402250E+01  2.3162485E+01
 1.1413751E+01  2.3147465E+01
 1.1425251E+01  2.3134342E+01
 1.1436750E+01  2.2951984E+01
 1.1448251E+01  2.3097511E+01
 1.1459750E+01  2.3131720E+01
 1.1471251E+01  2.3071266E+01
 1.1482751E+01  2.2982805E+01
 1.1494250E+01  2.3133141E+01
 1.1505751E+01  2.3208694E+01
 1.1517251E+01  2.3463018E+01
 1.1528750E+01  2.3733154E+01
 1.1540251E+01  2.4176914E+01
 1.1551750E+01  2.4848667E+01
 1.1563251E+01  2.5420996E+01
 1.1574751E+01  2.5838799E+01
 1.1586250E+01  2.6083813E+01
 1.1597751E+01  2.5917334E+01
 1.1609251E+01  2.5567074E+01
 1.1620750E+01  2.4818764E+01
 1.1632251E+01  2.4229408E+01
 1.1643750E+01  2.3681789E+01
 1.1655251E+01  2.3260071E+01
 1.1666751E+01  2.2978195E+01
 1.1678250E+01  2.2833687E+01
 1.1689751E+01  2.2699060E+01
 1.1701251E+01  2.2631262E+01
 1.1712750E+01  2.2614937E+01
 1.1724251E+01  2.2606724E+01
 1.1735750E+01  2.2665117E+01
 1.1747251E+01  2.2714222E+01
 1.1758751E+01  2.2758131E+01
 1.1770250E+01  2.2729961E+01
 1.1781751E+01  2.2708183E+01
 1.1793251E+01  2.2688578E+01
 1.1804750E+01  2.2717386E+01
 1.1816251E+01  2.2718828E+01
 1.1827750E+01  2.2734964E+01
 1.1839251E+01  2.2719292E+01
 1.1850751E+01  2.2680788E+01
 1.1862250E+01  2.2665499E+01
 1.1873751E+01  2.2643938E+01
 1.1885251E+01  2.2668056E+01
 1.1896750E+01  2.2694864E+01
 1.1908251E+01  2.2704172E+01
 1.1919750E+01  2.2712519E+01
 1.1931251E+01  2.2737484E+01
 1.1942751E+01  2.2758326E+01
 1.1954250E+01  2.2877914E+01
 1.1965751E+01  2.2921869E+01
 1.1977251E+01  2.3024273E+01
 1.1988750E+01  2.3056465E+01
 1.2000251E+01  2.3013777E+01
 1.2011750E+01  2.3041695E+01
 1.2023251E+01  2.2982817E+01
 1.2034751E+01  2.3052382E+01
 1.2046250E+01  2.3101660E+01
 1.2057751E+01  2.3176516E+01
 1.2069251E+01  2.3373264E+01
 1.2080750E+01  2.3590721E+01
 1.2092251E+01  2.3882566E+01
 1.2103750E+01  2.4024950E+01
 1.2115251E+01  2.4046902E+01
 1.2126751E+01  2.3942818E+01
 1.2138250E+01  2.3827631E+01
 1.2149751E+01  2.3547123E+01
 1.2161251E+01  2.3299162E+01
 1.2172750E+01  2.2999846E+01
 1.2184251E+01  2.2923967E+01
 1.2195750E+01  2.2843817E+01
 1.2207251E+01  2.2826855E+01
 1.2218751E+01  2.2782990E+01
 1.2230250E+01  2.2812834E+01
 1.2241751E+01  2.2793610E+01
 1.2253251E+01  2.2803713E+01
 1.2264750E+01  2.2768526E+01
 1.2276251E+01  2.2755674E+01
 1.2287750E+01  2.2749739E+01
 1.2299251E+01  2.2756893E+01
 1.2310751E+01  2.2842709E+01
 1.2322250E+01  2.2841978E+01
 1.2333751E+01  2.2882765E+01
 1.2345250E+01  2.2808947E+01
 1.2356750E+01  2.2773067E+01
 1.2368251E+01  2.2740908E+01
 1.2379750E+01  2.2750494E+01
 1.2391251E+01  2.2755554E+01
 1.2402751E+01  2.2742907E+01
 1.2414250E+01  2.2715542E+01
 1.2425751E+01  2.2697311E+01
 1.2437250E+01  2.2686932E+01
 1.2448750E+01  2.2724051E+01
 1.2460251E+01  2.2779734E+01
 1.2471750E+01  2.2826218E+01
 1.2483251E+01  2.2890604E+01
 1.2494751E+01  2.2851957E+01
 1.2506250E+01  2.2852077E+01
 1.2517751E+01  2.2838713E+01
 1.2529250E+01  2.2871780E+01
 1.2540751E+01  2.2858433E+01
 1.2552251E+01  2.2833456E+01
 1.2563750E+01  2.2783304E+01
 1.2575251E+01  2.2760185E+01
 1.2586751E+01  2.2755074E+01
 1.2598250E+01  2.2833296E+01
 1.2609751E+01  2.2939928E+01
 1.2621250E+01  2.3009457E+01
 1.2632751E+01  2.3049784E+01
 1.2644251E+01  2.2979464E+01
 1.2655750E+01  2.2975695E+01
 1.2667251E+01  2.2946861E+01
 1.2678751E+01  2.2937780E+01
 1.2690250E+01  2.2904675E+01
 1.2701751E+01  2.2919025E+01
 1.2713250E+01  2.2971512E+01
 1.2724751E+01  2.3058481E+01
 1.2736251E+01  2.3113544E+01
 1.2747750E+01  2.3204851E+01
 1.2759251E+01  2.3213531E+01
 1.2770751E+01  2.3203129E+01
 1.2782250E+01  2.3170614E+01
 1.2793751E+01  2.3157831E+01
 1.2805250E+01  2.3204458E+01
 1.2816751E+01  2.3308697E+01
 1.2828251E+01  2.3381882E+01
 1.2839750E+01  2.3474695E+01
 1.2851251E+01  2.3484018E+01
 1.2862751E+01  2.3536011E+01
 1.2874250E+01  2.3568010E+01
 1.2885751E+01  2.3605953E+01
 1.2897250E+01  2.3659180E+01
 1.2908751E+01  2.3721781E+01
 1.2920251E+01  2.3784206E+01
 1.2931750E+01  2.3831154E+01
 1.2943251E+01  2.3877171E+01
 1.2954751E+01  2.3849829E+01
 1.2966250E+01  2.3929255E+01
 1.2977751E+01  2.3980925E+01
 1.2989250E+01  2.4108078E+01
 1.3000751E+01  2.4212906E+01
 1.3012251E+01  2.4247459E+01
 1.3023750E+01  2.4304064E+01
 1.3035251E+01  2.4338892E+01
 1.3046751E+01  2.4415464E+01
 1.3058250E+01  2.4539240E+01
 1.3069751E+01  2.4556934E+01
 1.3081250E+01  2.4633579E+01
 1.3092751E+01  2.4711542E+01
 1.3104251E+01  2.4907461E+01
 1.3115750E+01  2.5090649E+01
 1.3127251E+01  2.5204861E+01
 1.3138751E+01  2.5288960E+01
 1.3150250E+01  2.5414457E+01
 1.3161751E+01  2.5500610E+01
 1.3173250E+01  2.5600973E+01
 1.3184751E+01  2.5647434E+01
 1.3196251E+01  2.5813879E+01
 1.3207750E+01  2.5998171E+01
 1.3219251E+01  2.6165966E+01
 1.3230751E+01  2.6326256E+01
 1.3242250E+01  2.6437929E+01
 1.3253751E+01  2.6535189E+01
 1.3265250E+01  2.6615368E+01
 1.3276751E+01  2.6735144E+01
 1.3288251E+01  2.6924339E+01
 1.3299750E+01  2.7055147E+01
 1.3311251E+01  2.7151016E+01
 1.3322751E+01  2.7224342E+01
 1.3334250E+01  2.7427965E+01
 1.3345751E+01  2.7635401E+01
 1.3357250E+01  2.7897131E+01
 1.3368751E+01  2.8022223E+01
 1.3380251E+01  2.8223871E+01
 1.3391750E+01  2.8306540E+01
 1.3403251E+01  2.8485947E+01
 1.3414751E+01  2.8582390E+01
 1.3426250E+01  2.8627369E+01
 1.3437751E+01  2.8695694E+01
 1.3449250E+01  2.8844904E+01
 1.3460751E+01  2.9018156E+01
 1.3472251E+01  2.9138411E+01
 1.3483750E+01  2.9277721E+01
 1.3495251E+01  2.9474627E+01
 1.3506751E+01  2.9619570E+01
 1.3518250E+01  2.9724390E+01
 1.3529751E+01  2.9735514E+01
 1.3541250E+01  2.9739836E+01
 1.3552751E+01  2.9725561E+01
 1.3564251E+01  2.9793415E+01
 1.3575750E+01  2.9855967E+01
 1.3587251E+01  2.9927731E+01
 1.3598751E+01  2.9983160E+01
 1.3610250E+01  2.9988995E+01
 1.3621751E+01  3.0002914E+01
 1.3633250E+01  2.9964201E+01
 1.3644751E+01  2.9945923E+01
 1.3656251E+01  2.9915634E+01
 1.3667750E+01  2.9989191E+01
 1.3679251E+01  2.9978279E+01
 1.3690751E+01  2.9946861E+01
 1.3702250E+01  2.9855917E+01
 1.3713751E+01  2.9827791E+01
 1.3725250E+01  2.9784901E+01
 1.3736751E+01  2.9694218E+01
 1.3748251E+01  2.9597786E+01
 1.3759750E+01  2.9523212E+01
 1.3771251E+01  2.9503443E+01
 1.3782751E+01  2.9415083E+01
 1.3794250E+01  2.9331280E+01
 1.3805751E+01  2.9275890E+01
 1.3817250E+01  2.9265102E+01
 1.3828751E+01  2.9302155E+01
 1.3840251E+01  2.9278364E+01
 1.3851750E+01  2.9282747E+01
 1.3863251E+01  2.9301640E+01
 1.3874751E+01  2.9457294E+01
 1.3886250E+01  2.9776535E+01
 1.3897751E+01  3.0333677E+01
 1.3909250E+01  3.1065399E+01
 1.3920751E+01  3.1873909E+01
 1.3932251E+01  3.2472992E+01
 1.3943750E+01  3.3065296E+01
 1.3955251E+01  3.3043297E+01
 1.3966751E+01  3.2845970E+01
 1.3978251E+01  3.2020477E+01
 1.3989751E+01  3.1077183E+01
 1.4001250E+01  3.0124702E+01
 1.4012751E+01  2.9253748E+01
 1.4024251E+01  2.8716217E+01
 1.4035750E+01  2.8213104E+01
 1.4047251E+01  2.7926985E+01
 1.4058751E+01  2.7765076E+01
 1.4070251E+01  2.7705477E+01
 1.4081751E+01  2.7631145E+01
 1.4093250E+01  2.7610891E+01
 1.4104751E+01  2.7572042E+01
 1.4116251E+01  2.7527979E+01
 1.4127750E+01  2.7434958E+01
 1.4139251E+01  2.7328957E+01
 1.4150751E+01  2.7254412E+01
 1.4162251E+01  2.7166582E+01
 1.4173751E+01  2.7093201E+01
 1.4185250E+01  2.7033525E+01
 1.4196751E+01  2.7031406E+01
 1.4208251E+01  2.6961727E+01
 1.4219750E+01  2.6867964E+01
 1.4231251E+01  2.6740803E+01
 1.4242751E+01  2.6677820E+01
 1.4254251E+01  2.6627151E+01
 1.4265751E+01  2.6597807E+01
 1.4277250E+01  2.6538532E+01
 1.4288751E+01  2.6495972E+01
 1.4300251E+01  2.6451624E+01
 1.4311750E+01  2.6373594E+01
 1.4323251E+01  2.6345455E+01
 1.4334751E+01  2.6282421E+01
 1.4346251E+01  2.6280157E+01
 1.4357751E+01  2.6240490E+01
 1.4369250E+01  2.6239058E+01
 1.4380751E+01  2.6223417E+01
 1.4392251E+01  2.6208216E+01
 1.4403750E+01  2.6190641E+01
 1.4415251E+01  2.6177401E+01
 1.4426751E+01  2.6114542E+01
 1.4438251E+01  2.6097918E+01
 1.4449751E+01  2.6068901E+01
 1.4461250E+01  2.6029850E+01
 1.4472751E+01  2.5985390E+01
 1.4484251E+01  2.5993282E+01
 1.4495750E+01  2.6032631E+01
 1.4507251E+01  2.6007130E+01
 1.4518751E+01  2.5919157E+01
 1.4530251E+01  2.5819195E+01
 1.4541751E+01  2.5725628E+01
 1.4553250E+01  2.5681116E+01
 1.4564751E+01  2.5635061E+01
 1.4576251E+01  2.5642822E+01
 1.4587750E+01  2.5613785E+01
 1.4599251E+01  2.5593496E+01
 1.4610751E+01  2.5634871E+01
 1.4622251E+01  2.5642706E+01
 1.4633751E+01  2.5668346E+01
 1.4645250E+01  2.5596157E+01
 1.4656751E+01  2.5525963E+01
 1.4668251E+01  2.5410093E+01
 1.4679750E+01  2.5336615E+01
 1.4691251E+01  2.5300610E+01
 1.4702751E+01  2.5264542E+01
 1.4714251E+01  2.5230774E+01
 1.4725751E+01  2.5214415E+01
 1.4737250E+01  2.5249447E+01
 1.4748751E+01  2.5267778E+01
 1.4760251E+01  2.5303301E+01
 1.4771750E+01  2.5362232E+01
 1.4783251E+01  2.5338968E+01
 1.4794751E+01  2.5380196E+01
 1.4806251E+01  2.5339468E+01
 1.4817751E+01  2.5433683E+01
 1.4829250E+01  2.5521906E+01
 1.4840751E+01  2.5725206E+01
 1.4852251E+01  2.5944859E+01
 1.4863750E+01  2.5884701E+01
 1.4875251E+01  2.5724709E+01
 1.4886751E+01  2.5345385E+01
 1.4898251E+01  2.5205011E+01
 1.4909751E+01  2.5122358E+01
 1.4921250E+01  2.5117916E+01
 1.4932751E+01  2.5141392E+01
 1.4944251E+01  2.5116318E+01
 1.4955750E+01  2.5111795E+01
 1.4967251E+01  2.5083693E+01
 1.4978751E+01  2.5076988E+01
 1.4990251E+01  2.5080149E+01
 1.5001751E+01  2.5055611E+01
 1.5013250E+01  2.5062689E+01
 1.5024751E+01  2.5061449E+01
 1.5036251E+01  2.5029928E+01
 1.5047750E+01  2.4965813E+01
 1.5059251E+01  2.4936226E+01
 1.5070751E+01  2.4982937E+01
 1.5082251E+01  2.5021832E+01
 1.5093751E+01  2.5015604E+01
 1.5105250E+01  2.4994913E+01
 1.5116751E+01  2.4981506E+01
 1.5128251E+01  2.4987850E+01
 1.5139750E+01  2.5098665E+01
 1.5151251E+01  2.5240065E+01
 1.5162751E+01  2.5414862E+01
 1.5174251E+01  2.5541319E+01
 1.5185751E+01  2.5668726E+01
 1.5197250E+01  2.5720028E+01
 1.5208751E+01  2.5729406E+01
 1.5220251E+01  2.5626551E+01
 1.5231750E+01  2.5452888E+01
 1.5243251E+01  2.5243275E+01
 1.5254751E+01  2.5102921E+01
 1.5266251E+01  2.4975882E+01
 1.5277751E+01  2.4917461E+01
 1.5289250E+01  2.4917166E+01
 1.5300751E+01  2.4926924E+01
 1.5312251E+01  2.4932995E+01
 1.5323750E+01  2.4857656E+01
 1.5335251E+01  2.4785099E+01
 1.5346751E+01  2.4707510E+01
 1.5358251E+01  2.4745483E+01
 1.5369751E+01  2.4780977E+01
 1.5381250E+01  2.4764269E+01
 1.5392751E+01  2.4723085E+01
 1.5404251E+01  2.4711912E+01
 1.5415751E+01  2.4638386E+01
 1.5427251E+01  2.4594545E+01
 1.5438751E+01  2.4596357E+01
 1.5450251E+01  2.4654089E+01
 1.5461751E+01  2.4657181E+01
 1.5473250E+01  2.4642893E+01
 1.5484751E+01  2.4699028E+01
 1.5496251E+01  2.4713869E+01
 1.5507751E+01  2.4729916E+01
 1.5519251E+01  2.4699173E+01
 1.5530751E+01  2.4727770E+01
 1.5542251E+01  2.4718609E+01
 1.5553751E+01  2.4660759E+01
 1.5565250E+01  2.4647217E+01
 1.5576751E+01  2.4639732E+01
 1.5588251E+01  2.4666815E+01
 1.5599751E+01  2.4669296E+01
 1.5611251E+01  2.4674328E+01
 1.5622751E+01  2.4671700E+01
 1.5634251E+01  2.4637697E+01
 1.5645751E+01  2.4612568E+01
 1.5657250E+01  2.4585354E+01
 1.5668751E+01  2.4561712E+01
 1.5680251E+01  2.4598000E+01
 1.5691751E+01  2.4623230E+01
 1.5703251E+01  2.4692089E+01
 1.5714751E+01  2.4719244E+01
 1.5726251E+01  2.4714516E+01
 1.5737751E+01  2.4673092E+01
 1.5749250E+01  2.4683741E+01
 1.5760751E+01  2.4764719E+01
 1.5772251E+01  2.4796595E+01
 1.5783751E+01  2.4773985E+01
 1.5795251E+01  2.4757418E+01
 1.5806751E+01  2.4743700E+01
 1.5818251E+01  2.4697350E+01
 1.5829751E+01  2.4618584E+01
 1.5841250E+01  2.4551640E+01
 1.5852751E+01  2.4612532E+01
 1.5864251E+01  2.4598339E+01
 1.5875751E+01  2.4666937E+01
 1.5887251E+01  2.4674261E+01
 1.5898750E+01  2.4723396E+01
 1.5910251E+01  2.4731075E+01
 1.5921751E+01  2.4739918E+01
 1.5933250E+01  2.4773813E+01
 1.5944751E+01  2.4745668E+01
 1.5956251E+01  2.4730919E+01
 1.5967751E+01  2.4696451E+01
 1.5979251E+01  2.4674030E+01
 1.5990750E+01  2.4662811E+01
 1.6002251E+01  2.4681355E+01
 1.6013750E+01  2.4734024E+01
 1.6025251E+01  2.4746481E+01
 1.6036751E+01  2.4752178E+01
 1.6048250E+01  2.4762388E+01
 1.6059752E+01  2.4778139E+01
 1.6071251E+01  2.4702816E+01
 1.6082750E+01  2.4733194E+01
 1.6094252E+01  2.4702524E+01
 1.6105751E+01  2.4801617E+01
 1.6117250E+01  2.4796507E+01
 1.6128750E+01  2.4833784E+01
 1.6140251E+01  2.4888306E+01
 1.6151751E+01  2.4954302E+01
 1.6163250E+01  2.5090504E+01
 1.6174751E+01  2.5066256E+01
 1.6186251E+01  2.5231081E+01
 1.6197750E+01  2.5163795E+01
 1.6209251E+01  2.5477566E+01
 1.6220751E+01  2.5440035E+01
 1.6232250E+01  2.5755222E+01
 1.6243752E+01  2.5819462E+01
 1.6255251E+01  2.6001184E+01
 1.6266750E+01  2.6181946E+01
 1.6278252E+01  2.5946886E+01
 1.6289751E+01  2.5974928E+01
 1.6301250E+01  2.5382097E+01
 1.6312750E+01  2.5392841E+01
 1.6324251E+01  2.4917498E+01
 1.6335751E+01  2.4973391E+01
 1.6347250E+01  2.4788023E+01
 1.6358751E+01  2.4825171E+01
 1.6370251E+01  2.4729094E+01
 1.6381750E+01  2.4695465E+01
 1.6393251E+01  2.4712124E+01
 1.6404751E+01  2.4744583E+01
 1.6416250E+01  2.4848604E+01
 1.6427752E+01  2.4829975E+01
 1.6439251E+01  2.4851324E+01
 1.6450750E+01  2.4831717E+01
 1.6462252E+01  2.4813841E+01
 1.6473751E+01  2.4788204E+01
 1.6485250E+01  2.4782215E+01
 1.6496750E+01  2.4841412E+01
 1.6508251E+01  2.4818560E+01
 1.6519751E+01  2.4812273E+01
 1.6531250E+01  2.4732908E+01
 1.6542751E+01  2.4717552E+01
 1.6554251E+01  2.4676226E+01
 1.6565750E+01  2.4676882E+01
 1.6577251E+01  2.4629263E+01
 1.6588751E+01  2.4661428E+01
 1.6600250E+01  2.4659006E+01
 1.6611752E+01  2.4734598E+01
 1.6623251E+01  2.4688725E+01
 1.6634750E+01  2.4725885E+01
 1.6646252E+01  2.4704556E+01
 1.6657751E+01  2.4754866E+01
 1.6669250E+01  2.4730324E+01
 1.6680750E+01  2.4725475E+01
 1.6692251E+01  2.4713175E+01
 1.6703751E+01  2.4708990E+01
 1.6715250E+01  2.4714828E+01
 1.6726751E+01  2.4717255E+01
 1.6738251E+01  2.4785707E+01
 1.6749750E+01  2.4870253E+01
 1.6761251E+01  2.4845428E+01
 1.6772751E+01  2.4800631E+01
 1.6784250E+01  2.4707172E+01
 1.6795752E+01  2.4665640E+01
 1.6807251E+01  2.4625101E+01
 1.6818750E+01  2.4540817E+01
 1.6830252E+01  2.4502464E+01
 1.6841751E+01  2.4407003E+01
 1.6853251E+01  2.4387239E+01
 1.6864750E+01  2.4357668E+01
 1.6876251E+01  2.4342806E+01
 1.6887751E+01  2.4324680E+01
 1.6899250E+01  2.4344620E+01
 1.6910751E+01  2.4364277E+01
 1.6922251E+01  2.4445206E+01
 1.6933750E+01  2.4476315E+01
 1.6945251E+01  2.4514381E+01
 1.6956751E+01  2.4501694E+01
 1.6968250E+01  2.4458069E+01
 1.6979752E+01  2.4455376E+01
 1.6991251E+01  2.4473261E+01
 1.7002750E+01  2.4508080E+01
 1.7014252E+01  2.4511040E+01
 1.7025751E+01  2.4489439E+01
 1.7037251E+01  2.4471865E+01
 1.7048750E+01  2.4419325E+01
 1.7060251E+01  2.4399254E+01
 1.7071751E+01  2.4367931E+01
 1.7083250E+01  2.4341093E+01
 1.7094751E+01  2.4306948E+01
 1.7106251E+01  2.4301205E+01
 1.7117750E+01  2.4331751E+01
 1.7129251E+01  2.4370834E+01
 1.7140751E+01  2.4373968E+01
 1.7152250E+01  2.4352093E+01
 1.7163752E+01  2.4267532E+01
 1.7175251E+01  2.4211645E+01
 1.7186750E+01  2.4227423E+01
 1.7198252E+01  2.4294027E+01
 1.7209751E+01  2.4371723E+01
 1.7221251E+01  2.4380404E+01
 1.7232750E+01  2.4373333E+01
 1.7244251E+01  2.4281462E+01
 1.7255751E+01  2.4190319E+01
 1.7267250E+01  2.4166771E+01
 1.7278751E+01  2.4203856E+01
 1.7290251E+01  2.4241114E+01
 1.7301750E+01  2.4293556E+01
 1.7313251E+01  2.4277559E+01
 1.7324751E+01  2.4303606E+01
 1.7336250E+01  2.4291126E+01
 1.7347752E+01  2.4314299E+01
 1.7359251E+01  2.4298756E+01
 1.7370750E+01  2.4274876E+01
 1.7382252E+01  2.4223440E+01
 1.7393751E+01  2.4197754E+01
 1.7405251E+01  2.4200451E+01
 1.7416750E+01  2.4236893E+01
 1.7428251E+01  2.4221542E+01
 1.7439751E+01  2.4222488E+01
 1.7451250E+01  2.4150690E+01
 1.7462751E+01  2.4116390E+01
 1.7474251E+01  2.4074760E+01
 1.7485750E+01  2.4101784E+01
 1.7497252E+01  2.4120668E+01
 1.7508751E+01  2.4095936E+01
 1.7520250E+01  2.4082306E+01
 1.7531752E+01  2.4041859E+01
 1.7543251E+01  2.4038919E+01
 1.7554750E+01  2.3990864E+01
 1.7566252E+01  2.4001259E+01
 1.7577751E+01  2.4016592E+01
 1.7589251E+01  2.4012318E+01
 1.7600750E+01  2.4016047E+01
 1.7612251E+01  2.4004417E+01
 1.7623751E+01  2.4034101E+01
 1.7635250E+01  2.3952608E+01
 1.7646751E+01  2.3908585E+01
 1.7658251E+01  2.3847069E+01
 1.7669750E+01  2.3894506E+01
 1.7681252E+01  2.3948107E+01
 1.7692751E+01  2.4033152E+01
 1.7704250E+01  2.3995958E+01
 1.7715752E+01  2.3995047E+01
 1.7727251E+01  2.3948223E+01
 1.7738750E+01  2.3978218E+01
 1.7750252E+01  2.3911545E+01
 1.7761751E+01  2.3891903E+01
 1.7773251E+01  2.3856472E+01
 1.7784750E+01  2.3867252E+01
 1.7796251E+01  2.3887480E+01
 1.7807751E+01  2.3900534E+01
 1.7819250E+01  2.3897409E+01
 1.7830751E+01  2.3871529E+01
 1.7842251E+01  2.3905327E+01
 1.7853750E+01  2.3935722E+01
 1.7865252E+01  2.3993050E+01
 1.7876751E+01  2.3978905E+01
 1.7888250E+01  2.4030636E+01
 1.7899752E+01  2.4035641E+01
 1.7911251E+01  2.4098360E+01
 1.7922750E+01  2.4070112E+01
 1.7934252E+01  2.4065062E+01
 1.7945751E+01  2.4050190E+01
 1.7957251E+01  2.4036833E+01
 1.7968750E+01  2.4036308E+01
 1.7980251E+01  2.4027891E+01
 1.7991751E+01  2.4074833E+01
 1.8003250E+01  2.4128078E+01
 1.8014751E+01  2.4228716E+01
 1.8026251E+01  2.4325884E+01
 1.8037750E+01  2.4403908E+01
 1.8049252E+01  2.4488636E+01
 1.8060751E+01  2.4571939E+01
 1.8072250E+01  2.4615393E+01
 1.8083752E+01  2.4687019E+01
 1.8095251E+01  2.4742186E+01
 1.8106750E+01  2.4788160E+01
 1.8118252E+01  2.4723234E+01
 1.8129751E+01  2.4624367E+01
 1.8141251E+01  2.4451479E+01
 1.8152750E+01  2.4251307E+01
 1.8164251E+01  2.4085300E+01
 1.8175751E+01  2.3973989E+01
 1.8187250E+01  2.3900421E+01
 1.8198751E+01  2.3879206E+01
 1.8210251E+01  2.3867739E+01
 1.8221750E+01  2.3870937E+01
 1.8233252E+01  2.3857126E+01
 1.8244751E+01  2.3862133E+01
 1.8256250E+01  2.3860388E+01
 1.8267752E+01  2.3814430E+01
 1.8279251E+01  2.3811073E+01
 1.8290751E+01  2.3800423E+01
 1.8302252E+01  2.3797455E+01
 1.8313751E+01  2.3733156E+01
 1.8325251E+01  2.3655994E+01
 1.8336750E+01  2.3671703E+01
 1.8348251E+01  2.3659628E+01
 1.8359751E+01  2.3732412E+01
 1.8371250E+01  2.3723524E+01
 1.8382751E+01  2.3773397E+01
 1.8394251E+01  2.3787996E+01
 1.8405750E+01  2.3825207E+01
 1.8417252E+01  2.3813290E+01
 1.8428751E+01  2.3744251E+01
 1.8440250E+01  2.3718904E+01
 1.8451752E+01  2.3689405E+01
 1.8463251E+01  2.3697569E+01
 1.8474751E+01  2.3728134E+01
 1.8486252E+01  2.3748238E+01
 1.8497751E+01  2.3723381E+01
 1.8509251E+01  2.3688307E+01
 1.8520750E+01  2.3657637E+01
 1.8532251E+01  2.3648546E+01
 1.8543751E+01  2.3611122E+01
 1.8555250E+01  2.3656441E+01
 1.8566751E+01  2.3694691E+01
 1.8578251E+01  2.3755873E+01
 1.8589750E+01  2.3775101E+01
 1.8601252E+01  2.3758057E+01
 1.8612751E+01  2.3714224E+01
 1.8624250E+01  2.3704338E+01
 1.8635752E+01  2.3689978E+01
 1.8647251E+01  2.3687542E+01
 1.8658751E+01  2.3653694E+01
 1.8670252E+01  2.3636284E+01
 1.8681751E+01  2.3674259E+01
 1.8693251E+01  2.3656281E+01
 1.8704750E+01  2.3628895E+01
 1.8716251E+01  2.3557779E+01
 1.8727751E+01  2.3534561E+01
 1.8739250E+01  2.3575371E+01
 1.8750751E+01  2.3627775E+01
 1.8762251E+01  2.3645199E+01
 1.8773750E+01  2.3647022E+01
 1.8785252E+01  2.3636457E+01
 1.8796751E+01  2.3685940E+01
 1.8808250E+01  2.3627747E+01
 1.8819752E+01  2.3579098E+01
 1.8831251E+01  2.3517878E+01
 1.8842751E+01  2.3521963E+01
 1.8854252E+01  2.3535925E+01
 1.8865751E+01  2.3516830E+01
 1.8877251E+01  2.3525747E+01
 1.8888750E+01  2.3550552E+01
 1.8900251E+01  2.3564459E+01
 1.8911751E+01  2.3586020E+01
 1.8923250E+01  2.3592167E+01
 1.8934752E+01  2.3630268E+01
 1.8946251E+01  2.3630630E+01
 1.8957750E+01  2.3580242E+01
 1.8969252E+01  2.3473190E+01
 1.8980751E+01  2.3412941E+01
 1.8992250E+01  2.3397223E+01
 1.9003752E+01  2.3409481E+01
 1.9015251E+01  2.3430864E+01
 1.9026751E+01  2.3409388E+01
 1.9038252E+01  2.3433056E+01
 1.9049751E+01  2.3401236E+01
 1.9061251E+01  2.3461359E+01
 1.9072750E+01  2.3464361E+01
 1.9084251E+01  2.3490955E+01
 1.9095751E+01  2.3434752E+01
 1.9107250E+01  2.3468130E+01
 1.9118752E+01  2.3468180E+01
 1.9130251E+01  2.3538597E+01
 1.9141750E+01  2.3585642E+01
 1.9153252E+01  2.3642525E+01
 1.9164751E+01  2.3585842E+01
 1.9176250E+01  2.3533882E+01
 1.9187752E+01  2.3505732E+01
 1.9199251E+01  2.3546606E+01
 1.9210751E+01  2.3591372E+01
 1.9222252E+01  2.3574690E+01
 1.9233751E+01  2.3594643E+01
 1.9245251E+01  2.3642584E+01
 1.9256750E+01  2.3701221E+01
 1.9268251E+01  2.3675611E+01
 1.9279751E+01  2.3626474E+01
 1.9291250E+01  2.3631952E+01
 1.9302752E+01  2.3659449E+01
 1.9314251E+01  2.3650175E+01
 1.9325750E+01  2.3677191E+01
 1.9337252E+01  2.3721693E+01
 1.9348751E+01  2.3738913E+01
 1.9360250E+01  2.3699305E+01
 1.9371752E+01  2.3689642E+01
 1.9383251E+01  2.3683750E+01
 1.9394751E+01  2.3687410E+01
 1.9406250E+01  2.3705797E+01
 1.9417751E+01  2.3773911E+01
 1.9429251E+01  2.3766800E+01
 1.9440750E+01  2.3744387E+01
 1.9452251E+01  2.3696699E+01
 1.9463751E+01  2.3672752E+01
 1.9475250E+01  2.3671011E+01
 1.9486752E+01  2.3697004E+01
 1.9498251E+01  2.3680244E+01
 1.9509750E+01  2.3648540E+01
 1.9521252E+01  2.3637484E+01
 1.9532751E+01  2.3628347E+01
 1.9544250E+01  2.3653744E+01
 1.9555752E+01  2.3630522E+01
 1.9567251E+01  2.3694836E+01
 1.9578751E+01  2.3701796E+01
 1.9590250E+01  2.3713289E+01
 1.9601751E+01  2.3678764E+01
 1.9613251E+01  2.3732903E+01
 1.9624750E+01  2.3800056E+01
 1.9636251E+01  2.3878984E+01
 1.9647751E+01  2.4028265E+01
 1.9659250E+01  2.4253510E+01
 1.9670752E+01  2.4472849E+01
 1.9682251E+01  2.4801537E+01
 1.9693750E+01  2.5139616E+01
 1.9705252E+01  2.5510447E+01
 1.9716751E+01  2.6072708E+01
 1.9728251E+01  2.6057875E+01
 1.9739752E+01  2.6097809E+01
 1.9751251E+01  2.5685400E+01
 1.9762751E+01  2.5444483E+01
 1.9774250E+01  2.4760902E+01
 1.9785751E+01  2.4574652E+01
 1.9797251E+01  2.4552233E+01
 1.9808750E+01  2.4602119E+01
 1.9820251E+01  2.4719353E+01
 1.9831751E+01  2.4919292E+01
 1.9843250E+01  2.5054136E+01
 1.9854752E+01  2.5334782E+01
 1.9866251E+01  2.5320829E+01
 1.9877750E+01  2.5387268E+01
 1.9889252E+01  2.5162773E+01
 1.9900751E+01  2.5015217E+01
 1.9912251E+01  2.4684984E+01
 1.9923752E+01  2.4515251E+01
 1.9935251E+01  2.4353199E+01
 1.9946751E+01  2.4219334E+01
 1.9958250E+01  2.4103729E+01
 1.9969751E+01  2.4012281E+01
 1.9981251E+01  2.3914959E+01
 1.9992750E+01  2.3907366E+01
 2.0004251E+01  2.3889381E+01
 2.0015751E+01  2.3863989E+01
 2.0027250E+01  2.3837801E+01
 2.0038752E+01  2.3806580E+01
 2.0050251E+01  2.3820204E+01
 2.0061750E+01  2.3776695E+01
 2.0073252E+01  2.3778666E+01
 2.0084751E+01  2.3763781E+01
 2.0096251E+01  2.3787834E+01
 2.0107752E+01  2.3782249E+01
 2.0119251E+01  2.3814157E+01
 2.0130751E+01  2.3828953E+01
 2.0142250E+01  2.3830564E+01
 2.0153751E+01  2.3839279E+01
 2.0165251E+01  2.3904472E+01
 2.0176750E+01  2.3981449E+01
 2.0188251E+01  2.3975275E+01
 2.0199751E+01  2.3927784E+01
 2.0211250E+01  2.3890179E+01
 2.0222752E+01  2.3891142E+01
 2.0234251E+01  2.3887461E+01
 2.0245750E+01  2.3891500E+01
 2.0257252E+01  2.3871593E+01
 2.0268751E+01  2.3873081E+01
 2.0280251E+01  2.3930048E+01
 2.0291752E+01  2.3924976E+01
 2.0303251E+01  2.3851831E+01
 2.0314751E+01  2.3754972E+01
 2.0326250E+01  2.3745739E+01
 2.0337751E+01  2.3740057E+01
 2.0349251E+01  2.3733240E+01
 2.0360750E+01  2.3797981E+01
 2.0372252E+01  2.3792379E+01
 2.0383751E+01  2.3821070E+01
 2.0395250E+01  2.3817234E+01
 2.0406752E+01  2.3870014E+01
 2.0418251E+01  2.3888613E+01
 2.0429750E+01  2.3948698E+01
 2.0441252E+01  2.3951851E+01
 2.0452751E+01  2.3940760E+01
 2.0464251E+01  2.3872181E+01
 2.0475752E+01  2.3814007E+01
 2.0487251E+01  2.3821796E+01
 2.0498751E+01  2.3864548E+01
 2.0510250E+01  2.3891769E+01
 2.0521751E+01  2.3853748E+01
 2.0533251E+01  2.3811337E+01
 2.0544750E+01  2.3806856E+01
 2.0556252E+01  2.3809277E+01
 2.0567751E+01  2.3791889E+01
 2.0579250E+01  2.3800676E+01
 2.0590752E+01  2.3826401E+01
 2.0602251E+01  2.3914257E+01
 2.0613750E+01  2.3951900E+01
 2.0625252E+01  2.3988199E+01
 2.0636751E+01  2.3983534E+01
 2.0648251E+01  2.3926109E+01
 2.0659752E+01  2.3913170E+01
 2.0671251E+01  2.3922316E+01
 2.0682751E+01  2.3999813E+01
 2.0694250E+01  2.4046999E+01
 2.0705751E+01  2.4275616E+01
 2.0717251E+01  2.4455978E+01
 2.0728750E+01  2.4677809E+01
 2.0740252E+01  2.4749319E+01
 2.0751751E+01  2.4860224E+01
 2.0763250E+01  2.4900440E+01
 2.0774752E+01  2.4863619E+01
 2.0786251E+01  2.4759504E+01
 2.0797750E+01  2.4568512E+01
 2.0809252E+01  2.4384878E+01
 2.0820751E+01  2.4170868E+01
 2.0832251E+01  2.4070299E+01
 2.0843752E+01  2.4001690E+01
 2.0855251E+01  2.4033613E+01
 2.0866751E+01  2.3980652E+01
 2.0878250E+01  2.4006241E+01
 2.0889751E+01  2.3929459E+01
 2.0901251E+01  2.3934156E+01
 2.0912750E+01  2.3960812E+01
 2.0924252E+01  2.4050032E+01
 2.0935751E+01  2.4078823E+01
 2.0947250E+01  2.4130390E+01
 2.0958752E+01  2.4115080E+01
 2.0970251E+01  2.4106176E+01
 2.0981750E+01  2.4038839E+01
 2.0993252E+01  2.4018606E+01
 2.1004751E+01  2.3987646E+01
 2.1016251E+01  2.3963045E+01
 2.1027752E+01  2.3976082E+01
 2.1039251E+01  2.3960419E+01
 2.1050751E+01  2.3958836E+01
 2.1062250E+01  2.3945415E+01
 2.1073751E+01  2.3952358E+01
 2.1085251E+01  2.3964712E+01
 2.1096750E+01  2.3946005E+01
 2.1108252E+01  2.3977114E+01
 2.1119751E+01  2.4008621E+01
 2.1131250E+01  2.4026339E+01
 2.1142752E+01  2.3954571E+01
 2.1154251E+01  2.3881275E+01
 2.1165751E+01  2.3912115E+01
 2.1177252E+01  2.3978191E+01
 2.1188751E+01  2.4035727E+01
 2.1200251E+01  2.4089857E+01
 2.1211752E+01  2.4106903E+01
 2.1223251E+01  2.4069389E+01
 2.1234751E+01  2.3988815E+01
 2.1246250E+01  2.3981777E+01
 2.1257751E+01  2.3968979E+01
 2.1269251E+01  2.4000500E+01
 2.1280750E+01  2.3996906E+01
 2.1292252E+01  2.4020203E+01
 2.1303751E+01  2.4042753E+01
 2.1315250E+01  2.3998281E+01
 2.1326752E+01  2.3995365E+01
 2.1338251E+01  2.3977345E+01
 2.1349751E+01  2.4009346E+01
 2.1361252E+01  2.4074823E+01
 2.1372751E+01  2.4135344E+01
 2.1384251E+01  2.4101955E+01
 2.1395752E+01  2.4066380E+01
 2.1407251E+01  2.4049084E+01
 2.1418751E+01  2.4033373E+01
 2.1430250E+01  2.3991379E+01
 2.1441751E+01  2.3943855E+01
 2.1453251E+01  2.3920069E+01
 2.1464750E+01  2.3893282E+01
 2.1476252E+01  2.3930550E+01
 2.1487751E+01  2.4017389E+01
 2.1499250E+01  2.4115971E+01
 2.1510752E+01  2.4141132E+01
 2.1522251E+01  2.4135603E+01
 2.1533751E+01  2.4140991E+01
 2.1545252E+01  2.4139729E+01
 2.1556751E+01  2.4127399E+01
 2.1568251E+01  2.4155914E+01
 2.1579752E+01  2.4135939E+01
 2.1591251E+01  2.4134184E+01
 2.1602751E+01  2.4111412E+01
 2.1614250E+01  2.4106579E+01
 2.1625751E+01  2.4124783E+01
 2.1637251E+01  2.4135296E+01
 2.1648750E+01  2.4161552E+01
 2.1660252E+01  2.4199276E+01
 2.1671751E+01  2.4201118E+01
 2.1683250E+01  2.4223602E+01
 2.1694752E+01  2.4215075E+01
 2.1706251E+01  2.4260025E+01
 2.1717751E+01  2.4238710E+01
 2.1729252E+01  2.4274006E+01
 2.1740751E+01  2.4221037E+01
 2.1752251E+01  2.4203430E+01
 2.1763752E+01  2.4149418E+01
 2.1775251E+01  2.4112307E+01
 2.1786751E+01  2.4141277E+01
 2.1798250E+01  2.4181015E+01
 2.1809752E+01  2.4239437E+01
 2.1821251E+01  2.4230640E+01
 2.1832750E+01  2.4183264E+01
 2.1844252E+01  2.4187147E+01
 2.1855751E+01  2.4234314E+01
 2.1867250E+01  2.4242905E+01
 2.1878752E+01  2.4229181E+01
 2.1890251E+01  2.4195448E+01
 2.1901751E+01  2.4204302E+01
 2.1913252E+01  2.4221914E+01
 2.1924751E+01  2.4269981E+01
 2.1936251E+01  2.4276333E+01
 2.1947752E+01  2.4319559E+01
 2.1959251E+01  2.4358284E+01
 2.1970751E+01  2.4365580E+01
 2.1982250E+01  2.4318539E+01
 2.1993752E+01  2.4304548E+01
 2.2005251E+01  2.4316879E+01
 2.2016750E+01  2.4378731E+01
 2.2028252E+01  2.4387600E+01
 2.2039751E+01  2.4353676E+01
 2.2051250E+01  2.4312622E+01
 2.2062752E+01  2.4296715E+01
 2.2074251E+01  2.4332741E+01
 2.2085751E+01  2.4393078E+01
 2.2097252E+01  2.4432198E+01
 2.2108751E+01  2.4457495E+01
 2.2120251E+01  2.4480202E+01
 2.2131752E+01  2.4464008E+01
 2.2143251E+01  2.4449575E+01
 2.2154751E+01  2.4429464E+01
 2.2166250E+01  2.4433289E+01
 2.2177752E+01  2.4438894E+01
 2.2189251E+01  2.4423733E+01
 2.2200750E+01  2.4418413E+01
 2.2212252E+01  2.4403505E+01
 2.2223751E+01  2.4427921E+01
 2.2235250E+01  2.4458244E+01
 2.2246752E+01  2.4516722E+01
 2.2258251E+01  2.4551031E+01
 2.2269751E+01  2.4584476E+01
 2.2281252E+01  2.4620174E+01
 2.2292751E+01  2.4680027E+01
 2.2304251E+01  2.4735830E+01
 2.2315752E+01  2.4758804E+01
 2.2327251E+01  2.4758829E+01
 2.2338751E+01  2.4707672E+01
 2.2350250E+01  2.4703041E+01
 2.2361752E+01  2.4663837E+01
 2.2373251E+01  2.4666744E+01
 2.2384750E+01  2.4655737E+01
 2.2396252E+01  2.4691826E+01
 2.2407751E+01  2.4661419E+01
 2.2419250E+01  2.4576033E+01
 2.2430752E+01  2.4527658E+01
 2.2442251E+01  2.4586851E+01
 2.2453751E+01  2.4644638E+01
 2.2465252E+01  2.4655373E+01
 2.2476751E+01  2.4645744E+01
 2.2488251E+01  2.4730324E+01
 2.2499752E+01  2.4765131E+01
 2.2511251E+01  2.4864271E+01
 2.2522751E+01  2.4923004E+01
 2.2534250E+01  2.4946352E+01
 2.2545752E+01  2.4935352E+01
 2.2557251E+01  2.4935072E+01
 2.2568750E+01  2.4920351E+01
 2.2580252E+01  2.4930235E+01
 2.2591751E+01  2.4909456E+01
 2.2603251E+01  2.4929647E+01
 2.2614752E+01  2.4976231E+01
 2.2626251E+01  2.5048359E+01
 2.2637751E+01  2.5101694E+01
 2.2649252E+01  2.5078781E+01
 2.2660751E+01  2.5011534E+01
 2.2672251E+01  2.5008804E+01
 2.2683752E+01  2.5045443E+01
 2.2695251E+01  2.5095051E+01
 2.2706751E+01  2.5101715E+01
 2.2718250E+01  2.5100189E+01
 2.2729752E+01  2.5091160E+01
 2.2741251E+01  2.5135149E+01
 2.2752750E+01  2.5199892E+01
 2.2764252E+01  2.5263029E+01
 2.2775751E+01  2.5299383E+01
 2.2787251E+01  2.5297447E+01
 2.2798752E+01  2.5385435E+01
 2.2810251E+01  2.5450012E+01
 2.2821751E+01  2.5499205E+01
 2.2833252E+01  2.5567427E+01
 2.2844751E+01  2.5586054E+01
 2.2856251E+01  2.5592377E+01
 2.2867750E+01  2.5633007E+01
 2.2879251E+01  2.5695457E+01
 2.2890751E+01  2.5772644E+01
 2.2902250E+01  2.5780783E+01
 2.2913752E+01  2.5862709E+01
 2.2925251E+01  2.5978420E+01
 2.2936750E+01  2.6053940E+01
 2.2948252E+01  2.6085436E+01
 2.2959751E+01  2.6094217E+01
 2.2971251E+01  2.6213541E+01
 2.2982752E+01  2.6347509E+01
 2.2994251E+01  2.6460859E+01
