F:\20151113_APS_34IDE\\Brian\Particle1\OCV\Data_0068.tif
2-Theta Angle (Degrees)
Intensity
       2000
 5.7500005E-03  0.0000000E+00
 1.7250001E-02  0.0000000E+00
 2.8750001E-02  0.0000000E+00
 4.0250003E-02  0.0000000E+00
 5.1750004E-02  0.0000000E+00
 6.3250005E-02  0.0000000E+00
 7.4750006E-02  0.0000000E+00
 8.6250007E-02  0.0000000E+00
 9.7750008E-02  0.0000000E+00
 1.0925001E-01  0.0000000E+00
 1.2075000E-01  0.0000000E+00
 1.3225001E-01  0.0000000E+00
 1.4375001E-01  0.0000000E+00
 1.5525001E-01  0.0000000E+00
 1.6675001E-01  0.0000000E+00
 1.7825001E-01  0.0000000E+00
 1.8975002E-01  0.0000000E+00
 2.0125002E-01  0.0000000E+00
 2.1275002E-01  0.0000000E+00
 2.2425000E-01  0.0000000E+00
 2.3575000E-01  0.0000000E+00
 2.4725001E-01  0.0000000E+00
 2.5875002E-01  0.0000000E+00
 2.7025002E-01  0.0000000E+00
 2.8175002E-01  0.0000000E+00
 2.9325002E-01  0.0000000E+00
 3.0475003E-01  0.0000000E+00
 3.1625003E-01  0.0000000E+00
 3.2775003E-01  0.0000000E+00
 3.3925003E-01  0.0000000E+00
 3.5075003E-01  0.0000000E+00
 3.6225003E-01  0.0000000E+00
 3.7375003E-01  0.0000000E+00
 3.8525003E-01  0.0000000E+00
 3.9675003E-01  0.0000000E+00
 4.0825003E-01  0.0000000E+00
 4.1975003E-01  0.0000000E+00
 4.3125004E-01  0.0000000E+00
 4.4275001E-01  0.0000000E+00
 4.5425001E-01  0.0000000E+00
 4.6575001E-01  0.0000000E+00
 4.7725001E-01  0.0000000E+00
 4.8875001E-01  0.0000000E+00
 5.0025004E-01  0.0000000E+00
 5.1175004E-01  0.0000000E+00
 5.2325004E-01  0.0000000E+00
 5.3475004E-01  0.0000000E+00
 5.4625005E-01  0.0000000E+00
 5.5775005E-01  0.0000000E+00
 5.6925005E-01  0.0000000E+00
 5.8075005E-01  0.0000000E+00
 5.9225005E-01  0.0000000E+00
 6.0375005E-01  0.0000000E+00
 6.1525005E-01  0.0000000E+00
 6.2675005E-01  0.0000000E+00
 6.3825005E-01  0.0000000E+00
 6.4975005E-01  0.0000000E+00
 6.6125005E-01  0.0000000E+00
 6.7275006E-01  0.0000000E+00
 6.8425006E-01  0.0000000E+00
 6.9575006E-01  0.0000000E+00
 7.0725006E-01  0.0000000E+00
 7.1875006E-01  0.0000000E+00
 7.3025006E-01  0.0000000E+00
 7.4175006E-01  0.0000000E+00
 7.5325006E-01  0.0000000E+00
 7.6475006E-01  0.0000000E+00
 7.7625006E-01  0.0000000E+00
 7.8775007E-01  0.0000000E+00
 7.9925007E-01  0.0000000E+00
 8.1075007E-01  0.0000000E+00
 8.2225007E-01  0.0000000E+00
 8.3375007E-01  0.0000000E+00
 8.4525007E-01  0.0000000E+00
 8.5675007E-01  0.0000000E+00
 8.6825007E-01  0.0000000E+00
 8.7975001E-01  0.0000000E+00
 8.9125001E-01  0.0000000E+00
 9.0275002E-01  0.0000000E+00
 9.1425002E-01  0.0000000E+00
 9.2575002E-01  0.0000000E+00
 9.3725002E-01  0.0000000E+00
 9.4875002E-01  0.0000000E+00
 9.6025002E-01  0.0000000E+00
 9.7175002E-01  0.0000000E+00
 9.8325002E-01  0.0000000E+00
 9.9475002E-01  0.0000000E+00
 1.0062500E+00  0.0000000E+00
 1.0177500E+00  0.0000000E+00
 1.0292500E+00  0.0000000E+00
 1.0407500E+00  0.0000000E+00
 1.0522500E+00  0.0000000E+00
 1.0637500E+00  0.0000000E+00
 1.0752500E+00  0.0000000E+00
 1.0867500E+00  0.0000000E+00
 1.0982500E+00  0.0000000E+00
 1.1097500E+00  0.0000000E+00
 1.1212500E+00  0.0000000E+00
 1.1327500E+00  0.0000000E+00
 1.1442500E+00  0.0000000E+00
 1.1557500E+00  0.0000000E+00
 1.1672500E+00  0.0000000E+00
 1.1787500E+00  0.0000000E+00
 1.1902500E+00  0.0000000E+00
 1.2017500E+00  0.0000000E+00
 1.2132500E+00  0.0000000E+00
 1.2247500E+00  0.0000000E+00
 1.2362500E+00  0.0000000E+00
 1.2477500E+00  0.0000000E+00
 1.2592500E+00  0.0000000E+00
 1.2707500E+00  0.0000000E+00
 1.2822500E+00  0.0000000E+00
 1.2937500E+00  0.0000000E+00
 1.3052500E+00  0.0000000E+00
 1.3167500E+00  0.0000000E+00
 1.3282501E+00  0.0000000E+00
 1.3397501E+00  0.0000000E+00
 1.3512501E+00  0.0000000E+00
 1.3627501E+00  0.0000000E+00
 1.3742501E+00  0.0000000E+00
 1.3857501E+00  0.0000000E+00
 1.3972501E+00  0.0000000E+00
 1.4087501E+00  0.0000000E+00
 1.4202501E+00  0.0000000E+00
 1.4317501E+00  0.0000000E+00
 1.4432501E+00  0.0000000E+00
 1.4547501E+00  0.0000000E+00
 1.4662501E+00  0.0000000E+00
 1.4777501E+00  0.0000000E+00
 1.4892501E+00  0.0000000E+00
 1.5007501E+00  0.0000000E+00
 1.5122501E+00  0.0000000E+00
 1.5237501E+00  0.0000000E+00
 1.5352501E+00  0.0000000E+00
 1.5467501E+00  0.0000000E+00
 1.5582501E+00  0.0000000E+00
 1.5697501E+00  0.0000000E+00
 1.5812501E+00  0.0000000E+00
 1.5927501E+00  0.0000000E+00
 1.6042501E+00  0.0000000E+00
 1.6157501E+00  0.0000000E+00
 1.6272501E+00  0.0000000E+00
 1.6387501E+00  0.0000000E+00
 1.6502501E+00  0.0000000E+00
 1.6617501E+00  0.0000000E+00
 1.6732501E+00  0.0000000E+00
 1.6847501E+00  0.0000000E+00
 1.6962501E+00  0.0000000E+00
 1.7077501E+00  0.0000000E+00
 1.7192501E+00  0.0000000E+00
 1.7307501E+00  0.0000000E+00
 1.7422501E+00  0.0000000E+00
 1.7537501E+00  0.0000000E+00
 1.7652501E+00  0.0000000E+00
 1.7767501E+00  0.0000000E+00
 1.7882501E+00  0.0000000E+00
 1.7997501E+00  0.0000000E+00
 1.8112501E+00  0.0000000E+00
 1.8227501E+00  0.0000000E+00
 1.8342501E+00  0.0000000E+00
 1.8457501E+00  0.0000000E+00
 1.8572501E+00  0.0000000E+00
 1.8687501E+00  0.0000000E+00
 1.8802501E+00  0.0000000E+00
 1.8917501E+00  0.0000000E+00
 1.9032501E+00  0.0000000E+00
 1.9147501E+00  0.0000000E+00
 1.9262501E+00  0.0000000E+00
 1.9377501E+00  0.0000000E+00
 1.9492501E+00  0.0000000E+00
 1.9607501E+00  0.0000000E+00
 1.9722501E+00  0.0000000E+00
 1.9837501E+00  0.0000000E+00
 1.9952501E+00  0.0000000E+00
 2.0067501E+00  0.0000000E+00
 2.0182500E+00  0.0000000E+00
 2.0297501E+00  0.0000000E+00
 2.0412500E+00  0.0000000E+00
 2.0527501E+00  0.0000000E+00
 2.0642500E+00  0.0000000E+00
 2.0757501E+00  0.0000000E+00
 2.0872500E+00  0.0000000E+00
 2.0987501E+00  0.0000000E+00
 2.1102500E+00  0.0000000E+00
 2.1217501E+00  0.0000000E+00
 2.1332500E+00  0.0000000E+00
 2.1447501E+00  0.0000000E+00
 2.1562500E+00  0.0000000E+00
 2.1677501E+00  0.0000000E+00
 2.1792500E+00  0.0000000E+00
 2.1907501E+00  0.0000000E+00
 2.2022500E+00  0.0000000E+00
 2.2137501E+00  0.0000000E+00
 2.2252500E+00  0.0000000E+00
 2.2367501E+00  0.0000000E+00
 2.2482500E+00  0.0000000E+00
 2.2597501E+00  0.0000000E+00
 2.2712500E+00  0.0000000E+00
 2.2827501E+00  0.0000000E+00
 2.2942500E+00  0.0000000E+00
 2.3057501E+00  0.0000000E+00
 2.3172500E+00  0.0000000E+00
 2.3287501E+00  0.0000000E+00
 2.3402500E+00  0.0000000E+00
 2.3517501E+00  0.0000000E+00
 2.3632500E+00  0.0000000E+00
 2.3747501E+00  0.0000000E+00
 2.3862500E+00  0.0000000E+00
 2.3977501E+00  0.0000000E+00
 2.4092500E+00  0.0000000E+00
 2.4207501E+00  0.0000000E+00
 2.4322500E+00  0.0000000E+00
 2.4437501E+00  0.0000000E+00
 2.4552500E+00  0.0000000E+00
 2.4667501E+00  0.0000000E+00
 2.4782500E+00  0.0000000E+00
 2.4897501E+00  0.0000000E+00
 2.5012500E+00  0.0000000E+00
 2.5127501E+00  0.0000000E+00
 2.5242500E+00  0.0000000E+00
 2.5357502E+00  0.0000000E+00
 2.5472500E+00  0.0000000E+00
 2.5587502E+00  0.0000000E+00
 2.5702500E+00  0.0000000E+00
 2.5817502E+00  0.0000000E+00
 2.5932500E+00  0.0000000E+00
 2.6047502E+00  0.0000000E+00
 2.6162500E+00  0.0000000E+00
 2.6277502E+00  0.0000000E+00
 2.6392500E+00  0.0000000E+00
 2.6507502E+00  0.0000000E+00
 2.6622500E+00  0.0000000E+00
 2.6737502E+00  0.0000000E+00
 2.6852500E+00  0.0000000E+00
 2.6967502E+00  0.0000000E+00
 2.7082500E+00  0.0000000E+00
 2.7197502E+00  0.0000000E+00
 2.7312500E+00  0.0000000E+00
 2.7427502E+00  0.0000000E+00
 2.7542500E+00  0.0000000E+00
 2.7657502E+00  0.0000000E+00
 2.7772501E+00  0.0000000E+00
 2.7887502E+00  0.0000000E+00
 2.8002501E+00  0.0000000E+00
 2.8117502E+00  0.0000000E+00
 2.8232501E+00  3.8642529E+01
 2.8347502E+00  3.6204136E+01
 2.8462501E+00  3.4940819E+01
 2.8577502E+00  3.3908035E+01
 2.8692501E+00  3.3420731E+01
 2.8807502E+00  3.3063416E+01
 2.8922501E+00  3.2884995E+01
 2.9037502E+00  3.2924431E+01
 2.9152501E+00  3.3107582E+01
 2.9267502E+00  3.3675579E+01
 2.9382501E+00  3.4369534E+01
 2.9497502E+00  3.5225468E+01
 2.9612501E+00  3.5703396E+01
 2.9727502E+00  3.6043606E+01
 2.9842501E+00  3.6215202E+01
 2.9957502E+00  3.6279438E+01
 3.0072501E+00  3.6176838E+01
 3.0187502E+00  3.5270462E+01
 3.0302501E+00  3.4792496E+01
 3.0417502E+00  3.4113537E+01
 3.0532501E+00  3.4139553E+01
 3.0647502E+00  3.4435829E+01
 3.0762501E+00  3.4760635E+01
 3.0877502E+00  3.5086864E+01
 3.0992501E+00  3.5336575E+01
 3.1107502E+00  3.5536388E+01
 3.1222501E+00  3.5763195E+01
 3.1337502E+00  3.5621777E+01
 3.1452501E+00  3.5856373E+01
 3.1567502E+00  3.5530006E+01
 3.1682501E+00  3.5627346E+01
 3.1797502E+00  3.5403160E+01
 3.1912501E+00  3.5399071E+01
 3.2027502E+00  3.5318638E+01
 3.2142501E+00  3.5188484E+01
 3.2257502E+00  3.5160500E+01
 3.2372501E+00  3.5306953E+01
 3.2487502E+00  3.5039776E+01
 3.2602501E+00  3.5225964E+01
 3.2717502E+00  3.4966393E+01
 3.2832501E+00  3.5015015E+01
 3.2947502E+00  3.4601681E+01
 3.3062501E+00  3.4358440E+01
 3.3177502E+00  3.4139877E+01
 3.3292501E+00  3.4131866E+01
 3.3407502E+00  3.4023808E+01
 3.3522501E+00  3.4366352E+01
 3.3637502E+00  3.4627163E+01
 3.3752501E+00  3.4941204E+01
 3.3867502E+00  3.4753998E+01
 3.3982501E+00  3.4936314E+01
 3.4097502E+00  3.4815670E+01
 3.4212501E+00  3.4746464E+01
 3.4327502E+00  3.4414223E+01
 3.4442501E+00  3.4383018E+01
 3.4557502E+00  3.4504696E+01
 3.4672501E+00  3.4465778E+01
 3.4787502E+00  3.4787273E+01
 3.4902501E+00  3.4825634E+01
 3.5017502E+00  3.4849239E+01
 3.5132501E+00  3.4503956E+01
 3.5247502E+00  3.4028542E+01
 3.5362501E+00  3.3768356E+01
 3.5477502E+00  3.3350765E+01
 3.5592501E+00  3.3061646E+01
 3.5707502E+00  3.2927994E+01
 3.5822501E+00  3.3094437E+01
 3.5937502E+00  3.3153572E+01
 3.6052501E+00  3.3033192E+01
 3.6167502E+00  3.2914715E+01
 3.6282501E+00  3.2901566E+01
 3.6397502E+00  3.2863247E+01
 3.6512501E+00  3.2824886E+01
 3.6627502E+00  3.2912167E+01
 3.6742501E+00  3.3067226E+01
 3.6857502E+00  3.3226059E+01
 3.6972501E+00  3.3061989E+01
 3.7087502E+00  3.3048405E+01
 3.7202501E+00  3.2869999E+01
 3.7317502E+00  3.2848122E+01
 3.7432501E+00  3.2979126E+01
 3.7547503E+00  3.2959930E+01
 3.7662501E+00  3.2796200E+01
 3.7777503E+00  3.2591202E+01
 3.7892501E+00  3.2455837E+01
 3.8007503E+00  3.2598923E+01
 3.8122501E+00  3.2732841E+01
 3.8237503E+00  3.2663738E+01
 3.8352501E+00  3.2614212E+01
 3.8467503E+00  3.2489758E+01
 3.8582501E+00  3.2471218E+01
 3.8697503E+00  3.2381508E+01
 3.8812501E+00  3.2226242E+01
 3.8927503E+00  3.1937742E+01
 3.9042501E+00  3.1875090E+01
 3.9157503E+00  3.2011047E+01
 3.9272501E+00  3.2328930E+01
 3.9387503E+00  3.2790627E+01
 3.9502501E+00  3.2823769E+01
 3.9617503E+00  3.2927074E+01
 3.9732502E+00  3.2735947E+01
 3.9847503E+00  3.2626930E+01
 3.9962502E+00  3.2468533E+01
 4.0077500E+00  3.2385036E+01
 4.0192504E+00  3.2301098E+01
 4.0307503E+00  3.2240093E+01
 4.0422502E+00  3.2336842E+01
 4.0537500E+00  3.2481281E+01
 4.0652504E+00  3.2673767E+01
 4.0767503E+00  3.2685299E+01
 4.0882502E+00  3.2821201E+01
 4.0997500E+00  3.2894539E+01
 4.1112504E+00  3.2872154E+01
 4.1227503E+00  3.2713188E+01
 4.1342502E+00  3.2441010E+01
 4.1457500E+00  3.2339359E+01
 4.1572504E+00  3.2082550E+01
 4.1687503E+00  3.2098488E+01
 4.1802502E+00  3.2083416E+01
 4.1917500E+00  3.2286968E+01
 4.2032504E+00  3.2255768E+01
 4.2147503E+00  3.2263264E+01
 4.2262502E+00  3.2236397E+01
 4.2377501E+00  3.2174332E+01
 4.2492504E+00  3.2107796E+01
 4.2607503E+00  3.2106030E+01
 4.2722502E+00  3.1970711E+01
 4.2837501E+00  3.2088638E+01
 4.2952504E+00  3.2010529E+01
 4.3067503E+00  3.2160336E+01
 4.3182502E+00  3.2146065E+01
 4.3297501E+00  3.2118557E+01
 4.3412504E+00  3.2123772E+01
 4.3527503E+00  3.2236496E+01
 4.3642502E+00  3.2229118E+01
 4.3757501E+00  3.2372257E+01
 4.3872504E+00  3.2363945E+01
 4.3987503E+00  3.2411819E+01
 4.4102502E+00  3.2410595E+01
 4.4217501E+00  3.2434368E+01
 4.4332504E+00  3.2542355E+01
 4.4447503E+00  3.2439640E+01
 4.4562502E+00  3.2362480E+01
 4.4677501E+00  3.2270210E+01
 4.4792504E+00  3.2323490E+01
 4.4907503E+00  3.2305866E+01
 4.5022502E+00  3.2409325E+01
 4.5137501E+00  3.2450226E+01
 4.5252504E+00  3.2593147E+01
 4.5367503E+00  3.2478695E+01
 4.5482502E+00  3.2509983E+01
 4.5597501E+00  3.2381321E+01
 4.5712504E+00  3.2510704E+01
 4.5827503E+00  3.2524025E+01
 4.5942502E+00  3.2689751E+01
 4.6057501E+00  3.2692703E+01
 4.6172504E+00  3.2795971E+01
 4.6287503E+00  3.2733589E+01
 4.6402502E+00  3.2743858E+01
 4.6517501E+00  3.2710068E+01
 4.6632504E+00  3.2846657E+01
 4.6747503E+00  3.2819347E+01
 4.6862502E+00  3.2855247E+01
 4.6977501E+00  3.2861446E+01
 4.7092505E+00  3.2940701E+01
 4.7207503E+00  3.2864349E+01
 4.7322502E+00  3.2774071E+01
 4.7437501E+00  3.2637520E+01
 4.7552505E+00  3.2586548E+01
 4.7667503E+00  3.2546455E+01
 4.7782502E+00  3.2467548E+01
 4.7897501E+00  3.2494301E+01
 4.8012505E+00  3.2509125E+01
 4.8127503E+00  3.2596024E+01
 4.8242502E+00  3.2631779E+01
 4.8357501E+00  3.2636276E+01
 4.8472505E+00  3.2709148E+01
 4.8587503E+00  3.2739441E+01
 4.8702502E+00  3.2733299E+01
 4.8817501E+00  3.2664063E+01
 4.8932505E+00  3.2632782E+01
 4.9047503E+00  3.2645191E+01
 4.9162502E+00  3.2740112E+01
 4.9277501E+00  3.2823208E+01
 4.9392505E+00  3.2839520E+01
 4.9507504E+00  3.2751366E+01
 4.9622502E+00  3.2615299E+01
 4.9737501E+00  3.2533081E+01
 4.9852505E+00  3.2628410E+01
 4.9967504E+00  3.2602039E+01
 5.0082502E+00  3.2796204E+01
 5.0197501E+00  3.2889404E+01
 5.0312505E+00  3.3065987E+01
 5.0427504E+00  3.3166634E+01
 5.0542502E+00  3.3209682E+01
 5.0657501E+00  3.3285389E+01
 5.0772505E+00  3.3347660E+01
 5.0887504E+00  3.3431805E+01
 5.1002502E+00  3.3427788E+01
 5.1117501E+00  3.3435673E+01
 5.1232505E+00  3.3364109E+01
 5.1347504E+00  3.3514065E+01
 5.1462502E+00  3.3529480E+01
 5.1577501E+00  3.3619946E+01
 5.1692505E+00  3.3747414E+01
 5.1807504E+00  3.3931870E+01
 5.1922503E+00  3.4061611E+01
 5.2037501E+00  3.4064262E+01
 5.2152505E+00  3.4002869E+01
 5.2267504E+00  3.3967911E+01
 5.2382503E+00  3.3964931E+01
 5.2497501E+00  3.3856865E+01
 5.2612505E+00  3.3855030E+01
 5.2727504E+00  3.3768322E+01
 5.2842503E+00  3.3843407E+01
 5.2957501E+00  3.3962212E+01
 5.3072500E+00  3.3962852E+01
 5.3187504E+00  3.4006088E+01
 5.3302503E+00  3.3790730E+01
 5.3417501E+00  3.3742359E+01
 5.3532500E+00  3.3821831E+01
 5.3647504E+00  3.3961910E+01
 5.3762503E+00  3.4138321E+01
 5.3877501E+00  3.4341671E+01
 5.3992500E+00  3.4398735E+01
 5.4107504E+00  3.4479183E+01
 5.4222503E+00  3.4359921E+01
 5.4337502E+00  3.4245110E+01
 5.4452500E+00  3.4371082E+01
 5.4567504E+00  3.4386837E+01
 5.4682503E+00  3.4500214E+01
 5.4797502E+00  3.4501499E+01
 5.4912500E+00  3.4466801E+01
 5.5027504E+00  3.4468693E+01
 5.5142503E+00  3.4450531E+01
 5.5257502E+00  3.4436672E+01
 5.5372500E+00  3.4411991E+01
 5.5487504E+00  3.4467537E+01
 5.5602503E+00  3.4569023E+01
 5.5717502E+00  3.4697979E+01
 5.5832500E+00  3.4722519E+01
 5.5947504E+00  3.4874508E+01
 5.6062503E+00  3.5007759E+01
 5.6177502E+00  3.5130157E+01
 5.6292500E+00  3.5081070E+01
 5.6407504E+00  3.5037712E+01
 5.6522503E+00  3.5060074E+01
 5.6637502E+00  3.5155628E+01
 5.6752501E+00  3.5272179E+01
 5.6867504E+00  3.5452911E+01
 5.6982503E+00  3.5398880E+01
 5.7097502E+00  3.5477188E+01
 5.7212501E+00  3.5458424E+01
 5.7327504E+00  3.5568558E+01
 5.7442503E+00  3.5498253E+01
 5.7557502E+00  3.5567532E+01
 5.7672501E+00  3.5807629E+01
 5.7787504E+00  3.6077747E+01
 5.7902503E+00  3.6344532E+01
 5.8017502E+00  3.6495968E+01
 5.8132501E+00  3.6573704E+01
 5.8247504E+00  3.6938023E+01
 5.8362503E+00  3.7035736E+01
 5.8477502E+00  3.7065048E+01
 5.8592501E+00  3.7896366E+01
 5.8707504E+00  3.8036785E+01
 5.8822503E+00  3.9128155E+01
 5.8937502E+00  4.1665199E+01
 5.9052501E+00  4.2388817E+01
 5.9167504E+00  5.1388783E+01
 5.9282503E+00  5.9470760E+01
 5.9397502E+00  6.4887108E+01
 5.9512501E+00  1.0175643E+02
 5.9627504E+00  1.0916492E+02
 5.9742503E+00  1.1424520E+02
 5.9857502E+00  9.0086197E+01
 5.9972501E+00  7.0022247E+01
 6.0087504E+00  6.5265785E+01
 6.0202503E+00  5.2030247E+01
 6.0317502E+00  4.7881947E+01
 6.0432501E+00  4.3611221E+01
 6.0547504E+00  4.0803455E+01
 6.0662503E+00  3.9741489E+01
 6.0777502E+00  3.8977871E+01
 6.0892501E+00  3.8354771E+01
 6.1007504E+00  3.8241112E+01
 6.1122503E+00  3.8160362E+01
 6.1237502E+00  3.7922092E+01
 6.1352501E+00  3.7798424E+01
 6.1467505E+00  3.7469212E+01
 6.1582503E+00  3.7323753E+01
 6.1697502E+00  3.7365322E+01
 6.1812501E+00  3.7274948E+01
 6.1927505E+00  3.7307049E+01
 6.2042503E+00  3.7179607E+01
 6.2157502E+00  3.7071289E+01
 6.2272501E+00  3.6968781E+01
 6.2387505E+00  3.7073330E+01
 6.2502503E+00  3.7034744E+01
 6.2617502E+00  3.7162685E+01
 6.2732501E+00  3.7226406E+01
 6.2847505E+00  3.7348099E+01
 6.2962503E+00  3.7435627E+01
 6.3077502E+00  3.7470860E+01
 6.3192501E+00  3.7522621E+01
 6.3307505E+00  3.7700176E+01
 6.3422503E+00  3.7807880E+01
 6.3537502E+00  3.8047310E+01
 6.3652501E+00  3.8162273E+01
 6.3767505E+00  3.8390587E+01
 6.3882504E+00  3.8484970E+01
 6.3997502E+00  3.8533867E+01
 6.4112501E+00  3.8503056E+01
 6.4227505E+00  3.8493290E+01
 6.4342504E+00  3.8499043E+01
 6.4457502E+00  3.8497368E+01
 6.4572501E+00  3.8472057E+01
 6.4687505E+00  3.8512897E+01
 6.4802504E+00  3.8572891E+01
 6.4917502E+00  3.8564182E+01
 6.5032501E+00  3.8580231E+01
 6.5147505E+00  3.8608067E+01
 6.5262504E+00  3.8801548E+01
 6.5377502E+00  3.8935997E+01
 6.5492501E+00  3.9072239E+01
 6.5607505E+00  3.9082615E+01
 6.5722504E+00  3.9107861E+01
 6.5837502E+00  3.9023617E+01
 6.5952501E+00  3.9073547E+01
 6.6067505E+00  3.9157757E+01
 6.6182504E+00  3.9286598E+01
 6.6297503E+00  3.9379471E+01
 6.6412501E+00  3.9415283E+01
 6.6527505E+00  3.9498768E+01
 6.6642504E+00  3.9571857E+01
 6.6757503E+00  3.9676762E+01
 6.6872501E+00  3.9757793E+01
 6.6987505E+00  3.9942528E+01
 6.7102504E+00  4.0118675E+01
 6.7217503E+00  4.0247383E+01
 6.7332501E+00  4.0371120E+01
 6.7447505E+00  4.0511158E+01
 6.7562504E+00  4.0749016E+01
 6.7677503E+00  4.0886051E+01
 6.7792501E+00  4.0885971E+01
 6.7907505E+00  4.0904469E+01
 6.8022504E+00  4.0979889E+01
 6.8137503E+00  4.1092022E+01
 6.8252501E+00  4.1162350E+01
 6.8367505E+00  4.1187389E+01
 6.8482504E+00  4.1299896E+01
 6.8597503E+00  4.1417980E+01
 6.8712502E+00  4.1565590E+01
 6.8827505E+00  4.1612858E+01
 6.8942504E+00  4.1642384E+01
 6.9057503E+00  4.1659588E+01
 6.9172502E+00  4.1683895E+01
 6.9287505E+00  4.1669785E+01
 6.9402504E+00  4.1663536E+01
 6.9517503E+00  4.1659130E+01
 6.9632502E+00  4.1698433E+01
 6.9747505E+00  4.1702202E+01
 6.9862504E+00  4.1875591E+01
 6.9977503E+00  4.1922848E+01
 7.0092502E+00  4.2069054E+01
 7.0207505E+00  4.2101284E+01
 7.0322504E+00  4.2253540E+01
 7.0437503E+00  4.2254307E+01
 7.0552502E+00  4.2322914E+01
 7.0667505E+00  4.2313908E+01
 7.0782504E+00  4.2403397E+01
 7.0897503E+00  4.2422882E+01
 7.1012502E+00  4.2534687E+01
 7.1127505E+00  4.2704079E+01
 7.1242504E+00  4.2826584E+01
 7.1357503E+00  4.2865208E+01
 7.1472502E+00  4.2814297E+01
 7.1587505E+00  4.2848171E+01
 7.1702504E+00  4.2922550E+01
 7.1817503E+00  4.2990372E+01
 7.1932502E+00  4.2989731E+01
 7.2047505E+00  4.2960426E+01
 7.2162504E+00  4.2939713E+01
 7.2277503E+00  4.2930489E+01
 7.2392502E+00  4.3029324E+01
 7.2507505E+00  4.3208370E+01
 7.2622504E+00  4.3371727E+01
 7.2737503E+00  4.3455044E+01
 7.2852502E+00  4.3453644E+01
 7.2967505E+00  4.3344128E+01
 7.3082504E+00  4.3334118E+01
 7.3197503E+00  4.3371128E+01
 7.3312502E+00  4.3450829E+01
 7.3427505E+00  4.3522293E+01
 7.3542504E+00  4.3600178E+01
 7.3657503E+00  4.3761063E+01
 7.3772502E+00  4.3845894E+01
 7.3887506E+00  4.3971992E+01
 7.4002504E+00  4.3997059E+01
 7.4117503E+00  4.4093086E+01
 7.4232502E+00  4.3910221E+01
 7.4347506E+00  4.3879955E+01
 7.4462504E+00  4.3809238E+01
 7.4577503E+00  4.3857613E+01
 7.4692502E+00  4.3783848E+01
 7.4807506E+00  4.3705585E+01
 7.4922504E+00  4.3731403E+01
 7.5037503E+00  4.3808144E+01
 7.5152502E+00  4.3919693E+01
 7.5267506E+00  4.4008564E+01
 7.5382504E+00  4.4154850E+01
 7.5497503E+00  4.4133064E+01
 7.5612502E+00  4.4125801E+01
 7.5727506E+00  4.4007339E+01
 7.5842505E+00  4.3956684E+01
 7.5957503E+00  4.3851173E+01
 7.6072502E+00  4.3824356E+01
 7.6187506E+00  4.3852943E+01
 7.6302505E+00  4.3931374E+01
 7.6417503E+00  4.3965813E+01
 7.6532502E+00  4.3961357E+01
 7.6647506E+00  4.3941833E+01
 7.6762505E+00  4.3948139E+01
 7.6877503E+00  4.3931580E+01
 7.6992502E+00  4.3936878E+01
 7.7107506E+00  4.4004662E+01
 7.7222505E+00  4.4147434E+01
 7.7337503E+00  4.4156879E+01
 7.7452502E+00  4.4163227E+01
 7.7567506E+00  4.4061024E+01
 7.7682505E+00  4.4044224E+01
 7.7797503E+00  4.3916393E+01
 7.7912502E+00  4.3872238E+01
 7.8027506E+00  4.3899837E+01
 7.8142505E+00  4.3878212E+01
 7.8257504E+00  4.3852261E+01
 7.8372502E+00  4.3805199E+01
 7.8487506E+00  4.3758411E+01
 7.8602505E+00  4.3631645E+01
 7.8717504E+00  4.3412067E+01
 7.8832502E+00  4.3260258E+01
 7.8947506E+00  4.3252861E+01
 7.9062505E+00  4.3309414E+01
 7.9177504E+00  4.3411110E+01
 7.9292502E+00  4.3469109E+01
 7.9407506E+00  4.3373955E+01
 7.9522505E+00  4.3249039E+01
 7.9637504E+00  4.3094776E+01
 7.9752502E+00  4.3093159E+01
 7.9867506E+00  4.3118893E+01
 7.9982505E+00  4.3096935E+01
 8.0097504E+00  4.2992191E+01
 8.0212507E+00  4.2942455E+01
 8.0327501E+00  4.2934410E+01
 8.0442505E+00  4.2962578E+01
 8.0557508E+00  4.2973179E+01
 8.0672503E+00  4.2853001E+01
 8.0787506E+00  4.2643459E+01
 8.0902500E+00  4.2389881E+01
 8.1017504E+00  4.2244598E+01
 8.1132507E+00  4.2184727E+01
 8.1247501E+00  4.2102268E+01
 8.1362505E+00  4.2052105E+01
 8.1477509E+00  4.1963287E+01
 8.1592503E+00  4.1846161E+01
 8.1707506E+00  4.1736050E+01
 8.1822500E+00  4.1658199E+01
 8.1937504E+00  4.1580719E+01
 8.2052507E+00  4.1463390E+01
 8.2167501E+00  4.1364792E+01
 8.2282505E+00  4.1230103E+01
 8.2397509E+00  4.1059414E+01
 8.2512503E+00  4.0935699E+01
 8.2627506E+00  4.0769913E+01
 8.2742500E+00  4.0615719E+01
 8.2857504E+00  4.0466854E+01
 8.2972507E+00  4.0308628E+01
 8.3087502E+00  4.0175838E+01
 8.3202505E+00  3.9971272E+01
 8.3317509E+00  3.9859306E+01
 8.3432503E+00  3.9772099E+01
 8.3547506E+00  3.9617546E+01
 8.3662500E+00  3.9572975E+01
 8.3777504E+00  3.9430588E+01
 8.3892508E+00  3.9324375E+01
 8.4007502E+00  3.9115559E+01
 8.4122505E+00  3.9013691E+01
 8.4237509E+00  3.8745197E+01
 8.4352503E+00  3.8544411E+01
 8.4467506E+00  3.8228512E+01
 8.4582500E+00  3.8099915E+01
 8.4697504E+00  3.7919926E+01
 8.4812508E+00  3.7792912E+01
 8.4927502E+00  3.7635357E+01
 8.5042505E+00  3.7593567E+01
 8.5157509E+00  3.7520004E+01
 8.5272503E+00  3.7457817E+01
 8.5387506E+00  3.7285957E+01
 8.5502501E+00  3.7028305E+01
 8.5617504E+00  3.6767967E+01
 8.5732508E+00  3.6550892E+01
 8.5847502E+00  3.6271873E+01
 8.5962505E+00  3.6054523E+01
 8.6077509E+00  3.5742218E+01
 8.6192503E+00  3.5672295E+01
 8.6307507E+00  3.5494473E+01
 8.6422501E+00  3.5388275E+01
 8.6537504E+00  3.5171062E+01
 8.6652508E+00  3.4985470E+01
 8.6767502E+00  3.4788666E+01
 8.6882505E+00  3.4632710E+01
 8.6997509E+00  3.4497223E+01
 8.7112503E+00  3.4378422E+01
 8.7227507E+00  3.4267548E+01
 8.7342501E+00  3.4177517E+01
 8.7457504E+00  3.4034000E+01
 8.7572508E+00  3.3911720E+01
 8.7687502E+00  3.3703777E+01
 8.7802505E+00  3.3506886E+01
 8.7917500E+00  3.3241058E+01
 8.8032503E+00  3.3054493E+01
 8.8147507E+00  3.2930164E+01
 8.8262501E+00  3.2815842E+01
 8.8377504E+00  3.2695820E+01
 8.8492508E+00  3.2502048E+01
 8.8607502E+00  3.2319393E+01
 8.8722506E+00  3.2157223E+01
 8.8837500E+00  3.2024143E+01
 8.8952503E+00  3.1974806E+01
 8.9067507E+00  3.1854332E+01
 8.9182501E+00  3.1772331E+01
 8.9297504E+00  3.1590738E+01
 8.9412508E+00  3.1500660E+01
 8.9527502E+00  3.1353085E+01
 8.9642506E+00  3.1234009E+01
 8.9757500E+00  3.1053751E+01
 8.9872503E+00  3.0884998E+01
 8.9987507E+00  3.0675583E+01
 9.0102501E+00  3.0496588E+01
 9.0217505E+00  3.0316563E+01
 9.0332508E+00  3.0132179E+01
 9.0447502E+00  2.9992435E+01
 9.0562506E+00  2.9847164E+01
 9.0677500E+00  2.9717127E+01
 9.0792503E+00  2.9630135E+01
 9.0907507E+00  2.9486900E+01
 9.1022501E+00  2.9429583E+01
 9.1137505E+00  2.9280571E+01
 9.1252508E+00  2.9165146E+01
 9.1367502E+00  2.8989605E+01
 9.1482506E+00  2.8809744E+01
 9.1597500E+00  2.8695808E+01
 9.1712503E+00  2.8584742E+01
 9.1827507E+00  2.8540504E+01
 9.1942501E+00  2.8470936E+01
 9.2057505E+00  2.8447996E+01
 9.2172508E+00  2.8395128E+01
 9.2287502E+00  2.8272409E+01
 9.2402506E+00  2.8204506E+01
 9.2517500E+00  2.8129259E+01
 9.2632504E+00  2.8109642E+01
 9.2747507E+00  2.7924387E+01
 9.2862501E+00  2.7823997E+01
 9.2977505E+00  2.7671249E+01
 9.3092508E+00  2.7577559E+01
 9.3207502E+00  2.7440802E+01
 9.3322506E+00  2.7253662E+01
 9.3437500E+00  2.7133276E+01
 9.3552504E+00  2.7030994E+01
 9.3667507E+00  2.6958096E+01
 9.3782501E+00  2.6933954E+01
 9.3897505E+00  2.6880182E+01
 9.4012508E+00  2.6864407E+01
 9.4127502E+00  2.6816385E+01
 9.4242506E+00  2.6732195E+01
 9.4357500E+00  2.6691257E+01
 9.4472504E+00  2.6627815E+01
 9.4587507E+00  2.6553577E+01
 9.4702501E+00  2.6472397E+01
 9.4817505E+00  2.6416206E+01
 9.4932508E+00  2.6406981E+01
 9.5047503E+00  2.6356960E+01
 9.5162506E+00  2.6356543E+01
 9.5277500E+00  2.6277250E+01
 9.5392504E+00  2.6235062E+01
 9.5507507E+00  2.6069536E+01
 9.5622501E+00  2.6030277E+01
 9.5737505E+00  2.5896965E+01
 9.5852509E+00  2.5855230E+01
 9.5967503E+00  2.5805861E+01
 9.6082506E+00  2.5810352E+01
 9.6197500E+00  2.5782534E+01
 9.6312504E+00  2.5731670E+01
 9.6427507E+00  2.5671722E+01
 9.6542501E+00  2.5557827E+01
 9.6657505E+00  2.5456675E+01
 9.6772509E+00  2.5349474E+01
 9.6887503E+00  2.5253168E+01
 9.7002506E+00  2.5118492E+01
 9.7117500E+00  2.5057676E+01
 9.7232504E+00  2.5073048E+01
 9.7347507E+00  2.5061249E+01
 9.7462502E+00  2.5045696E+01
 9.7577505E+00  2.4958525E+01
 9.7692509E+00  2.4953239E+01
 9.7807503E+00  2.4925835E+01
 9.7922506E+00  2.4928616E+01
 9.8037500E+00  2.4896553E+01
 9.8152504E+00  2.4852547E+01
 9.8267508E+00  2.4819090E+01
 9.8382502E+00  2.4763868E+01
 9.8497505E+00  2.4668562E+01
 9.8612509E+00  2.4604359E+01
 9.8727503E+00  2.4581743E+01
 9.8842506E+00  2.4538462E+01
 9.8957500E+00  2.4525106E+01
 9.9072504E+00  2.4520288E+01
 9.9187508E+00  2.4536531E+01
 9.9302502E+00  2.4511505E+01
 9.9417505E+00  2.4451454E+01
 9.9532509E+00  2.4383102E+01
 9.9647503E+00  2.4348951E+01
 9.9762506E+00  2.4279009E+01
 9.9877501E+00  2.4306068E+01
 9.9992504E+00  2.4318501E+01
 1.0010751E+01  2.4307003E+01
 1.0022250E+01  2.4309973E+01
 1.0033751E+01  2.4278334E+01
 1.0045251E+01  2.4307037E+01
 1.0056750E+01  2.4243124E+01
 1.0068251E+01  2.4192965E+01
 1.0079750E+01  2.4136478E+01
 1.0091250E+01  2.4111288E+01
 1.0102751E+01  2.4080395E+01
 1.0114250E+01  2.4029005E+01
 1.0125751E+01  2.3988783E+01
 1.0137251E+01  2.3929560E+01
 1.0148750E+01  2.3927874E+01
 1.0160251E+01  2.3911343E+01
 1.0171750E+01  2.3883347E+01
 1.0183250E+01  2.3839960E+01
 1.0194751E+01  2.3789524E+01
 1.0206250E+01  2.3736162E+01
 1.0217751E+01  2.3725401E+01
 1.0229251E+01  2.3716902E+01
 1.0240750E+01  2.3662468E+01
 1.0252251E+01  2.3657572E+01
 1.0263750E+01  2.3601963E+01
 1.0275250E+01  2.3686331E+01
 1.0286751E+01  2.3680313E+01
 1.0298250E+01  2.3692373E+01
 1.0309751E+01  2.3631231E+01
 1.0321251E+01  2.3527275E+01
 1.0332750E+01  2.3482174E+01
 1.0344251E+01  2.3413704E+01
 1.0355750E+01  2.3352169E+01
 1.0367250E+01  2.3324919E+01
 1.0378751E+01  2.3296782E+01
 1.0390250E+01  2.3371557E+01
 1.0401751E+01  2.3328691E+01
 1.0413251E+01  2.3372128E+01
 1.0424750E+01  2.3296761E+01
 1.0436251E+01  2.3273331E+01
 1.0447750E+01  2.3166004E+01
 1.0459250E+01  2.3146759E+01
 1.0470751E+01  2.3142918E+01
 1.0482250E+01  2.3204359E+01
 1.0493751E+01  2.3222662E+01
 1.0505251E+01  2.3207767E+01
 1.0516750E+01  2.3220955E+01
 1.0528251E+01  2.3178062E+01
 1.0539750E+01  2.3153627E+01
 1.0551250E+01  2.3120209E+01
 1.0562751E+01  2.3165018E+01
 1.0574250E+01  2.3103455E+01
 1.0585751E+01  2.3047220E+01
 1.0597251E+01  2.2967602E+01
 1.0608750E+01  2.3011408E+01
 1.0620251E+01  2.3033598E+01
 1.0631750E+01  2.3072428E+01
 1.0643250E+01  2.3099461E+01
 1.0654751E+01  2.3097723E+01
 1.0666250E+01  2.3101892E+01
 1.0677751E+01  2.3061867E+01
 1.0689251E+01  2.3044172E+01
 1.0700750E+01  2.2966318E+01
 1.0712251E+01  2.2958527E+01
 1.0723750E+01  2.2881252E+01
 1.0735250E+01  2.2802683E+01
 1.0746751E+01  2.2741484E+01
 1.0758250E+01  2.2673506E+01
 1.0769751E+01  2.2707663E+01
 1.0781251E+01  2.2736555E+01
 1.0792750E+01  2.2819693E+01
 1.0804251E+01  2.2773613E+01
 1.0815750E+01  2.2781382E+01
 1.0827250E+01  2.2762777E+01
 1.0838751E+01  2.2755575E+01
 1.0850250E+01  2.2730711E+01
 1.0861751E+01  2.2692228E+01
 1.0873251E+01  2.2665985E+01
 1.0884750E+01  2.2592810E+01
 1.0896251E+01  2.2594254E+01
 1.0907750E+01  2.2700279E+01
 1.0919250E+01  2.2760033E+01
 1.0930751E+01  2.2810822E+01
 1.0942250E+01  2.2761013E+01
 1.0953751E+01  2.2770082E+01
 1.0965251E+01  2.2722757E+01
 1.0976750E+01  2.2768871E+01
 1.0988251E+01  2.2724524E+01
 1.0999750E+01  2.2758261E+01
 1.1011250E+01  2.2714439E+01
 1.1022751E+01  2.2733572E+01
 1.1034250E+01  2.2727602E+01
 1.1045751E+01  2.2729521E+01
 1.1057251E+01  2.2709408E+01
 1.1068750E+01  2.2675177E+01
 1.1080251E+01  2.2630152E+01
 1.1091750E+01  2.2612263E+01
 1.1103251E+01  2.2589607E+01
 1.1114751E+01  2.2572226E+01
 1.1126250E+01  2.2577597E+01
 1.1137751E+01  2.2561195E+01
 1.1149251E+01  2.2596346E+01
 1.1160750E+01  2.2530235E+01
 1.1172251E+01  2.2505682E+01
 1.1183750E+01  2.2467825E+01
 1.1195251E+01  2.2482027E+01
 1.1206751E+01  2.2454876E+01
 1.1218250E+01  2.2445337E+01
 1.1229751E+01  2.2448391E+01
 1.1241251E+01  2.2502071E+01
 1.1252750E+01  2.2522840E+01
 1.1264251E+01  2.2564028E+01
 1.1275750E+01  2.2565245E+01
 1.1287251E+01  2.2518585E+01
 1.1298751E+01  2.2477079E+01
 1.1310250E+01  2.2485657E+01
 1.1321751E+01  2.2549238E+01
 1.1333251E+01  2.2572918E+01
 1.1344750E+01  2.2562706E+01
 1.1356251E+01  2.2562971E+01
 1.1367750E+01  2.2598276E+01
 1.1379251E+01  2.2655598E+01
 1.1390751E+01  2.2766972E+01
 1.1402250E+01  2.2876633E+01
 1.1413751E+01  2.2938309E+01
 1.1425251E+01  2.2867971E+01
 1.1436750E+01  2.2869314E+01
 1.1448251E+01  2.2881742E+01
 1.1459750E+01  2.3008280E+01
 1.1471251E+01  2.3065578E+01
 1.1482751E+01  2.3145166E+01
 1.1494250E+01  2.3319170E+01
 1.1505751E+01  2.3637083E+01
 1.1517251E+01  2.4168303E+01
 1.1528750E+01  2.5183313E+01
 1.1540251E+01  2.6789270E+01
 1.1551750E+01  2.9694790E+01
 1.1563251E+01  3.2673779E+01
 1.1574751E+01  3.7096626E+01
 1.1586250E+01  3.9517456E+01
 1.1597751E+01  4.0855453E+01
 1.1609251E+01  3.8576511E+01
 1.1620750E+01  3.5749714E+01
 1.1632251E+01  3.1884714E+01
 1.1643750E+01  2.8918472E+01
 1.1655251E+01  2.6467329E+01
 1.1666751E+01  2.5158035E+01
 1.1678250E+01  2.4218237E+01
 1.1689751E+01  2.3749273E+01
 1.1701251E+01  2.3415947E+01
 1.1712750E+01  2.3198736E+01
 1.1724251E+01  2.3019838E+01
 1.1735750E+01  2.2911425E+01
 1.1747251E+01  2.2819620E+01
 1.1758751E+01  2.2792774E+01
 1.1770250E+01  2.2748550E+01
 1.1781751E+01  2.2761875E+01
 1.1793251E+01  2.2747612E+01
 1.1804750E+01  2.2762657E+01
 1.1816251E+01  2.2766743E+01
 1.1827750E+01  2.2706871E+01
 1.1839251E+01  2.2678381E+01
 1.1850751E+01  2.2585304E+01
 1.1862250E+01  2.2638468E+01
 1.1873751E+01  2.2601686E+01
 1.1885251E+01  2.2671715E+01
 1.1896750E+01  2.2681255E+01
 1.1908251E+01  2.2770563E+01
 1.1919750E+01  2.2911825E+01
 1.1931251E+01  2.3148956E+01
 1.1942751E+01  2.3504808E+01
 1.1954250E+01  2.3706600E+01
 1.1965751E+01  2.4137869E+01
 1.1977251E+01  2.4462982E+01
 1.1988750E+01  2.4531456E+01
 1.2000251E+01  2.4229973E+01
 1.2011750E+01  2.3740082E+01
 1.2023251E+01  2.3506161E+01
 1.2034751E+01  2.3370720E+01
 1.2046250E+01  2.3403477E+01
 1.2057751E+01  2.3795448E+01
 1.2069251E+01  2.4003855E+01
 1.2080750E+01  2.5238535E+01
 1.2092251E+01  2.5508224E+01
 1.2103750E+01  2.6135260E+01
 1.2115251E+01  2.6021872E+01
 1.2126751E+01  2.5869488E+01
 1.2138250E+01  2.5395201E+01
 1.2149751E+01  2.4569695E+01
 1.2161251E+01  2.4046360E+01
 1.2172750E+01  2.3536171E+01
 1.2184251E+01  2.3049953E+01
 1.2195750E+01  2.2936481E+01
 1.2207251E+01  2.2846523E+01
 1.2218751E+01  2.2760727E+01
 1.2230250E+01  2.2786999E+01
 1.2241751E+01  2.2720648E+01
 1.2253251E+01  2.2721510E+01
 1.2264750E+01  2.2656878E+01
 1.2276251E+01  2.2661358E+01
 1.2287750E+01  2.2657839E+01
 1.2299251E+01  2.2633434E+01
 1.2310751E+01  2.2650248E+01
 1.2322250E+01  2.2621716E+01
 1.2333751E+01  2.2652771E+01
 1.2345250E+01  2.2621077E+01
 1.2356750E+01  2.2663464E+01
 1.2368251E+01  2.2634979E+01
 1.2379750E+01  2.2635147E+01
 1.2391251E+01  2.2592983E+01
 1.2402751E+01  2.2558094E+01
 1.2414250E+01  2.2532682E+01
 1.2425751E+01  2.2496367E+01
 1.2437250E+01  2.2530540E+01
 1.2448750E+01  2.2557014E+01
 1.2460251E+01  2.2609043E+01
 1.2471750E+01  2.2644390E+01
 1.2483251E+01  2.2642321E+01
 1.2494751E+01  2.2599077E+01
 1.2506250E+01  2.2602770E+01
 1.2517751E+01  2.2614920E+01
 1.2529250E+01  2.2672960E+01
 1.2540751E+01  2.2656450E+01
 1.2552251E+01  2.2657204E+01
 1.2563750E+01  2.2673700E+01
 1.2575251E+01  2.2658089E+01
 1.2586751E+01  2.2689814E+01
 1.2598250E+01  2.2689487E+01
 1.2609751E+01  2.2735991E+01
 1.2621250E+01  2.2803835E+01
 1.2632751E+01  2.2870245E+01
 1.2644251E+01  2.2843084E+01
 1.2655750E+01  2.2843969E+01
 1.2667251E+01  2.2794065E+01
 1.2678751E+01  2.2825478E+01
 1.2690250E+01  2.2764366E+01
 1.2701751E+01  2.2749912E+01
 1.2713250E+01  2.2820944E+01
 1.2724751E+01  2.2864502E+01
 1.2736251E+01  2.2917253E+01
 1.2747750E+01  2.2908941E+01
 1.2759251E+01  2.2957907E+01
 1.2770751E+01  2.3016130E+01
 1.2782250E+01  2.3165432E+01
 1.2793751E+01  2.3215298E+01
 1.2805250E+01  2.3274475E+01
 1.2816751E+01  2.3233185E+01
 1.2828251E+01  2.3281727E+01
 1.2839750E+01  2.3328205E+01
 1.2851251E+01  2.3403364E+01
 1.2862751E+01  2.3451897E+01
 1.2874250E+01  2.3499857E+01
 1.2885751E+01  2.3473116E+01
 1.2897250E+01  2.3441774E+01
 1.2908751E+01  2.3424665E+01
 1.2920251E+01  2.3470749E+01
 1.2931750E+01  2.3563284E+01
 1.2943251E+01  2.3638329E+01
 1.2954751E+01  2.3753887E+01
 1.2966250E+01  2.3894093E+01
 1.2977751E+01  2.4024012E+01
 1.2989250E+01  2.4076488E+01
 1.3000751E+01  2.4096981E+01
 1.3012251E+01  2.4087534E+01
 1.3023750E+01  2.4127283E+01
 1.3035251E+01  2.4162422E+01
 1.3046751E+01  2.4229717E+01
 1.3058250E+01  2.4315434E+01
 1.3069751E+01  2.4354576E+01
 1.3081250E+01  2.4397985E+01
 1.3092751E+01  2.4448517E+01
 1.3104251E+01  2.4593250E+01
 1.3115750E+01  2.4749819E+01
 1.3127251E+01  2.4893517E+01
 1.3138751E+01  2.5009459E+01
 1.3150250E+01  2.5126440E+01
 1.3161751E+01  2.5210686E+01
 1.3173250E+01  2.5286827E+01
 1.3184751E+01  2.5357313E+01
 1.3196251E+01  2.5462893E+01
 1.3207750E+01  2.5622671E+01
 1.3219251E+01  2.5866165E+01
 1.3230751E+01  2.6098146E+01
 1.3242250E+01  2.6281862E+01
 1.3253751E+01  2.6326569E+01
 1.3265250E+01  2.6397610E+01
 1.3276751E+01  2.6500769E+01
 1.3288251E+01  2.6664782E+01
 1.3299750E+01  2.6859039E+01
 1.3311251E+01  2.6989830E+01
 1.3322751E+01  2.7145990E+01
 1.3334250E+01  2.7271572E+01
 1.3345751E+01  2.7398041E+01
 1.3357250E+01  2.7485783E+01
 1.3368751E+01  2.7577822E+01
 1.3380251E+01  2.7752220E+01
 1.3391750E+01  2.7922882E+01
 1.3403251E+01  2.8124495E+01
 1.3414751E+01  2.8251377E+01
 1.3426250E+01  2.8375889E+01
 1.3437751E+01  2.8503012E+01
 1.3449250E+01  2.8606066E+01
 1.3460751E+01  2.8740091E+01
 1.3472251E+01  2.8801029E+01
 1.3483750E+01  2.8949345E+01
 1.3495251E+01  2.9013126E+01
 1.3506751E+01  2.9120060E+01
 1.3518250E+01  2.9197443E+01
 1.3529751E+01  2.9313505E+01
 1.3541250E+01  2.9399187E+01
 1.3552751E+01  2.9492931E+01
 1.3564251E+01  2.9565411E+01
 1.3575750E+01  2.9659924E+01
 1.3587251E+01  2.9743784E+01
 1.3598751E+01  2.9783556E+01
 1.3610250E+01  2.9790182E+01
 1.3621751E+01  2.9785473E+01
 1.3633250E+01  2.9730261E+01
 1.3644751E+01  2.9664335E+01
 1.3656251E+01  2.9666250E+01
 1.3667750E+01  2.9736532E+01
 1.3679251E+01  2.9835997E+01
 1.3690751E+01  2.9820883E+01
 1.3702250E+01  2.9804260E+01
 1.3713751E+01  2.9728334E+01
 1.3725250E+01  2.9729473E+01
 1.3736751E+01  2.9696295E+01
 1.3748251E+01  2.9675865E+01
 1.3759750E+01  2.9645159E+01
 1.3771251E+01  2.9580322E+01
 1.3782751E+01  2.9580612E+01
 1.3794250E+01  2.9496592E+01
 1.3805751E+01  2.9562279E+01
 1.3817250E+01  2.9561058E+01
 1.3828751E+01  2.9638775E+01
 1.3840251E+01  2.9668697E+01
 1.3851750E+01  2.9762842E+01
 1.3863251E+01  2.9999374E+01
 1.3874751E+01  3.0430668E+01
 1.3886250E+01  3.0955767E+01
 1.3897751E+01  3.2342880E+01
 1.3909250E+01  3.3823090E+01
 1.3920751E+01  3.6233765E+01
 1.3932251E+01  3.9967728E+01
 1.3943750E+01  4.3649406E+01
 1.3955251E+01  4.9215820E+01
 1.3966751E+01  5.1542915E+01
 1.3978251E+01  5.3930008E+01
 1.3989751E+01  5.1187855E+01
 1.4001250E+01  4.7506973E+01
 1.4012751E+01  4.2036999E+01
 1.4024251E+01  3.7262833E+01
 1.4035750E+01  3.3724758E+01
 1.4047251E+01  3.1135132E+01
 1.4058751E+01  2.9867393E+01
 1.4070251E+01  2.9077404E+01
 1.4081751E+01  2.8516613E+01
 1.4093250E+01  2.8180754E+01
 1.4104751E+01  2.7965219E+01
 1.4116251E+01  2.7832949E+01
 1.4127750E+01  2.7698076E+01
 1.4139251E+01  2.7628408E+01
 1.4150751E+01  2.7515516E+01
 1.4162251E+01  2.7454679E+01
 1.4173751E+01  2.7345354E+01
 1.4185250E+01  2.7205257E+01
 1.4196751E+01  2.7074572E+01
 1.4208251E+01  2.6999407E+01
 1.4219750E+01  2.6891624E+01
 1.4231251E+01  2.6798363E+01
 1.4242751E+01  2.6725035E+01
 1.4254251E+01  2.6646549E+01
 1.4265751E+01  2.6544912E+01
 1.4277250E+01  2.6415897E+01
 1.4288751E+01  2.6384165E+01
 1.4300251E+01  2.6302210E+01
 1.4311750E+01  2.6251230E+01
 1.4323251E+01  2.6156307E+01
 1.4334751E+01  2.6123297E+01
 1.4346251E+01  2.6110775E+01
 1.4357751E+01  2.6125780E+01
 1.4369250E+01  2.6151598E+01
 1.4380751E+01  2.6078186E+01
 1.4392251E+01  2.6041962E+01
 1.4403750E+01  2.5959982E+01
 1.4415251E+01  2.5945631E+01
 1.4426751E+01  2.5869184E+01
 1.4438251E+01  2.5822317E+01
 1.4449751E+01  2.5789644E+01
 1.4461250E+01  2.5713314E+01
 1.4472751E+01  2.5667738E+01
 1.4484251E+01  2.5606827E+01
 1.4495750E+01  2.5616936E+01
 1.4507251E+01  2.5633289E+01
 1.4518751E+01  2.5635315E+01
 1.4530251E+01  2.5643251E+01
 1.4541751E+01  2.5597040E+01
 1.4553250E+01  2.5593624E+01
 1.4564751E+01  2.5552542E+01
 1.4576251E+01  2.5539717E+01
 1.4587750E+01  2.5491245E+01
 1.4599251E+01  2.5446238E+01
 1.4610751E+01  2.5419878E+01
 1.4622251E+01  2.5378206E+01
 1.4633751E+01  2.5327808E+01
 1.4645250E+01  2.5271265E+01
 1.4656751E+01  2.5222872E+01
 1.4668251E+01  2.5217155E+01
 1.4679750E+01  2.5207813E+01
 1.4691251E+01  2.5227385E+01
 1.4702751E+01  2.5250692E+01
 1.4714251E+01  2.5222721E+01
 1.4725751E+01  2.5175934E+01
 1.4737250E+01  2.5124434E+01
 1.4748751E+01  2.5080709E+01
 1.4760251E+01  2.5044306E+01
 1.4771750E+01  2.5062054E+01
 1.4783251E+01  2.5090292E+01
 1.4794751E+01  2.5094221E+01
 1.4806251E+01  2.5040722E+01
 1.4817751E+01  2.4996290E+01
 1.4829250E+01  2.4990423E+01
 1.4840751E+01  2.5008717E+01
 1.4852251E+01  2.5019220E+01
 1.4863750E+01  2.4978378E+01
 1.4875251E+01  2.4918377E+01
 1.4886751E+01  2.4910372E+01
 1.4898251E+01  2.4928099E+01
 1.4909751E+01  2.4909042E+01
 1.4921250E+01  2.4888161E+01
 1.4932751E+01  2.4831257E+01
 1.4944251E+01  2.4832056E+01
 1.4955750E+01  2.4830729E+01
 1.4967251E+01  2.4864460E+01
 1.4978751E+01  2.4881371E+01
 1.4990251E+01  2.4922148E+01
 1.5001751E+01  2.4948652E+01
 1.5013250E+01  2.4970102E+01
 1.5024751E+01  2.4932219E+01
 1.5036251E+01  2.4835133E+01
 1.5047750E+01  2.4723045E+01
 1.5059251E+01  2.4667330E+01
 1.5070751E+01  2.4660082E+01
 1.5082251E+01  2.4703466E+01
 1.5093751E+01  2.4755112E+01
 1.5105250E+01  2.4860271E+01
 1.5116751E+01  2.4966108E+01
 1.5128251E+01  2.5107054E+01
 1.5139750E+01  2.5336143E+01
 1.5151251E+01  2.5773994E+01
 1.5162751E+01  2.6247307E+01
 1.5174251E+01  2.6821402E+01
 1.5185751E+01  2.7385406E+01
 1.5197250E+01  2.7792467E+01
 1.5208751E+01  2.7996967E+01
 1.5220251E+01  2.7729643E+01
 1.5231750E+01  2.7126734E+01
 1.5243251E+01  2.6321390E+01
 1.5254751E+01  2.5688379E+01
 1.5266251E+01  2.5308062E+01
 1.5277751E+01  2.5035746E+01
 1.5289250E+01  2.4882919E+01
 1.5300751E+01  2.4737066E+01
 1.5312251E+01  2.4706226E+01
 1.5323750E+01  2.4649763E+01
 1.5335251E+01  2.4638613E+01
 1.5346751E+01  2.4595415E+01
 1.5358251E+01  2.4601170E+01
 1.5369751E+01  2.4617397E+01
 1.5381250E+01  2.4564592E+01
 1.5392751E+01  2.4541010E+01
 1.5404251E+01  2.4525726E+01
 1.5415751E+01  2.4489599E+01
 1.5427251E+01  2.4448278E+01
 1.5438751E+01  2.4386053E+01
 1.5450251E+01  2.4463793E+01
 1.5461751E+01  2.4497938E+01
 1.5473250E+01  2.4547571E+01
 1.5484751E+01  2.4550493E+01
 1.5496251E+01  2.4575623E+01
 1.5507751E+01  2.4564566E+01
 1.5519251E+01  2.4567219E+01
 1.5530751E+01  2.4553001E+01
 1.5542251E+01  2.4557310E+01
 1.5553751E+01  2.4550697E+01
 1.5565250E+01  2.4563223E+01
 1.5576751E+01  2.4555517E+01
 1.5588251E+01  2.4542452E+01
 1.5599751E+01  2.4502258E+01
 1.5611251E+01  2.4442236E+01
 1.5622751E+01  2.4428661E+01
 1.5634251E+01  2.4440046E+01
 1.5645751E+01  2.4531609E+01
 1.5657250E+01  2.4600088E+01
 1.5668751E+01  2.4651775E+01
 1.5680251E+01  2.4657446E+01
 1.5691751E+01  2.4643003E+01
 1.5703251E+01  2.4727304E+01
 1.5714751E+01  2.4726938E+01
 1.5726251E+01  2.4763554E+01
 1.5737751E+01  2.4683016E+01
 1.5749250E+01  2.4670553E+01
 1.5760751E+01  2.4665506E+01
 1.5772251E+01  2.4741905E+01
 1.5783751E+01  2.4731710E+01
 1.5795251E+01  2.4722885E+01
 1.5806751E+01  2.4685343E+01
 1.5818251E+01  2.4681732E+01
 1.5829751E+01  2.4625788E+01
 1.5841250E+01  2.4610823E+01
 1.5852751E+01  2.4611013E+01
 1.5864251E+01  2.4585800E+01
 1.5875751E+01  2.4595678E+01
 1.5887251E+01  2.4585001E+01
 1.5898750E+01  2.4609735E+01
 1.5910251E+01  2.4608807E+01
 1.5921751E+01  2.4640753E+01
 1.5933250E+01  2.4658186E+01
 1.5944751E+01  2.4642982E+01
 1.5956251E+01  2.4658457E+01
 1.5967751E+01  2.4608070E+01
 1.5979251E+01  2.4595299E+01
 1.5990750E+01  2.4604042E+01
 1.6002251E+01  2.4626282E+01
 1.6013750E+01  2.4654549E+01
 1.6025251E+01  2.4673101E+01
 1.6036751E+01  2.4734318E+01
 1.6048250E+01  2.4774540E+01
 1.6059752E+01  2.4789852E+01
 1.6071251E+01  2.4752872E+01
 1.6082750E+01  2.4742924E+01
 1.6094252E+01  2.4673512E+01
 1.6105751E+01  2.4745190E+01
 1.6117250E+01  2.4754915E+01
 1.6128750E+01  2.4807468E+01
 1.6140251E+01  2.4857668E+01
 1.6151751E+01  2.4887634E+01
 1.6163250E+01  2.5035709E+01
 1.6174751E+01  2.4984924E+01
 1.6186251E+01  2.5329718E+01
 1.6197750E+01  2.5237310E+01
 1.6209251E+01  2.5999538E+01
 1.6220751E+01  2.5986940E+01
 1.6232250E+01  2.6895552E+01
 1.6243752E+01  2.7145483E+01
 1.6255251E+01  2.7613642E+01
 1.6266750E+01  2.7714323E+01
 1.6278252E+01  2.7051594E+01
 1.6289751E+01  2.6918648E+01
 1.6301250E+01  2.5803467E+01
 1.6312750E+01  2.5776110E+01
 1.6324251E+01  2.5086405E+01
 1.6335751E+01  2.5124374E+01
 1.6347250E+01  2.4871296E+01
 1.6358751E+01  2.4846279E+01
 1.6370251E+01  2.4814342E+01
 1.6381750E+01  2.4784399E+01
 1.6393251E+01  2.4851017E+01
 1.6404751E+01  2.4847406E+01
 1.6416250E+01  2.4913382E+01
 1.6427752E+01  2.4845997E+01
 1.6439251E+01  2.4841785E+01
 1.6450750E+01  2.4748613E+01
 1.6462252E+01  2.4772545E+01
 1.6473751E+01  2.4710499E+01
 1.6485250E+01  2.4748299E+01
 1.6496750E+01  2.4714830E+01
 1.6508251E+01  2.4719290E+01
 1.6519751E+01  2.4670435E+01
 1.6531250E+01  2.4676273E+01
 1.6542751E+01  2.4728117E+01
 1.6554251E+01  2.4743505E+01
 1.6565750E+01  2.4695118E+01
 1.6577251E+01  2.4649424E+01
 1.6588751E+01  2.4646629E+01
 1.6600250E+01  2.4656528E+01
 1.6611752E+01  2.4640015E+01
 1.6623251E+01  2.4546499E+01
 1.6634750E+01  2.4503363E+01
 1.6646252E+01  2.4477943E+01
 1.6657751E+01  2.4513929E+01
 1.6669250E+01  2.4553400E+01
 1.6680750E+01  2.4553570E+01
 1.6692251E+01  2.4562943E+01
 1.6703751E+01  2.4504185E+01
 1.6715250E+01  2.4464394E+01
 1.6726751E+01  2.4450394E+01
 1.6738251E+01  2.4493393E+01
 1.6749750E+01  2.4543102E+01
 1.6761251E+01  2.4505894E+01
 1.6772751E+01  2.4502642E+01
 1.6784250E+01  2.4525997E+01
 1.6795752E+01  2.4577326E+01
 1.6807251E+01  2.4566935E+01
 1.6818750E+01  2.4550676E+01
 1.6830252E+01  2.4556847E+01
 1.6841751E+01  2.4557032E+01
 1.6853251E+01  2.4537130E+01
 1.6864750E+01  2.4544754E+01
 1.6876251E+01  2.4497917E+01
 1.6887751E+01  2.4466227E+01
 1.6899250E+01  2.4437006E+01
 1.6910751E+01  2.4383682E+01
 1.6922251E+01  2.4412298E+01
 1.6933750E+01  2.4413694E+01
 1.6945251E+01  2.4452858E+01
 1.6956751E+01  2.4413235E+01
 1.6968250E+01  2.4359737E+01
 1.6979752E+01  2.4346645E+01
 1.6991251E+01  2.4341227E+01
 1.7002750E+01  2.4340462E+01
 1.7014252E+01  2.4341169E+01
 1.7025751E+01  2.4374743E+01
 1.7037251E+01  2.4342028E+01
 1.7048750E+01  2.4293669E+01
 1.7060251E+01  2.4218225E+01
 1.7071751E+01  2.4223442E+01
 1.7083250E+01  2.4239294E+01
 1.7094751E+01  2.4222227E+01
 1.7106251E+01  2.4198448E+01
 1.7117750E+01  2.4174469E+01
 1.7129251E+01  2.4266283E+01
 1.7140751E+01  2.4280807E+01
 1.7152250E+01  2.4325251E+01
 1.7163752E+01  2.4299789E+01
 1.7175251E+01  2.4298548E+01
 1.7186750E+01  2.4221230E+01
 1.7198252E+01  2.4158661E+01
 1.7209751E+01  2.4168039E+01
 1.7221251E+01  2.4127041E+01
 1.7232750E+01  2.4121485E+01
 1.7244251E+01  2.4126017E+01
 1.7255751E+01  2.4069603E+01
 1.7267250E+01  2.4022057E+01
 1.7278751E+01  2.3978662E+01
 1.7290251E+01  2.4016645E+01
 1.7301750E+01  2.4056971E+01
 1.7313251E+01  2.4067602E+01
 1.7324751E+01  2.4130354E+01
 1.7336250E+01  2.4143909E+01
 1.7347752E+01  2.4130684E+01
 1.7359251E+01  2.4111559E+01
 1.7370750E+01  2.4072882E+01
 1.7382252E+01  2.4053913E+01
 1.7393751E+01  2.3961025E+01
 1.7405251E+01  2.4000673E+01
 1.7416750E+01  2.4020205E+01
 1.7428251E+01  2.4062334E+01
 1.7439751E+01  2.3989092E+01
 1.7451250E+01  2.3982262E+01
 1.7462751E+01  2.3984116E+01
 1.7474251E+01  2.3996538E+01
 1.7485750E+01  2.4017494E+01
 1.7497252E+01  2.4023785E+01
 1.7508751E+01  2.4029942E+01
 1.7520250E+01  2.3983831E+01
 1.7531752E+01  2.3949730E+01
 1.7543251E+01  2.3954834E+01
 1.7554750E+01  2.3925133E+01
 1.7566252E+01  2.3898840E+01
 1.7577751E+01  2.3841190E+01
 1.7589251E+01  2.3829914E+01
 1.7600750E+01  2.3871796E+01
 1.7612251E+01  2.3893278E+01
 1.7623751E+01  2.3927591E+01
 1.7635250E+01  2.3910810E+01
 1.7646751E+01  2.3858025E+01
 1.7658251E+01  2.3820292E+01
 1.7669750E+01  2.3850046E+01
 1.7681252E+01  2.3944365E+01
 1.7692751E+01  2.4001665E+01
 1.7704250E+01  2.4005980E+01
 1.7715752E+01  2.3954653E+01
 1.7727251E+01  2.3912838E+01
 1.7738750E+01  2.3869301E+01
 1.7750252E+01  2.3862257E+01
 1.7761751E+01  2.3812492E+01
 1.7773251E+01  2.3852402E+01
 1.7784750E+01  2.3847656E+01
 1.7796251E+01  2.3917166E+01
 1.7807751E+01  2.3868422E+01
 1.7819250E+01  2.3882704E+01
 1.7830751E+01  2.3836098E+01
 1.7842251E+01  2.3891405E+01
 1.7853750E+01  2.3906153E+01
 1.7865252E+01  2.3940517E+01
 1.7876751E+01  2.3972723E+01
 1.7888250E+01  2.3965881E+01
 1.7899752E+01  2.3947990E+01
 1.7911251E+01  2.3950083E+01
 1.7922750E+01  2.3957247E+01
 1.7934252E+01  2.3966204E+01
 1.7945751E+01  2.3976221E+01
 1.7957251E+01  2.4000782E+01
 1.7968750E+01  2.4133135E+01
 1.7980251E+01  2.4295656E+01
 1.7991751E+01  2.4516228E+01
 1.8003250E+01  2.4901075E+01
 1.8014751E+01  2.5186872E+01
 1.8026251E+01  2.5528887E+01
 1.8037750E+01  2.6417248E+01
 1.8049252E+01  2.6968628E+01
 1.8060751E+01  2.8013203E+01
 1.8072250E+01  2.9237879E+01
 1.8083752E+01  3.0039904E+01
 1.8095251E+01  3.0159536E+01
 1.8106750E+01  2.9811010E+01
 1.8118252E+01  2.9536257E+01
 1.8129751E+01  2.8129164E+01
 1.8141251E+01  2.7092379E+01
 1.8152750E+01  2.6262398E+01
 1.8164251E+01  2.5547865E+01
 1.8175751E+01  2.4834242E+01
 1.8187250E+01  2.4456377E+01
 1.8198751E+01  2.4241629E+01
 1.8210251E+01  2.4136133E+01
 1.8221750E+01  2.4084967E+01
 1.8233252E+01  2.4006136E+01
 1.8244751E+01  2.3914793E+01
 1.8256250E+01  2.3846449E+01
 1.8267752E+01  2.3788820E+01
 1.8279251E+01  2.3813707E+01
 1.8290751E+01  2.3882862E+01
 1.8302252E+01  2.3933201E+01
 1.8313751E+01  2.3927237E+01
 1.8325251E+01  2.3853455E+01
 1.8336750E+01  2.3839594E+01
 1.8348251E+01  2.3834055E+01
 1.8359751E+01  2.3870920E+01
 1.8371250E+01  2.3835785E+01
 1.8382751E+01  2.3782267E+01
 1.8394251E+01  2.3801966E+01
 1.8405750E+01  2.3785334E+01
 1.8417252E+01  2.3749817E+01
 1.8428751E+01  2.3660072E+01
 1.8440250E+01  2.3659168E+01
 1.8451752E+01  2.3636093E+01
 1.8463251E+01  2.3679987E+01
 1.8474751E+01  2.3732563E+01
 1.8486252E+01  2.3744923E+01
 1.8497751E+01  2.3706154E+01
 1.8509251E+01  2.3660555E+01
 1.8520750E+01  2.3661686E+01
 1.8532251E+01  2.3714104E+01
 1.8543751E+01  2.3727879E+01
 1.8555250E+01  2.3780704E+01
 1.8566751E+01  2.3744490E+01
 1.8578251E+01  2.3740294E+01
 1.8589750E+01  2.3661779E+01
 1.8601252E+01  2.3613214E+01
 1.8612751E+01  2.3518105E+01
 1.8624250E+01  2.3472145E+01
 1.8635752E+01  2.3438349E+01
 1.8647251E+01  2.3446154E+01
 1.8658751E+01  2.3419518E+01
 1.8670252E+01  2.3419489E+01
 1.8681751E+01  2.3407295E+01
 1.8693251E+01  2.3487494E+01
 1.8704750E+01  2.3557413E+01
 1.8716251E+01  2.3630993E+01
 1.8727751E+01  2.3653473E+01
 1.8739250E+01  2.3653828E+01
 1.8750751E+01  2.3576408E+01
 1.8762251E+01  2.3542879E+01
 1.8773750E+01  2.3488983E+01
 1.8785252E+01  2.3497622E+01
 1.8796751E+01  2.3491102E+01
 1.8808250E+01  2.3511890E+01
 1.8819752E+01  2.3532393E+01
 1.8831251E+01  2.3498207E+01
 1.8842751E+01  2.3471907E+01
 1.8854252E+01  2.3426882E+01
 1.8865751E+01  2.3402353E+01
 1.8877251E+01  2.3405437E+01
 1.8888750E+01  2.3409893E+01
 1.8900251E+01  2.3442537E+01
 1.8911751E+01  2.3467096E+01
 1.8923250E+01  2.3514204E+01
 1.8934752E+01  2.3552294E+01
 1.8946251E+01  2.3621946E+01
 1.8957750E+01  2.3591908E+01
 1.8969252E+01  2.3526749E+01
 1.8980751E+01  2.3446474E+01
 1.8992250E+01  2.3428846E+01
 1.9003752E+01  2.3459980E+01
 1.9015251E+01  2.3518970E+01
 1.9026751E+01  2.3570059E+01
 1.9038252E+01  2.3537458E+01
 1.9049751E+01  2.3517265E+01
 1.9061251E+01  2.3534121E+01
 1.9072750E+01  2.3533789E+01
 1.9084251E+01  2.3508554E+01
 1.9095751E+01  2.3448509E+01
 1.9107250E+01  2.3456137E+01
 1.9118752E+01  2.3464598E+01
 1.9130251E+01  2.3496954E+01
 1.9141750E+01  2.3504778E+01
 1.9153252E+01  2.3572218E+01
 1.9164751E+01  2.3559160E+01
 1.9176250E+01  2.3556812E+01
 1.9187752E+01  2.3499161E+01
 1.9199251E+01  2.3487225E+01
 1.9210751E+01  2.3437296E+01
 1.9222252E+01  2.3406973E+01
 1.9233751E+01  2.3414478E+01
 1.9245251E+01  2.3434454E+01
 1.9256750E+01  2.3511387E+01
 1.9268251E+01  2.3536148E+01
 1.9279751E+01  2.3549156E+01
 1.9291250E+01  2.3559668E+01
 1.9302752E+01  2.3621382E+01
 1.9314251E+01  2.3700129E+01
 1.9325750E+01  2.3745579E+01
 1.9337252E+01  2.3730389E+01
 1.9348751E+01  2.3695387E+01
 1.9360250E+01  2.3617796E+01
 1.9371752E+01  2.3615206E+01
 1.9383251E+01  2.3582245E+01
 1.9394751E+01  2.3627926E+01
 1.9406250E+01  2.3631447E+01
 1.9417751E+01  2.3662985E+01
 1.9429251E+01  2.3656713E+01
 1.9440750E+01  2.3658915E+01
 1.9452251E+01  2.3657736E+01
 1.9463751E+01  2.3666138E+01
 1.9475250E+01  2.3685225E+01
 1.9486752E+01  2.3716450E+01
 1.9498251E+01  2.3645161E+01
 1.9509750E+01  2.3639660E+01
 1.9521252E+01  2.3654278E+01
 1.9532751E+01  2.3724253E+01
 1.9544250E+01  2.3779280E+01
 1.9555752E+01  2.3839304E+01
 1.9567251E+01  2.3857849E+01
 1.9578751E+01  2.3884775E+01
 1.9590250E+01  2.3896477E+01
 1.9601751E+01  2.3934235E+01
 1.9613251E+01  2.4049261E+01
 1.9624750E+01  2.4149591E+01
 1.9636251E+01  2.4288733E+01
 1.9647751E+01  2.4415506E+01
 1.9659250E+01  2.4652678E+01
 1.9670752E+01  2.4992300E+01
 1.9682251E+01  2.5362783E+01
 1.9693750E+01  2.5839405E+01
 1.9705252E+01  2.6079950E+01
 1.9716751E+01  2.6340979E+01
 1.9728251E+01  2.6321463E+01
 1.9739752E+01  2.6199457E+01
 1.9751251E+01  2.5985422E+01
 1.9762751E+01  2.5744928E+01
 1.9774250E+01  2.5625982E+01
 1.9785751E+01  2.5770859E+01
 1.9797251E+01  2.6043594E+01
 1.9808750E+01  2.6857197E+01
 1.9820251E+01  2.7724403E+01
 1.9831751E+01  2.8761091E+01
 1.9843250E+01  2.9824076E+01
 1.9854752E+01  3.0489311E+01
 1.9866251E+01  3.1111027E+01
 1.9877750E+01  3.0714811E+01
 1.9889252E+01  3.0290516E+01
 1.9900751E+01  2.9104403E+01
 1.9912251E+01  2.7796391E+01
 1.9923752E+01  2.6527769E+01
 1.9935251E+01  2.5557732E+01
 1.9946751E+01  2.4906330E+01
 1.9958250E+01  2.4474091E+01
 1.9969751E+01  2.4268681E+01
 1.9981251E+01  2.4155428E+01
 1.9992750E+01  2.4120611E+01
 2.0004251E+01  2.4073677E+01
 2.0015751E+01  2.4024055E+01
 2.0027250E+01  2.3957529E+01
 2.0038752E+01  2.3958992E+01
 2.0050251E+01  2.4002905E+01
 2.0061750E+01  2.3975073E+01
 2.0073252E+01  2.4018925E+01
 2.0084751E+01  2.3959803E+01
 2.0096251E+01  2.4005159E+01
 2.0107752E+01  2.3955212E+01
 2.0119251E+01  2.3998981E+01
 2.0130751E+01  2.3921892E+01
 2.0142250E+01  2.3891436E+01
 2.0153751E+01  2.3884872E+01
 2.0165251E+01  2.3882114E+01
 2.0176750E+01  2.3860674E+01
 2.0188251E+01  2.3802095E+01
 2.0199751E+01  2.3747347E+01
 2.0211250E+01  2.3749615E+01
 2.0222752E+01  2.3721592E+01
 2.0234251E+01  2.3761595E+01
 2.0245750E+01  2.3765413E+01
 2.0257252E+01  2.3785646E+01
 2.0268751E+01  2.3764570E+01
 2.0280251E+01  2.3759134E+01
 2.0291752E+01  2.3761194E+01
 2.0303251E+01  2.3742756E+01
 2.0314751E+01  2.3789335E+01
 2.0326250E+01  2.3855757E+01
 2.0337751E+01  2.3891878E+01
 2.0349251E+01  2.3891438E+01
 2.0360750E+01  2.3861403E+01
 2.0372252E+01  2.3828686E+01
 2.0383751E+01  2.3777540E+01
 2.0395250E+01  2.3779335E+01
 2.0406752E+01  2.3764971E+01
 2.0418251E+01  2.3808157E+01
 2.0429750E+01  2.3873404E+01
 2.0441252E+01  2.3913727E+01
 2.0452751E+01  2.3879765E+01
 2.0464251E+01  2.3793713E+01
 2.0475752E+01  2.3752941E+01
 2.0487251E+01  2.3738306E+01
 2.0498751E+01  2.3763641E+01
 2.0510250E+01  2.3786041E+01
 2.0521751E+01  2.3809662E+01
 2.0533251E+01  2.3831766E+01
 2.0544750E+01  2.3864801E+01
 2.0556252E+01  2.3975098E+01
 2.0567751E+01  2.4029730E+01
 2.0579250E+01  2.4015545E+01
 2.0590752E+01  2.4007572E+01
 2.0602251E+01  2.4012978E+01
 2.0613750E+01  2.3961285E+01
 2.0625252E+01  2.3955925E+01
 2.0636751E+01  2.4007265E+01
 2.0648251E+01  2.4111868E+01
 2.0659752E+01  2.4184841E+01
 2.0671251E+01  2.4289181E+01
 2.0682751E+01  2.4464617E+01
 2.0694250E+01  2.4706366E+01
 2.0705751E+01  2.5083685E+01
 2.0717251E+01  2.5604532E+01
 2.0728750E+01  2.6205984E+01
 2.0740252E+01  2.6840563E+01
 2.0751751E+01  2.7431614E+01
 2.0763250E+01  2.7738642E+01
 2.0774752E+01  2.7594770E+01
 2.0786251E+01  2.7048864E+01
 2.0797750E+01  2.6423758E+01
 2.0809252E+01  2.5635895E+01
 2.0820751E+01  2.5144621E+01
 2.0832251E+01  2.4766907E+01
 2.0843752E+01  2.4493019E+01
 2.0855251E+01  2.4321405E+01
 2.0866751E+01  2.4182638E+01
 2.0878250E+01  2.4096373E+01
 2.0889751E+01  2.4037756E+01
 2.0901251E+01  2.4007896E+01
 2.0912750E+01  2.4022175E+01
 2.0924252E+01  2.4008871E+01
 2.0935751E+01  2.4017658E+01
 2.0947250E+01  2.4047211E+01
 2.0958752E+01  2.4001602E+01
 2.0970251E+01  2.3945650E+01
 2.0981750E+01  2.3914345E+01
 2.0993252E+01  2.3952291E+01
 2.1004751E+01  2.3986916E+01
 2.1016251E+01  2.4000324E+01
 2.1027752E+01  2.4017542E+01
 2.1039251E+01  2.4021019E+01
 2.1050751E+01  2.4003647E+01
 2.1062250E+01  2.4047564E+01
 2.1073751E+01  2.4085211E+01
 2.1085251E+01  2.4112762E+01
 2.1096750E+01  2.4020699E+01
 2.1108252E+01  2.3973328E+01
 2.1119751E+01  2.4019741E+01
 2.1131250E+01  2.4052391E+01
 2.1142752E+01  2.4028437E+01
 2.1154251E+01  2.3919645E+01
 2.1165751E+01  2.3924480E+01
 2.1177252E+01  2.3957294E+01
 2.1188751E+01  2.4026016E+01
 2.1200251E+01  2.4003437E+01
 2.1211752E+01  2.3992401E+01
 2.1223251E+01  2.3937729E+01
 2.1234751E+01  2.3936016E+01
 2.1246250E+01  2.3967056E+01
 2.1257751E+01  2.3986385E+01
 2.1269251E+01  2.3983929E+01
 2.1280750E+01  2.3961290E+01
 2.1292252E+01  2.3937870E+01
 2.1303751E+01  2.3860573E+01
 2.1315250E+01  2.3836361E+01
 2.1326752E+01  2.3874901E+01
 2.1338251E+01  2.3929661E+01
 2.1349751E+01  2.3968102E+01
 2.1361252E+01  2.3995369E+01
 2.1372751E+01  2.4025642E+01
 2.1384251E+01  2.3969551E+01
 2.1395752E+01  2.3926176E+01
 2.1407251E+01  2.3913225E+01
 2.1418751E+01  2.3955029E+01
 2.1430250E+01  2.4001755E+01
 2.1441751E+01  2.4003836E+01
 2.1453251E+01  2.4019623E+01
 2.1464750E+01  2.4021040E+01
 2.1476252E+01  2.4024612E+01
 2.1487751E+01  2.4046013E+01
 2.1499250E+01  2.4085640E+01
 2.1510752E+01  2.4065018E+01
 2.1522251E+01  2.4046961E+01
 2.1533751E+01  2.4036070E+01
 2.1545252E+01  2.4024349E+01
 2.1556751E+01  2.4010536E+01
 2.1568251E+01  2.4053194E+01
 2.1579752E+01  2.4110332E+01
 2.1591251E+01  2.4161875E+01
 2.1602751E+01  2.4177635E+01
 2.1614250E+01  2.4215179E+01
 2.1625751E+01  2.4238539E+01
 2.1637251E+01  2.4269781E+01
 2.1648750E+01  2.4264032E+01
 2.1660252E+01  2.4249166E+01
 2.1671751E+01  2.4218943E+01
 2.1683250E+01  2.4190580E+01
 2.1694752E+01  2.4196217E+01
 2.1706251E+01  2.4212130E+01
 2.1717751E+01  2.4223665E+01
 2.1729252E+01  2.4196152E+01
 2.1740751E+01  2.4255943E+01
 2.1752251E+01  2.4252474E+01
 2.1763752E+01  2.4248011E+01
 2.1775251E+01  2.4221224E+01
 2.1786751E+01  2.4221439E+01
 2.1798250E+01  2.4214180E+01
 2.1809752E+01  2.4172762E+01
 2.1821251E+01  2.4186192E+01
 2.1832750E+01  2.4155689E+01
 2.1844252E+01  2.4199896E+01
 2.1855751E+01  2.4220417E+01
 2.1867250E+01  2.4304216E+01
 2.1878752E+01  2.4295742E+01
 2.1890251E+01  2.4282349E+01
 2.1901751E+01  2.4319925E+01
 2.1913252E+01  2.4339081E+01
 2.1924751E+01  2.4339334E+01
 2.1936251E+01  2.4267834E+01
 2.1947752E+01  2.4245590E+01
 2.1959251E+01  2.4245398E+01
 2.1970751E+01  2.4272356E+01
 2.1982250E+01  2.4313488E+01
 2.1993752E+01  2.4349876E+01
 2.2005251E+01  2.4371672E+01
 2.2016750E+01  2.4396328E+01
 2.2028252E+01  2.4392239E+01
 2.2039751E+01  2.4367783E+01
 2.2051250E+01  2.4329279E+01
 2.2062752E+01  2.4293671E+01
 2.2074251E+01  2.4296890E+01
 2.2085751E+01  2.4247330E+01
 2.2097252E+01  2.4235573E+01
 2.2108751E+01  2.4250271E+01
 2.2120251E+01  2.4369072E+01
 2.2131752E+01  2.4450905E+01
 2.2143251E+01  2.4473600E+01
 2.2154751E+01  2.4386620E+01
 2.2166250E+01  2.4392172E+01
 2.2177752E+01  2.4357410E+01
 2.2189251E+01  2.4345886E+01
 2.2200750E+01  2.4352112E+01
 2.2212252E+01  2.4386147E+01
 2.2223751E+01  2.4429882E+01
 2.2235250E+01  2.4446814E+01
 2.2246752E+01  2.4519035E+01
 2.2258251E+01  2.4533499E+01
 2.2269751E+01  2.4496593E+01
 2.2281252E+01  2.4447052E+01
 2.2292751E+01  2.4423361E+01
 2.2304251E+01  2.4516296E+01
 2.2315752E+01  2.4584200E+01
 2.2327251E+01  2.4600620E+01
 2.2338751E+01  2.4576675E+01
 2.2350250E+01  2.4609423E+01
 2.2361752E+01  2.4598436E+01
 2.2373251E+01  2.4597462E+01
 2.2384750E+01  2.4572432E+01
 2.2396252E+01  2.4538736E+01
 2.2407751E+01  2.4499853E+01
 2.2419250E+01  2.4493383E+01
 2.2430752E+01  2.4551603E+01
 2.2442251E+01  2.4605331E+01
 2.2453751E+01  2.4669502E+01
 2.2465252E+01  2.4719322E+01
 2.2476751E+01  2.4703598E+01
 2.2488251E+01  2.4706135E+01
 2.2499752E+01  2.4704222E+01
 2.2511251E+01  2.4753309E+01
 2.2522751E+01  2.4774315E+01
 2.2534250E+01  2.4794584E+01
 2.2545752E+01  2.4848652E+01
 2.2557251E+01  2.4854565E+01
 2.2568750E+01  2.4840052E+01
 2.2580252E+01  2.4814661E+01
 2.2591751E+01  2.4804682E+01
 2.2603251E+01  2.4880089E+01
 2.2614752E+01  2.4940266E+01
 2.2626251E+01  2.5010660E+01
 2.2637751E+01  2.4974901E+01
 2.2649252E+01  2.4972818E+01
 2.2660751E+01  2.4976236E+01
 2.2672251E+01  2.5012375E+01
 2.2683752E+01  2.5089563E+01
 2.2695251E+01  2.5153070E+01
 2.2706751E+01  2.5195038E+01
 2.2718250E+01  2.5210274E+01
 2.2729752E+01  2.5194529E+01
 2.2741251E+01  2.5234917E+01
 2.2752750E+01  2.5301891E+01
 2.2764252E+01  2.5352411E+01
 2.2775751E+01  2.5344885E+01
 2.2787251E+01  2.5294935E+01
 2.2798752E+01  2.5346750E+01
 2.2810251E+01  2.5433878E+01
 2.2821751E+01  2.5486296E+01
 2.2833252E+01  2.5530788E+01
 2.2844751E+01  2.5566334E+01
 2.2856251E+01  2.5566141E+01
 2.2867750E+01  2.5624447E+01
 2.2879251E+01  2.5650742E+01
 2.2890751E+01  2.5756273E+01
 2.2902250E+01  2.5741440E+01
 2.2913752E+01  2.5872732E+01
 2.2925251E+01  2.5941288E+01
 2.2936750E+01  2.6001806E+01
 2.2948252E+01  2.6023153E+01
 2.2959751E+01  2.6046410E+01
 2.2971251E+01  2.6136017E+01
 2.2982752E+01  2.6206652E+01
 2.2994251E+01  2.6294664E+01
