F:\20151113_APS_34IDE\\Brian\Particle1\OCV\Data_0022.tif
2-Theta Angle (Degrees)
Intensity
       2000
 5.7500005E-03  0.0000000E+00
 1.7250001E-02  0.0000000E+00
 2.8750001E-02  0.0000000E+00
 4.0250003E-02  0.0000000E+00
 5.1750004E-02  0.0000000E+00
 6.3250005E-02  0.0000000E+00
 7.4750006E-02  0.0000000E+00
 8.6250007E-02  0.0000000E+00
 9.7750008E-02  0.0000000E+00
 1.0925001E-01  0.0000000E+00
 1.2075000E-01  0.0000000E+00
 1.3225001E-01  0.0000000E+00
 1.4375001E-01  0.0000000E+00
 1.5525001E-01  0.0000000E+00
 1.6675001E-01  0.0000000E+00
 1.7825001E-01  0.0000000E+00
 1.8975002E-01  0.0000000E+00
 2.0125002E-01  0.0000000E+00
 2.1275002E-01  0.0000000E+00
 2.2425000E-01  0.0000000E+00
 2.3575000E-01  0.0000000E+00
 2.4725001E-01  0.0000000E+00
 2.5875002E-01  0.0000000E+00
 2.7025002E-01  0.0000000E+00
 2.8175002E-01  0.0000000E+00
 2.9325002E-01  0.0000000E+00
 3.0475003E-01  0.0000000E+00
 3.1625003E-01  0.0000000E+00
 3.2775003E-01  0.0000000E+00
 3.3925003E-01  0.0000000E+00
 3.5075003E-01  0.0000000E+00
 3.6225003E-01  0.0000000E+00
 3.7375003E-01  0.0000000E+00
 3.8525003E-01  0.0000000E+00
 3.9675003E-01  0.0000000E+00
 4.0825003E-01  0.0000000E+00
 4.1975003E-01  0.0000000E+00
 4.3125004E-01  0.0000000E+00
 4.4275001E-01  0.0000000E+00
 4.5425001E-01  0.0000000E+00
 4.6575001E-01  0.0000000E+00
 4.7725001E-01  0.0000000E+00
 4.8875001E-01  0.0000000E+00
 5.0025004E-01  0.0000000E+00
 5.1175004E-01  0.0000000E+00
 5.2325004E-01  0.0000000E+00
 5.3475004E-01  0.0000000E+00
 5.4625005E-01  0.0000000E+00
 5.5775005E-01  0.0000000E+00
 5.6925005E-01  0.0000000E+00
 5.8075005E-01  0.0000000E+00
 5.9225005E-01  0.0000000E+00
 6.0375005E-01  0.0000000E+00
 6.1525005E-01  0.0000000E+00
 6.2675005E-01  0.0000000E+00
 6.3825005E-01  0.0000000E+00
 6.4975005E-01  0.0000000E+00
 6.6125005E-01  0.0000000E+00
 6.7275006E-01  0.0000000E+00
 6.8425006E-01  0.0000000E+00
 6.9575006E-01  0.0000000E+00
 7.0725006E-01  0.0000000E+00
 7.1875006E-01  0.0000000E+00
 7.3025006E-01  0.0000000E+00
 7.4175006E-01  0.0000000E+00
 7.5325006E-01  0.0000000E+00
 7.6475006E-01  0.0000000E+00
 7.7625006E-01  0.0000000E+00
 7.8775007E-01  0.0000000E+00
 7.9925007E-01  0.0000000E+00
 8.1075007E-01  0.0000000E+00
 8.2225007E-01  0.0000000E+00
 8.3375007E-01  0.0000000E+00
 8.4525007E-01  0.0000000E+00
 8.5675007E-01  0.0000000E+00
 8.6825007E-01  0.0000000E+00
 8.7975001E-01  0.0000000E+00
 8.9125001E-01  0.0000000E+00
 9.0275002E-01  0.0000000E+00
 9.1425002E-01  0.0000000E+00
 9.2575002E-01  0.0000000E+00
 9.3725002E-01  0.0000000E+00
 9.4875002E-01  0.0000000E+00
 9.6025002E-01  0.0000000E+00
 9.7175002E-01  0.0000000E+00
 9.8325002E-01  0.0000000E+00
 9.9475002E-01  0.0000000E+00
 1.0062500E+00  0.0000000E+00
 1.0177500E+00  0.0000000E+00
 1.0292500E+00  0.0000000E+00
 1.0407500E+00  0.0000000E+00
 1.0522500E+00  0.0000000E+00
 1.0637500E+00  0.0000000E+00
 1.0752500E+00  0.0000000E+00
 1.0867500E+00  0.0000000E+00
 1.0982500E+00  0.0000000E+00
 1.1097500E+00  0.0000000E+00
 1.1212500E+00  0.0000000E+00
 1.1327500E+00  0.0000000E+00
 1.1442500E+00  0.0000000E+00
 1.1557500E+00  0.0000000E+00
 1.1672500E+00  0.0000000E+00
 1.1787500E+00  0.0000000E+00
 1.1902500E+00  0.0000000E+00
 1.2017500E+00  0.0000000E+00
 1.2132500E+00  0.0000000E+00
 1.2247500E+00  0.0000000E+00
 1.2362500E+00  0.0000000E+00
 1.2477500E+00  0.0000000E+00
 1.2592500E+00  0.0000000E+00
 1.2707500E+00  0.0000000E+00
 1.2822500E+00  0.0000000E+00
 1.2937500E+00  0.0000000E+00
 1.3052500E+00  0.0000000E+00
 1.3167500E+00  0.0000000E+00
 1.3282501E+00  0.0000000E+00
 1.3397501E+00  0.0000000E+00
 1.3512501E+00  0.0000000E+00
 1.3627501E+00  0.0000000E+00
 1.3742501E+00  0.0000000E+00
 1.3857501E+00  0.0000000E+00
 1.3972501E+00  0.0000000E+00
 1.4087501E+00  0.0000000E+00
 1.4202501E+00  0.0000000E+00
 1.4317501E+00  0.0000000E+00
 1.4432501E+00  0.0000000E+00
 1.4547501E+00  0.0000000E+00
 1.4662501E+00  0.0000000E+00
 1.4777501E+00  0.0000000E+00
 1.4892501E+00  0.0000000E+00
 1.5007501E+00  0.0000000E+00
 1.5122501E+00  0.0000000E+00
 1.5237501E+00  0.0000000E+00
 1.5352501E+00  0.0000000E+00
 1.5467501E+00  0.0000000E+00
 1.5582501E+00  0.0000000E+00
 1.5697501E+00  0.0000000E+00
 1.5812501E+00  0.0000000E+00
 1.5927501E+00  0.0000000E+00
 1.6042501E+00  0.0000000E+00
 1.6157501E+00  0.0000000E+00
 1.6272501E+00  0.0000000E+00
 1.6387501E+00  0.0000000E+00
 1.6502501E+00  0.0000000E+00
 1.6617501E+00  0.0000000E+00
 1.6732501E+00  0.0000000E+00
 1.6847501E+00  0.0000000E+00
 1.6962501E+00  0.0000000E+00
 1.7077501E+00  0.0000000E+00
 1.7192501E+00  0.0000000E+00
 1.7307501E+00  0.0000000E+00
 1.7422501E+00  0.0000000E+00
 1.7537501E+00  0.0000000E+00
 1.7652501E+00  0.0000000E+00
 1.7767501E+00  0.0000000E+00
 1.7882501E+00  0.0000000E+00
 1.7997501E+00  0.0000000E+00
 1.8112501E+00  0.0000000E+00
 1.8227501E+00  0.0000000E+00
 1.8342501E+00  0.0000000E+00
 1.8457501E+00  0.0000000E+00
 1.8572501E+00  0.0000000E+00
 1.8687501E+00  0.0000000E+00
 1.8802501E+00  0.0000000E+00
 1.8917501E+00  0.0000000E+00
 1.9032501E+00  0.0000000E+00
 1.9147501E+00  0.0000000E+00
 1.9262501E+00  0.0000000E+00
 1.9377501E+00  0.0000000E+00
 1.9492501E+00  0.0000000E+00
 1.9607501E+00  0.0000000E+00
 1.9722501E+00  0.0000000E+00
 1.9837501E+00  0.0000000E+00
 1.9952501E+00  0.0000000E+00
 2.0067501E+00  0.0000000E+00
 2.0182500E+00  0.0000000E+00
 2.0297501E+00  0.0000000E+00
 2.0412500E+00  0.0000000E+00
 2.0527501E+00  0.0000000E+00
 2.0642500E+00  0.0000000E+00
 2.0757501E+00  0.0000000E+00
 2.0872500E+00  0.0000000E+00
 2.0987501E+00  0.0000000E+00
 2.1102500E+00  0.0000000E+00
 2.1217501E+00  0.0000000E+00
 2.1332500E+00  0.0000000E+00
 2.1447501E+00  0.0000000E+00
 2.1562500E+00  0.0000000E+00
 2.1677501E+00  0.0000000E+00
 2.1792500E+00  0.0000000E+00
 2.1907501E+00  0.0000000E+00
 2.2022500E+00  0.0000000E+00
 2.2137501E+00  0.0000000E+00
 2.2252500E+00  0.0000000E+00
 2.2367501E+00  0.0000000E+00
 2.2482500E+00  0.0000000E+00
 2.2597501E+00  0.0000000E+00
 2.2712500E+00  0.0000000E+00
 2.2827501E+00  0.0000000E+00
 2.2942500E+00  0.0000000E+00
 2.3057501E+00  0.0000000E+00
 2.3172500E+00  0.0000000E+00
 2.3287501E+00  0.0000000E+00
 2.3402500E+00  0.0000000E+00
 2.3517501E+00  0.0000000E+00
 2.3632500E+00  0.0000000E+00
 2.3747501E+00  0.0000000E+00
 2.3862500E+00  0.0000000E+00
 2.3977501E+00  0.0000000E+00
 2.4092500E+00  0.0000000E+00
 2.4207501E+00  0.0000000E+00
 2.4322500E+00  0.0000000E+00
 2.4437501E+00  0.0000000E+00
 2.4552500E+00  0.0000000E+00
 2.4667501E+00  0.0000000E+00
 2.4782500E+00  0.0000000E+00
 2.4897501E+00  0.0000000E+00
 2.5012500E+00  0.0000000E+00
 2.5127501E+00  0.0000000E+00
 2.5242500E+00  0.0000000E+00
 2.5357502E+00  0.0000000E+00
 2.5472500E+00  0.0000000E+00
 2.5587502E+00  0.0000000E+00
 2.5702500E+00  0.0000000E+00
 2.5817502E+00  0.0000000E+00
 2.5932500E+00  0.0000000E+00
 2.6047502E+00  0.0000000E+00
 2.6162500E+00  0.0000000E+00
 2.6277502E+00  0.0000000E+00
 2.6392500E+00  0.0000000E+00
 2.6507502E+00  0.0000000E+00
 2.6622500E+00  0.0000000E+00
 2.6737502E+00  0.0000000E+00
 2.6852500E+00  0.0000000E+00
 2.6967502E+00  0.0000000E+00
 2.7082500E+00  0.0000000E+00
 2.7197502E+00  0.0000000E+00
 2.7312500E+00  0.0000000E+00
 2.7427502E+00  0.0000000E+00
 2.7542500E+00  0.0000000E+00
 2.7657502E+00  0.0000000E+00
 2.7772501E+00  0.0000000E+00
 2.7887502E+00  0.0000000E+00
 2.8002501E+00  0.0000000E+00
 2.8117502E+00  0.0000000E+00
 2.8232501E+00  3.7010117E+01
 2.8347502E+00  3.4394318E+01
 2.8462501E+00  3.4542660E+01
 2.8577502E+00  3.4648273E+01
 2.8692501E+00  3.4832310E+01
 2.8807502E+00  3.5229424E+01
 2.8922501E+00  3.5089996E+01
 2.9037502E+00  3.5146015E+01
 2.9152501E+00  3.5000618E+01
 2.9267502E+00  3.4787373E+01
 2.9382501E+00  3.4720592E+01
 2.9497502E+00  3.4718960E+01
 2.9612501E+00  3.5193413E+01
 2.9727502E+00  3.5846138E+01
 2.9842501E+00  3.6455021E+01
 2.9957502E+00  3.6857182E+01
 3.0072501E+00  3.7135582E+01
 3.0187502E+00  3.6870308E+01
 3.0302501E+00  3.6398758E+01
 3.0417502E+00  3.5617638E+01
 3.0532501E+00  3.5326691E+01
 3.0647502E+00  3.5054035E+01
 3.0762501E+00  3.5090855E+01
 3.0877502E+00  3.5134308E+01
 3.0992501E+00  3.5591141E+01
 3.1107502E+00  3.5740753E+01
 3.1222501E+00  3.6213295E+01
 3.1337502E+00  3.6239712E+01
 3.1452501E+00  3.6467274E+01
 3.1567502E+00  3.6284607E+01
 3.1682501E+00  3.5969864E+01
 3.1797502E+00  3.5989796E+01
 3.1912501E+00  3.5961090E+01
 3.2027502E+00  3.6069958E+01
 3.2142501E+00  3.6237740E+01
 3.2257502E+00  3.6072479E+01
 3.2372501E+00  3.6204819E+01
 3.2487502E+00  3.6110371E+01
 3.2602501E+00  3.6212925E+01
 3.2717502E+00  3.5919010E+01
 3.2832501E+00  3.5729874E+01
 3.2947502E+00  3.5585106E+01
 3.3062501E+00  3.5775799E+01
 3.3177502E+00  3.5979660E+01
 3.3292501E+00  3.6147919E+01
 3.3407502E+00  3.6087212E+01
 3.3522501E+00  3.6062592E+01
 3.3637502E+00  3.5890808E+01
 3.3752501E+00  3.6241623E+01
 3.3867502E+00  3.5948799E+01
 3.3982501E+00  3.5843655E+01
 3.4097502E+00  3.5491646E+01
 3.4212501E+00  3.5271412E+01
 3.4327502E+00  3.5110027E+01
 3.4442501E+00  3.4887360E+01
 3.4557502E+00  3.4782463E+01
 3.4672501E+00  3.4603962E+01
 3.4787502E+00  3.4332497E+01
 3.4902501E+00  3.4192188E+01
 3.5017502E+00  3.4110291E+01
 3.5132501E+00  3.4041111E+01
 3.5247502E+00  3.4220188E+01
 3.5362501E+00  3.4248436E+01
 3.5477502E+00  3.4218040E+01
 3.5592501E+00  3.3978470E+01
 3.5707502E+00  3.3643269E+01
 3.5822501E+00  3.3232517E+01
 3.5937502E+00  3.3139355E+01
 3.6052501E+00  3.3053226E+01
 3.6167502E+00  3.3174187E+01
 3.6282501E+00  3.3262798E+01
 3.6397502E+00  3.3409054E+01
 3.6512501E+00  3.3329132E+01
 3.6627502E+00  3.3448376E+01
 3.6742501E+00  3.3372311E+01
 3.6857502E+00  3.3514355E+01
 3.6972501E+00  3.3254734E+01
 3.7087502E+00  3.2846455E+01
 3.7202501E+00  3.2679333E+01
 3.7317502E+00  3.2584782E+01
 3.7432501E+00  3.2749477E+01
 3.7547503E+00  3.2914349E+01
 3.7662501E+00  3.3017891E+01
 3.7777503E+00  3.3153370E+01
 3.7892501E+00  3.3020924E+01
 3.8007503E+00  3.2870167E+01
 3.8122501E+00  3.2861259E+01
 3.8237503E+00  3.2844742E+01
 3.8352501E+00  3.3067017E+01
 3.8467503E+00  3.3056156E+01
 3.8582501E+00  3.3196541E+01
 3.8697503E+00  3.3235874E+01
 3.8812501E+00  3.3094177E+01
 3.8927503E+00  3.2956154E+01
 3.9042501E+00  3.2724209E+01
 3.9157503E+00  3.2745834E+01
 3.9272501E+00  3.2894890E+01
 3.9387503E+00  3.2894897E+01
 3.9502501E+00  3.2996937E+01
 3.9617503E+00  3.2920776E+01
 3.9732502E+00  3.3061962E+01
 3.9847503E+00  3.3222675E+01
 3.9962502E+00  3.3413292E+01
 4.0077500E+00  3.3512970E+01
 4.0192504E+00  3.3440723E+01
 4.0307503E+00  3.3094643E+01
 4.0422502E+00  3.2915882E+01
 4.0537500E+00  3.2816666E+01
 4.0652504E+00  3.2785313E+01
 4.0767503E+00  3.2567577E+01
 4.0882502E+00  3.2505196E+01
 4.0997500E+00  3.2527199E+01
 4.1112504E+00  3.2569504E+01
 4.1227503E+00  3.2598759E+01
 4.1342502E+00  3.2656494E+01
 4.1457500E+00  3.2668503E+01
 4.1572504E+00  3.2240784E+01
 4.1687503E+00  3.2004875E+01
 4.1802502E+00  3.1895315E+01
 4.1917500E+00  3.2139286E+01
 4.2032504E+00  3.2283173E+01
 4.2147503E+00  3.2451004E+01
 4.2262502E+00  3.2494572E+01
 4.2377501E+00  3.2451488E+01
 4.2492504E+00  3.2320896E+01
 4.2607503E+00  3.2418312E+01
 4.2722502E+00  3.2474480E+01
 4.2837501E+00  3.2510086E+01
 4.2952504E+00  3.2390545E+01
 4.3067503E+00  3.2276932E+01
 4.3182502E+00  3.2170799E+01
 4.3297501E+00  3.2210991E+01
 4.3412504E+00  3.2298630E+01
 4.3527503E+00  3.2427090E+01
 4.3642502E+00  3.2447498E+01
 4.3757501E+00  3.2417503E+01
 4.3872504E+00  3.2381992E+01
 4.3987503E+00  3.2506420E+01
 4.4102502E+00  3.2411903E+01
 4.4217501E+00  3.2414001E+01
 4.4332504E+00  3.2287830E+01
 4.4447503E+00  3.2219608E+01
 4.4562502E+00  3.2238831E+01
 4.4677501E+00  3.2399837E+01
 4.4792504E+00  3.2626686E+01
 4.4907503E+00  3.2745888E+01
 4.5022502E+00  3.2918430E+01
 4.5137501E+00  3.3021339E+01
 4.5252504E+00  3.3210045E+01
 4.5367503E+00  3.3077572E+01
 4.5482502E+00  3.3019630E+01
 4.5597501E+00  3.2891159E+01
 4.5712504E+00  3.2851505E+01
 4.5827503E+00  3.2859947E+01
 4.5942502E+00  3.2867771E+01
 4.6057501E+00  3.2998016E+01
 4.6172504E+00  3.2940079E+01
 4.6287503E+00  3.2835835E+01
 4.6402502E+00  3.2754974E+01
 4.6517501E+00  3.2795769E+01
 4.6632504E+00  3.2915646E+01
 4.6747503E+00  3.3015083E+01
 4.6862502E+00  3.3035290E+01
 4.6977501E+00  3.3227573E+01
 4.7092505E+00  3.3332985E+01
 4.7207503E+00  3.3455040E+01
 4.7322502E+00  3.3388725E+01
 4.7437501E+00  3.3227695E+01
 4.7552505E+00  3.3057823E+01
 4.7667503E+00  3.2969917E+01
 4.7782502E+00  3.2752445E+01
 4.7897501E+00  3.2720215E+01
 4.8012505E+00  3.2590336E+01
 4.8127503E+00  3.2617329E+01
 4.8242502E+00  3.2628872E+01
 4.8357501E+00  3.2691284E+01
 4.8472505E+00  3.2804752E+01
 4.8587503E+00  3.2823708E+01
 4.8702502E+00  3.2867668E+01
 4.8817501E+00  3.2934490E+01
 4.8932505E+00  3.2977482E+01
 4.9047503E+00  3.2999233E+01
 4.9162502E+00  3.3099205E+01
 4.9277501E+00  3.3005363E+01
 4.9392505E+00  3.2995346E+01
 4.9507504E+00  3.2843021E+01
 4.9622502E+00  3.2855896E+01
 4.9737501E+00  3.2951191E+01
 4.9852505E+00  3.3120178E+01
 4.9967504E+00  3.3298843E+01
 5.0082502E+00  3.3539852E+01
 5.0197501E+00  3.3588165E+01
 5.0312505E+00  3.3710487E+01
 5.0427504E+00  3.3637329E+01
 5.0542502E+00  3.3691242E+01
 5.0657501E+00  3.3670551E+01
 5.0772505E+00  3.3720623E+01
 5.0887504E+00  3.3579914E+01
 5.1002502E+00  3.3475815E+01
 5.1117501E+00  3.3433636E+01
 5.1232505E+00  3.3598927E+01
 5.1347504E+00  3.3766037E+01
 5.1462502E+00  3.4878059E+01
 5.1577501E+00  3.5097023E+01
 5.1692505E+00  3.5166542E+01
 5.1807504E+00  3.4472973E+01
 5.1922503E+00  3.4113144E+01
 5.2037501E+00  3.4115948E+01
 5.2152505E+00  3.4033962E+01
 5.2267504E+00  3.4165508E+01
 5.2382503E+00  3.4252605E+01
 5.2497501E+00  3.4177204E+01
 5.2612505E+00  3.4194977E+01
 5.2727504E+00  3.4101891E+01
 5.2842503E+00  3.4221588E+01
 5.2957501E+00  3.4172691E+01
 5.3072500E+00  3.4327778E+01
 5.3187504E+00  3.4398865E+01
 5.3302503E+00  3.4498158E+01
 5.3417501E+00  3.4578075E+01
 5.3532500E+00  3.4589870E+01
 5.3647504E+00  3.4634178E+01
 5.3762503E+00  3.4783089E+01
 5.3877501E+00  3.4962040E+01
 5.3992500E+00  3.5104813E+01
 5.4107504E+00  3.5131660E+01
 5.4222503E+00  3.5027203E+01
 5.4337502E+00  3.4968506E+01
 5.4452500E+00  3.5004993E+01
 5.4567504E+00  3.5107048E+01
 5.4682503E+00  3.5172516E+01
 5.4797502E+00  3.5170963E+01
 5.4912500E+00  3.5026340E+01
 5.5027504E+00  3.4976349E+01
 5.5142503E+00  3.4968895E+01
 5.5257502E+00  3.5060955E+01
 5.5372500E+00  3.5050232E+01
 5.5487504E+00  3.4981171E+01
 5.5602503E+00  3.4989174E+01
 5.5717502E+00  3.5130135E+01
 5.5832500E+00  3.5197506E+01
 5.5947504E+00  3.5256428E+01
 5.6062503E+00  3.5302437E+01
 5.6177502E+00  3.5311985E+01
 5.6292500E+00  3.5415108E+01
 5.6407504E+00  3.5339905E+01
 5.6522503E+00  3.5316612E+01
 5.6637502E+00  3.5219772E+01
 5.6752501E+00  3.5274059E+01
 5.6867504E+00  3.5228561E+01
 5.6982503E+00  3.5331902E+01
 5.7097502E+00  3.5366928E+01
 5.7212501E+00  3.5541748E+01
 5.7327504E+00  3.5619999E+01
 5.7442503E+00  3.5840485E+01
 5.7557502E+00  3.5942745E+01
 5.7672501E+00  3.5945557E+01
 5.7787504E+00  3.5922596E+01
 5.7902503E+00  3.5984116E+01
 5.8017502E+00  3.6063255E+01
 5.8132501E+00  3.6112629E+01
 5.8247504E+00  3.6200333E+01
 5.8362503E+00  3.6337952E+01
 5.8477502E+00  3.6438881E+01
 5.8592501E+00  3.6494179E+01
 5.8707504E+00  3.6636162E+01
 5.8822503E+00  3.6771404E+01
 5.8937502E+00  3.7072227E+01
 5.9052501E+00  3.7406487E+01
 5.9167504E+00  3.7817101E+01
 5.9282503E+00  3.8753613E+01
 5.9397502E+00  3.9976795E+01
 5.9512501E+00  4.2198803E+01
 5.9627504E+00  4.8453159E+01
 5.9742503E+00  5.2606842E+01
 5.9857502E+00  5.9354908E+01
 5.9972501E+00  6.0842205E+01
 6.0087504E+00  6.0616203E+01
 6.0202503E+00  5.5008022E+01
 6.0317502E+00  4.9057880E+01
 6.0432501E+00  4.4413300E+01
 6.0547504E+00  4.1761921E+01
 6.0662503E+00  3.9609413E+01
 6.0777502E+00  3.8593353E+01
 6.0892501E+00  3.7981525E+01
 6.1007504E+00  3.7810452E+01
 6.1122503E+00  3.7636047E+01
 6.1237502E+00  3.7543766E+01
 6.1352501E+00  3.7453857E+01
 6.1467505E+00  3.7350407E+01
 6.1582503E+00  3.7282566E+01
 6.1697502E+00  3.7286713E+01
 6.1812501E+00  3.7406685E+01
 6.1927505E+00  3.7396343E+01
 6.2042503E+00  3.7277874E+01
 6.2157502E+00  3.7261757E+01
 6.2272501E+00  3.7388905E+01
 6.2387505E+00  3.7452179E+01
 6.2502503E+00  3.7632442E+01
 6.2617502E+00  3.7746403E+01
 6.2732501E+00  3.7988297E+01
 6.2847505E+00  3.8097408E+01
 6.2962503E+00  3.8131927E+01
 6.3077502E+00  3.8225933E+01
 6.3192501E+00  3.8306213E+01
 6.3307505E+00  3.8488800E+01
 6.3422503E+00  3.8638454E+01
 6.3537502E+00  3.8665661E+01
 6.3652501E+00  3.8666481E+01
 6.3767505E+00  3.8625393E+01
 6.3882504E+00  3.8693794E+01
 6.3997502E+00  3.8728905E+01
 6.4112501E+00  3.8791576E+01
 6.4227505E+00  3.8898170E+01
 6.4342504E+00  3.8904510E+01
 6.4457502E+00  3.8957592E+01
 6.4572501E+00  3.8952675E+01
 6.4687505E+00  3.9032677E+01
 6.4802504E+00  3.9077431E+01
 6.4917502E+00  3.9148766E+01
 6.5032501E+00  3.9234005E+01
 6.5147505E+00  3.9358742E+01
 6.5262504E+00  3.9521961E+01
 6.5377502E+00  3.9523209E+01
 6.5492501E+00  3.9610752E+01
 6.5607505E+00  3.9607445E+01
 6.5722504E+00  3.9696705E+01
 6.5837502E+00  3.9676491E+01
 6.5952501E+00  3.9657642E+01
 6.6067505E+00  3.9772408E+01
 6.6182504E+00  3.9878174E+01
 6.6297503E+00  4.0113663E+01
 6.6412501E+00  4.0213642E+01
 6.6527505E+00  4.0463245E+01
 6.6642504E+00  4.0596275E+01
 6.6757503E+00  4.0751003E+01
 6.6872501E+00  4.0728821E+01
 6.6987505E+00  4.0726906E+01
 6.7102504E+00  4.0678864E+01
 6.7217503E+00  4.0763184E+01
 6.7332501E+00  4.0865822E+01
 6.7447505E+00  4.0969311E+01
 6.7562504E+00  4.1070305E+01
 6.7677503E+00  4.1158195E+01
 6.7792501E+00  4.1337994E+01
 6.7907505E+00  4.1490005E+01
 6.8022504E+00  4.1623257E+01
 6.8137503E+00  4.1703968E+01
 6.8252501E+00  4.1731030E+01
 6.8367505E+00  4.1784657E+01
 6.8482504E+00  4.1923584E+01
 6.8597503E+00  4.2144722E+01
 6.8712502E+00  4.2329674E+01
 6.8827505E+00  4.2453793E+01
 6.8942504E+00  4.2373508E+01
 6.9057503E+00  4.2373882E+01
 6.9172502E+00  4.2305275E+01
 6.9287505E+00  4.2355293E+01
 6.9402504E+00  4.2436344E+01
 6.9517503E+00  4.2464184E+01
 6.9632502E+00  4.2479881E+01
 6.9747505E+00  4.2407948E+01
 6.9862504E+00  4.2361023E+01
 6.9977503E+00  4.2376358E+01
 7.0092502E+00  4.2387417E+01
 7.0207505E+00  4.2580463E+01
 7.0322504E+00  4.2726452E+01
 7.0437503E+00  4.2947952E+01
 7.0552502E+00  4.3068008E+01
 7.0667505E+00  4.3091923E+01
 7.0782504E+00  4.3074718E+01
 7.0897503E+00  4.3017834E+01
 7.1012502E+00  4.3106182E+01
 7.1127505E+00  4.3202564E+01
 7.1242504E+00  4.3338352E+01
 7.1357503E+00  4.3488163E+01
 7.1472502E+00  4.3592945E+01
 7.1587505E+00  4.3670246E+01
 7.1702504E+00  4.3653999E+01
 7.1817503E+00  4.3699715E+01
 7.1932502E+00  4.3723663E+01
 7.2047505E+00  4.3795456E+01
 7.2162504E+00  4.3830627E+01
 7.2277503E+00  4.3895977E+01
 7.2392502E+00  4.3951069E+01
 7.2507505E+00  4.3966747E+01
 7.2622504E+00  4.4037262E+01
 7.2737503E+00  4.4055294E+01
 7.2852502E+00  4.4079037E+01
 7.2967505E+00  4.4086010E+01
 7.3082504E+00  4.4005863E+01
 7.3197503E+00  4.4082405E+01
 7.3312502E+00  4.4055721E+01
 7.3427505E+00  4.4091034E+01
 7.3542504E+00  4.4123135E+01
 7.3657503E+00  4.4156307E+01
 7.3772502E+00  4.4300377E+01
 7.3887506E+00  4.4314095E+01
 7.4002504E+00  4.4412846E+01
 7.4117503E+00  4.4547020E+01
 7.4232502E+00  4.4637043E+01
 7.4347506E+00  4.4655895E+01
 7.4462504E+00  4.4685867E+01
 7.4577503E+00  4.4606758E+01
 7.4692502E+00  4.4708874E+01
 7.4807506E+00  4.4695194E+01
 7.4922504E+00  4.4916882E+01
 7.5037503E+00  4.4867435E+01
 7.5152502E+00  4.4892250E+01
 7.5267506E+00  4.4795326E+01
 7.5382504E+00  4.4738369E+01
 7.5497503E+00  4.4583363E+01
 7.5612502E+00  4.4504013E+01
 7.5727506E+00  4.4524799E+01
 7.5842505E+00  4.4566414E+01
 7.5957503E+00  4.4527916E+01
 7.6072502E+00  4.4609371E+01
 7.6187506E+00  4.4655628E+01
 7.6302505E+00  4.4792393E+01
 7.6417503E+00  4.4767681E+01
 7.6532502E+00  4.4785488E+01
 7.6647506E+00  4.4755009E+01
 7.6762505E+00  4.4690674E+01
 7.6877503E+00  4.4657345E+01
 7.6992502E+00  4.4606102E+01
 7.7107506E+00  4.4729591E+01
 7.7222505E+00  4.4691494E+01
 7.7337503E+00  4.4759010E+01
 7.7452502E+00  4.4657394E+01
 7.7567506E+00  4.4652824E+01
 7.7682505E+00  4.4601112E+01
 7.7797503E+00  4.4578762E+01
 7.7912502E+00  4.4579403E+01
 7.8027506E+00  4.4594402E+01
 7.8142505E+00  4.4547794E+01
 7.8257504E+00  4.4631321E+01
 7.8372502E+00  4.4706734E+01
 7.8487506E+00  4.4763130E+01
 7.8602505E+00  4.4716484E+01
 7.8717504E+00  4.4593784E+01
 7.8832502E+00  4.4468803E+01
 7.8947506E+00  4.4382294E+01
 7.9062505E+00  4.4318535E+01
 7.9177504E+00  4.4359165E+01
 7.9292502E+00  4.4377365E+01
 7.9407506E+00  4.4373486E+01
 7.9522505E+00  4.4307690E+01
 7.9637504E+00  4.4272026E+01
 7.9752502E+00  4.4211800E+01
 7.9867506E+00  4.4170845E+01
 7.9982505E+00  4.4182648E+01
 8.0097504E+00  4.4178699E+01
 8.0212507E+00  4.4229752E+01
 8.0327501E+00  4.4103870E+01
 8.0442505E+00  4.3936565E+01
 8.0557508E+00  4.3744251E+01
 8.0672503E+00  4.3631962E+01
 8.0787506E+00  4.3596302E+01
 8.0902500E+00  4.3613094E+01
 8.1017504E+00  4.3612007E+01
 8.1132507E+00  4.3624596E+01
 8.1247501E+00  4.3432961E+01
 8.1362505E+00  4.3304649E+01
 8.1477509E+00  4.3073341E+01
 8.1592503E+00  4.2890965E+01
 8.1707506E+00  4.2669392E+01
 8.1822500E+00  4.2496933E+01
 8.1937504E+00  4.2400711E+01
 8.2052507E+00  4.2289581E+01
 8.2167501E+00  4.2172794E+01
 8.2282505E+00  4.2101124E+01
 8.2397509E+00  4.1968628E+01
 8.2512503E+00  4.1855751E+01
 8.2627506E+00  4.1663059E+01
 8.2742500E+00  4.1515568E+01
 8.2857504E+00  4.1313976E+01
 8.2972507E+00  4.1167377E+01
 8.3087502E+00  4.0980507E+01
 8.3202505E+00  4.0881107E+01
 8.3317509E+00  4.0691719E+01
 8.3432503E+00  4.0569405E+01
 8.3547506E+00  4.0456161E+01
 8.3662500E+00  4.0444248E+01
 8.3777504E+00  4.0339691E+01
 8.3892508E+00  4.0272018E+01
 8.4007502E+00  4.0125271E+01
 8.4122505E+00  4.0019260E+01
 8.4237509E+00  3.9786980E+01
 8.4352503E+00  3.9568352E+01
 8.4467506E+00  3.9372196E+01
 8.4582500E+00  3.9259304E+01
 8.4697504E+00  3.9058395E+01
 8.4812508E+00  3.8843639E+01
 8.4927502E+00  3.8532566E+01
 8.5042505E+00  3.8399273E+01
 8.5157509E+00  3.8162823E+01
 8.5272503E+00  3.8030514E+01
 8.5387506E+00  3.7829605E+01
 8.5502501E+00  3.7675240E+01
 8.5617504E+00  3.7476463E+01
 8.5732508E+00  3.7271111E+01
 8.5847502E+00  3.7020824E+01
 8.5962505E+00  3.6816391E+01
 8.6077509E+00  3.6583229E+01
 8.6192503E+00  3.6495583E+01
 8.6307507E+00  3.6367912E+01
 8.6422501E+00  3.6236847E+01
 8.6537504E+00  3.6093262E+01
 8.6652508E+00  3.5910564E+01
 8.6767502E+00  3.5748627E+01
 8.6882505E+00  3.5588928E+01
 8.6997509E+00  3.5510841E+01
 8.7112503E+00  3.5302193E+01
 8.7227507E+00  3.5069462E+01
 8.7342501E+00  3.4796555E+01
 8.7457504E+00  3.4554924E+01
 8.7572508E+00  3.4358425E+01
 8.7687502E+00  3.4204693E+01
 8.7802505E+00  3.4059845E+01
 8.7917500E+00  3.3885563E+01
 8.8032503E+00  3.3726158E+01
 8.8147507E+00  3.3549492E+01
 8.8262501E+00  3.3438164E+01
 8.8377504E+00  3.3305691E+01
 8.8492508E+00  3.3218666E+01
 8.8607502E+00  3.3121677E+01
 8.8722506E+00  3.3002552E+01
 8.8837500E+00  3.2852650E+01
 8.8952503E+00  3.2712410E+01
 8.9067507E+00  3.2492645E+01
 8.9182501E+00  3.2320595E+01
 8.9297504E+00  3.2156353E+01
 8.9412508E+00  3.2054077E+01
 8.9527502E+00  3.1941778E+01
 8.9642506E+00  3.1759130E+01
 8.9757500E+00  3.1550667E+01
 8.9872503E+00  3.1411116E+01
 8.9987507E+00  3.1205997E+01
 9.0102501E+00  3.1057125E+01
 9.0217505E+00  3.0839344E+01
 9.0332508E+00  3.0704458E+01
 9.0447502E+00  3.0561363E+01
 9.0562506E+00  3.0413019E+01
 9.0677500E+00  3.0330286E+01
 9.0792503E+00  3.0274321E+01
 9.0907507E+00  3.0175852E+01
 9.1022501E+00  2.9993471E+01
 9.1137505E+00  2.9749910E+01
 9.1252508E+00  2.9547728E+01
 9.1367502E+00  2.9356293E+01
 9.1482506E+00  2.9271126E+01
 9.1597500E+00  2.9234711E+01
 9.1712503E+00  2.9172745E+01
 9.1827507E+00  2.9060055E+01
 9.1942501E+00  2.9108643E+01
 9.2057505E+00  2.9035065E+01
 9.2172508E+00  2.9027113E+01
 9.2287502E+00  2.8844481E+01
 9.2402506E+00  2.8720438E+01
 9.2517500E+00  2.8608082E+01
 9.2632504E+00  2.8377987E+01
 9.2747507E+00  2.8238899E+01
 9.2862501E+00  2.8024466E+01
 9.2977505E+00  2.7900949E+01
 9.3092508E+00  2.7820860E+01
 9.3207502E+00  2.7781582E+01
 9.3322506E+00  2.7669952E+01
 9.3437500E+00  2.7528093E+01
 9.3552504E+00  2.7404272E+01
 9.3667507E+00  2.7368578E+01
 9.3782501E+00  2.7298594E+01
 9.3897505E+00  2.7238611E+01
 9.4012508E+00  2.7149004E+01
 9.4127502E+00  2.7119316E+01
 9.4242506E+00  2.7112474E+01
 9.4357500E+00  2.7069740E+01
 9.4472504E+00  2.7043329E+01
 9.4587507E+00  2.6979389E+01
 9.4702501E+00  2.6932915E+01
 9.4817505E+00  2.6897707E+01
 9.4932508E+00  2.6831953E+01
 9.5047503E+00  2.6724045E+01
 9.5162506E+00  2.6579617E+01
 9.5277500E+00  2.6440542E+01
 9.5392504E+00  2.6276924E+01
 9.5507507E+00  2.6202658E+01
 9.5622501E+00  2.6116959E+01
 9.5737505E+00  2.6046953E+01
 9.5852509E+00  2.5978493E+01
 9.5967503E+00  2.5953091E+01
 9.6082506E+00  2.5972919E+01
 9.6197500E+00  2.5941744E+01
 9.6312504E+00  2.5815506E+01
 9.6427507E+00  2.5726379E+01
 9.6542501E+00  2.5594198E+01
 9.6657505E+00  2.5520277E+01
 9.6772509E+00  2.5452366E+01
 9.6887503E+00  2.5480997E+01
 9.7002506E+00  2.5468609E+01
 9.7117500E+00  2.5462801E+01
 9.7232504E+00  2.5386562E+01
 9.7347507E+00  2.5412413E+01
 9.7462502E+00  2.5372135E+01
 9.7577505E+00  2.5376030E+01
 9.7692509E+00  2.5309895E+01
 9.7807503E+00  2.5268038E+01
 9.7922506E+00  2.5165516E+01
 9.8037500E+00  2.5068455E+01
 9.8152504E+00  2.5023540E+01
 9.8267508E+00  2.4916676E+01
 9.8382502E+00  2.4912905E+01
 9.8497505E+00  2.4856377E+01
 9.8612509E+00  2.4843157E+01
 9.8727503E+00  2.4745564E+01
 9.8842506E+00  2.4706474E+01
 9.8957500E+00  2.4793974E+01
 9.9072504E+00  2.4826698E+01
 9.9187508E+00  2.4825758E+01
 9.9302502E+00  2.4733007E+01
 9.9417505E+00  2.4664911E+01
 9.9532509E+00  2.4584574E+01
 9.9647503E+00  2.4514126E+01
 9.9762506E+00  2.4537607E+01
 9.9877501E+00  2.4542147E+01
 9.9992504E+00  2.4544170E+01
 1.0010751E+01  2.4442739E+01
 1.0022250E+01  2.4374119E+01
 1.0033751E+01  2.4281206E+01
 1.0045251E+01  2.4243187E+01
 1.0056750E+01  2.4198006E+01
 1.0068251E+01  2.4197039E+01
 1.0079750E+01  2.4117300E+01
 1.0091250E+01  2.4125919E+01
 1.0102751E+01  2.4102322E+01
 1.0114250E+01  2.4117516E+01
 1.0125751E+01  2.4155205E+01
 1.0137251E+01  2.4142227E+01
 1.0148750E+01  2.4190767E+01
 1.0160251E+01  2.4120796E+01
 1.0171750E+01  2.4060638E+01
 1.0183250E+01  2.4019051E+01
 1.0194751E+01  2.3977808E+01
 1.0206250E+01  2.4003309E+01
 1.0217751E+01  2.3966803E+01
 1.0229251E+01  2.3952223E+01
 1.0240750E+01  2.3926441E+01
 1.0252251E+01  2.3847248E+01
 1.0263750E+01  2.3846167E+01
 1.0275250E+01  2.3845039E+01
 1.0286751E+01  2.3849848E+01
 1.0298250E+01  2.3862041E+01
 1.0309751E+01  2.3772007E+01
 1.0321251E+01  2.3723434E+01
 1.0332750E+01  2.3550810E+01
 1.0344251E+01  2.3510641E+01
 1.0355750E+01  2.3464632E+01
 1.0367250E+01  2.3465279E+01
 1.0378751E+01  2.3476498E+01
 1.0390250E+01  2.3559155E+01
 1.0401751E+01  2.3584106E+01
 1.0413251E+01  2.3608667E+01
 1.0424750E+01  2.3554611E+01
 1.0436251E+01  2.3524918E+01
 1.0447750E+01  2.3452642E+01
 1.0459250E+01  2.3378218E+01
 1.0470751E+01  2.3294788E+01
 1.0482250E+01  2.3255104E+01
 1.0493751E+01  2.3168478E+01
 1.0505251E+01  2.3203222E+01
 1.0516750E+01  2.3197758E+01
 1.0528251E+01  2.3245758E+01
 1.0539750E+01  2.3284906E+01
 1.0551250E+01  2.3231064E+01
 1.0562751E+01  2.3255222E+01
 1.0574250E+01  2.3147308E+01
 1.0585751E+01  2.3168871E+01
 1.0597251E+01  2.3127546E+01
 1.0608750E+01  2.3178596E+01
 1.0620251E+01  2.3200737E+01
 1.0631750E+01  2.3315083E+01
 1.0643250E+01  2.3342102E+01
 1.0654751E+01  2.3468908E+01
 1.0666250E+01  2.3407408E+01
 1.0677751E+01  2.3379932E+01
 1.0689251E+01  2.3268475E+01
 1.0700750E+01  2.3241936E+01
 1.0712251E+01  2.3206404E+01
 1.0723750E+01  2.3087261E+01
 1.0735250E+01  2.2991768E+01
 1.0746751E+01  2.2921797E+01
 1.0758250E+01  2.2940153E+01
 1.0769751E+01  2.2940203E+01
 1.0781251E+01  2.2965435E+01
 1.0792750E+01  2.2958048E+01
 1.0804251E+01  2.2949968E+01
 1.0815750E+01  2.2899946E+01
 1.0827250E+01  2.2946535E+01
 1.0838751E+01  2.2916067E+01
 1.0850250E+01  2.2969225E+01
 1.0861751E+01  2.2896141E+01
 1.0873251E+01  2.2899635E+01
 1.0884750E+01  2.2870878E+01
 1.0896251E+01  2.2922939E+01
 1.0907750E+01  2.3003960E+01
 1.0919250E+01  2.3008688E+01
 1.0930751E+01  2.2965515E+01
 1.0942250E+01  2.2908920E+01
 1.0953751E+01  2.2878677E+01
 1.0965251E+01  2.2806459E+01
 1.0976750E+01  2.2744122E+01
 1.0988251E+01  2.2693878E+01
 1.0999750E+01  2.2688438E+01
 1.1011250E+01  2.2688335E+01
 1.1022751E+01  2.2688049E+01
 1.1034250E+01  2.2731167E+01
 1.1045751E+01  2.2708057E+01
 1.1057251E+01  2.2719820E+01
 1.1068750E+01  2.2721985E+01
 1.1080251E+01  2.2763462E+01
 1.1091750E+01  2.2796690E+01
 1.1103251E+01  2.2793081E+01
 1.1114751E+01  2.2752008E+01
 1.1126250E+01  2.2683704E+01
 1.1137751E+01  2.2585308E+01
 1.1149251E+01  2.2567062E+01
 1.1160750E+01  2.2581345E+01
 1.1172251E+01  2.2609173E+01
 1.1183750E+01  2.2639456E+01
 1.1195251E+01  2.2609489E+01
 1.1206751E+01  2.2611372E+01
 1.1218250E+01  2.2556240E+01
 1.1229751E+01  2.2550451E+01
 1.1241251E+01  2.2519739E+01
 1.1252750E+01  2.2542215E+01
 1.1264251E+01  2.2541832E+01
 1.1275750E+01  2.2548733E+01
 1.1287251E+01  2.2535074E+01
 1.1298751E+01  2.2572536E+01
 1.1310250E+01  2.2671047E+01
 1.1321751E+01  2.2782993E+01
 1.1333251E+01  2.2821247E+01
 1.1344750E+01  2.2832268E+01
 1.1356251E+01  2.2784798E+01
 1.1367750E+01  2.2821806E+01
 1.1379251E+01  2.2768637E+01
 1.1390751E+01  2.2771374E+01
 1.1402250E+01  2.2858721E+01
 1.1413751E+01  2.2843010E+01
 1.1425251E+01  2.2885054E+01
 1.1436750E+01  2.2814295E+01
 1.1448251E+01  2.2821440E+01
 1.1459750E+01  2.2776352E+01
 1.1471251E+01  2.2702614E+01
 1.1482751E+01  2.2662514E+01
 1.1494250E+01  2.2635733E+01
 1.1505751E+01  2.2597115E+01
 1.1517251E+01  2.2688129E+01
 1.1528750E+01  2.2994438E+01
 1.1540251E+01  2.3167894E+01
 1.1551750E+01  2.3667883E+01
 1.1563251E+01  2.4114855E+01
 1.1574751E+01  2.4397234E+01
 1.1586250E+01  2.4982391E+01
 1.1597751E+01  2.4970699E+01
 1.1609251E+01  2.4998163E+01
 1.1620750E+01  2.4216108E+01
 1.1632251E+01  2.3749638E+01
 1.1643750E+01  2.3396885E+01
 1.1655251E+01  2.3120481E+01
 1.1666751E+01  2.2854137E+01
 1.1678250E+01  2.2728817E+01
 1.1689751E+01  2.2598495E+01
 1.1701251E+01  2.2520237E+01
 1.1712750E+01  2.2474960E+01
 1.1724251E+01  2.2434309E+01
 1.1735750E+01  2.2452347E+01
 1.1747251E+01  2.2456972E+01
 1.1758751E+01  2.2448685E+01
 1.1770250E+01  2.2409348E+01
 1.1781751E+01  2.2358557E+01
 1.1793251E+01  2.2349482E+01
 1.1804750E+01  2.2351595E+01
 1.1816251E+01  2.2430307E+01
 1.1827750E+01  2.2432613E+01
 1.1839251E+01  2.2461121E+01
 1.1850751E+01  2.2397844E+01
 1.1862250E+01  2.2416868E+01
 1.1873751E+01  2.2350235E+01
 1.1885251E+01  2.2329721E+01
 1.1896750E+01  2.2345568E+01
 1.1908251E+01  2.2421926E+01
 1.1919750E+01  2.2532999E+01
 1.1931251E+01  2.2581057E+01
 1.1942751E+01  2.2612902E+01
 1.1954250E+01  2.2592493E+01
 1.1965751E+01  2.2601707E+01
 1.1977251E+01  2.2619976E+01
 1.1988750E+01  2.2635183E+01
 1.2000251E+01  2.2670881E+01
 1.2011750E+01  2.2649107E+01
 1.2023251E+01  2.2693762E+01
 1.2034751E+01  2.2715860E+01
 1.2046250E+01  2.2829592E+01
 1.2057751E+01  2.2923759E+01
 1.2069251E+01  2.3142071E+01
 1.2080750E+01  2.3440386E+01
 1.2092251E+01  2.3718912E+01
 1.2103750E+01  2.3913095E+01
 1.2115251E+01  2.3882458E+01
 1.2126751E+01  2.3795233E+01
 1.2138250E+01  2.3579393E+01
 1.2149751E+01  2.3348354E+01
 1.2161251E+01  2.3086403E+01
 1.2172750E+01  2.2899714E+01
 1.2184251E+01  2.2815098E+01
 1.2195750E+01  2.2762472E+01
 1.2207251E+01  2.2670469E+01
 1.2218751E+01  2.2558025E+01
 1.2230250E+01  2.2484774E+01
 1.2241751E+01  2.2453955E+01
 1.2253251E+01  2.2482904E+01
 1.2264750E+01  2.2502110E+01
 1.2276251E+01  2.2526873E+01
 1.2287750E+01  2.2527866E+01
 1.2299251E+01  2.2517086E+01
 1.2310751E+01  2.2493988E+01
 1.2322250E+01  2.2472694E+01
 1.2333751E+01  2.2514034E+01
 1.2345250E+01  2.2538488E+01
 1.2356750E+01  2.2580074E+01
 1.2368251E+01  2.2600115E+01
 1.2379750E+01  2.2639479E+01
 1.2391251E+01  2.2618055E+01
 1.2402751E+01  2.2599600E+01
 1.2414250E+01  2.2582905E+01
 1.2425751E+01  2.2587383E+01
 1.2437250E+01  2.2574320E+01
 1.2448750E+01  2.2565985E+01
 1.2460251E+01  2.2567234E+01
 1.2471750E+01  2.2565536E+01
 1.2483251E+01  2.2575941E+01
 1.2494751E+01  2.2599419E+01
 1.2506250E+01  2.2652908E+01
 1.2517751E+01  2.2689178E+01
 1.2529250E+01  2.2835993E+01
 1.2540751E+01  2.2913237E+01
 1.2552251E+01  2.2967876E+01
 1.2563750E+01  2.2889851E+01
 1.2575251E+01  2.2877329E+01
 1.2586751E+01  2.2810781E+01
 1.2598250E+01  2.2747122E+01
 1.2609751E+01  2.2695404E+01
 1.2621250E+01  2.2706699E+01
 1.2632751E+01  2.2751652E+01
 1.2644251E+01  2.2753714E+01
 1.2655750E+01  2.2750172E+01
 1.2667251E+01  2.2762129E+01
 1.2678751E+01  2.2753456E+01
 1.2690250E+01  2.2763184E+01
 1.2701751E+01  2.2750338E+01
 1.2713250E+01  2.2838722E+01
 1.2724751E+01  2.2887564E+01
 1.2736251E+01  2.2962982E+01
 1.2747750E+01  2.3016256E+01
 1.2759251E+01  2.3078688E+01
 1.2770751E+01  2.3097324E+01
 1.2782250E+01  2.3127930E+01
 1.2793751E+01  2.3068230E+01
 1.2805250E+01  2.3054934E+01
 1.2816751E+01  2.3007401E+01
 1.2828251E+01  2.3081249E+01
 1.2839750E+01  2.3144733E+01
 1.2851251E+01  2.3219822E+01
 1.2862751E+01  2.3275314E+01
 1.2874250E+01  2.3306044E+01
 1.2885751E+01  2.3370129E+01
 1.2897250E+01  2.3382631E+01
 1.2908751E+01  2.3453659E+01
 1.2920251E+01  2.3450941E+01
 1.2931750E+01  2.3534857E+01
 1.2943251E+01  2.3569231E+01
 1.2954751E+01  2.3604725E+01
 1.2966250E+01  2.3664206E+01
 1.2977751E+01  2.3704359E+01
 1.2989250E+01  2.3723663E+01
 1.3000751E+01  2.3726366E+01
 1.3012251E+01  2.3754951E+01
 1.3023750E+01  2.3870642E+01
 1.3035251E+01  2.4047892E+01
 1.3046751E+01  2.4211739E+01
 1.3058250E+01  2.4346695E+01
 1.3069751E+01  2.4361015E+01
 1.3081250E+01  2.4413082E+01
 1.3092751E+01  2.4479179E+01
 1.3104251E+01  2.4689568E+01
 1.3115750E+01  2.4866383E+01
 1.3127251E+01  2.5037111E+01
 1.3138751E+01  2.5094175E+01
 1.3150250E+01  2.5166183E+01
 1.3161751E+01  2.5252213E+01
 1.3173250E+01  2.5381470E+01
 1.3184751E+01  2.5508963E+01
 1.3196251E+01  2.5586164E+01
 1.3207750E+01  2.5732376E+01
 1.3219251E+01  2.5897058E+01
 1.3230751E+01  2.6139616E+01
 1.3242250E+01  2.6320915E+01
 1.3253751E+01  2.6448210E+01
 1.3265250E+01  2.6551949E+01
 1.3276751E+01  2.6613512E+01
 1.3288251E+01  2.6761778E+01
 1.3299750E+01  2.6891045E+01
 1.3311251E+01  2.7026167E+01
 1.3322751E+01  2.7114088E+01
 1.3334250E+01  2.7255865E+01
 1.3345751E+01  2.7423788E+01
 1.3357250E+01  2.7638763E+01
 1.3368751E+01  2.7743456E+01
 1.3380251E+01  2.7917765E+01
 1.3391750E+01  2.8029696E+01
 1.3403251E+01  2.8185785E+01
 1.3414751E+01  2.8241201E+01
 1.3426250E+01  2.8309872E+01
 1.3437751E+01  2.8422693E+01
 1.3449250E+01  2.8498474E+01
 1.3460751E+01  2.8607605E+01
 1.3472251E+01  2.8720882E+01
 1.3483750E+01  2.8961079E+01
 1.3495251E+01  2.9146996E+01
 1.3506751E+01  2.9320936E+01
 1.3518250E+01  2.9460394E+01
 1.3529751E+01  2.9582272E+01
 1.3541250E+01  2.9721363E+01
 1.3552751E+01  2.9753559E+01
 1.3564251E+01  2.9808350E+01
 1.3575750E+01  2.9824385E+01
 1.3587251E+01  2.9827902E+01
 1.3598751E+01  2.9851980E+01
 1.3610250E+01  2.9796019E+01
 1.3621751E+01  2.9744566E+01
 1.3633250E+01  2.9682476E+01
 1.3644751E+01  2.9640446E+01
 1.3656251E+01  2.9650263E+01
 1.3667750E+01  2.9680901E+01
 1.3679251E+01  2.9729315E+01
 1.3690751E+01  2.9728642E+01
 1.3702250E+01  2.9655300E+01
 1.3713751E+01  2.9589972E+01
 1.3725250E+01  2.9555340E+01
 1.3736751E+01  2.9522703E+01
 1.3748251E+01  2.9456505E+01
 1.3759750E+01  2.9382715E+01
 1.3771251E+01  2.9285297E+01
 1.3782751E+01  2.9233788E+01
 1.3794250E+01  2.9140970E+01
 1.3805751E+01  2.9103809E+01
 1.3817250E+01  2.9045036E+01
 1.3828751E+01  2.9062782E+01
 1.3840251E+01  2.9017853E+01
 1.3851750E+01  2.9050327E+01
 1.3863251E+01  2.8994799E+01
 1.3874751E+01  2.8963318E+01
 1.3886250E+01  2.8882915E+01
 1.3897751E+01  2.8906981E+01
 1.3909250E+01  2.8915192E+01
 1.3920751E+01  2.8928066E+01
 1.3932251E+01  2.9109964E+01
 1.3943750E+01  2.9101870E+01
 1.3955251E+01  2.9173361E+01
 1.3966751E+01  2.8992887E+01
 1.3978251E+01  2.8843283E+01
 1.3989751E+01  2.8586819E+01
 1.4001250E+01  2.8313774E+01
 1.4012751E+01  2.8157856E+01
 1.4024251E+01  2.7895151E+01
 1.4035750E+01  2.7692581E+01
 1.4047251E+01  2.7545370E+01
 1.4058751E+01  2.7426868E+01
 1.4070251E+01  2.7422819E+01
 1.4081751E+01  2.7369690E+01
 1.4093250E+01  2.7346972E+01
 1.4104751E+01  2.7262333E+01
 1.4116251E+01  2.7243559E+01
 1.4127750E+01  2.7207277E+01
 1.4139251E+01  2.7158016E+01
 1.4150751E+01  2.7088043E+01
 1.4162251E+01  2.7037333E+01
 1.4173751E+01  2.6989546E+01
 1.4185250E+01  2.6948889E+01
 1.4196751E+01  2.6856876E+01
 1.4208251E+01  2.6781057E+01
 1.4219750E+01  2.6690825E+01
 1.4231251E+01  2.6674910E+01
 1.4242751E+01  2.6633265E+01
 1.4254251E+01  2.6604136E+01
 1.4265751E+01  2.6555601E+01
 1.4277250E+01  2.6438868E+01
 1.4288751E+01  2.6392212E+01
 1.4300251E+01  2.6322285E+01
 1.4311750E+01  2.6269453E+01
 1.4323251E+01  2.6148298E+01
 1.4334751E+01  2.6077904E+01
 1.4346251E+01  2.6036236E+01
 1.4357751E+01  2.6029713E+01
 1.4369250E+01  2.6014879E+01
 1.4380751E+01  2.6024166E+01
 1.4392251E+01  2.5984062E+01
 1.4403750E+01  2.5939400E+01
 1.4415251E+01  2.5876717E+01
 1.4426751E+01  2.5824780E+01
 1.4438251E+01  2.5820549E+01
 1.4449751E+01  2.5800205E+01
 1.4461250E+01  2.5768040E+01
 1.4472751E+01  2.5692871E+01
 1.4484251E+01  2.5634174E+01
 1.4495750E+01  2.5614153E+01
 1.4507251E+01  2.5570097E+01
 1.4518751E+01  2.5534027E+01
 1.4530251E+01  2.5485847E+01
 1.4541751E+01  2.5487188E+01
 1.4553250E+01  2.5481686E+01
 1.4564751E+01  2.5445042E+01
 1.4576251E+01  2.5421743E+01
 1.4587750E+01  2.5374434E+01
 1.4599251E+01  2.5373734E+01
 1.4610751E+01  2.5365429E+01
 1.4622251E+01  2.5450699E+01
 1.4633751E+01  2.5471365E+01
 1.4645250E+01  2.5454372E+01
 1.4656751E+01  2.5415373E+01
 1.4668251E+01  2.5388435E+01
 1.4679750E+01  2.5372952E+01
 1.4691251E+01  2.5348728E+01
 1.4702751E+01  2.5290241E+01
 1.4714251E+01  2.5270779E+01
 1.4725751E+01  2.5201187E+01
 1.4737250E+01  2.5161888E+01
 1.4748751E+01  2.5159977E+01
 1.4760251E+01  2.5156210E+01
 1.4771750E+01  2.5202482E+01
 1.4783251E+01  2.5158146E+01
 1.4794751E+01  2.5204136E+01
 1.4806251E+01  2.5159578E+01
 1.4817751E+01  2.5105831E+01
 1.4829250E+01  2.4952110E+01
 1.4840751E+01  2.4884233E+01
 1.4852251E+01  2.4873278E+01
 1.4863750E+01  2.4859539E+01
 1.4875251E+01  2.4839006E+01
 1.4886751E+01  2.4821810E+01
 1.4898251E+01  2.4868671E+01
 1.4909751E+01  2.4876925E+01
 1.4921250E+01  2.4821127E+01
 1.4932751E+01  2.4753927E+01
 1.4944251E+01  2.4714159E+01
 1.4955750E+01  2.4780146E+01
 1.4967251E+01  2.4790617E+01
 1.4978751E+01  2.4855860E+01
 1.4990251E+01  2.4873568E+01
 1.5001751E+01  2.4978127E+01
 1.5013250E+01  2.4995819E+01
 1.5024751E+01  2.5031132E+01
 1.5036251E+01  2.5001221E+01
 1.5047750E+01  2.4953865E+01
 1.5059251E+01  2.4935089E+01
 1.5070751E+01  2.4916315E+01
 1.5082251E+01  2.4916241E+01
 1.5093751E+01  2.4844889E+01
 1.5105250E+01  2.4866995E+01
 1.5116751E+01  2.4848118E+01
 1.5128251E+01  2.4856606E+01
 1.5139750E+01  2.4946896E+01
 1.5151251E+01  2.5077179E+01
 1.5162751E+01  2.5279287E+01
 1.5174251E+01  2.5470240E+01
 1.5185751E+01  2.5648806E+01
 1.5197250E+01  2.5692358E+01
 1.5208751E+01  2.5661016E+01
 1.5220251E+01  2.5534529E+01
 1.5231750E+01  2.5392971E+01
 1.5243251E+01  2.5191120E+01
 1.5254751E+01  2.5086817E+01
 1.5266251E+01  2.4937775E+01
 1.5277751E+01  2.4851490E+01
 1.5289250E+01  2.4779593E+01
 1.5300751E+01  2.4711794E+01
 1.5312251E+01  2.4688986E+01
 1.5323750E+01  2.4639542E+01
 1.5335251E+01  2.4621162E+01
 1.5346751E+01  2.4564459E+01
 1.5358251E+01  2.4624903E+01
 1.5369751E+01  2.4658993E+01
 1.5381250E+01  2.4685062E+01
 1.5392751E+01  2.4616053E+01
 1.5404251E+01  2.4595577E+01
 1.5415751E+01  2.4558554E+01
 1.5427251E+01  2.4535332E+01
 1.5438751E+01  2.4533819E+01
 1.5450251E+01  2.4478884E+01
 1.5461751E+01  2.4447300E+01
 1.5473250E+01  2.4387346E+01
 1.5484751E+01  2.4480831E+01
 1.5496251E+01  2.4484436E+01
 1.5507751E+01  2.4497168E+01
 1.5519251E+01  2.4468475E+01
 1.5530751E+01  2.4433361E+01
 1.5542251E+01  2.4418329E+01
 1.5553751E+01  2.4429598E+01
 1.5565250E+01  2.4499760E+01
 1.5576751E+01  2.4504208E+01
 1.5588251E+01  2.4518801E+01
 1.5599751E+01  2.4498123E+01
 1.5611251E+01  2.4447641E+01
 1.5622751E+01  2.4422527E+01
 1.5634251E+01  2.4428024E+01
 1.5645751E+01  2.4551115E+01
 1.5657250E+01  2.4621027E+01
 1.5668751E+01  2.4660654E+01
 1.5680251E+01  2.4615221E+01
 1.5691751E+01  2.4600285E+01
 1.5703251E+01  2.4633331E+01
 1.5714751E+01  2.4655703E+01
 1.5726251E+01  2.4688919E+01
 1.5737751E+01  2.4683342E+01
 1.5749250E+01  2.4690567E+01
 1.5760751E+01  2.4700253E+01
 1.5772251E+01  2.4763069E+01
 1.5783751E+01  2.4759506E+01
 1.5795251E+01  2.4768484E+01
 1.5806751E+01  2.4730438E+01
 1.5818251E+01  2.4697838E+01
 1.5829751E+01  2.4639618E+01
 1.5841250E+01  2.4602753E+01
 1.5852751E+01  2.4590424E+01
 1.5864251E+01  2.4551458E+01
 1.5875751E+01  2.4596518E+01
 1.5887251E+01  2.4666943E+01
 1.5898750E+01  2.4730247E+01
 1.5910251E+01  2.4740290E+01
 1.5921751E+01  2.4753099E+01
 1.5933250E+01  2.4725067E+01
 1.5944751E+01  2.4655851E+01
 1.5956251E+01  2.4602983E+01
 1.5967751E+01  2.4636923E+01
 1.5979251E+01  2.4726482E+01
 1.5990750E+01  2.4814905E+01
 1.6002251E+01  2.4809311E+01
 1.6013750E+01  2.4778683E+01
 1.6025251E+01  2.4782999E+01
 1.6036751E+01  2.4793217E+01
 1.6048250E+01  2.4779560E+01
 1.6059752E+01  2.4777098E+01
 1.6071251E+01  2.4722834E+01
 1.6082750E+01  2.4708654E+01
 1.6094252E+01  2.4650513E+01
 1.6105751E+01  2.4661749E+01
 1.6117250E+01  2.4646299E+01
 1.6128750E+01  2.4686264E+01
 1.6140251E+01  2.4772367E+01
 1.6151751E+01  2.4809864E+01
 1.6163250E+01  2.4840643E+01
 1.6174751E+01  2.4809795E+01
 1.6186251E+01  2.4864288E+01
 1.6197750E+01  2.4852491E+01
 1.6209251E+01  2.5010452E+01
 1.6220751E+01  2.5043760E+01
 1.6232250E+01  2.5115061E+01
 1.6243752E+01  2.5117689E+01
 1.6255251E+01  2.5173159E+01
 1.6266750E+01  2.5287447E+01
 1.6278252E+01  2.5204674E+01
 1.6289751E+01  2.5297579E+01
 1.6301250E+01  2.5054735E+01
 1.6312750E+01  2.5092607E+01
 1.6324251E+01  2.4824099E+01
 1.6335751E+01  2.4848505E+01
 1.6347250E+01  2.4708488E+01
 1.6358751E+01  2.4739799E+01
 1.6370251E+01  2.4683102E+01
 1.6381750E+01  2.4713875E+01
 1.6393251E+01  2.4727678E+01
 1.6404751E+01  2.4745157E+01
 1.6416250E+01  2.4769428E+01
 1.6427752E+01  2.4726767E+01
 1.6439251E+01  2.4789461E+01
 1.6450750E+01  2.4748285E+01
 1.6462252E+01  2.4760506E+01
 1.6473751E+01  2.4679211E+01
 1.6485250E+01  2.4690750E+01
 1.6496750E+01  2.4688126E+01
 1.6508251E+01  2.4709831E+01
 1.6519751E+01  2.4728823E+01
 1.6531250E+01  2.4736340E+01
 1.6542751E+01  2.4743231E+01
 1.6554251E+01  2.4739183E+01
 1.6565750E+01  2.4684998E+01
 1.6577251E+01  2.4605938E+01
 1.6588751E+01  2.4509783E+01
 1.6600250E+01  2.4496799E+01
 1.6611752E+01  2.4505354E+01
 1.6623251E+01  2.4435444E+01
 1.6634750E+01  2.4414574E+01
 1.6646252E+01  2.4392521E+01
 1.6657751E+01  2.4459270E+01
 1.6669250E+01  2.4475946E+01
 1.6680750E+01  2.4542244E+01
 1.6692251E+01  2.4542189E+01
 1.6703751E+01  2.4535845E+01
 1.6715250E+01  2.4526981E+01
 1.6726751E+01  2.4569614E+01
 1.6738251E+01  2.4634867E+01
 1.6749750E+01  2.4658361E+01
 1.6761251E+01  2.4835922E+01
 1.6772751E+01  2.5820366E+01
 1.6784250E+01  2.5951160E+01
 1.6795752E+01  2.5641577E+01
 1.6807251E+01  2.4759674E+01
 1.6818750E+01  2.4634830E+01
 1.6830252E+01  2.4540905E+01
 1.6841751E+01  2.4488527E+01
 1.6853251E+01  2.4491011E+01
 1.6864750E+01  2.4476229E+01
 1.6876251E+01  2.4428967E+01
 1.6887751E+01  2.4401777E+01
 1.6899250E+01  2.4387341E+01
 1.6910751E+01  2.4332304E+01
 1.6922251E+01  2.4330269E+01
 1.6933750E+01  2.4283613E+01
 1.6945251E+01  2.4287624E+01
 1.6956751E+01  2.4270121E+01
 1.6968250E+01  2.4275530E+01
 1.6979752E+01  2.4318077E+01
 1.6991251E+01  2.4333469E+01
 1.7002750E+01  2.4380077E+01
 1.7014252E+01  2.4383947E+01
 1.7025751E+01  2.4383047E+01
 1.7037251E+01  2.4331289E+01
 1.7048750E+01  2.4255104E+01
 1.7060251E+01  2.4238916E+01
 1.7071751E+01  2.4205015E+01
 1.7083250E+01  2.4245014E+01
 1.7094751E+01  2.4272068E+01
 1.7106251E+01  2.4338749E+01
 1.7117750E+01  2.4283854E+01
 1.7129251E+01  2.4247681E+01
 1.7140751E+01  2.4206608E+01
 1.7152250E+01  2.4153589E+01
 1.7163752E+01  2.4147543E+01
 1.7175251E+01  2.4184202E+01
 1.7186750E+01  2.4279057E+01
 1.7198252E+01  2.4315924E+01
 1.7209751E+01  2.4310125E+01
 1.7221251E+01  2.4251553E+01
 1.7232750E+01  2.4167648E+01
 1.7244251E+01  2.4135345E+01
 1.7255751E+01  2.4117580E+01
 1.7267250E+01  2.4141886E+01
 1.7278751E+01  2.4133846E+01
 1.7290251E+01  2.4128326E+01
 1.7301750E+01  2.4148489E+01
 1.7313251E+01  2.4162743E+01
 1.7324751E+01  2.4211973E+01
 1.7336250E+01  2.4182610E+01
 1.7347752E+01  2.4153473E+01
 1.7359251E+01  2.4067299E+01
 1.7370750E+01  2.4053926E+01
 1.7382252E+01  2.4036074E+01
 1.7393751E+01  2.4031113E+01
 1.7405251E+01  2.3994827E+01
 1.7416750E+01  2.3989819E+01
 1.7428251E+01  2.4016977E+01
 1.7439751E+01  2.4008564E+01
 1.7451250E+01  2.3949503E+01
 1.7462751E+01  2.3923578E+01
 1.7474251E+01  2.3891836E+01
 1.7485750E+01  2.3906347E+01
 1.7497252E+01  2.3888983E+01
 1.7508751E+01  2.3892298E+01
 1.7520250E+01  2.3904615E+01
 1.7531752E+01  2.3896935E+01
 1.7543251E+01  2.3927038E+01
 1.7554750E+01  2.3884113E+01
 1.7566252E+01  2.3869469E+01
 1.7577751E+01  2.3809277E+01
 1.7589251E+01  2.3812565E+01
 1.7600750E+01  2.3812489E+01
 1.7612251E+01  2.3863478E+01
 1.7623751E+01  2.3906221E+01
 1.7635250E+01  2.3887318E+01
 1.7646751E+01  2.3855749E+01
 1.7658251E+01  2.3812679E+01
 1.7669750E+01  2.3811245E+01
 1.7681252E+01  2.3762806E+01
 1.7692751E+01  2.3771719E+01
 1.7704250E+01  2.3763676E+01
 1.7715752E+01  2.3733934E+01
 1.7727251E+01  2.3640930E+01
 1.7738750E+01  2.3586260E+01
 1.7750252E+01  2.3610165E+01
 1.7761751E+01  2.3685232E+01
 1.7773251E+01  2.3767393E+01
 1.7784750E+01  2.3871706E+01
 1.7796251E+01  2.3891703E+01
 1.7807751E+01  2.3847904E+01
 1.7819250E+01  2.3796799E+01
 1.7830751E+01  2.3802919E+01
 1.7842251E+01  2.3800205E+01
 1.7853750E+01  2.3752056E+01
 1.7865252E+01  2.3739727E+01
 1.7876751E+01  2.3735525E+01
 1.7888250E+01  2.3746805E+01
 1.7899752E+01  2.3719776E+01
 1.7911251E+01  2.3718634E+01
 1.7922750E+01  2.3729525E+01
 1.7934252E+01  2.3783794E+01
 1.7945751E+01  2.3814739E+01
 1.7957251E+01  2.3827623E+01
 1.7968750E+01  2.3812296E+01
 1.7980251E+01  2.3903275E+01
 1.7991751E+01  2.3994192E+01
 1.8003250E+01  2.4128113E+01
 1.8014751E+01  2.4277857E+01
 1.8026251E+01  2.4398132E+01
 1.8037750E+01  2.4606960E+01
 1.8049252E+01  2.4789310E+01
 1.8060751E+01  2.4898317E+01
 1.8072250E+01  2.4855021E+01
 1.8083752E+01  2.4853914E+01
 1.8095251E+01  2.4808710E+01
 1.8106750E+01  2.4792061E+01
 1.8118252E+01  2.4640793E+01
 1.8129751E+01  2.4462814E+01
 1.8141251E+01  2.4239065E+01
 1.8152750E+01  2.4077448E+01
 1.8164251E+01  2.3884787E+01
 1.8175751E+01  2.3780449E+01
 1.8187250E+01  2.3695513E+01
 1.8198751E+01  2.3668324E+01
 1.8210251E+01  2.3628248E+01
 1.8221750E+01  2.3612194E+01
 1.8233252E+01  2.3629700E+01
 1.8244751E+01  2.3628500E+01
 1.8256250E+01  2.3640354E+01
 1.8267752E+01  2.3587282E+01
 1.8279251E+01  2.3581699E+01
 1.8290751E+01  2.3597881E+01
 1.8302252E+01  2.3653816E+01
 1.8313751E+01  2.3650524E+01
 1.8325251E+01  2.3649937E+01
 1.8336750E+01  2.3604872E+01
 1.8348251E+01  2.3604963E+01
 1.8359751E+01  2.3599804E+01
 1.8371250E+01  2.3575418E+01
 1.8382751E+01  2.3537991E+01
 1.8394251E+01  2.3530415E+01
 1.8405750E+01  2.3557764E+01
 1.8417252E+01  2.3567251E+01
 1.8428751E+01  2.3578573E+01
 1.8440250E+01  2.3598429E+01
 1.8451752E+01  2.3622164E+01
 1.8463251E+01  2.3609341E+01
 1.8474751E+01  2.3638336E+01
 1.8486252E+01  2.3644922E+01
 1.8497751E+01  2.3701927E+01
 1.8509251E+01  2.3664467E+01
 1.8520750E+01  2.3590763E+01
 1.8532251E+01  2.3523973E+01
 1.8543751E+01  2.3528946E+01
 1.8555250E+01  2.3579433E+01
 1.8566751E+01  2.3590418E+01
 1.8578251E+01  2.3637098E+01
 1.8589750E+01  2.3641779E+01
 1.8601252E+01  2.3650681E+01
 1.8612751E+01  2.3654608E+01
 1.8624250E+01  2.3639479E+01
 1.8635752E+01  2.3652632E+01
 1.8647251E+01  2.3593386E+01
 1.8658751E+01  2.3595030E+01
 1.8670252E+01  2.3609674E+01
 1.8681751E+01  2.3632469E+01
 1.8693251E+01  2.3621668E+01
 1.8704750E+01  2.3602251E+01
 1.8716251E+01  2.3575691E+01
 1.8727751E+01  2.3545731E+01
 1.8739250E+01  2.3498163E+01
 1.8750751E+01  2.3501551E+01
 1.8762251E+01  2.3494432E+01
 1.8773750E+01  2.3478062E+01
 1.8785252E+01  2.3465471E+01
 1.8796751E+01  2.3468550E+01
 1.8808250E+01  2.3461248E+01
 1.8819752E+01  2.3463768E+01
 1.8831251E+01  2.3433172E+01
 1.8842751E+01  2.3448305E+01
 1.8854252E+01  2.3398224E+01
 1.8865751E+01  2.3379616E+01
 1.8877251E+01  2.3350002E+01
 1.8888750E+01  2.3358131E+01
 1.8900251E+01  2.3384691E+01
 1.8911751E+01  2.3406639E+01
 1.8923250E+01  2.3499483E+01
 1.8934752E+01  2.3581327E+01
 1.8946251E+01  2.3678148E+01
 1.8957750E+01  2.3654671E+01
 1.8969252E+01  2.3601856E+01
 1.8980751E+01  2.3537966E+01
 1.8992250E+01  2.3471498E+01
 1.9003752E+01  2.3443085E+01
 1.9015251E+01  2.3435390E+01
 1.9026751E+01  2.3444721E+01
 1.9038252E+01  2.3458088E+01
 1.9049751E+01  2.3452484E+01
 1.9061251E+01  2.3516207E+01
 1.9072750E+01  2.3530836E+01
 1.9084251E+01  2.3516827E+01
 1.9095751E+01  2.3447586E+01
 1.9107250E+01  2.3424646E+01
 1.9118752E+01  2.3438961E+01
 1.9130251E+01  2.3525568E+01
 1.9141750E+01  2.3560936E+01
 1.9153252E+01  2.3590666E+01
 1.9164751E+01  2.3590454E+01
 1.9176250E+01  2.3597176E+01
 1.9187752E+01  2.3576021E+01
 1.9199251E+01  2.3519175E+01
 1.9210751E+01  2.3497549E+01
 1.9222252E+01  2.3478222E+01
 1.9233751E+01  2.3465967E+01
 1.9245251E+01  2.3470163E+01
 1.9256750E+01  2.3524508E+01
 1.9268251E+01  2.3522333E+01
 1.9279751E+01  2.3550270E+01
 1.9291250E+01  2.3537636E+01
 1.9302752E+01  2.3590408E+01
 1.9314251E+01  2.3608765E+01
 1.9325750E+01  2.3586260E+01
 1.9337252E+01  2.3548651E+01
 1.9348751E+01  2.3528471E+01
 1.9360250E+01  2.3516918E+01
 1.9371752E+01  2.3545954E+01
 1.9383251E+01  2.3598427E+01
 1.9394751E+01  2.3683804E+01
 1.9406250E+01  2.3688650E+01
 1.9417751E+01  2.3695204E+01
 1.9429251E+01  2.3679066E+01
 1.9440750E+01  2.3676947E+01
 1.9452251E+01  2.3655388E+01
 1.9463751E+01  2.3607845E+01
 1.9475250E+01  2.3569216E+01
 1.9486752E+01  2.3553694E+01
 1.9498251E+01  2.3539450E+01
 1.9509750E+01  2.3517706E+01
 1.9521252E+01  2.3570040E+01
 1.9532751E+01  2.3604227E+01
 1.9544250E+01  2.3650219E+01
 1.9555752E+01  2.3617514E+01
 1.9567251E+01  2.3609636E+01
 1.9578751E+01  2.3603983E+01
 1.9590250E+01  2.3597593E+01
 1.9601751E+01  2.3666315E+01
 1.9613251E+01  2.3704029E+01
 1.9624750E+01  2.3720074E+01
 1.9636251E+01  2.3710627E+01
 1.9647751E+01  2.3673615E+01
 1.9659250E+01  2.3853268E+01
 1.9670752E+01  2.3948729E+01
 1.9682251E+01  2.4176361E+01
 1.9693750E+01  2.4468420E+01
 1.9705252E+01  2.4526197E+01
 1.9716751E+01  2.4718103E+01
 1.9728251E+01  2.4592440E+01
 1.9739752E+01  2.4670231E+01
 1.9751251E+01  2.4363516E+01
 1.9762751E+01  2.4282814E+01
 1.9774250E+01  2.4105881E+01
 1.9785751E+01  2.3955044E+01
 1.9797251E+01  2.3943602E+01
 1.9808750E+01  2.3947321E+01
 1.9820251E+01  2.4000246E+01
 1.9831751E+01  2.4170837E+01
 1.9843250E+01  2.4186331E+01
 1.9854752E+01  2.4281208E+01
 1.9866251E+01  2.4224730E+01
 1.9877750E+01  2.4186289E+01
 1.9889252E+01  2.4048811E+01
 1.9900751E+01  2.3984316E+01
 1.9912251E+01  2.3936872E+01
 1.9923752E+01  2.3840302E+01
 1.9935251E+01  2.3779707E+01
 1.9946751E+01  2.3725307E+01
 1.9958250E+01  2.3707739E+01
 1.9969751E+01  2.3681749E+01
 1.9981251E+01  2.3649967E+01
 1.9992750E+01  2.3634123E+01
 2.0004251E+01  2.3653536E+01
 2.0015751E+01  2.3682961E+01
 2.0027250E+01  2.3686752E+01
 2.0038752E+01  2.3676151E+01
 2.0050251E+01  2.3690014E+01
 2.0061750E+01  2.3644356E+01
 2.0073252E+01  2.3638742E+01
 2.0084751E+01  2.3634325E+01
 2.0096251E+01  2.3684980E+01
 2.0107752E+01  2.3680016E+01
 2.0119251E+01  2.3730143E+01
 2.0130751E+01  2.3736717E+01
 2.0142250E+01  2.3706944E+01
 2.0153751E+01  2.3640848E+01
 2.0165251E+01  2.3593679E+01
 2.0176750E+01  2.3595442E+01
 2.0188251E+01  2.3543459E+01
 2.0199751E+01  2.3538996E+01
 2.0211250E+01  2.3539589E+01
 2.0222752E+01  2.3640877E+01
 2.0234251E+01  2.3656397E+01
 2.0245750E+01  2.3658911E+01
 2.0257252E+01  2.3604382E+01
 2.0268751E+01  2.3599024E+01
 2.0280251E+01  2.3644594E+01
 2.0291752E+01  2.3688990E+01
 2.0303251E+01  2.3712858E+01
 2.0314751E+01  2.3667191E+01
 2.0326250E+01  2.3630005E+01
 2.0337751E+01  2.3597805E+01
 2.0349251E+01  2.3621317E+01
 2.0360750E+01  2.3646957E+01
 2.0372252E+01  2.3645029E+01
 2.0383751E+01  2.3587084E+01
 2.0395250E+01  2.3594170E+01
 2.0406752E+01  2.3650888E+01
 2.0418251E+01  2.3701269E+01
 2.0429750E+01  2.3709124E+01
 2.0441252E+01  2.3682341E+01
 2.0452751E+01  2.3685802E+01
 2.0464251E+01  2.3643343E+01
 2.0475752E+01  2.3633614E+01
 2.0487251E+01  2.3642590E+01
 2.0498751E+01  2.3683418E+01
 2.0510250E+01  2.3653973E+01
 2.0521751E+01  2.3651831E+01
 2.0533251E+01  2.3620403E+01
 2.0544750E+01  2.3602823E+01
 2.0556252E+01  2.3619097E+01
 2.0567751E+01  2.3645548E+01
 2.0579250E+01  2.3670378E+01
 2.0590752E+01  2.3726816E+01
 2.0602251E+01  2.3805597E+01
 2.0613750E+01  2.3861292E+01
 2.0625252E+01  2.3870367E+01
 2.0636751E+01  2.3854624E+01
 2.0648251E+01  2.3791355E+01
 2.0659752E+01  2.3748566E+01
 2.0671251E+01  2.3796213E+01
 2.0682751E+01  2.3872511E+01
 2.0694250E+01  2.3904652E+01
 2.0705751E+01  2.3892481E+01
 2.0717251E+01  2.3895292E+01
 2.0728750E+01  2.3926830E+01
 2.0740252E+01  2.3960413E+01
 2.0751751E+01  2.4025164E+01
 2.0763250E+01  2.4093477E+01
 2.0774752E+01  2.4116714E+01
 2.0786251E+01  2.4103092E+01
 2.0797750E+01  2.4078592E+01
 2.0809252E+01  2.3967251E+01
 2.0820751E+01  2.3844568E+01
 2.0832251E+01  2.3804117E+01
 2.0843752E+01  2.3762644E+01
 2.0855251E+01  2.3759134E+01
 2.0866751E+01  2.3770166E+01
 2.0878250E+01  2.3760010E+01
 2.0889751E+01  2.3793636E+01
 2.0901251E+01  2.3839333E+01
 2.0912750E+01  2.3870605E+01
 2.0924252E+01  2.3866213E+01
 2.0935751E+01  2.3897371E+01
 2.0947250E+01  2.3971685E+01
 2.0958752E+01  2.3917925E+01
 2.0970251E+01  2.3871658E+01
 2.0981750E+01  2.3821190E+01
 2.0993252E+01  2.3817078E+01
 2.1004751E+01  2.3756073E+01
 2.1016251E+01  2.3688404E+01
 2.1027752E+01  2.3706669E+01
 2.1039251E+01  2.3768715E+01
 2.1050751E+01  2.3810856E+01
 2.1062250E+01  2.3827326E+01
 2.1073751E+01  2.3849253E+01
 2.1085251E+01  2.3862448E+01
 2.1096750E+01  2.3809898E+01
 2.1108252E+01  2.3817533E+01
 2.1119751E+01  2.3795128E+01
 2.1131250E+01  2.3758272E+01
 2.1142752E+01  2.3655382E+01
 2.1154251E+01  2.3611614E+01
 2.1165751E+01  2.3674679E+01
 2.1177252E+01  2.3717831E+01
 2.1188751E+01  2.3781027E+01
 2.1200251E+01  2.3808384E+01
 2.1211752E+01  2.3830544E+01
 2.1223251E+01  2.3773359E+01
 2.1234751E+01  2.3773083E+01
 2.1246250E+01  2.3851625E+01
 2.1257751E+01  2.3903055E+01
 2.1269251E+01  2.3918379E+01
 2.1280750E+01  2.3932484E+01
 2.1292252E+01  2.3946194E+01
 2.1303751E+01  2.3923973E+01
 2.1315250E+01  2.3849710E+01
 2.1326752E+01  2.3840553E+01
 2.1338251E+01  2.3787352E+01
 2.1349751E+01  2.3815634E+01
 2.1361252E+01  2.3849491E+01
 2.1372751E+01  2.3937960E+01
 2.1384251E+01  2.3907661E+01
 2.1395752E+01  2.3898409E+01
 2.1407251E+01  2.3836369E+01
 2.1418751E+01  2.3823849E+01
 2.1430250E+01  2.3817837E+01
 2.1441751E+01  2.3800554E+01
 2.1453251E+01  2.3819727E+01
 2.1464750E+01  2.3855967E+01
 2.1476252E+01  2.3890316E+01
 2.1487751E+01  2.3934591E+01
 2.1499250E+01  2.3958548E+01
 2.1510752E+01  2.3966949E+01
 2.1522251E+01  2.3976088E+01
 2.1533751E+01  2.3971912E+01
 2.1545252E+01  2.3959927E+01
 2.1556751E+01  2.3922766E+01
 2.1568251E+01  2.3873737E+01
 2.1579752E+01  2.3829723E+01
 2.1591251E+01  2.3825758E+01
 2.1602751E+01  2.3895502E+01
 2.1614250E+01  2.3948990E+01
 2.1625751E+01  2.3997688E+01
 2.1637251E+01  2.3974577E+01
 2.1648750E+01  2.3960758E+01
 2.1660252E+01  2.3979349E+01
 2.1671751E+01  2.4025585E+01
 2.1683250E+01  2.4011667E+01
 2.1694752E+01  2.4019421E+01
 2.1706251E+01  2.4028259E+01
 2.1717751E+01  2.4067259E+01
 2.1729252E+01  2.4109596E+01
 2.1740751E+01  2.4188604E+01
 2.1752251E+01  2.4157122E+01
 2.1763752E+01  2.4131287E+01
 2.1775251E+01  2.4144585E+01
 2.1786751E+01  2.4176435E+01
 2.1798250E+01  2.4155487E+01
 2.1809752E+01  2.4168301E+01
 2.1821251E+01  2.4188442E+01
 2.1832750E+01  2.4155937E+01
 2.1844252E+01  2.4129177E+01
 2.1855751E+01  2.4168427E+01
 2.1867250E+01  2.4196514E+01
 2.1878752E+01  2.4216070E+01
 2.1890251E+01  2.4112085E+01
 2.1901751E+01  2.4082937E+01
 2.1913252E+01  2.4044968E+01
 2.1924751E+01  2.4059042E+01
 2.1936251E+01  2.4040695E+01
 2.1947752E+01  2.4081461E+01
 2.1959251E+01  2.4094088E+01
 2.1970751E+01  2.4083775E+01
 2.1982250E+01  2.4058044E+01
 2.1993752E+01  2.4045771E+01
 2.2005251E+01  2.4085403E+01
 2.2016750E+01  2.4115658E+01
 2.2028252E+01  2.4154354E+01
 2.2039751E+01  2.4153034E+01
 2.2051250E+01  2.4186457E+01
 2.2062752E+01  2.4157337E+01
 2.2074251E+01  2.4212568E+01
 2.2085751E+01  2.4236544E+01
 2.2097252E+01  2.4259623E+01
 2.2108751E+01  2.4269442E+01
 2.2120251E+01  2.4301390E+01
 2.2131752E+01  2.4313007E+01
 2.2143251E+01  2.4303497E+01
 2.2154751E+01  2.4282114E+01
 2.2166250E+01  2.4288313E+01
 2.2177752E+01  2.4255976E+01
 2.2189251E+01  2.4246569E+01
 2.2200750E+01  2.4264040E+01
 2.2212252E+01  2.4291306E+01
 2.2223751E+01  2.4326757E+01
 2.2235250E+01  2.4369179E+01
 2.2246752E+01  2.4396364E+01
 2.2258251E+01  2.4390863E+01
 2.2269751E+01  2.4402052E+01
 2.2281252E+01  2.4411430E+01
 2.2292751E+01  2.4436872E+01
 2.2304251E+01  2.4504848E+01
 2.2315752E+01  2.4553892E+01
 2.2327251E+01  2.4569405E+01
 2.2338751E+01  2.4555330E+01
 2.2350250E+01  2.4546207E+01
 2.2361752E+01  2.4506500E+01
 2.2373251E+01  2.4486391E+01
 2.2384750E+01  2.4539463E+01
 2.2396252E+01  2.4594906E+01
 2.2407751E+01  2.4634064E+01
 2.2419250E+01  2.4646885E+01
 2.2430752E+01  2.4667812E+01
 2.2442251E+01  2.4623348E+01
 2.2453751E+01  2.4636955E+01
 2.2465252E+01  2.4602968E+01
 2.2476751E+01  2.4549749E+01
 2.2488251E+01  2.4464804E+01
 2.2499752E+01  2.4439207E+01
 2.2511251E+01  2.4501404E+01
 2.2522751E+01  2.4577980E+01
 2.2534250E+01  2.4611366E+01
 2.2545752E+01  2.4608082E+01
 2.2557251E+01  2.4626032E+01
 2.2568750E+01  2.4667685E+01
 2.2580252E+01  2.4725847E+01
 2.2591751E+01  2.4756140E+01
 2.2603251E+01  2.4821823E+01
 2.2614752E+01  2.4892128E+01
 2.2626251E+01  2.4933195E+01
 2.2637751E+01  2.4918737E+01
 2.2649252E+01  2.4918270E+01
 2.2660751E+01  2.4941004E+01
 2.2672251E+01  2.4947575E+01
 2.2683752E+01  2.4999657E+01
 2.2695251E+01  2.5054535E+01
 2.2706751E+01  2.5099859E+01
 2.2718250E+01  2.5082418E+01
 2.2729752E+01  2.5055904E+01
 2.2741251E+01  2.5043474E+01
 2.2752750E+01  2.5118965E+01
 2.2764252E+01  2.5177851E+01
 2.2775751E+01  2.5239599E+01
 2.2787251E+01  2.5249485E+01
 2.2798752E+01  2.5288641E+01
 2.2810251E+01  2.5347727E+01
 2.2821751E+01  2.5413914E+01
 2.2833252E+01  2.5441486E+01
 2.2844751E+01  2.5428759E+01
 2.2856251E+01  2.5497089E+01
 2.2867750E+01  2.5545256E+01
 2.2879251E+01  2.5649624E+01
 2.2890751E+01  2.5634432E+01
 2.2902250E+01  2.5680794E+01
 2.2913752E+01  2.5763680E+01
 2.2925251E+01  2.5874971E+01
 2.2936750E+01  2.5912022E+01
 2.2948252E+01  2.5871325E+01
 2.2959751E+01  2.5882648E+01
 2.2971251E+01  2.6017101E+01
 2.2982752E+01  2.6100538E+01
 2.2994251E+01  2.6140018E+01
