F:\20151113_APS_34IDE\\Brian\Particle1\OCV\Data_0046.tif
2-Theta Angle (Degrees)
Intensity
       2000
 5.7500005E-03  0.0000000E+00
 1.7250001E-02  0.0000000E+00
 2.8750001E-02  0.0000000E+00
 4.0250003E-02  0.0000000E+00
 5.1750004E-02  0.0000000E+00
 6.3250005E-02  0.0000000E+00
 7.4750006E-02  0.0000000E+00
 8.6250007E-02  0.0000000E+00
 9.7750008E-02  0.0000000E+00
 1.0925001E-01  0.0000000E+00
 1.2075000E-01  0.0000000E+00
 1.3225001E-01  0.0000000E+00
 1.4375001E-01  0.0000000E+00
 1.5525001E-01  0.0000000E+00
 1.6675001E-01  0.0000000E+00
 1.7825001E-01  0.0000000E+00
 1.8975002E-01  0.0000000E+00
 2.0125002E-01  0.0000000E+00
 2.1275002E-01  0.0000000E+00
 2.2425000E-01  0.0000000E+00
 2.3575000E-01  0.0000000E+00
 2.4725001E-01  0.0000000E+00
 2.5875002E-01  0.0000000E+00
 2.7025002E-01  0.0000000E+00
 2.8175002E-01  0.0000000E+00
 2.9325002E-01  0.0000000E+00
 3.0475003E-01  0.0000000E+00
 3.1625003E-01  0.0000000E+00
 3.2775003E-01  0.0000000E+00
 3.3925003E-01  0.0000000E+00
 3.5075003E-01  0.0000000E+00
 3.6225003E-01  0.0000000E+00
 3.7375003E-01  0.0000000E+00
 3.8525003E-01  0.0000000E+00
 3.9675003E-01  0.0000000E+00
 4.0825003E-01  0.0000000E+00
 4.1975003E-01  0.0000000E+00
 4.3125004E-01  0.0000000E+00
 4.4275001E-01  0.0000000E+00
 4.5425001E-01  0.0000000E+00
 4.6575001E-01  0.0000000E+00
 4.7725001E-01  0.0000000E+00
 4.8875001E-01  0.0000000E+00
 5.0025004E-01  0.0000000E+00
 5.1175004E-01  0.0000000E+00
 5.2325004E-01  0.0000000E+00
 5.3475004E-01  0.0000000E+00
 5.4625005E-01  0.0000000E+00
 5.5775005E-01  0.0000000E+00
 5.6925005E-01  0.0000000E+00
 5.8075005E-01  0.0000000E+00
 5.9225005E-01  0.0000000E+00
 6.0375005E-01  0.0000000E+00
 6.1525005E-01  0.0000000E+00
 6.2675005E-01  0.0000000E+00
 6.3825005E-01  0.0000000E+00
 6.4975005E-01  0.0000000E+00
 6.6125005E-01  0.0000000E+00
 6.7275006E-01  0.0000000E+00
 6.8425006E-01  0.0000000E+00
 6.9575006E-01  0.0000000E+00
 7.0725006E-01  0.0000000E+00
 7.1875006E-01  0.0000000E+00
 7.3025006E-01  0.0000000E+00
 7.4175006E-01  0.0000000E+00
 7.5325006E-01  0.0000000E+00
 7.6475006E-01  0.0000000E+00
 7.7625006E-01  0.0000000E+00
 7.8775007E-01  0.0000000E+00
 7.9925007E-01  0.0000000E+00
 8.1075007E-01  0.0000000E+00
 8.2225007E-01  0.0000000E+00
 8.3375007E-01  0.0000000E+00
 8.4525007E-01  0.0000000E+00
 8.5675007E-01  0.0000000E+00
 8.6825007E-01  0.0000000E+00
 8.7975001E-01  0.0000000E+00
 8.9125001E-01  0.0000000E+00
 9.0275002E-01  0.0000000E+00
 9.1425002E-01  0.0000000E+00
 9.2575002E-01  0.0000000E+00
 9.3725002E-01  0.0000000E+00
 9.4875002E-01  0.0000000E+00
 9.6025002E-01  0.0000000E+00
 9.7175002E-01  0.0000000E+00
 9.8325002E-01  0.0000000E+00
 9.9475002E-01  0.0000000E+00
 1.0062500E+00  0.0000000E+00
 1.0177500E+00  0.0000000E+00
 1.0292500E+00  0.0000000E+00
 1.0407500E+00  0.0000000E+00
 1.0522500E+00  0.0000000E+00
 1.0637500E+00  0.0000000E+00
 1.0752500E+00  0.0000000E+00
 1.0867500E+00  0.0000000E+00
 1.0982500E+00  0.0000000E+00
 1.1097500E+00  0.0000000E+00
 1.1212500E+00  0.0000000E+00
 1.1327500E+00  0.0000000E+00
 1.1442500E+00  0.0000000E+00
 1.1557500E+00  0.0000000E+00
 1.1672500E+00  0.0000000E+00
 1.1787500E+00  0.0000000E+00
 1.1902500E+00  0.0000000E+00
 1.2017500E+00  0.0000000E+00
 1.2132500E+00  0.0000000E+00
 1.2247500E+00  0.0000000E+00
 1.2362500E+00  0.0000000E+00
 1.2477500E+00  0.0000000E+00
 1.2592500E+00  0.0000000E+00
 1.2707500E+00  0.0000000E+00
 1.2822500E+00  0.0000000E+00
 1.2937500E+00  0.0000000E+00
 1.3052500E+00  0.0000000E+00
 1.3167500E+00  0.0000000E+00
 1.3282501E+00  0.0000000E+00
 1.3397501E+00  0.0000000E+00
 1.3512501E+00  0.0000000E+00
 1.3627501E+00  0.0000000E+00
 1.3742501E+00  0.0000000E+00
 1.3857501E+00  0.0000000E+00
 1.3972501E+00  0.0000000E+00
 1.4087501E+00  0.0000000E+00
 1.4202501E+00  0.0000000E+00
 1.4317501E+00  0.0000000E+00
 1.4432501E+00  0.0000000E+00
 1.4547501E+00  0.0000000E+00
 1.4662501E+00  0.0000000E+00
 1.4777501E+00  0.0000000E+00
 1.4892501E+00  0.0000000E+00
 1.5007501E+00  0.0000000E+00
 1.5122501E+00  0.0000000E+00
 1.5237501E+00  0.0000000E+00
 1.5352501E+00  0.0000000E+00
 1.5467501E+00  0.0000000E+00
 1.5582501E+00  0.0000000E+00
 1.5697501E+00  0.0000000E+00
 1.5812501E+00  0.0000000E+00
 1.5927501E+00  0.0000000E+00
 1.6042501E+00  0.0000000E+00
 1.6157501E+00  0.0000000E+00
 1.6272501E+00  0.0000000E+00
 1.6387501E+00  0.0000000E+00
 1.6502501E+00  0.0000000E+00
 1.6617501E+00  0.0000000E+00
 1.6732501E+00  0.0000000E+00
 1.6847501E+00  0.0000000E+00
 1.6962501E+00  0.0000000E+00
 1.7077501E+00  0.0000000E+00
 1.7192501E+00  0.0000000E+00
 1.7307501E+00  0.0000000E+00
 1.7422501E+00  0.0000000E+00
 1.7537501E+00  0.0000000E+00
 1.7652501E+00  0.0000000E+00
 1.7767501E+00  0.0000000E+00
 1.7882501E+00  0.0000000E+00
 1.7997501E+00  0.0000000E+00
 1.8112501E+00  0.0000000E+00
 1.8227501E+00  0.0000000E+00
 1.8342501E+00  0.0000000E+00
 1.8457501E+00  0.0000000E+00
 1.8572501E+00  0.0000000E+00
 1.8687501E+00  0.0000000E+00
 1.8802501E+00  0.0000000E+00
 1.8917501E+00  0.0000000E+00
 1.9032501E+00  0.0000000E+00
 1.9147501E+00  0.0000000E+00
 1.9262501E+00  0.0000000E+00
 1.9377501E+00  0.0000000E+00
 1.9492501E+00  0.0000000E+00
 1.9607501E+00  0.0000000E+00
 1.9722501E+00  0.0000000E+00
 1.9837501E+00  0.0000000E+00
 1.9952501E+00  0.0000000E+00
 2.0067501E+00  0.0000000E+00
 2.0182500E+00  0.0000000E+00
 2.0297501E+00  0.0000000E+00
 2.0412500E+00  0.0000000E+00
 2.0527501E+00  0.0000000E+00
 2.0642500E+00  0.0000000E+00
 2.0757501E+00  0.0000000E+00
 2.0872500E+00  0.0000000E+00
 2.0987501E+00  0.0000000E+00
 2.1102500E+00  0.0000000E+00
 2.1217501E+00  0.0000000E+00
 2.1332500E+00  0.0000000E+00
 2.1447501E+00  0.0000000E+00
 2.1562500E+00  0.0000000E+00
 2.1677501E+00  0.0000000E+00
 2.1792500E+00  0.0000000E+00
 2.1907501E+00  0.0000000E+00
 2.2022500E+00  0.0000000E+00
 2.2137501E+00  0.0000000E+00
 2.2252500E+00  0.0000000E+00
 2.2367501E+00  0.0000000E+00
 2.2482500E+00  0.0000000E+00
 2.2597501E+00  0.0000000E+00
 2.2712500E+00  0.0000000E+00
 2.2827501E+00  0.0000000E+00
 2.2942500E+00  0.0000000E+00
 2.3057501E+00  0.0000000E+00
 2.3172500E+00  0.0000000E+00
 2.3287501E+00  0.0000000E+00
 2.3402500E+00  0.0000000E+00
 2.3517501E+00  0.0000000E+00
 2.3632500E+00  0.0000000E+00
 2.3747501E+00  0.0000000E+00
 2.3862500E+00  0.0000000E+00
 2.3977501E+00  0.0000000E+00
 2.4092500E+00  0.0000000E+00
 2.4207501E+00  0.0000000E+00
 2.4322500E+00  0.0000000E+00
 2.4437501E+00  0.0000000E+00
 2.4552500E+00  0.0000000E+00
 2.4667501E+00  0.0000000E+00
 2.4782500E+00  0.0000000E+00
 2.4897501E+00  0.0000000E+00
 2.5012500E+00  0.0000000E+00
 2.5127501E+00  0.0000000E+00
 2.5242500E+00  0.0000000E+00
 2.5357502E+00  0.0000000E+00
 2.5472500E+00  0.0000000E+00
 2.5587502E+00  0.0000000E+00
 2.5702500E+00  0.0000000E+00
 2.5817502E+00  0.0000000E+00
 2.5932500E+00  0.0000000E+00
 2.6047502E+00  0.0000000E+00
 2.6162500E+00  0.0000000E+00
 2.6277502E+00  0.0000000E+00
 2.6392500E+00  0.0000000E+00
 2.6507502E+00  0.0000000E+00
 2.6622500E+00  0.0000000E+00
 2.6737502E+00  0.0000000E+00
 2.6852500E+00  0.0000000E+00
 2.6967502E+00  0.0000000E+00
 2.7082500E+00  0.0000000E+00
 2.7197502E+00  0.0000000E+00
 2.7312500E+00  0.0000000E+00
 2.7427502E+00  0.0000000E+00
 2.7542500E+00  0.0000000E+00
 2.7657502E+00  0.0000000E+00
 2.7772501E+00  0.0000000E+00
 2.7887502E+00  0.0000000E+00
 2.8002501E+00  0.0000000E+00
 2.8117502E+00  0.0000000E+00
 2.8232501E+00  3.4910843E+01
 2.8347502E+00  3.5199154E+01
 2.8462501E+00  3.5123390E+01
 2.8577502E+00  3.5278862E+01
 2.8692501E+00  3.5185223E+01
 2.8807502E+00  3.5220692E+01
 2.8922501E+00  3.5466560E+01
 2.9037502E+00  3.5934246E+01
 2.9152501E+00  3.6743713E+01
 2.9267502E+00  3.6835236E+01
 2.9382501E+00  3.6470928E+01
 2.9497502E+00  3.5737991E+01
 2.9612501E+00  3.5081257E+01
 2.9727502E+00  3.4628586E+01
 2.9842501E+00  3.4355835E+01
 2.9957502E+00  3.4417881E+01
 3.0072501E+00  3.4442566E+01
 3.0187502E+00  3.4535454E+01
 3.0302501E+00  3.4540009E+01
 3.0417502E+00  3.5029793E+01
 3.0532501E+00  3.5136101E+01
 3.0647502E+00  3.5059029E+01
 3.0762501E+00  3.4826992E+01
 3.0877502E+00  3.4736759E+01
 3.0992501E+00  3.4858139E+01
 3.1107502E+00  3.4945606E+01
 3.1222501E+00  3.5157471E+01
 3.1337502E+00  3.5429531E+01
 3.1452501E+00  3.5618320E+01
 3.1567502E+00  3.5860939E+01
 3.1682501E+00  3.5941303E+01
 3.1797502E+00  3.6061291E+01
 3.1912501E+00  3.5965164E+01
 3.2027502E+00  3.5760323E+01
 3.2142501E+00  3.5532787E+01
 3.2257502E+00  3.5267536E+01
 3.2372501E+00  3.4697495E+01
 3.2487502E+00  3.4279633E+01
 3.2602501E+00  3.4250912E+01
 3.2717502E+00  3.4245300E+01
 3.2832501E+00  3.4097721E+01
 3.2947502E+00  3.3963535E+01
 3.3062501E+00  3.3821239E+01
 3.3177502E+00  3.4067184E+01
 3.3292501E+00  3.3894176E+01
 3.3407502E+00  3.4157780E+01
 3.3522501E+00  3.4192337E+01
 3.3637502E+00  3.4249352E+01
 3.3752501E+00  3.4372463E+01
 3.3867502E+00  3.4476734E+01
 3.3982501E+00  3.4241550E+01
 3.4097502E+00  3.4106689E+01
 3.4212501E+00  3.4098412E+01
 3.4327502E+00  3.4472855E+01
 3.4442501E+00  3.4966499E+01
 3.4557502E+00  3.5048973E+01
 3.4672501E+00  3.5577694E+01
 3.4787502E+00  3.5494507E+01
 3.4902501E+00  3.5454124E+01
 3.5017502E+00  3.5158188E+01
 3.5132501E+00  3.4902222E+01
 3.5247502E+00  3.4597988E+01
 3.5362501E+00  3.4479755E+01
 3.5477502E+00  3.4124485E+01
 3.5592501E+00  3.3831738E+01
 3.5707502E+00  3.3617649E+01
 3.5822501E+00  3.3549397E+01
 3.5937502E+00  3.3588123E+01
 3.6052501E+00  3.3564625E+01
 3.6167502E+00  3.3536472E+01
 3.6282501E+00  3.3616302E+01
 3.6397502E+00  3.3665352E+01
 3.6512501E+00  3.3901859E+01
 3.6627502E+00  3.3980511E+01
 3.6742501E+00  3.3959751E+01
 3.6857502E+00  3.3809093E+01
 3.6972501E+00  3.3543739E+01
 3.7087502E+00  3.3390327E+01
 3.7202501E+00  3.2955891E+01
 3.7317502E+00  3.2878769E+01
 3.7432501E+00  3.2770962E+01
 3.7547503E+00  3.2813839E+01
 3.7662501E+00  3.2909187E+01
 3.7777503E+00  3.3044510E+01
 3.7892501E+00  3.3190357E+01
 3.8007503E+00  3.3257191E+01
 3.8122501E+00  3.3427471E+01
 3.8237503E+00  3.3484810E+01
 3.8352501E+00  3.3343945E+01
 3.8467503E+00  3.3263432E+01
 3.8582501E+00  3.3150864E+01
 3.8697503E+00  3.3244171E+01
 3.8812501E+00  3.3147121E+01
 3.8927503E+00  3.2949375E+01
 3.9042501E+00  3.2785183E+01
 3.9157503E+00  3.2548271E+01
 3.9272501E+00  3.2495560E+01
 3.9387503E+00  3.2597824E+01
 3.9502501E+00  3.2752178E+01
 3.9617503E+00  3.2817215E+01
 3.9732502E+00  3.2866550E+01
 3.9847503E+00  3.2691975E+01
 3.9962502E+00  3.2669094E+01
 4.0077500E+00  3.2477802E+01
 4.0192504E+00  3.2488258E+01
 4.0307503E+00  3.2303833E+01
 4.0422502E+00  3.2378471E+01
 4.0537500E+00  3.2471695E+01
 4.0652504E+00  3.2519127E+01
 4.0767503E+00  3.2510128E+01
 4.0882502E+00  3.2325233E+01
 4.0997500E+00  3.2291588E+01
 4.1112504E+00  3.2324238E+01
 4.1227503E+00  3.2403336E+01
 4.1342502E+00  3.2576309E+01
 4.1457500E+00  3.2536198E+01
 4.1572504E+00  3.2557423E+01
 4.1687503E+00  3.2464657E+01
 4.1802502E+00  3.2499149E+01
 4.1917500E+00  3.2535267E+01
 4.2032504E+00  3.2569668E+01
 4.2147503E+00  3.2608295E+01
 4.2262502E+00  3.2685745E+01
 4.2377501E+00  3.2687611E+01
 4.2492504E+00  3.2595528E+01
 4.2607503E+00  3.2588848E+01
 4.2722502E+00  3.2573700E+01
 4.2837501E+00  3.2599445E+01
 4.2952504E+00  3.2568691E+01
 4.3067503E+00  3.2355968E+01
 4.3182502E+00  3.2289124E+01
 4.3297501E+00  3.2045353E+01
 4.3412504E+00  3.2051022E+01
 4.3527503E+00  3.2060493E+01
 4.3642502E+00  3.2131916E+01
 4.3757501E+00  3.2293510E+01
 4.3872504E+00  3.2363060E+01
 4.3987503E+00  3.2424065E+01
 4.4102502E+00  3.2390232E+01
 4.4217501E+00  3.2360203E+01
 4.4332504E+00  3.2324520E+01
 4.4447503E+00  3.2432972E+01
 4.4562502E+00  3.2456459E+01
 4.4677501E+00  3.2469536E+01
 4.4792504E+00  3.2352913E+01
 4.4907503E+00  3.2165257E+01
 4.5022502E+00  3.2186607E+01
 4.5137501E+00  3.2094357E+01
 4.5252504E+00  3.2211929E+01
 4.5367503E+00  3.2267902E+01
 4.5482502E+00  3.2450188E+01
 4.5597501E+00  3.2626957E+01
 4.5712504E+00  3.2697308E+01
 4.5827503E+00  3.2800922E+01
 4.5942502E+00  3.2930683E+01
 4.6057501E+00  3.2940811E+01
 4.6172504E+00  3.2916447E+01
 4.6287503E+00  3.2835621E+01
 4.6402502E+00  3.2796947E+01
 4.6517501E+00  3.2780094E+01
 4.6632504E+00  3.2791676E+01
 4.6747503E+00  3.2753448E+01
 4.6862502E+00  3.2690231E+01
 4.6977501E+00  3.2733982E+01
 4.7092505E+00  3.2660934E+01
 4.7207503E+00  3.2741268E+01
 4.7322502E+00  3.2638397E+01
 4.7437501E+00  3.2629234E+01
 4.7552505E+00  3.2542656E+01
 4.7667503E+00  3.2551086E+01
 4.7782502E+00  3.2625187E+01
 4.7897501E+00  3.2747528E+01
 4.8012505E+00  3.2736652E+01
 4.8127503E+00  3.2762863E+01
 4.8242502E+00  3.2724674E+01
 4.8357501E+00  3.2741127E+01
 4.8472505E+00  3.2736656E+01
 4.8587503E+00  3.2844372E+01
 4.8702502E+00  3.2908726E+01
 4.8817501E+00  3.2951580E+01
 4.8932505E+00  3.2916561E+01
 4.9047503E+00  3.2821926E+01
 4.9162502E+00  3.2874012E+01
 4.9277501E+00  3.2726040E+01
 4.9392505E+00  3.2612289E+01
 4.9507504E+00  3.2498569E+01
 4.9622502E+00  3.2452682E+01
 4.9737501E+00  3.2461761E+01
 4.9852505E+00  3.2533417E+01
 4.9967504E+00  3.2617500E+01
 5.0082502E+00  3.2777233E+01
 5.0197501E+00  3.2929802E+01
 5.0312505E+00  3.3099884E+01
 5.0427504E+00  3.3281040E+01
 5.0542502E+00  3.3357059E+01
 5.0657501E+00  3.3267838E+01
 5.0772505E+00  3.3298733E+01
 5.0887504E+00  3.3254063E+01
 5.1002502E+00  3.3417782E+01
 5.1117501E+00  3.3468361E+01
 5.1232505E+00  3.3489639E+01
 5.1347504E+00  3.3568916E+01
 5.1462502E+00  3.3606972E+01
 5.1577501E+00  3.3690369E+01
 5.1692505E+00  3.3682903E+01
 5.1807504E+00  3.3738319E+01
 5.1922503E+00  3.3835423E+01
 5.2037501E+00  3.3923210E+01
 5.2152505E+00  3.4035263E+01
 5.2267504E+00  3.4010399E+01
 5.2382503E+00  3.4000423E+01
 5.2497501E+00  3.3920597E+01
 5.2612505E+00  3.3893856E+01
 5.2727504E+00  3.3858715E+01
 5.2842503E+00  3.3918919E+01
 5.2957501E+00  3.3975922E+01
 5.3072500E+00  3.4027180E+01
 5.3187504E+00  3.4152466E+01
 5.3302503E+00  3.4169144E+01
 5.3417501E+00  3.4205723E+01
 5.3532500E+00  3.4108444E+01
 5.3647504E+00  3.4128750E+01
 5.3762503E+00  3.4259064E+01
 5.3877501E+00  3.4377220E+01
 5.3992500E+00  3.4325352E+01
 5.4107504E+00  3.4357700E+01
 5.4222503E+00  3.4324306E+01
 5.4337502E+00  3.4460274E+01
 5.4452500E+00  3.4598854E+01
 5.4567504E+00  3.4843998E+01
 5.4682503E+00  3.5028831E+01
 5.4797502E+00  3.5134907E+01
 5.4912500E+00  3.5116135E+01
 5.5027504E+00  3.5173122E+01
 5.5142503E+00  3.5206509E+01
 5.5257502E+00  3.5190006E+01
 5.5372500E+00  3.5208439E+01
 5.5487504E+00  3.5128925E+01
 5.5602503E+00  3.5208916E+01
 5.5717502E+00  3.5225769E+01
 5.5832500E+00  3.5384720E+01
 5.5947504E+00  3.5446156E+01
 5.6062503E+00  3.5436707E+01
 5.6177502E+00  3.5407093E+01
 5.6292500E+00  3.5338764E+01
 5.6407504E+00  3.5355141E+01
 5.6522503E+00  3.5422680E+01
 5.6637502E+00  3.5525108E+01
 5.6752501E+00  3.5631565E+01
 5.6867504E+00  3.5626614E+01
 5.6982503E+00  3.5631252E+01
 5.7097502E+00  3.5553448E+01
 5.7212501E+00  3.5481312E+01
 5.7327504E+00  3.5489357E+01
 5.7442503E+00  3.5547165E+01
 5.7557502E+00  3.5645340E+01
 5.7672501E+00  3.5770584E+01
 5.7787504E+00  3.5949684E+01
 5.7902503E+00  3.6204712E+01
 5.8017502E+00  3.6299042E+01
 5.8132501E+00  3.6430401E+01
 5.8247504E+00  3.6359116E+01
 5.8362503E+00  3.6331631E+01
 5.8477502E+00  3.6438126E+01
 5.8592501E+00  3.6562130E+01
 5.8707504E+00  3.7032421E+01
 5.8822503E+00  3.7633202E+01
 5.8937502E+00  3.8620628E+01
 5.9052501E+00  4.0623131E+01
 5.9167504E+00  4.3472015E+01
 5.9282503E+00  4.7242325E+01
 5.9397502E+00  5.6853653E+01
 5.9512501E+00  6.4810074E+01
 5.9627504E+00  7.2280388E+01
 5.9742503E+00  8.1692734E+01
 5.9857502E+00  8.0360359E+01
 5.9972501E+00  7.7694206E+01
 6.0087504E+00  6.8474274E+01
 6.0202503E+00  5.9658245E+01
 6.0317502E+00  5.3047531E+01
 6.0432501E+00  4.4295635E+01
 6.0547504E+00  4.2131699E+01
 6.0662503E+00  4.0322803E+01
 6.0777502E+00  3.8660503E+01
 6.0892501E+00  3.8411270E+01
 6.1007504E+00  3.8142292E+01
 6.1122503E+00  3.8046822E+01
 6.1237502E+00  3.7852436E+01
 6.1352501E+00  3.7633057E+01
 6.1467505E+00  3.7420528E+01
 6.1582503E+00  3.7310158E+01
 6.1697502E+00  3.7310375E+01
 6.1812501E+00  3.7304077E+01
 6.1927505E+00  3.7287121E+01
 6.2042503E+00  3.7250771E+01
 6.2157502E+00  3.7339691E+01
 6.2272501E+00  3.7503601E+01
 6.2387505E+00  3.7533436E+01
 6.2502503E+00  3.7525158E+01
 6.2617502E+00  3.7474186E+01
 6.2732501E+00  3.7522110E+01
 6.2847505E+00  3.7663956E+01
 6.2962503E+00  3.7646214E+01
 6.3077502E+00  3.7667503E+01
 6.3192501E+00  3.7608059E+01
 6.3307505E+00  3.7766468E+01
 6.3422503E+00  3.7871853E+01
 6.3537502E+00  3.7968323E+01
 6.3652501E+00  3.8063965E+01
 6.3767505E+00  3.8215427E+01
 6.3882504E+00  3.8344013E+01
 6.3997502E+00  3.8322487E+01
 6.4112501E+00  3.8261150E+01
 6.4227505E+00  3.8249622E+01
 6.4342504E+00  3.8363392E+01
 6.4457502E+00  3.8540955E+01
 6.4572501E+00  3.8648182E+01
 6.4687505E+00  3.8755104E+01
 6.4802504E+00  3.8904362E+01
 6.4917502E+00  3.9124844E+01
 6.5032501E+00  3.9351700E+01
 6.5147505E+00  3.9486206E+01
 6.5262504E+00  3.9459560E+01
 6.5377502E+00  3.9398773E+01
 6.5492501E+00  3.9385777E+01
 6.5607505E+00  3.9415726E+01
 6.5722504E+00  3.9522289E+01
 6.5837502E+00  3.9482479E+01
 6.5952501E+00  3.9640411E+01
 6.6067505E+00  3.9691807E+01
 6.6182504E+00  3.9829971E+01
 6.6297503E+00  3.9891872E+01
 6.6412501E+00  3.9992699E+01
 6.6527505E+00  4.0087807E+01
 6.6642504E+00  4.0162296E+01
 6.6757503E+00  4.0142536E+01
 6.6872501E+00  4.0028358E+01
 6.6987505E+00  4.0043171E+01
 6.7102504E+00  4.0177242E+01
 6.7217503E+00  4.0319862E+01
 6.7332501E+00  4.0542236E+01
 6.7447505E+00  4.0688782E+01
 6.7562504E+00  4.0896465E+01
 6.7677503E+00  4.1054771E+01
 6.7792501E+00  4.1133160E+01
 6.7907505E+00  4.1221352E+01
 6.8022504E+00  4.1280849E+01
 6.8137503E+00  4.1336872E+01
 6.8252501E+00  4.1404408E+01
 6.8367505E+00  4.1476536E+01
 6.8482504E+00  4.1624111E+01
 6.8597503E+00  4.1719765E+01
 6.8712502E+00  4.1836052E+01
 6.8827505E+00  4.1815071E+01
 6.8942504E+00  4.1817764E+01
 6.9057503E+00  4.1730564E+01
 6.9172502E+00  4.1743927E+01
 6.9287505E+00  4.1787563E+01
 6.9402504E+00  4.1955048E+01
 6.9517503E+00  4.2084171E+01
 6.9632502E+00  4.2286621E+01
 6.9747505E+00  4.2447250E+01
 6.9862504E+00  4.2517742E+01
 6.9977503E+00  4.2514664E+01
 7.0092502E+00  4.2486824E+01
 7.0207505E+00  4.2397850E+01
 7.0322504E+00  4.2528114E+01
 7.0437503E+00  4.2381207E+01
 7.0552502E+00  4.2480434E+01
 7.0667505E+00  4.2410740E+01
 7.0782504E+00  4.2467770E+01
 7.0897503E+00  4.2570644E+01
 7.1012502E+00  4.2676987E+01
 7.1127505E+00  4.2867996E+01
 7.1242504E+00  4.2976391E+01
 7.1357503E+00  4.3095707E+01
 7.1472502E+00  4.3117950E+01
 7.1587505E+00  4.3254585E+01
 7.1702504E+00  4.3293186E+01
 7.1817503E+00  4.3363678E+01
 7.1932502E+00  4.3368237E+01
 7.2047505E+00  4.3330322E+01
 7.2162504E+00  4.3350143E+01
 7.2277503E+00  4.3336678E+01
 7.2392502E+00  4.3441639E+01
 7.2507505E+00  4.3486992E+01
 7.2622504E+00  4.3643284E+01
 7.2737503E+00  4.3741241E+01
 7.2852502E+00  4.3893356E+01
 7.2967505E+00  4.3947014E+01
 7.3082504E+00  4.3927937E+01
 7.3197503E+00  4.3909332E+01
 7.3312502E+00  4.3823784E+01
 7.3427505E+00  4.3719563E+01
 7.3542504E+00  4.3676781E+01
 7.3657503E+00  4.3647148E+01
 7.3772502E+00  4.3698586E+01
 7.3887506E+00  4.3638283E+01
 7.4002504E+00  4.3747810E+01
 7.4117503E+00  4.3767673E+01
 7.4232502E+00  4.3841015E+01
 7.4347506E+00  4.3859547E+01
 7.4462504E+00  4.3889496E+01
 7.4577503E+00  4.3936638E+01
 7.4692502E+00  4.3963654E+01
 7.4807506E+00  4.4089344E+01
 7.4922504E+00  4.4183109E+01
 7.5037503E+00  4.4227840E+01
 7.5152502E+00  4.4224766E+01
 7.5267506E+00  4.4203171E+01
 7.5382504E+00  4.4161678E+01
 7.5497503E+00  4.4067932E+01
 7.5612502E+00  4.4033970E+01
 7.5727506E+00  4.4000648E+01
 7.5842505E+00  4.4053158E+01
 7.5957503E+00  4.4031803E+01
 7.6072502E+00  4.4013042E+01
 7.6187506E+00  4.4033810E+01
 7.6302505E+00  4.4068726E+01
 7.6417503E+00  4.4245823E+01
 7.6532502E+00  4.4281456E+01
 7.6647506E+00  4.4316196E+01
 7.6762505E+00  4.4227196E+01
 7.6877503E+00  4.4183659E+01
 7.6992502E+00  4.4152561E+01
 7.7107506E+00  4.4221081E+01
 7.7222505E+00  4.4366100E+01
 7.7337503E+00  4.4559452E+01
 7.7452502E+00  4.4558384E+01
 7.7567506E+00  4.4382271E+01
 7.7682505E+00  4.4184959E+01
 7.7797503E+00  4.4118694E+01
 7.7912502E+00  4.4094070E+01
 7.8027506E+00  4.3999859E+01
 7.8142505E+00  4.3904533E+01
 7.8257504E+00  4.3920876E+01
 7.8372502E+00  4.4018574E+01
 7.8487506E+00  4.4134953E+01
 7.8602505E+00  4.4169785E+01
 7.8717504E+00  4.4125431E+01
 7.8832502E+00  4.4038498E+01
 7.8947506E+00  4.3959518E+01
 7.9062505E+00  4.4025738E+01
 7.9177504E+00  4.4046841E+01
 7.9292502E+00  4.4127571E+01
 7.9407506E+00  4.4113380E+01
 7.9522505E+00  4.4068600E+01
 7.9637504E+00  4.4011749E+01
 7.9752502E+00  4.3823181E+01
 7.9867506E+00  4.3777664E+01
 7.9982505E+00  4.3667820E+01
 8.0097504E+00  4.3615662E+01
 8.0212507E+00  4.3496902E+01
 8.0327501E+00  4.3344784E+01
 8.0442505E+00  4.3287598E+01
 8.0557508E+00  4.3097897E+01
 8.0672503E+00  4.2950382E+01
 8.0787506E+00  4.2774815E+01
 8.0902500E+00  4.2748569E+01
 8.1017504E+00  4.2723091E+01
 8.1132507E+00  4.2739071E+01
 8.1247501E+00  4.2734123E+01
 8.1362505E+00  4.2643517E+01
 8.1477509E+00  4.2530537E+01
 8.1592503E+00  4.2435806E+01
 8.1707506E+00  4.2327717E+01
 8.1822500E+00  4.2160130E+01
 8.1937504E+00  4.2045498E+01
 8.2052507E+00  4.1937344E+01
 8.2167501E+00  4.1882919E+01
 8.2282505E+00  4.1732903E+01
 8.2397509E+00  4.1665813E+01
 8.2512503E+00  4.1626537E+01
 8.2627506E+00  4.1555305E+01
 8.2742500E+00  4.1417278E+01
 8.2857504E+00  4.1223324E+01
 8.2972507E+00  4.1078312E+01
 8.3087502E+00  4.0929562E+01
 8.3202505E+00  4.0779457E+01
 8.3317509E+00  4.0621925E+01
 8.3432503E+00  4.0516060E+01
 8.3547506E+00  4.0365704E+01
 8.3662500E+00  4.0221031E+01
 8.3777504E+00  4.0010536E+01
 8.3892508E+00  3.9772911E+01
 8.4007502E+00  3.9503353E+01
 8.4122505E+00  3.9269642E+01
 8.4237509E+00  3.9061741E+01
 8.4352503E+00  3.8978912E+01
 8.4467506E+00  3.8855560E+01
 8.4582500E+00  3.8705906E+01
 8.4697504E+00  3.8494804E+01
 8.4812508E+00  3.8256699E+01
 8.4927502E+00  3.8076889E+01
 8.5042505E+00  3.7898323E+01
 8.5157509E+00  3.7744537E+01
 8.5272503E+00  3.7617653E+01
 8.5387506E+00  3.7493637E+01
 8.5502501E+00  3.7327862E+01
 8.5617504E+00  3.7168972E+01
 8.5732508E+00  3.7017895E+01
 8.5847502E+00  3.6807751E+01
 8.5962505E+00  3.6615898E+01
 8.6077509E+00  3.6466274E+01
 8.6192503E+00  3.6405895E+01
 8.6307507E+00  3.6346111E+01
 8.6422501E+00  3.6149006E+01
 8.6537504E+00  3.5897308E+01
 8.6652508E+00  3.5630672E+01
 8.6767502E+00  3.5342651E+01
 8.6882505E+00  3.5189499E+01
 8.6997509E+00  3.5000839E+01
 8.7112503E+00  3.4861576E+01
 8.7227507E+00  3.4647011E+01
 8.7342501E+00  3.4438995E+01
 8.7457504E+00  3.4221336E+01
 8.7572508E+00  3.3911484E+01
 8.7687502E+00  3.3695431E+01
 8.7802505E+00  3.3491634E+01
 8.7917500E+00  3.3407204E+01
 8.8032503E+00  3.3274822E+01
 8.8147507E+00  3.3206161E+01
 8.8262501E+00  3.3135311E+01
 8.8377504E+00  3.3029728E+01
 8.8492508E+00  3.2904987E+01
 8.8607502E+00  3.2681744E+01
 8.8722506E+00  3.2528778E+01
 8.8837500E+00  3.2339779E+01
 8.8952503E+00  3.2144230E+01
 8.9067507E+00  3.1988638E+01
 8.9182501E+00  3.1802303E+01
 8.9297504E+00  3.1676920E+01
 8.9412508E+00  3.1489939E+01
 8.9527502E+00  3.1387436E+01
 8.9642506E+00  3.1268171E+01
 8.9757500E+00  3.1181568E+01
 8.9872503E+00  3.1097919E+01
 8.9987507E+00  3.0960106E+01
 9.0102501E+00  3.0775421E+01
 9.0217505E+00  3.0522221E+01
 9.0332508E+00  3.0359428E+01
 9.0447502E+00  3.0260708E+01
 9.0562506E+00  3.0152771E+01
 9.0677500E+00  3.0063238E+01
 9.0792503E+00  2.9882351E+01
 9.0907507E+00  2.9729467E+01
 9.1022501E+00  2.9610472E+01
 9.1137505E+00  2.9510674E+01
 9.1252508E+00  2.9475275E+01
 9.1367502E+00  2.9401382E+01
 9.1482506E+00  2.9247572E+01
 9.1597500E+00  2.9060131E+01
 9.1712503E+00  2.8859846E+01
 9.1827507E+00  2.8796974E+01
 9.1942501E+00  2.8700541E+01
 9.2057505E+00  2.8565844E+01
 9.2172508E+00  2.8501369E+01
 9.2287502E+00  2.8383986E+01
 9.2402506E+00  2.8320770E+01
 9.2517500E+00  2.8245222E+01
 9.2632504E+00  2.8184551E+01
 9.2747507E+00  2.8102119E+01
 9.2862501E+00  2.8029301E+01
 9.2977505E+00  2.8005610E+01
 9.3092508E+00  2.7962080E+01
 9.3207502E+00  2.7874357E+01
 9.3322506E+00  2.7728676E+01
 9.3437500E+00  2.7601133E+01
 9.3552504E+00  2.7470182E+01
 9.3667507E+00  2.7345066E+01
 9.3782501E+00  2.7213844E+01
 9.3897505E+00  2.7100494E+01
 9.4012508E+00  2.7006565E+01
 9.4127502E+00  2.6915052E+01
 9.4242506E+00  2.6815874E+01
 9.4357500E+00  2.6769022E+01
 9.4472504E+00  2.6717442E+01
 9.4587507E+00  2.6718748E+01
 9.4702501E+00  2.6649328E+01
 9.4817505E+00  2.6560976E+01
 9.4932508E+00  2.6455135E+01
 9.5047503E+00  2.6341261E+01
 9.5162506E+00  2.6272697E+01
 9.5277500E+00  2.6166676E+01
 9.5392504E+00  2.6141775E+01
 9.5507507E+00  2.6095484E+01
 9.5622501E+00  2.6087055E+01
 9.5737505E+00  2.5996817E+01
 9.5852509E+00  2.5958658E+01
 9.5967503E+00  2.5946423E+01
 9.6082506E+00  2.5931665E+01
 9.6197500E+00  2.5906736E+01
 9.6312504E+00  2.5800682E+01
 9.6427507E+00  2.5715975E+01
 9.6542501E+00  2.5628956E+01
 9.6657505E+00  2.5551815E+01
 9.6772509E+00  2.5466427E+01
 9.6887503E+00  2.5366266E+01
 9.7002506E+00  2.5296253E+01
 9.7117500E+00  2.5232416E+01
 9.7232504E+00  2.5186340E+01
 9.7347507E+00  2.5190561E+01
 9.7462502E+00  2.5218451E+01
 9.7577505E+00  2.5265596E+01
 9.7692509E+00  2.5253223E+01
 9.7807503E+00  2.5220547E+01
 9.7922506E+00  2.5148081E+01
 9.8037500E+00  2.5090620E+01
 9.8152504E+00  2.4989164E+01
 9.8267508E+00  2.4917654E+01
 9.8382502E+00  2.4815033E+01
 9.8497505E+00  2.4710661E+01
 9.8612509E+00  2.4625168E+01
 9.8727503E+00  2.4591772E+01
 9.8842506E+00  2.4572054E+01
 9.8957500E+00  2.4501263E+01
 9.9072504E+00  2.4475752E+01
 9.9187508E+00  2.4501160E+01
 9.9302502E+00  2.4528296E+01
 9.9417505E+00  2.4485344E+01
 9.9532509E+00  2.4426949E+01
 9.9647503E+00  2.4423512E+01
 9.9762506E+00  2.4381166E+01
 9.9877501E+00  2.4316353E+01
 9.9992504E+00  2.4240368E+01
 1.0010751E+01  2.4244967E+01
 1.0022250E+01  2.4250650E+01
 1.0033751E+01  2.4292089E+01
 1.0045251E+01  2.4282612E+01
 1.0056750E+01  2.4287748E+01
 1.0068251E+01  2.4235756E+01
 1.0079750E+01  2.4160727E+01
 1.0091250E+01  2.4057421E+01
 1.0102751E+01  2.4000801E+01
 1.0114250E+01  2.3984770E+01
 1.0125751E+01  2.3999298E+01
 1.0137251E+01  2.4008715E+01
 1.0148750E+01  2.3991028E+01
 1.0160251E+01  2.3980375E+01
 1.0171750E+01  2.3923964E+01
 1.0183250E+01  2.3871429E+01
 1.0194751E+01  2.3807213E+01
 1.0206250E+01  2.3779648E+01
 1.0217751E+01  2.3748440E+01
 1.0229251E+01  2.3765261E+01
 1.0240750E+01  2.3683184E+01
 1.0252251E+01  2.3634171E+01
 1.0263750E+01  2.3583408E+01
 1.0275250E+01  2.3583511E+01
 1.0286751E+01  2.3555515E+01
 1.0298250E+01  2.3524191E+01
 1.0309751E+01  2.3524023E+01
 1.0321251E+01  2.3556530E+01
 1.0332750E+01  2.3577658E+01
 1.0344251E+01  2.3567394E+01
 1.0355750E+01  2.3566761E+01
 1.0367250E+01  2.3554626E+01
 1.0378751E+01  2.3579912E+01
 1.0390250E+01  2.3598839E+01
 1.0401751E+01  2.3589777E+01
 1.0413251E+01  2.3556286E+01
 1.0424750E+01  2.3515909E+01
 1.0436251E+01  2.3469702E+01
 1.0447750E+01  2.3419937E+01
 1.0459250E+01  2.3367098E+01
 1.0470751E+01  2.3376005E+01
 1.0482250E+01  2.3411341E+01
 1.0493751E+01  2.3439455E+01
 1.0505251E+01  2.3424540E+01
 1.0516750E+01  2.3355564E+01
 1.0528251E+01  2.3278057E+01
 1.0539750E+01  2.3171154E+01
 1.0551250E+01  2.3111956E+01
 1.0562751E+01  2.3103487E+01
 1.0574250E+01  2.3116886E+01
 1.0585751E+01  2.3130199E+01
 1.0597251E+01  2.3131590E+01
 1.0608750E+01  2.3131893E+01
 1.0620251E+01  2.3114521E+01
 1.0631750E+01  2.3106398E+01
 1.0643250E+01  2.3036497E+01
 1.0654751E+01  2.3062757E+01
 1.0666250E+01  2.3079250E+01
 1.0677751E+01  2.3107876E+01
 1.0689251E+01  2.3268188E+01
 1.0700750E+01  2.3228918E+01
 1.0712251E+01  2.3258125E+01
 1.0723750E+01  2.3091726E+01
 1.0735250E+01  2.3031078E+01
 1.0746751E+01  2.2998991E+01
 1.0758250E+01  2.2972971E+01
 1.0769751E+01  2.3001318E+01
 1.0781251E+01  2.3007483E+01
 1.0792750E+01  2.2979006E+01
 1.0804251E+01  2.2931355E+01
 1.0815750E+01  2.2905704E+01
 1.0827250E+01  2.2911142E+01
 1.0838751E+01  2.2942890E+01
 1.0850250E+01  2.2959681E+01
 1.0861751E+01  2.2966331E+01
 1.0873251E+01  2.2963821E+01
 1.0884750E+01  2.2920799E+01
 1.0896251E+01  2.2883095E+01
 1.0907750E+01  2.2834148E+01
 1.0919250E+01  2.2817854E+01
 1.0930751E+01  2.2761755E+01
 1.0942250E+01  2.2722546E+01
 1.0953751E+01  2.2688009E+01
 1.0965251E+01  2.2653687E+01
 1.0976750E+01  2.2665550E+01
 1.0988251E+01  2.2631817E+01
 1.0999750E+01  2.2645475E+01
 1.1011250E+01  2.2689383E+01
 1.1022751E+01  2.2744440E+01
 1.1034250E+01  2.2759525E+01
 1.1045751E+01  2.2760349E+01
 1.1057251E+01  2.2751314E+01
 1.1068750E+01  2.2800226E+01
 1.1080251E+01  2.2748816E+01
 1.1091750E+01  2.2713247E+01
 1.1103251E+01  2.2654682E+01
 1.1114751E+01  2.2641407E+01
 1.1126250E+01  2.2623627E+01
 1.1137751E+01  2.2583040E+01
 1.1149251E+01  2.2603601E+01
 1.1160750E+01  2.2647860E+01
 1.1172251E+01  2.2709011E+01
 1.1183750E+01  2.2768747E+01
 1.1195251E+01  2.2763235E+01
 1.1206751E+01  2.2764166E+01
 1.1218250E+01  2.2715111E+01
 1.1229751E+01  2.2713167E+01
 1.1241251E+01  2.2787645E+01
 1.1252750E+01  2.2837547E+01
 1.1264251E+01  2.2832561E+01
 1.1275750E+01  2.2938951E+01
 1.1287251E+01  2.2854694E+01
 1.1298751E+01  2.2827013E+01
 1.1310250E+01  2.2617378E+01
 1.1321751E+01  2.2669807E+01
 1.1333251E+01  2.2708067E+01
 1.1344750E+01  2.2742237E+01
 1.1356251E+01  2.2729958E+01
 1.1367750E+01  2.2777262E+01
 1.1379251E+01  2.2861557E+01
 1.1390751E+01  2.2931597E+01
 1.1402250E+01  2.3137386E+01
 1.1413751E+01  2.3227386E+01
 1.1425251E+01  2.3360893E+01
 1.1436750E+01  2.3373981E+01
 1.1448251E+01  2.3485544E+01
 1.1459750E+01  2.3554241E+01
 1.1471251E+01  2.3696898E+01
 1.1482751E+01  2.3707470E+01
 1.1494250E+01  2.4095411E+01
 1.1505751E+01  2.4257984E+01
 1.1517251E+01  2.5566404E+01
 1.1528750E+01  2.6718340E+01
 1.1540251E+01  3.0394880E+01
 1.1551750E+01  3.3861412E+01
 1.1563251E+01  4.0355171E+01
 1.1574751E+01  4.5462875E+01
 1.1586250E+01  4.9798332E+01
 1.1597751E+01  5.0740318E+01
 1.1609251E+01  4.6153122E+01
 1.1620750E+01  4.0978142E+01
 1.1632251E+01  3.3374237E+01
 1.1643750E+01  2.9893324E+01
 1.1655251E+01  2.6383011E+01
 1.1666751E+01  2.5199141E+01
 1.1678250E+01  2.4217020E+01
 1.1689751E+01  2.3794319E+01
 1.1701251E+01  2.3521732E+01
 1.1712750E+01  2.3418501E+01
 1.1724251E+01  2.3292461E+01
 1.1735750E+01  2.3220329E+01
 1.1747251E+01  2.3126661E+01
 1.1758751E+01  2.3041645E+01
 1.1770250E+01  2.2935507E+01
 1.1781751E+01  2.2803556E+01
 1.1793251E+01  2.2754662E+01
 1.1804750E+01  2.2731201E+01
 1.1816251E+01  2.2775869E+01
 1.1827750E+01  2.2758213E+01
 1.1839251E+01  2.2764425E+01
 1.1850751E+01  2.2650761E+01
 1.1862250E+01  2.2623695E+01
 1.1873751E+01  2.2565134E+01
 1.1885251E+01  2.2635704E+01
 1.1896750E+01  2.2692169E+01
 1.1908251E+01  2.2813509E+01
 1.1919750E+01  2.2964512E+01
 1.1931251E+01  2.3142603E+01
 1.1942751E+01  2.3374853E+01
 1.1954250E+01  2.3609367E+01
 1.1965751E+01  2.3971912E+01
 1.1977251E+01  2.4189171E+01
 1.1988750E+01  2.4337845E+01
 1.2000251E+01  2.4238453E+01
 1.2011750E+01  2.4065992E+01
 1.2023251E+01  2.3762457E+01
 1.2034751E+01  2.3532419E+01
 1.2046250E+01  2.3390303E+01
 1.2057751E+01  2.3434860E+01
 1.2069251E+01  2.3528040E+01
 1.2080750E+01  2.3756779E+01
 1.2092251E+01  2.3945057E+01
 1.2103750E+01  2.4081482E+01
 1.2115251E+01  2.4046326E+01
 1.2126751E+01  2.3953722E+01
 1.2138250E+01  2.3782373E+01
 1.2149751E+01  2.3554049E+01
 1.2161251E+01  2.3288954E+01
 1.2172750E+01  2.3094629E+01
 1.2184251E+01  2.2929455E+01
 1.2195750E+01  2.2815756E+01
 1.2207251E+01  2.2690859E+01
 1.2218751E+01  2.2632416E+01
 1.2230250E+01  2.2579691E+01
 1.2241751E+01  2.2591026E+01
 1.2253251E+01  2.2588949E+01
 1.2264750E+01  2.2603159E+01
 1.2276251E+01  2.2553288E+01
 1.2287750E+01  2.2539637E+01
 1.2299251E+01  2.2512875E+01
 1.2310751E+01  2.2537560E+01
 1.2322250E+01  2.2551254E+01
 1.2333751E+01  2.2634768E+01
 1.2345250E+01  2.2645094E+01
 1.2356750E+01  2.2680374E+01
 1.2368251E+01  2.2653156E+01
 1.2379750E+01  2.2659323E+01
 1.2391251E+01  2.2639420E+01
 1.2402751E+01  2.2601410E+01
 1.2414250E+01  2.2622040E+01
 1.2425751E+01  2.2661516E+01
 1.2437250E+01  2.2684650E+01
 1.2448750E+01  2.2620422E+01
 1.2460251E+01  2.2605223E+01
 1.2471750E+01  2.2665121E+01
 1.2483251E+01  2.2743805E+01
 1.2494751E+01  2.2780512E+01
 1.2506250E+01  2.2718573E+01
 1.2517751E+01  2.2698553E+01
 1.2529250E+01  2.2681536E+01
 1.2540751E+01  2.2757273E+01
 1.2552251E+01  2.2799200E+01
 1.2563750E+01  2.2830959E+01
 1.2575251E+01  2.2863163E+01
 1.2586751E+01  2.2835340E+01
 1.2598250E+01  2.2788960E+01
 1.2609751E+01  2.2725990E+01
 1.2621250E+01  2.2793005E+01
 1.2632751E+01  2.2820332E+01
 1.2644251E+01  2.2794052E+01
 1.2655750E+01  2.2719505E+01
 1.2667251E+01  2.2727926E+01
 1.2678751E+01  2.2779705E+01
 1.2690250E+01  2.2803219E+01
 1.2701751E+01  2.2844610E+01
 1.2713250E+01  2.2912756E+01
 1.2724751E+01  2.2984089E+01
 1.2736251E+01  2.2954330E+01
 1.2747750E+01  2.2947075E+01
 1.2759251E+01  2.2949644E+01
 1.2770751E+01  2.3029953E+01
 1.2782250E+01  2.3096823E+01
 1.2793751E+01  2.3103041E+01
 1.2805250E+01  2.3146194E+01
 1.2816751E+01  2.3189589E+01
 1.2828251E+01  2.3253008E+01
 1.2839750E+01  2.3351892E+01
 1.2851251E+01  2.3398529E+01
 1.2862751E+01  2.3516064E+01
 1.2874250E+01  2.3565552E+01
 1.2885751E+01  2.3642483E+01
 1.2897250E+01  2.3627562E+01
 1.2908751E+01  2.3656969E+01
 1.2920251E+01  2.3651693E+01
 1.2931750E+01  2.3728897E+01
 1.2943251E+01  2.3754364E+01
 1.2954751E+01  2.3788359E+01
 1.2966250E+01  2.3774946E+01
 1.2977751E+01  2.3813025E+01
 1.2989250E+01  2.3843199E+01
 1.3000751E+01  2.3959705E+01
 1.3012251E+01  2.4017635E+01
 1.3023750E+01  2.4155043E+01
 1.3035251E+01  2.4195183E+01
 1.3046751E+01  2.4254936E+01
 1.3058250E+01  2.4294563E+01
 1.3069751E+01  2.4369917E+01
 1.3081250E+01  2.4471642E+01
 1.3092751E+01  2.4590439E+01
 1.3104251E+01  2.4751394E+01
 1.3115750E+01  2.4911501E+01
 1.3127251E+01  2.5059435E+01
 1.3138751E+01  2.5181671E+01
 1.3150250E+01  2.5353910E+01
 1.3161751E+01  2.5466652E+01
 1.3173250E+01  2.5600939E+01
 1.3184751E+01  2.5606771E+01
 1.3196251E+01  2.5687542E+01
 1.3207750E+01  2.5797710E+01
 1.3219251E+01  2.5982964E+01
 1.3230751E+01  2.6223797E+01
 1.3242250E+01  2.6437546E+01
 1.3253751E+01  2.6630602E+01
 1.3265250E+01  2.6791889E+01
 1.3276751E+01  2.6998922E+01
 1.3288251E+01  2.7242352E+01
 1.3299750E+01  2.7447861E+01
 1.3311251E+01  2.7565016E+01
 1.3322751E+01  2.7644400E+01
 1.3334250E+01  2.7693775E+01
 1.3345751E+01  2.7639101E+01
 1.3357250E+01  2.7677046E+01
 1.3368751E+01  2.7656244E+01
 1.3380251E+01  2.7798651E+01
 1.3391750E+01  2.7917286E+01
 1.3403251E+01  2.8143280E+01
 1.3414751E+01  2.8316946E+01
 1.3426250E+01  2.8483156E+01
 1.3437751E+01  2.8633333E+01
 1.3449250E+01  2.8727165E+01
 1.3460751E+01  2.8798840E+01
 1.3472251E+01  2.8884022E+01
 1.3483750E+01  2.9059378E+01
 1.3495251E+01  2.9191856E+01
 1.3506751E+01  2.9372374E+01
 1.3518250E+01  2.9519180E+01
 1.3529751E+01  2.9655287E+01
 1.3541250E+01  2.9747215E+01
 1.3552751E+01  2.9841759E+01
 1.3564251E+01  2.9919315E+01
 1.3575750E+01  2.9997585E+01
 1.3587251E+01  3.0022270E+01
 1.3598751E+01  3.0103745E+01
 1.3610250E+01  3.0095322E+01
 1.3621751E+01  3.0169329E+01
 1.3633250E+01  3.0322859E+01
 1.3644751E+01  3.0375937E+01
 1.3656251E+01  3.0388145E+01
 1.3667750E+01  3.0282330E+01
 1.3679251E+01  3.0239431E+01
 1.3690751E+01  3.0225981E+01
 1.3702250E+01  3.0159559E+01
 1.3713751E+01  3.0199110E+01
 1.3725250E+01  3.0182188E+01
 1.3736751E+01  3.0207048E+01
 1.3748251E+01  3.0224092E+01
 1.3759750E+01  3.0287870E+01
 1.3771251E+01  3.0369556E+01
 1.3782751E+01  3.0434175E+01
 1.3794250E+01  3.0502983E+01
 1.3805751E+01  3.0617321E+01
 1.3817250E+01  3.0805315E+01
 1.3828751E+01  3.1067476E+01
 1.3840251E+01  3.1416548E+01
 1.3851750E+01  3.2075470E+01
 1.3863251E+01  3.2961212E+01
 1.3874751E+01  3.5176941E+01
 1.3886250E+01  3.7950821E+01
 1.3897751E+01  4.4634541E+01
 1.3909250E+01  5.1812328E+01
 1.3920751E+01  6.4779259E+01
 1.3932251E+01  7.4936638E+01
 1.3943750E+01  8.6937195E+01
 1.3955251E+01  8.7635368E+01
 1.3966751E+01  8.5251175E+01
 1.3978251E+01  7.4589432E+01
 1.3989751E+01  6.4721352E+01
 1.4001250E+01  5.3580605E+01
 1.4012751E+01  4.3931618E+01
 1.4024251E+01  3.7665779E+01
 1.4035750E+01  3.3726860E+01
 1.4047251E+01  3.1755688E+01
 1.4058751E+01  3.0483528E+01
 1.4070251E+01  2.9953125E+01
 1.4081751E+01  2.9421545E+01
 1.4093250E+01  2.9133320E+01
 1.4104751E+01  2.8774185E+01
 1.4116251E+01  2.8577271E+01
 1.4127750E+01  2.8408346E+01
 1.4139251E+01  2.8276896E+01
 1.4150751E+01  2.8094385E+01
 1.4162251E+01  2.7919849E+01
 1.4173751E+01  2.7777496E+01
 1.4185250E+01  2.7596153E+01
 1.4196751E+01  2.7429628E+01
 1.4208251E+01  2.7290159E+01
 1.4219750E+01  2.7210419E+01
 1.4231251E+01  2.7086065E+01
 1.4242751E+01  2.6953381E+01
 1.4254251E+01  2.6862103E+01
 1.4265751E+01  2.6810890E+01
 1.4277250E+01  2.6788126E+01
 1.4288751E+01  2.6734882E+01
 1.4300251E+01  2.6682501E+01
 1.4311750E+01  2.6591072E+01
 1.4323251E+01  2.6489891E+01
 1.4334751E+01  2.6397562E+01
 1.4346251E+01  2.6385912E+01
 1.4357751E+01  2.6371197E+01
 1.4369250E+01  2.6353954E+01
 1.4380751E+01  2.6294903E+01
 1.4392251E+01  2.6183760E+01
 1.4403750E+01  2.6116514E+01
 1.4415251E+01  2.6064268E+01
 1.4426751E+01  2.6069141E+01
 1.4438251E+01  2.6064011E+01
 1.4449751E+01  2.5994101E+01
 1.4461250E+01  2.5949146E+01
 1.4472751E+01  2.5870062E+01
 1.4484251E+01  2.5852295E+01
 1.4495750E+01  2.5856470E+01
 1.4507251E+01  2.5850433E+01
 1.4518751E+01  2.5793474E+01
 1.4530251E+01  2.5761175E+01
 1.4541751E+01  2.5711958E+01
 1.4553250E+01  2.5650503E+01
 1.4564751E+01  2.5604183E+01
 1.4576251E+01  2.5549376E+01
 1.4587750E+01  2.5525164E+01
 1.4599251E+01  2.5416967E+01
 1.4610751E+01  2.5328133E+01
 1.4622251E+01  2.5272774E+01
 1.4633751E+01  2.5241615E+01
 1.4645250E+01  2.5300964E+01
 1.4656751E+01  2.5313042E+01
 1.4668251E+01  2.5353573E+01
 1.4679750E+01  2.5318798E+01
 1.4691251E+01  2.5316057E+01
 1.4702751E+01  2.5231606E+01
 1.4714251E+01  2.5222860E+01
 1.4725751E+01  2.5193583E+01
 1.4737250E+01  2.5189098E+01
 1.4748751E+01  2.5154377E+01
 1.4760251E+01  2.5160702E+01
 1.4771750E+01  2.5180405E+01
 1.4783251E+01  2.5162228E+01
 1.4794751E+01  2.5128963E+01
 1.4806251E+01  2.5103462E+01
 1.4817751E+01  2.5127577E+01
 1.4829250E+01  2.5187326E+01
 1.4840751E+01  2.5268383E+01
 1.4852251E+01  2.5254213E+01
 1.4863750E+01  2.5184214E+01
 1.4875251E+01  2.5056150E+01
 1.4886751E+01  2.4989281E+01
 1.4898251E+01  2.4970011E+01
 1.4909751E+01  2.4979856E+01
 1.4921250E+01  2.4951040E+01
 1.4932751E+01  2.4941338E+01
 1.4944251E+01  2.4896719E+01
 1.4955750E+01  2.4892437E+01
 1.4967251E+01  2.4875074E+01
 1.4978751E+01  2.4890867E+01
 1.4990251E+01  2.4890154E+01
 1.5001751E+01  2.4890326E+01
 1.5013250E+01  2.4899807E+01
 1.5024751E+01  2.4992481E+01
 1.5036251E+01  2.4996698E+01
 1.5047750E+01  2.5036705E+01
 1.5059251E+01  2.5032383E+01
 1.5070751E+01  2.5068583E+01
 1.5082251E+01  2.5073744E+01
 1.5093751E+01  2.5082872E+01
 1.5105250E+01  2.5116001E+01
 1.5116751E+01  2.5206644E+01
 1.5128251E+01  2.5319096E+01
 1.5139750E+01  2.5586094E+01
 1.5151251E+01  2.6019398E+01
 1.5162751E+01  2.6471642E+01
 1.5174251E+01  2.7283598E+01
 1.5185751E+01  2.7910833E+01
 1.5197250E+01  2.8457556E+01
 1.5208751E+01  2.8522408E+01
 1.5220251E+01  2.8262716E+01
 1.5231750E+01  2.7706194E+01
 1.5243251E+01  2.6887312E+01
 1.5254751E+01  2.6235443E+01
 1.5266251E+01  2.5551643E+01
 1.5277751E+01  2.5194933E+01
 1.5289250E+01  2.5000856E+01
 1.5300751E+01  2.4954924E+01
 1.5312251E+01  2.4914942E+01
 1.5323750E+01  2.4844982E+01
 1.5335251E+01  2.4846581E+01
 1.5346751E+01  2.4763302E+01
 1.5358251E+01  2.4802364E+01
 1.5369751E+01  2.4762436E+01
 1.5381250E+01  2.4802454E+01
 1.5392751E+01  2.4715122E+01
 1.5404251E+01  2.4714888E+01
 1.5415751E+01  2.4659132E+01
 1.5427251E+01  2.4669193E+01
 1.5438751E+01  2.4677946E+01
 1.5450251E+01  2.4700249E+01
 1.5461751E+01  2.4717264E+01
 1.5473250E+01  2.4659838E+01
 1.5484751E+01  2.4672680E+01
 1.5496251E+01  2.4627712E+01
 1.5507751E+01  2.4612570E+01
 1.5519251E+01  2.4602877E+01
 1.5530751E+01  2.4577085E+01
 1.5542251E+01  2.4574024E+01
 1.5553751E+01  2.4527756E+01
 1.5565250E+01  2.4595661E+01
 1.5576751E+01  2.4615725E+01
 1.5588251E+01  2.4633080E+01
 1.5599751E+01  2.4590586E+01
 1.5611251E+01  2.4570320E+01
 1.5622751E+01  2.4583050E+01
 1.5634251E+01  2.4583900E+01
 1.5645751E+01  2.4626396E+01
 1.5657250E+01  2.4635271E+01
 1.5668751E+01  2.4680765E+01
 1.5680251E+01  2.4701105E+01
 1.5691751E+01  2.4746847E+01
 1.5703251E+01  2.4801151E+01
 1.5714751E+01  2.4788761E+01
 1.5726251E+01  2.4870142E+01
 1.5737751E+01  2.4858269E+01
 1.5749250E+01  2.4897120E+01
 1.5760751E+01  2.4869112E+01
 1.5772251E+01  2.4857397E+01
 1.5783751E+01  2.4780462E+01
 1.5795251E+01  2.4706078E+01
 1.5806751E+01  2.4734833E+01
 1.5818251E+01  2.4787689E+01
 1.5829751E+01  2.4820917E+01
 1.5841250E+01  2.4792345E+01
 1.5852751E+01  2.4782139E+01
 1.5864251E+01  2.4807034E+01
 1.5875751E+01  2.4834995E+01
 1.5887251E+01  2.4894165E+01
 1.5898750E+01  2.4883234E+01
 1.5910251E+01  2.4899000E+01
 1.5921751E+01  2.4833355E+01
 1.5933250E+01  2.4837416E+01
 1.5944751E+01  2.4779709E+01
 1.5956251E+01  2.4768650E+01
 1.5967751E+01  2.4708277E+01
 1.5979251E+01  2.4701170E+01
 1.5990750E+01  2.4737547E+01
 1.6002251E+01  2.4796358E+01
 1.6013750E+01  2.4839596E+01
 1.6025251E+01  2.4914633E+01
 1.6036751E+01  2.4929996E+01
 1.6048250E+01  2.5005487E+01
 1.6059752E+01  2.4931757E+01
 1.6071251E+01  2.4852871E+01
 1.6082750E+01  2.4773668E+01
 1.6094252E+01  2.4727842E+01
 1.6105751E+01  2.4840029E+01
 1.6117250E+01  2.4829275E+01
 1.6128750E+01  2.4947060E+01
 1.6140251E+01  2.4993315E+01
 1.6151751E+01  2.5041714E+01
 1.6163250E+01  2.5146740E+01
 1.6174751E+01  2.5087826E+01
 1.6186251E+01  2.5450520E+01
 1.6197750E+01  2.5374731E+01
 1.6209251E+01  2.6154631E+01
 1.6220751E+01  2.6129930E+01
 1.6232250E+01  2.6971043E+01
 1.6243752E+01  2.7067657E+01
 1.6255251E+01  2.7430677E+01
 1.6266750E+01  2.7453997E+01
 1.6278252E+01  2.6888351E+01
 1.6289751E+01  2.6763693E+01
 1.6301250E+01  2.5783241E+01
 1.6312750E+01  2.5793629E+01
 1.6324251E+01  2.5188137E+01
 1.6335751E+01  2.5235657E+01
 1.6347250E+01  2.4945019E+01
 1.6358751E+01  2.4871437E+01
 1.6370251E+01  2.4772959E+01
 1.6381750E+01  2.4708017E+01
 1.6393251E+01  2.4751343E+01
 1.6404751E+01  2.4760887E+01
 1.6416250E+01  2.4864378E+01
 1.6427752E+01  2.4850183E+01
 1.6439251E+01  2.4891251E+01
 1.6450750E+01  2.4824162E+01
 1.6462252E+01  2.4808508E+01
 1.6473751E+01  2.4744263E+01
 1.6485250E+01  2.4766581E+01
 1.6496750E+01  2.4738016E+01
 1.6508251E+01  2.4691061E+01
 1.6519751E+01  2.4625164E+01
 1.6531250E+01  2.4605867E+01
 1.6542751E+01  2.4636103E+01
 1.6554251E+01  2.4631889E+01
 1.6565750E+01  2.4642481E+01
 1.6577251E+01  2.4615051E+01
 1.6588751E+01  2.4618195E+01
 1.6600250E+01  2.4616722E+01
 1.6611752E+01  2.4661884E+01
 1.6623251E+01  2.4654232E+01
 1.6634750E+01  2.4610754E+01
 1.6646252E+01  2.4559498E+01
 1.6657751E+01  2.4519573E+01
 1.6669250E+01  2.4532881E+01
 1.6680750E+01  2.4499229E+01
 1.6692251E+01  2.4532711E+01
 1.6703751E+01  2.4500603E+01
 1.6715250E+01  2.4504084E+01
 1.6726751E+01  2.4410089E+01
 1.6738251E+01  2.4399052E+01
 1.6749750E+01  2.4423788E+01
 1.6761251E+01  2.4476748E+01
 1.6772751E+01  2.4488878E+01
 1.6784250E+01  2.4506067E+01
 1.6795752E+01  2.4516266E+01
 1.6807251E+01  2.4521336E+01
 1.6818750E+01  2.4474905E+01
 1.6830252E+01  2.4451231E+01
 1.6841751E+01  2.4405378E+01
 1.6853251E+01  2.4409348E+01
 1.6864750E+01  2.4434235E+01
 1.6876251E+01  2.4450014E+01
 1.6887751E+01  2.4443478E+01
 1.6899250E+01  2.4414576E+01
 1.6910751E+01  2.4321421E+01
 1.6922251E+01  2.4303631E+01
 1.6933750E+01  2.4326015E+01
 1.6945251E+01  2.4372599E+01
 1.6956751E+01  2.4386724E+01
 1.6968250E+01  2.4412563E+01
 1.6979752E+01  2.4437571E+01
 1.6991251E+01  2.4420206E+01
 1.7002750E+01  2.4380085E+01
 1.7014252E+01  2.4400517E+01
 1.7025751E+01  2.4412733E+01
 1.7037251E+01  2.4423269E+01
 1.7048750E+01  2.4358248E+01
 1.7060251E+01  2.4327368E+01
 1.7071751E+01  2.4299255E+01
 1.7083250E+01  2.4333132E+01
 1.7094751E+01  2.4300699E+01
 1.7106251E+01  2.4310814E+01
 1.7117750E+01  2.4278694E+01
 1.7129251E+01  2.4291676E+01
 1.7140751E+01  2.4247629E+01
 1.7152250E+01  2.4190384E+01
 1.7163752E+01  2.4092266E+01
 1.7175251E+01  2.4076544E+01
 1.7186750E+01  2.4074781E+01
 1.7198252E+01  2.4140184E+01
 1.7209751E+01  2.4128267E+01
 1.7221251E+01  2.4138699E+01
 1.7232750E+01  2.4133339E+01
 1.7244251E+01  2.4167271E+01
 1.7255751E+01  2.4160494E+01
 1.7267250E+01  2.4178341E+01
 1.7278751E+01  2.4169397E+01
 1.7290251E+01  2.4193443E+01
 1.7301750E+01  2.4174585E+01
 1.7313251E+01  2.4157524E+01
 1.7324751E+01  2.4144510E+01
 1.7336250E+01  2.4145889E+01
 1.7347752E+01  2.4119179E+01
 1.7359251E+01  2.4075956E+01
 1.7370750E+01  2.4054398E+01
 1.7382252E+01  2.4079609E+01
 1.7393751E+01  2.4099920E+01
 1.7405251E+01  2.4100269E+01
 1.7416750E+01  2.4128351E+01
 1.7428251E+01  2.4121283E+01
 1.7439751E+01  2.4077124E+01
 1.7451250E+01  2.4036383E+01
 1.7462751E+01  2.4036684E+01
 1.7474251E+01  2.4041212E+01
 1.7485750E+01  2.4002632E+01
 1.7497252E+01  2.3934732E+01
 1.7508751E+01  2.3940695E+01
 1.7520250E+01  2.3915966E+01
 1.7531752E+01  2.3920736E+01
 1.7543251E+01  2.3902048E+01
 1.7554750E+01  2.3937899E+01
 1.7566252E+01  2.3926390E+01
 1.7577751E+01  2.3878376E+01
 1.7589251E+01  2.3838837E+01
 1.7600750E+01  2.3863020E+01
 1.7612251E+01  2.3885298E+01
 1.7623751E+01  2.3957127E+01
 1.7635250E+01  2.3910583E+01
 1.7646751E+01  2.3953112E+01
 1.7658251E+01  2.3936527E+01
 1.7669750E+01  2.3950682E+01
 1.7681252E+01  2.3911030E+01
 1.7692751E+01  2.3881186E+01
 1.7704250E+01  2.3872841E+01
 1.7715752E+01  2.3862608E+01
 1.7727251E+01  2.3825317E+01
 1.7738750E+01  2.3839174E+01
 1.7750252E+01  2.3858643E+01
 1.7761751E+01  2.3881048E+01
 1.7773251E+01  2.3881332E+01
 1.7784750E+01  2.3896070E+01
 1.7796251E+01  2.3931211E+01
 1.7807751E+01  2.3945974E+01
 1.7819250E+01  2.3954239E+01
 1.7830751E+01  2.3968277E+01
 1.7842251E+01  2.3978495E+01
 1.7853750E+01  2.3973881E+01
 1.7865252E+01  2.3945808E+01
 1.7876751E+01  2.3919468E+01
 1.7888250E+01  2.3859133E+01
 1.7899752E+01  2.3837675E+01
 1.7911251E+01  2.3842682E+01
 1.7922750E+01  2.3914946E+01
 1.7934252E+01  2.3921122E+01
 1.7945751E+01  2.3938896E+01
 1.7957251E+01  2.3949278E+01
 1.7968750E+01  2.3985685E+01
 1.7980251E+01  2.4083582E+01
 1.7991751E+01  2.4144674E+01
 1.8003250E+01  2.4243769E+01
 1.8014751E+01  2.4365629E+01
 1.8026251E+01  2.4487574E+01
 1.8037750E+01  2.4808950E+01
 1.8049252E+01  2.5029236E+01
 1.8060751E+01  2.5508526E+01
 1.8072250E+01  2.5745173E+01
 1.8083752E+01  2.6172106E+01
 1.8095251E+01  2.6362812E+01
 1.8106750E+01  2.6524746E+01
 1.8118252E+01  2.6476440E+01
 1.8129751E+01  2.6367674E+01
 1.8141251E+01  2.6056614E+01
 1.8152750E+01  2.5621208E+01
 1.8164251E+01  2.5067085E+01
 1.8175751E+01  2.4616310E+01
 1.8187250E+01  2.4237709E+01
 1.8198751E+01  2.3986618E+01
 1.8210251E+01  2.3884859E+01
 1.8221750E+01  2.3817381E+01
 1.8233252E+01  2.3740074E+01
 1.8244751E+01  2.3692360E+01
 1.8256250E+01  2.3684093E+01
 1.8267752E+01  2.3701599E+01
 1.8279251E+01  2.3684870E+01
 1.8290751E+01  2.3648287E+01
 1.8302252E+01  2.3649805E+01
 1.8313751E+01  2.3648018E+01
 1.8325251E+01  2.3669630E+01
 1.8336750E+01  2.3704056E+01
 1.8348251E+01  2.3728914E+01
 1.8359751E+01  2.3705135E+01
 1.8371250E+01  2.3674698E+01
 1.8382751E+01  2.3634113E+01
 1.8394251E+01  2.3610815E+01
 1.8405750E+01  2.3638752E+01
 1.8417252E+01  2.3644848E+01
 1.8428751E+01  2.3681414E+01
 1.8440250E+01  2.3693066E+01
 1.8451752E+01  2.3722672E+01
 1.8463251E+01  2.3680262E+01
 1.8474751E+01  2.3669586E+01
 1.8486252E+01  2.3590565E+01
 1.8497751E+01  2.3589100E+01
 1.8509251E+01  2.3603178E+01
 1.8520750E+01  2.3604921E+01
 1.8532251E+01  2.3593847E+01
 1.8543751E+01  2.3560392E+01
 1.8555250E+01  2.3560970E+01
 1.8566751E+01  2.3545242E+01
 1.8578251E+01  2.3574106E+01
 1.8589750E+01  2.3616129E+01
 1.8601252E+01  2.3622742E+01
 1.8612751E+01  2.3597658E+01
 1.8624250E+01  2.3507696E+01
 1.8635752E+01  2.3479782E+01
 1.8647251E+01  2.3409002E+01
 1.8658751E+01  2.3416611E+01
 1.8670252E+01  2.3433094E+01
 1.8681751E+01  2.3476505E+01
 1.8693251E+01  2.3531233E+01
 1.8704750E+01  2.3527935E+01
 1.8716251E+01  2.3554447E+01
 1.8727751E+01  2.3563723E+01
 1.8739250E+01  2.3565863E+01
 1.8750751E+01  2.3563232E+01
 1.8762251E+01  2.3559732E+01
 1.8773750E+01  2.3563852E+01
 1.8785252E+01  2.3571087E+01
 1.8796751E+01  2.3592535E+01
 1.8808250E+01  2.3605217E+01
 1.8819752E+01  2.3607325E+01
 1.8831251E+01  2.3586061E+01
 1.8842751E+01  2.3554886E+01
 1.8854252E+01  2.3488237E+01
 1.8865751E+01  2.3483944E+01
 1.8877251E+01  2.3504156E+01
 1.8888750E+01  2.3498514E+01
 1.8900251E+01  2.3512037E+01
 1.8911751E+01  2.3532791E+01
 1.8923250E+01  2.3629311E+01
 1.8934752E+01  2.3662560E+01
 1.8946251E+01  2.3739561E+01
 1.8957750E+01  2.3714811E+01
 1.8969252E+01  2.3680511E+01
 1.8980751E+01  2.3560228E+01
 1.8992250E+01  2.3485104E+01
 1.9003752E+01  2.3434946E+01
 1.9015251E+01  2.3486723E+01
 1.9026751E+01  2.3515945E+01
 1.9038252E+01  2.3527439E+01
 1.9049751E+01  2.3511057E+01
 1.9061251E+01  2.3556353E+01
 1.9072750E+01  2.3598392E+01
 1.9084251E+01  2.3636084E+01
 1.9095751E+01  2.3623564E+01
 1.9107250E+01  2.3629036E+01
 1.9118752E+01  2.3606216E+01
 1.9130251E+01  2.3609398E+01
 1.9141750E+01  2.3595266E+01
 1.9153252E+01  2.3604650E+01
 1.9164751E+01  2.3603359E+01
 1.9176250E+01  2.3602818E+01
 1.9187752E+01  2.3611032E+01
 1.9199251E+01  2.3581661E+01
 1.9210751E+01  2.3563087E+01
 1.9222252E+01  2.3551327E+01
 1.9233751E+01  2.3505566E+01
 1.9245251E+01  2.3502298E+01
 1.9256750E+01  2.3481787E+01
 1.9268251E+01  2.3496334E+01
 1.9279751E+01  2.3472176E+01
 1.9291250E+01  2.3484137E+01
 1.9302752E+01  2.3485615E+01
 1.9314251E+01  2.3529242E+01
 1.9325750E+01  2.3538473E+01
 1.9337252E+01  2.3568537E+01
 1.9348751E+01  2.3575377E+01
 1.9360250E+01  2.3605841E+01
 1.9371752E+01  2.3644285E+01
 1.9383251E+01  2.3649412E+01
 1.9394751E+01  2.3738194E+01
 1.9406250E+01  2.3768801E+01
 1.9417751E+01  2.3791883E+01
 1.9429251E+01  2.3719418E+01
 1.9440750E+01  2.3705923E+01
 1.9452251E+01  2.3720903E+01
 1.9463751E+01  2.3736101E+01
 1.9475250E+01  2.3773832E+01
 1.9486752E+01  2.3815689E+01
 1.9498251E+01  2.3864210E+01
 1.9509750E+01  2.3893570E+01
 1.9521252E+01  2.3937571E+01
 1.9532751E+01  2.3980722E+01
 1.9544250E+01  2.3984268E+01
 1.9555752E+01  2.3955400E+01
 1.9567251E+01  2.4012188E+01
 1.9578751E+01  2.4058573E+01
 1.9590250E+01  2.4076090E+01
 1.9601751E+01  2.4123240E+01
 1.9613251E+01  2.4288486E+01
 1.9624750E+01  2.4604975E+01
 1.9636251E+01  2.5078815E+01
 1.9647751E+01  2.5924799E+01
 1.9659250E+01  2.6962866E+01
 1.9670752E+01  2.8331625E+01
 1.9682251E+01  2.9279163E+01
 1.9693750E+01  2.9823256E+01
 1.9705252E+01  2.9779951E+01
 1.9716751E+01  2.9344330E+01
 1.9728251E+01  2.8811968E+01
 1.9739752E+01  2.8168161E+01
 1.9751251E+01  2.7596601E+01
 1.9762751E+01  2.7113552E+01
 1.9774250E+01  2.6807253E+01
 1.9785751E+01  2.6896317E+01
 1.9797251E+01  2.7412994E+01
 1.9808750E+01  2.8562084E+01
 1.9820251E+01  3.0001614E+01
 1.9831751E+01  3.1650547E+01
 1.9843250E+01  3.3349529E+01
 1.9854752E+01  3.3964161E+01
 1.9866251E+01  3.4555611E+01
 1.9877750E+01  3.3557384E+01
 1.9889252E+01  3.2426365E+01
 1.9900751E+01  3.0555973E+01
 1.9912251E+01  2.8806625E+01
 1.9923752E+01  2.7268711E+01
 1.9935251E+01  2.6000229E+01
 1.9946751E+01  2.5256931E+01
 1.9958250E+01  2.4723679E+01
 1.9969751E+01  2.4501982E+01
 1.9981251E+01  2.4348112E+01
 1.9992750E+01  2.4273132E+01
 2.0004251E+01  2.4156347E+01
 2.0015751E+01  2.4079878E+01
 2.0027250E+01  2.4026196E+01
 2.0038752E+01  2.4032530E+01
 2.0050251E+01  2.4063936E+01
 2.0061750E+01  2.4023815E+01
 2.0073252E+01  2.3974113E+01
 2.0084751E+01  2.3863905E+01
 2.0096251E+01  2.3859814E+01
 2.0107752E+01  2.3834871E+01
 2.0119251E+01  2.3849613E+01
 2.0130751E+01  2.3830362E+01
 2.0142250E+01  2.3805452E+01
 2.0153751E+01  2.3783974E+01
 2.0165251E+01  2.3766506E+01
 2.0176750E+01  2.3808846E+01
 2.0188251E+01  2.3836178E+01
 2.0199751E+01  2.3836647E+01
 2.0211250E+01  2.3815050E+01
 2.0222752E+01  2.3796967E+01
 2.0234251E+01  2.3781841E+01
 2.0245750E+01  2.3786055E+01
 2.0257252E+01  2.3773920E+01
 2.0268751E+01  2.3782623E+01
 2.0280251E+01  2.3836304E+01
 2.0291752E+01  2.3921871E+01
 2.0303251E+01  2.3899920E+01
 2.0314751E+01  2.3896196E+01
 2.0326250E+01  2.3872856E+01
 2.0337751E+01  2.3900846E+01
 2.0349251E+01  2.3875540E+01
 2.0360750E+01  2.3898500E+01
 2.0372252E+01  2.3851616E+01
 2.0383751E+01  2.3842703E+01
 2.0395250E+01  2.3862566E+01
 2.0406752E+01  2.3875017E+01
 2.0418251E+01  2.3881777E+01
 2.0429750E+01  2.3845137E+01
 2.0441252E+01  2.3858343E+01
 2.0452751E+01  2.3832325E+01
 2.0464251E+01  2.3797169E+01
 2.0475752E+01  2.3835764E+01
 2.0487251E+01  2.3859348E+01
 2.0498751E+01  2.3951233E+01
 2.0510250E+01  2.3897768E+01
 2.0521751E+01  2.3880804E+01
 2.0533251E+01  2.3818748E+01
 2.0544750E+01  2.3842152E+01
 2.0556252E+01  2.3871464E+01
 2.0567751E+01  2.3965252E+01
 2.0579250E+01  2.3982450E+01
 2.0590752E+01  2.4025974E+01
 2.0602251E+01  2.4029791E+01
 2.0613750E+01  2.4090992E+01
 2.0625252E+01  2.4141457E+01
 2.0636751E+01  2.4185923E+01
 2.0648251E+01  2.4217503E+01
 2.0659752E+01  2.4272318E+01
 2.0671251E+01  2.4347118E+01
 2.0682751E+01  2.4512835E+01
 2.0694250E+01  2.4828503E+01
 2.0705751E+01  2.5275488E+01
 2.0717251E+01  2.5913141E+01
 2.0728750E+01  2.6755384E+01
 2.0740252E+01  2.7853222E+01
 2.0751751E+01  2.8864639E+01
 2.0763250E+01  2.9553518E+01
 2.0774752E+01  2.9419685E+01
 2.0786251E+01  2.8806997E+01
 2.0797750E+01  2.7843004E+01
 2.0809252E+01  2.6728333E+01
 2.0820751E+01  2.5813940E+01
 2.0832251E+01  2.5100805E+01
 2.0843752E+01  2.4762268E+01
 2.0855251E+01  2.4528790E+01
 2.0866751E+01  2.4424362E+01
 2.0878250E+01  2.4303898E+01
 2.0889751E+01  2.4248838E+01
 2.0901251E+01  2.4211899E+01
 2.0912750E+01  2.4258471E+01
 2.0924252E+01  2.4248186E+01
 2.0935751E+01  2.4228197E+01
 2.0947250E+01  2.4202084E+01
 2.0958752E+01  2.4146687E+01
 2.0970251E+01  2.4077810E+01
 2.0981750E+01  2.4040831E+01
 2.0993252E+01  2.4019436E+01
 2.1004751E+01  2.4020452E+01
 2.1016251E+01  2.3967190E+01
 2.1027752E+01  2.3950283E+01
 2.1039251E+01  2.3912691E+01
 2.1050751E+01  2.3854502E+01
 2.1062250E+01  2.3808466E+01
 2.1073751E+01  2.3843250E+01
 2.1085251E+01  2.3917515E+01
 2.1096750E+01  2.3933437E+01
 2.1108252E+01  2.3978910E+01
 2.1119751E+01  2.4021673E+01
 2.1131250E+01  2.4037889E+01
 2.1142752E+01  2.3957319E+01
 2.1154251E+01  2.3879148E+01
 2.1165751E+01  2.3822779E+01
 2.1177252E+01  2.3861547E+01
 2.1188751E+01  2.3921268E+01
 2.1200251E+01  2.3981447E+01
 2.1211752E+01  2.4001913E+01
 2.1223251E+01  2.3966522E+01
 2.1234751E+01  2.3987206E+01
 2.1246250E+01  2.4023409E+01
 2.1257751E+01  2.4047131E+01
 2.1269251E+01  2.4034832E+01
 2.1280750E+01  2.4034454E+01
 2.1292252E+01  2.4016682E+01
 2.1303751E+01  2.4003059E+01
 2.1315250E+01  2.3980234E+01
 2.1326752E+01  2.3951990E+01
 2.1338251E+01  2.3936460E+01
 2.1349751E+01  2.3928953E+01
 2.1361252E+01  2.3958849E+01
 2.1372751E+01  2.3967505E+01
 2.1384251E+01  2.3995783E+01
 2.1395752E+01  2.4026831E+01
 2.1407251E+01  2.4026426E+01
 2.1418751E+01  2.4025841E+01
 2.1430250E+01  2.3989237E+01
 2.1441751E+01  2.3954247E+01
 2.1453251E+01  2.3959576E+01
 2.1464750E+01  2.3990799E+01
 2.1476252E+01  2.3984619E+01
 2.1487751E+01  2.4035624E+01
 2.1499250E+01  2.4054224E+01
 2.1510752E+01  2.4117096E+01
 2.1522251E+01  2.4099352E+01
 2.1533751E+01  2.4123329E+01
 2.1545252E+01  2.4079794E+01
 2.1556751E+01  2.4037558E+01
 2.1568251E+01  2.4010859E+01
 2.1579752E+01  2.4042212E+01
 2.1591251E+01  2.4079952E+01
 2.1602751E+01  2.4127684E+01
 2.1614250E+01  2.4165268E+01
 2.1625751E+01  2.4184822E+01
 2.1637251E+01  2.4199352E+01
 2.1648750E+01  2.4197544E+01
 2.1660252E+01  2.4200550E+01
 2.1671751E+01  2.4162146E+01
 2.1683250E+01  2.4192183E+01
 2.1694752E+01  2.4248611E+01
 2.1706251E+01  2.4369772E+01
 2.1717751E+01  2.4369829E+01
 2.1729252E+01  2.4310064E+01
 2.1740751E+01  2.4229910E+01
 2.1752251E+01  2.4187885E+01
 2.1763752E+01  2.4154537E+01
 2.1775251E+01  2.4139500E+01
 2.1786751E+01  2.4201372E+01
 2.1798250E+01  2.4236713E+01
 2.1809752E+01  2.4246408E+01
 2.1821251E+01  2.4303360E+01
 2.1832750E+01  2.4306141E+01
 2.1844252E+01  2.4285404E+01
 2.1855751E+01  2.4244993E+01
 2.1867250E+01  2.4278477E+01
 2.1878752E+01  2.4295078E+01
 2.1890251E+01  2.4288229E+01
 2.1901751E+01  2.4297775E+01
 2.1913252E+01  2.4277617E+01
 2.1924751E+01  2.4288567E+01
 2.1936251E+01  2.4304026E+01
 2.1947752E+01  2.4307346E+01
 2.1959251E+01  2.4260118E+01
 2.1970751E+01  2.4235682E+01
 2.1982250E+01  2.4237076E+01
 2.1993752E+01  2.4217140E+01
 2.2005251E+01  2.4189472E+01
 2.2016750E+01  2.4243132E+01
 2.2028252E+01  2.4300703E+01
 2.2039751E+01  2.4345591E+01
 2.2051250E+01  2.4331163E+01
 2.2062752E+01  2.4306398E+01
 2.2074251E+01  2.4262518E+01
 2.2085751E+01  2.4274851E+01
 2.2097252E+01  2.4344116E+01
 2.2108751E+01  2.4354939E+01
 2.2120251E+01  2.4444344E+01
 2.2131752E+01  2.4463362E+01
 2.2143251E+01  2.4492990E+01
 2.2154751E+01  2.4416531E+01
 2.2166250E+01  2.4432125E+01
 2.2177752E+01  2.4397934E+01
 2.2189251E+01  2.4359617E+01
 2.2200750E+01  2.4333275E+01
 2.2212252E+01  2.4340996E+01
 2.2223751E+01  2.4387249E+01
 2.2235250E+01  2.4427944E+01
 2.2246752E+01  2.4497795E+01
 2.2258251E+01  2.4559641E+01
 2.2269751E+01  2.4512606E+01
 2.2281252E+01  2.4493387E+01
 2.2292751E+01  2.4483116E+01
 2.2304251E+01  2.4531750E+01
 2.2315752E+01  2.4526033E+01
 2.2327251E+01  2.4542149E+01
 2.2338751E+01  2.4559618E+01
 2.2350250E+01  2.4617853E+01
 2.2361752E+01  2.4670048E+01
 2.2373251E+01  2.4640800E+01
 2.2384750E+01  2.4596916E+01
 2.2396252E+01  2.4560904E+01
 2.2407751E+01  2.4533014E+01
 2.2419250E+01  2.4537378E+01
 2.2430752E+01  2.4566540E+01
 2.2442251E+01  2.4604101E+01
 2.2453751E+01  2.4649118E+01
 2.2465252E+01  2.4637392E+01
 2.2476751E+01  2.4615473E+01
 2.2488251E+01  2.4661325E+01
 2.2499752E+01  2.4704256E+01
 2.2511251E+01  2.4763165E+01
 2.2522751E+01  2.4786695E+01
 2.2534250E+01  2.4827948E+01
 2.2545752E+01  2.4894739E+01
 2.2557251E+01  2.4912094E+01
 2.2568750E+01  2.4914968E+01
 2.2580252E+01  2.4924078E+01
 2.2591751E+01  2.4969107E+01
 2.2603251E+01  2.5010681E+01
 2.2614752E+01  2.4976242E+01
 2.2626251E+01  2.4964109E+01
 2.2637751E+01  2.4967670E+01
 2.2649252E+01  2.5033123E+01
 2.2660751E+01  2.5038494E+01
 2.2672251E+01  2.5069023E+01
 2.2683752E+01  2.5078974E+01
 2.2695251E+01  2.5143721E+01
 2.2706751E+01  2.5173922E+01
 2.2718250E+01  2.5190374E+01
 2.2729752E+01  2.5219681E+01
 2.2741251E+01  2.5240936E+01
 2.2752750E+01  2.5302248E+01
 2.2764252E+01  2.5335533E+01
 2.2775751E+01  2.5379354E+01
 2.2787251E+01  2.5331245E+01
 2.2798752E+01  2.5315010E+01
 2.2810251E+01  2.5321156E+01
 2.2821751E+01  2.5370558E+01
 2.2833252E+01  2.5419630E+01
 2.2844751E+01  2.5463058E+01
 2.2856251E+01  2.5435335E+01
 2.2867750E+01  2.5494099E+01
 2.2879251E+01  2.5554369E+01
 2.2890751E+01  2.5710602E+01
 2.2902250E+01  2.5803431E+01
 2.2913752E+01  2.5962738E+01
 2.2925251E+01  2.6050632E+01
 2.2936750E+01  2.6140406E+01
 2.2948252E+01  2.6174997E+01
 2.2959751E+01  2.6205511E+01
 2.2971251E+01  2.6237926E+01
 2.2982752E+01  2.6328548E+01
 2.2994251E+01  2.6404528E+01
