F:\20151113_APS_34IDE\\Brian\Particle1\OCV\Data_0035.tif
2-Theta Angle (Degrees)
Intensity
       2000
 5.7500005E-03  0.0000000E+00
 1.7250001E-02  0.0000000E+00
 2.8750001E-02  0.0000000E+00
 4.0250003E-02  0.0000000E+00
 5.1750004E-02  0.0000000E+00
 6.3250005E-02  0.0000000E+00
 7.4750006E-02  0.0000000E+00
 8.6250007E-02  0.0000000E+00
 9.7750008E-02  0.0000000E+00
 1.0925001E-01  0.0000000E+00
 1.2075000E-01  0.0000000E+00
 1.3225001E-01  0.0000000E+00
 1.4375001E-01  0.0000000E+00
 1.5525001E-01  0.0000000E+00
 1.6675001E-01  0.0000000E+00
 1.7825001E-01  0.0000000E+00
 1.8975002E-01  0.0000000E+00
 2.0125002E-01  0.0000000E+00
 2.1275002E-01  0.0000000E+00
 2.2425000E-01  0.0000000E+00
 2.3575000E-01  0.0000000E+00
 2.4725001E-01  0.0000000E+00
 2.5875002E-01  0.0000000E+00
 2.7025002E-01  0.0000000E+00
 2.8175002E-01  0.0000000E+00
 2.9325002E-01  0.0000000E+00
 3.0475003E-01  0.0000000E+00
 3.1625003E-01  0.0000000E+00
 3.2775003E-01  0.0000000E+00
 3.3925003E-01  0.0000000E+00
 3.5075003E-01  0.0000000E+00
 3.6225003E-01  0.0000000E+00
 3.7375003E-01  0.0000000E+00
 3.8525003E-01  0.0000000E+00
 3.9675003E-01  0.0000000E+00
 4.0825003E-01  0.0000000E+00
 4.1975003E-01  0.0000000E+00
 4.3125004E-01  0.0000000E+00
 4.4275001E-01  0.0000000E+00
 4.5425001E-01  0.0000000E+00
 4.6575001E-01  0.0000000E+00
 4.7725001E-01  0.0000000E+00
 4.8875001E-01  0.0000000E+00
 5.0025004E-01  0.0000000E+00
 5.1175004E-01  0.0000000E+00
 5.2325004E-01  0.0000000E+00
 5.3475004E-01  0.0000000E+00
 5.4625005E-01  0.0000000E+00
 5.5775005E-01  0.0000000E+00
 5.6925005E-01  0.0000000E+00
 5.8075005E-01  0.0000000E+00
 5.9225005E-01  0.0000000E+00
 6.0375005E-01  0.0000000E+00
 6.1525005E-01  0.0000000E+00
 6.2675005E-01  0.0000000E+00
 6.3825005E-01  0.0000000E+00
 6.4975005E-01  0.0000000E+00
 6.6125005E-01  0.0000000E+00
 6.7275006E-01  0.0000000E+00
 6.8425006E-01  0.0000000E+00
 6.9575006E-01  0.0000000E+00
 7.0725006E-01  0.0000000E+00
 7.1875006E-01  0.0000000E+00
 7.3025006E-01  0.0000000E+00
 7.4175006E-01  0.0000000E+00
 7.5325006E-01  0.0000000E+00
 7.6475006E-01  0.0000000E+00
 7.7625006E-01  0.0000000E+00
 7.8775007E-01  0.0000000E+00
 7.9925007E-01  0.0000000E+00
 8.1075007E-01  0.0000000E+00
 8.2225007E-01  0.0000000E+00
 8.3375007E-01  0.0000000E+00
 8.4525007E-01  0.0000000E+00
 8.5675007E-01  0.0000000E+00
 8.6825007E-01  0.0000000E+00
 8.7975001E-01  0.0000000E+00
 8.9125001E-01  0.0000000E+00
 9.0275002E-01  0.0000000E+00
 9.1425002E-01  0.0000000E+00
 9.2575002E-01  0.0000000E+00
 9.3725002E-01  0.0000000E+00
 9.4875002E-01  0.0000000E+00
 9.6025002E-01  0.0000000E+00
 9.7175002E-01  0.0000000E+00
 9.8325002E-01  0.0000000E+00
 9.9475002E-01  0.0000000E+00
 1.0062500E+00  0.0000000E+00
 1.0177500E+00  0.0000000E+00
 1.0292500E+00  0.0000000E+00
 1.0407500E+00  0.0000000E+00
 1.0522500E+00  0.0000000E+00
 1.0637500E+00  0.0000000E+00
 1.0752500E+00  0.0000000E+00
 1.0867500E+00  0.0000000E+00
 1.0982500E+00  0.0000000E+00
 1.1097500E+00  0.0000000E+00
 1.1212500E+00  0.0000000E+00
 1.1327500E+00  0.0000000E+00
 1.1442500E+00  0.0000000E+00
 1.1557500E+00  0.0000000E+00
 1.1672500E+00  0.0000000E+00
 1.1787500E+00  0.0000000E+00
 1.1902500E+00  0.0000000E+00
 1.2017500E+00  0.0000000E+00
 1.2132500E+00  0.0000000E+00
 1.2247500E+00  0.0000000E+00
 1.2362500E+00  0.0000000E+00
 1.2477500E+00  0.0000000E+00
 1.2592500E+00  0.0000000E+00
 1.2707500E+00  0.0000000E+00
 1.2822500E+00  0.0000000E+00
 1.2937500E+00  0.0000000E+00
 1.3052500E+00  0.0000000E+00
 1.3167500E+00  0.0000000E+00
 1.3282501E+00  0.0000000E+00
 1.3397501E+00  0.0000000E+00
 1.3512501E+00  0.0000000E+00
 1.3627501E+00  0.0000000E+00
 1.3742501E+00  0.0000000E+00
 1.3857501E+00  0.0000000E+00
 1.3972501E+00  0.0000000E+00
 1.4087501E+00  0.0000000E+00
 1.4202501E+00  0.0000000E+00
 1.4317501E+00  0.0000000E+00
 1.4432501E+00  0.0000000E+00
 1.4547501E+00  0.0000000E+00
 1.4662501E+00  0.0000000E+00
 1.4777501E+00  0.0000000E+00
 1.4892501E+00  0.0000000E+00
 1.5007501E+00  0.0000000E+00
 1.5122501E+00  0.0000000E+00
 1.5237501E+00  0.0000000E+00
 1.5352501E+00  0.0000000E+00
 1.5467501E+00  0.0000000E+00
 1.5582501E+00  0.0000000E+00
 1.5697501E+00  0.0000000E+00
 1.5812501E+00  0.0000000E+00
 1.5927501E+00  0.0000000E+00
 1.6042501E+00  0.0000000E+00
 1.6157501E+00  0.0000000E+00
 1.6272501E+00  0.0000000E+00
 1.6387501E+00  0.0000000E+00
 1.6502501E+00  0.0000000E+00
 1.6617501E+00  0.0000000E+00
 1.6732501E+00  0.0000000E+00
 1.6847501E+00  0.0000000E+00
 1.6962501E+00  0.0000000E+00
 1.7077501E+00  0.0000000E+00
 1.7192501E+00  0.0000000E+00
 1.7307501E+00  0.0000000E+00
 1.7422501E+00  0.0000000E+00
 1.7537501E+00  0.0000000E+00
 1.7652501E+00  0.0000000E+00
 1.7767501E+00  0.0000000E+00
 1.7882501E+00  0.0000000E+00
 1.7997501E+00  0.0000000E+00
 1.8112501E+00  0.0000000E+00
 1.8227501E+00  0.0000000E+00
 1.8342501E+00  0.0000000E+00
 1.8457501E+00  0.0000000E+00
 1.8572501E+00  0.0000000E+00
 1.8687501E+00  0.0000000E+00
 1.8802501E+00  0.0000000E+00
 1.8917501E+00  0.0000000E+00
 1.9032501E+00  0.0000000E+00
 1.9147501E+00  0.0000000E+00
 1.9262501E+00  0.0000000E+00
 1.9377501E+00  0.0000000E+00
 1.9492501E+00  0.0000000E+00
 1.9607501E+00  0.0000000E+00
 1.9722501E+00  0.0000000E+00
 1.9837501E+00  0.0000000E+00
 1.9952501E+00  0.0000000E+00
 2.0067501E+00  0.0000000E+00
 2.0182500E+00  0.0000000E+00
 2.0297501E+00  0.0000000E+00
 2.0412500E+00  0.0000000E+00
 2.0527501E+00  0.0000000E+00
 2.0642500E+00  0.0000000E+00
 2.0757501E+00  0.0000000E+00
 2.0872500E+00  0.0000000E+00
 2.0987501E+00  0.0000000E+00
 2.1102500E+00  0.0000000E+00
 2.1217501E+00  0.0000000E+00
 2.1332500E+00  0.0000000E+00
 2.1447501E+00  0.0000000E+00
 2.1562500E+00  0.0000000E+00
 2.1677501E+00  0.0000000E+00
 2.1792500E+00  0.0000000E+00
 2.1907501E+00  0.0000000E+00
 2.2022500E+00  0.0000000E+00
 2.2137501E+00  0.0000000E+00
 2.2252500E+00  0.0000000E+00
 2.2367501E+00  0.0000000E+00
 2.2482500E+00  0.0000000E+00
 2.2597501E+00  0.0000000E+00
 2.2712500E+00  0.0000000E+00
 2.2827501E+00  0.0000000E+00
 2.2942500E+00  0.0000000E+00
 2.3057501E+00  0.0000000E+00
 2.3172500E+00  0.0000000E+00
 2.3287501E+00  0.0000000E+00
 2.3402500E+00  0.0000000E+00
 2.3517501E+00  0.0000000E+00
 2.3632500E+00  0.0000000E+00
 2.3747501E+00  0.0000000E+00
 2.3862500E+00  0.0000000E+00
 2.3977501E+00  0.0000000E+00
 2.4092500E+00  0.0000000E+00
 2.4207501E+00  0.0000000E+00
 2.4322500E+00  0.0000000E+00
 2.4437501E+00  0.0000000E+00
 2.4552500E+00  0.0000000E+00
 2.4667501E+00  0.0000000E+00
 2.4782500E+00  0.0000000E+00
 2.4897501E+00  0.0000000E+00
 2.5012500E+00  0.0000000E+00
 2.5127501E+00  0.0000000E+00
 2.5242500E+00  0.0000000E+00
 2.5357502E+00  0.0000000E+00
 2.5472500E+00  0.0000000E+00
 2.5587502E+00  0.0000000E+00
 2.5702500E+00  0.0000000E+00
 2.5817502E+00  0.0000000E+00
 2.5932500E+00  0.0000000E+00
 2.6047502E+00  0.0000000E+00
 2.6162500E+00  0.0000000E+00
 2.6277502E+00  0.0000000E+00
 2.6392500E+00  0.0000000E+00
 2.6507502E+00  0.0000000E+00
 2.6622500E+00  0.0000000E+00
 2.6737502E+00  0.0000000E+00
 2.6852500E+00  0.0000000E+00
 2.6967502E+00  0.0000000E+00
 2.7082500E+00  0.0000000E+00
 2.7197502E+00  0.0000000E+00
 2.7312500E+00  0.0000000E+00
 2.7427502E+00  0.0000000E+00
 2.7542500E+00  0.0000000E+00
 2.7657502E+00  0.0000000E+00
 2.7772501E+00  0.0000000E+00
 2.7887502E+00  0.0000000E+00
 2.8002501E+00  0.0000000E+00
 2.8117502E+00  0.0000000E+00
 2.8232501E+00  3.5140778E+01
 2.8347502E+00  3.5167320E+01
 2.8462501E+00  3.5418697E+01
 2.8577502E+00  3.5494678E+01
 2.8692501E+00  3.5321404E+01
 2.8807502E+00  3.5506664E+01
 2.8922501E+00  3.5253288E+01
 2.9037502E+00  3.5358887E+01
 2.9152501E+00  3.4957211E+01
 2.9267502E+00  3.5001038E+01
 2.9382501E+00  3.5604397E+01
 2.9497502E+00  3.5937641E+01
 2.9612501E+00  3.5626713E+01
 2.9727502E+00  3.4762012E+01
 2.9842501E+00  3.4571011E+01
 2.9957502E+00  3.4620636E+01
 3.0072501E+00  3.4996845E+01
 3.0187502E+00  3.5080170E+01
 3.0302501E+00  3.5052753E+01
 3.0417502E+00  3.4821934E+01
 3.0532501E+00  3.4314182E+01
 3.0647502E+00  3.4479671E+01
 3.0762501E+00  3.4591053E+01
 3.0877502E+00  3.4872391E+01
 3.0992501E+00  3.4931545E+01
 3.1107502E+00  3.4810844E+01
 3.1222501E+00  3.5179165E+01
 3.1337502E+00  3.5571293E+01
 3.1452501E+00  3.5974056E+01
 3.1567502E+00  3.6156914E+01
 3.1682501E+00  3.6149929E+01
 3.1797502E+00  3.6151989E+01
 3.1912501E+00  3.5854950E+01
 3.2027502E+00  3.5433155E+01
 3.2142501E+00  3.5089008E+01
 3.2257502E+00  3.5142765E+01
 3.2372501E+00  3.5307186E+01
 3.2487502E+00  3.5044804E+01
 3.2602501E+00  3.4848896E+01
 3.2717502E+00  3.4583450E+01
 3.2832501E+00  3.4444832E+01
 3.2947502E+00  3.4493874E+01
 3.3062501E+00  3.4490852E+01
 3.3177502E+00  3.4832520E+01
 3.3292501E+00  3.4808872E+01
 3.3407502E+00  3.4889133E+01
 3.3522501E+00  3.4820778E+01
 3.3637502E+00  3.4545097E+01
 3.3752501E+00  3.4260307E+01
 3.3867502E+00  3.4043621E+01
 3.3982501E+00  3.4068596E+01
 3.4097502E+00  3.3909767E+01
 3.4212501E+00  3.3965523E+01
 3.4327502E+00  3.3924198E+01
 3.4442501E+00  3.4065754E+01
 3.4557502E+00  3.4275082E+01
 3.4672501E+00  3.4583027E+01
 3.4787502E+00  3.4855118E+01
 3.4902501E+00  3.4893082E+01
 3.5017502E+00  3.4686447E+01
 3.5132501E+00  3.4453785E+01
 3.5247502E+00  3.4167248E+01
 3.5362501E+00  3.4148884E+01
 3.5477502E+00  3.4207439E+01
 3.5592501E+00  3.4044685E+01
 3.5707502E+00  3.3969864E+01
 3.5822501E+00  3.3715832E+01
 3.5937502E+00  3.3685371E+01
 3.6052501E+00  3.3444447E+01
 3.6167502E+00  3.3373920E+01
 3.6282501E+00  3.3194504E+01
 3.6397502E+00  3.3042137E+01
 3.6512501E+00  3.2896267E+01
 3.6627502E+00  3.3056038E+01
 3.6742501E+00  3.2934727E+01
 3.6857502E+00  3.2898022E+01
 3.6972501E+00  3.2760906E+01
 3.7087502E+00  3.2776825E+01
 3.7202501E+00  3.2724792E+01
 3.7317502E+00  3.2875156E+01
 3.7432501E+00  3.2964725E+01
 3.7547503E+00  3.3170250E+01
 3.7662501E+00  3.3048416E+01
 3.7777503E+00  3.3004524E+01
 3.7892501E+00  3.2837177E+01
 3.8007503E+00  3.2818058E+01
 3.8122501E+00  3.2915184E+01
 3.8237503E+00  3.2913727E+01
 3.8352501E+00  3.3058876E+01
 3.8467503E+00  3.3103687E+01
 3.8582501E+00  3.3247860E+01
 3.8697503E+00  3.3190239E+01
 3.8812501E+00  3.3140427E+01
 3.8927503E+00  3.3032360E+01
 3.9042501E+00  3.2909107E+01
 3.9157503E+00  3.2627991E+01
 3.9272501E+00  3.2447105E+01
 3.9387503E+00  3.2529327E+01
 3.9502501E+00  3.2655830E+01
 3.9617503E+00  3.2831467E+01
 3.9732502E+00  3.2969479E+01
 3.9847503E+00  3.2958782E+01
 3.9962502E+00  3.2935276E+01
 4.0077500E+00  3.2616962E+01
 4.0192504E+00  3.2524887E+01
 4.0307503E+00  3.2405453E+01
 4.0422502E+00  3.2526402E+01
 4.0537500E+00  3.2404659E+01
 4.0652504E+00  3.2284283E+01
 4.0767503E+00  3.2158237E+01
 4.0882502E+00  3.2068001E+01
 4.0997500E+00  3.2071545E+01
 4.1112504E+00  3.2017967E+01
 4.1227503E+00  3.1971607E+01
 4.1342502E+00  3.1979053E+01
 4.1457500E+00  3.1963867E+01
 4.1572504E+00  3.2008869E+01
 4.1687503E+00  3.2050652E+01
 4.1802502E+00  3.2032604E+01
 4.1917500E+00  3.2084728E+01
 4.2032504E+00  3.2216843E+01
 4.2147503E+00  3.2246624E+01
 4.2262502E+00  3.2366222E+01
 4.2377501E+00  3.2370605E+01
 4.2492504E+00  3.2340412E+01
 4.2607503E+00  3.2495300E+01
 4.2722502E+00  3.2370022E+01
 4.2837501E+00  3.2433128E+01
 4.2952504E+00  3.2233620E+01
 4.3067503E+00  3.2143745E+01
 4.3182502E+00  3.2176319E+01
 4.3297501E+00  3.2128178E+01
 4.3412504E+00  3.2226765E+01
 4.3527503E+00  3.2287029E+01
 4.3642502E+00  3.2443314E+01
 4.3757501E+00  3.2523407E+01
 4.3872504E+00  3.2535141E+01
 4.3987503E+00  3.2506660E+01
 4.4102502E+00  3.2594170E+01
 4.4217501E+00  3.2733360E+01
 4.4332504E+00  3.2782589E+01
 4.4447503E+00  3.2600872E+01
 4.4562502E+00  3.2507950E+01
 4.4677501E+00  3.2442871E+01
 4.4792504E+00  3.2387566E+01
 4.4907503E+00  3.2326836E+01
 4.5022502E+00  3.2371292E+01
 4.5137501E+00  3.2485474E+01
 4.5252504E+00  3.2712803E+01
 4.5367503E+00  3.2790077E+01
 4.5482502E+00  3.2924366E+01
 4.5597501E+00  3.2788002E+01
 4.5712504E+00  3.2745567E+01
 4.5827503E+00  3.2635658E+01
 4.5942502E+00  3.2636414E+01
 4.6057501E+00  3.2526855E+01
 4.6172504E+00  3.2484852E+01
 4.6287503E+00  3.2460629E+01
 4.6402502E+00  3.2535835E+01
 4.6517501E+00  3.2736843E+01
 4.6632504E+00  3.2716789E+01
 4.6747503E+00  3.2807529E+01
 4.6862502E+00  3.2804401E+01
 4.6977501E+00  3.2931530E+01
 4.7092505E+00  3.2904274E+01
 4.7207503E+00  3.2870922E+01
 4.7322502E+00  3.2830936E+01
 4.7437501E+00  3.2842205E+01
 4.7552505E+00  3.2686661E+01
 4.7667503E+00  3.2548187E+01
 4.7782502E+00  3.2473503E+01
 4.7897501E+00  3.2520565E+01
 4.8012505E+00  3.2511215E+01
 4.8127503E+00  3.2651203E+01
 4.8242502E+00  3.2672680E+01
 4.8357501E+00  3.2760178E+01
 4.8472505E+00  3.2771954E+01
 4.8587503E+00  3.3016014E+01
 4.8702502E+00  3.3201363E+01
 4.8817501E+00  3.3356853E+01
 4.8932505E+00  3.3313366E+01
 4.9047503E+00  3.3280018E+01
 4.9162502E+00  3.3169453E+01
 4.9277501E+00  3.3113956E+01
 4.9392505E+00  3.3151463E+01
 4.9507504E+00  3.3160568E+01
 4.9622502E+00  3.3184639E+01
 4.9737501E+00  3.3160259E+01
 4.9852505E+00  3.3091888E+01
 4.9967504E+00  3.3039677E+01
 5.0082502E+00  3.3073460E+01
 5.0197501E+00  3.3114796E+01
 5.0312505E+00  3.3274200E+01
 5.0427504E+00  3.3287628E+01
 5.0542502E+00  3.3379684E+01
 5.0657501E+00  3.3405121E+01
 5.0772505E+00  3.3470291E+01
 5.0887504E+00  3.3613735E+01
 5.1002502E+00  3.3690971E+01
 5.1117501E+00  3.3802162E+01
 5.1232505E+00  3.3745750E+01
 5.1347504E+00  3.3726059E+01
 5.1462502E+00  3.3730103E+01
 5.1577501E+00  3.3760296E+01
 5.1692505E+00  3.3846397E+01
 5.1807504E+00  3.3916782E+01
 5.1922503E+00  3.4073750E+01
 5.2037501E+00  3.4150196E+01
 5.2152505E+00  3.4119125E+01
 5.2267504E+00  3.4077362E+01
 5.2382503E+00  3.4020908E+01
 5.2497501E+00  3.3996643E+01
 5.2612505E+00  3.3959763E+01
 5.2727504E+00  3.3865265E+01
 5.2842503E+00  3.3880676E+01
 5.2957501E+00  3.4055611E+01
 5.3072500E+00  3.4045219E+01
 5.3187504E+00  3.4141750E+01
 5.3302503E+00  3.4140697E+01
 5.3417501E+00  3.4279728E+01
 5.3532500E+00  3.4288311E+01
 5.3647504E+00  3.4307343E+01
 5.3762503E+00  3.4342869E+01
 5.3877501E+00  3.4398132E+01
 5.3992500E+00  3.4487812E+01
 5.4107504E+00  3.4549023E+01
 5.4222503E+00  3.4646782E+01
 5.4337502E+00  3.4594242E+01
 5.4452500E+00  3.4707676E+01
 5.4567504E+00  3.4778839E+01
 5.4682503E+00  3.4831371E+01
 5.4797502E+00  3.4879765E+01
 5.4912500E+00  3.4835270E+01
 5.5027504E+00  3.4852028E+01
 5.5142503E+00  3.4877415E+01
 5.5257502E+00  3.4866753E+01
 5.5372500E+00  3.4960850E+01
 5.5487504E+00  3.4985954E+01
 5.5602503E+00  3.5106102E+01
 5.5717502E+00  3.5208992E+01
 5.5832500E+00  3.5261097E+01
 5.5947504E+00  3.5296276E+01
 5.6062503E+00  3.5386677E+01
 5.6177502E+00  3.5489922E+01
 5.6292500E+00  3.5536484E+01
 5.6407504E+00  3.5570107E+01
 5.6522503E+00  3.5447208E+01
 5.6637502E+00  3.5493374E+01
 5.6752501E+00  3.5511425E+01
 5.6867504E+00  3.5620979E+01
 5.6982503E+00  3.5689301E+01
 5.7097502E+00  3.5686325E+01
 5.7212501E+00  3.5741859E+01
 5.7327504E+00  3.5738083E+01
 5.7442503E+00  3.5777256E+01
 5.7557502E+00  3.5722095E+01
 5.7672501E+00  3.5681988E+01
 5.7787504E+00  3.5700214E+01
 5.7902503E+00  3.5819534E+01
 5.8017502E+00  3.5895550E+01
 5.8132501E+00  3.6025841E+01
 5.8247504E+00  3.6063709E+01
 5.8362503E+00  3.6239902E+01
 5.8477502E+00  3.6375408E+01
 5.8592501E+00  3.6506836E+01
 5.8707504E+00  3.6748421E+01
 5.8822503E+00  3.7057552E+01
 5.8937502E+00  3.7517567E+01
 5.9052501E+00  3.8348896E+01
 5.9167504E+00  3.9477001E+01
 5.9282503E+00  4.1187477E+01
 5.9397502E+00  4.6143993E+01
 5.9512501E+00  4.9735214E+01
 5.9627504E+00  5.3412647E+01
 5.9742503E+00  6.0069092E+01
 5.9857502E+00  5.9988552E+01
 5.9972501E+00  5.9425037E+01
 6.0087504E+00  5.5370602E+01
 6.0202503E+00  5.0843754E+01
 6.0317502E+00  4.7859615E+01
 6.0432501E+00  4.2060669E+01
 6.0547504E+00  4.0784935E+01
 6.0662503E+00  3.9836391E+01
 6.0777502E+00  3.8060440E+01
 6.0892501E+00  3.7905216E+01
 6.1007504E+00  3.7646881E+01
 6.1122503E+00  3.7571568E+01
 6.1237502E+00  3.7532192E+01
 6.1352501E+00  3.7470097E+01
 6.1467505E+00  3.7307629E+01
 6.1582503E+00  3.7310680E+01
 6.1697502E+00  3.7148159E+01
 6.1812501E+00  3.7200077E+01
 6.1927505E+00  3.7279640E+01
 6.2042503E+00  3.7266701E+01
 6.2157502E+00  3.7345707E+01
 6.2272501E+00  3.7386932E+01
 6.2387505E+00  3.7463253E+01
 6.2502503E+00  3.7591148E+01
 6.2617502E+00  3.7663670E+01
 6.2732501E+00  3.7735870E+01
 6.2847505E+00  3.7869907E+01
 6.2962503E+00  3.7867062E+01
 6.3077502E+00  3.7989605E+01
 6.3192501E+00  3.7914940E+01
 6.3307505E+00  3.8010025E+01
 6.3422503E+00  3.8113106E+01
 6.3537502E+00  3.8215878E+01
 6.3652501E+00  3.8220100E+01
 6.3767505E+00  3.8181568E+01
 6.3882504E+00  3.8261345E+01
 6.3997502E+00  3.8386913E+01
 6.4112501E+00  3.8571205E+01
 6.4227505E+00  3.8692017E+01
 6.4342504E+00  3.8751442E+01
 6.4457502E+00  3.8876240E+01
 6.4572501E+00  3.8843426E+01
 6.4687505E+00  3.8927769E+01
 6.4802504E+00  3.8927086E+01
 6.4917502E+00  3.9036606E+01
 6.5032501E+00  3.9193787E+01
 6.5147505E+00  3.9298534E+01
 6.5262504E+00  3.9420925E+01
 6.5377502E+00  3.9547188E+01
 6.5492501E+00  3.9722191E+01
 6.5607505E+00  3.9840340E+01
 6.5722504E+00  3.9910381E+01
 6.5837502E+00  3.9862438E+01
 6.5952501E+00  3.9860699E+01
 6.6067505E+00  3.9840729E+01
 6.6182504E+00  3.9870907E+01
 6.6297503E+00  3.9907322E+01
 6.6412501E+00  3.9967396E+01
 6.6527505E+00  4.0014996E+01
 6.6642504E+00  4.0117321E+01
 6.6757503E+00  4.0173820E+01
 6.6872501E+00  4.0276489E+01
 6.6987505E+00  4.0365425E+01
 6.7102504E+00  4.0488586E+01
 6.7217503E+00  4.0597813E+01
 6.7332501E+00  4.0602787E+01
 6.7447505E+00  4.0670189E+01
 6.7562504E+00  4.0797245E+01
 6.7677503E+00  4.0876965E+01
 6.7792501E+00  4.0956470E+01
 6.7907505E+00  4.0984669E+01
 6.8022504E+00  4.1160839E+01
 6.8137503E+00  4.1353973E+01
 6.8252501E+00  4.1474617E+01
 6.8367505E+00  4.1549717E+01
 6.8482504E+00  4.1590954E+01
 6.8597503E+00  4.1652710E+01
 6.8712502E+00  4.1769241E+01
 6.8827505E+00  4.1779255E+01
 6.8942504E+00  4.1899876E+01
 6.9057503E+00  4.1925327E+01
 6.9172502E+00  4.2131912E+01
 6.9287505E+00  4.2148308E+01
 6.9402504E+00  4.2283981E+01
 6.9517503E+00  4.2192490E+01
 6.9632502E+00  4.2300823E+01
 6.9747505E+00  4.2287430E+01
 6.9862504E+00  4.2366245E+01
 6.9977503E+00  4.2275597E+01
 7.0092502E+00  4.2331818E+01
 7.0207505E+00  4.2299393E+01
 7.0322504E+00  4.2433754E+01
 7.0437503E+00  4.2465393E+01
 7.0552502E+00  4.2579048E+01
 7.0667505E+00  4.2635468E+01
 7.0782504E+00  4.2634209E+01
 7.0897503E+00  4.2624596E+01
 7.1012502E+00  4.2750111E+01
 7.1127505E+00  4.2908691E+01
 7.1242504E+00  4.3081894E+01
 7.1357503E+00  4.3151573E+01
 7.1472502E+00  4.3151062E+01
 7.1587505E+00  4.3253376E+01
 7.1702504E+00  4.3243649E+01
 7.1817503E+00  4.3340355E+01
 7.1932502E+00  4.3371548E+01
 7.2047505E+00  4.3474785E+01
 7.2162504E+00  4.3453609E+01
 7.2277503E+00  4.3562603E+01
 7.2392502E+00  4.3510643E+01
 7.2507505E+00  4.3605465E+01
 7.2622504E+00  4.3552792E+01
 7.2737503E+00  4.3680584E+01
 7.2852502E+00  4.3739552E+01
 7.2967505E+00  4.3761993E+01
 7.3082504E+00  4.3800331E+01
 7.3197503E+00  4.3763836E+01
 7.3312502E+00  4.3887486E+01
 7.3427505E+00  4.3907928E+01
 7.3542504E+00  4.3937023E+01
 7.3657503E+00  4.3945393E+01
 7.3772502E+00  4.3875641E+01
 7.3887506E+00  4.3889679E+01
 7.4002504E+00  4.3955940E+01
 7.4117503E+00  4.4119915E+01
 7.4232502E+00  4.4197483E+01
 7.4347506E+00  4.4215271E+01
 7.4462504E+00  4.4213451E+01
 7.4577503E+00  4.4223602E+01
 7.4692502E+00  4.4204865E+01
 7.4807506E+00  4.4081757E+01
 7.4922504E+00  4.4076107E+01
 7.5037503E+00  4.4119987E+01
 7.5152502E+00  4.4206890E+01
 7.5267506E+00  4.4318714E+01
 7.5382504E+00  4.4366982E+01
 7.5497503E+00  4.4416237E+01
 7.5612502E+00  4.4510803E+01
 7.5727506E+00  4.4558060E+01
 7.5842505E+00  4.4633411E+01
 7.5957503E+00  4.4548180E+01
 7.6072502E+00  4.4563747E+01
 7.6187506E+00  4.4528702E+01
 7.6302505E+00  4.4568863E+01
 7.6417503E+00  4.4563587E+01
 7.6532502E+00  4.4474148E+01
 7.6647506E+00  4.4408241E+01
 7.6762505E+00  4.4334721E+01
 7.6877503E+00  4.4299042E+01
 7.6992502E+00  4.4349262E+01
 7.7107506E+00  4.4400913E+01
 7.7222505E+00  4.4544331E+01
 7.7337503E+00  4.4572300E+01
 7.7452502E+00  4.4526234E+01
 7.7567506E+00  4.4340393E+01
 7.7682505E+00  4.4325500E+01
 7.7797503E+00  4.4198227E+01
 7.7912502E+00  4.4362331E+01
 7.8027506E+00  4.4338425E+01
 7.8142505E+00  4.4458275E+01
 7.8257504E+00  4.4504791E+01
 7.8372502E+00  4.4528915E+01
 7.8487506E+00  4.4568634E+01
 7.8602505E+00  4.4424927E+01
 7.8717504E+00  4.4287090E+01
 7.8832502E+00  4.4117100E+01
 7.8947506E+00  4.3960896E+01
 7.9062505E+00  4.3921638E+01
 7.9177504E+00  4.3859528E+01
 7.9292502E+00  4.3856258E+01
 7.9407506E+00  4.3855240E+01
 7.9522505E+00  4.3876751E+01
 7.9637504E+00  4.3902481E+01
 7.9752502E+00  4.3826054E+01
 7.9867506E+00  4.3789688E+01
 7.9982505E+00  4.3748909E+01
 8.0097504E+00  4.3652370E+01
 8.0212507E+00  4.3548058E+01
 8.0327501E+00  4.3464691E+01
 8.0442505E+00  4.3434441E+01
 8.0557508E+00  4.3392590E+01
 8.0672503E+00  4.3229053E+01
 8.0787506E+00  4.3150745E+01
 8.0902500E+00  4.3049229E+01
 8.1017504E+00  4.2967060E+01
 8.1132507E+00  4.2929962E+01
 8.1247501E+00  4.2825581E+01
 8.1362505E+00  4.2724720E+01
 8.1477509E+00  4.2625038E+01
 8.1592503E+00  4.2423855E+01
 8.1707506E+00  4.2439972E+01
 8.1822500E+00  4.2287785E+01
 8.1937504E+00  4.2210957E+01
 8.2052507E+00  4.2032551E+01
 8.2167501E+00  4.1875679E+01
 8.2282505E+00  4.1784489E+01
 8.2397509E+00  4.1666283E+01
 8.2512503E+00  4.1612690E+01
 8.2627506E+00  4.1487919E+01
 8.2742500E+00  4.1320320E+01
 8.2857504E+00  4.1109936E+01
 8.2972507E+00  4.0960880E+01
 8.3087502E+00  4.0807110E+01
 8.3202505E+00  4.0718555E+01
 8.3317509E+00  4.0575069E+01
 8.3432503E+00  4.0400822E+01
 8.3547506E+00  4.0210045E+01
 8.3662500E+00  4.0033581E+01
 8.3777504E+00  3.9911545E+01
 8.3892508E+00  3.9802986E+01
 8.4007502E+00  3.9710720E+01
 8.4122505E+00  3.9634590E+01
 8.4237509E+00  3.9499882E+01
 8.4352503E+00  3.9280254E+01
 8.4467506E+00  3.9123119E+01
 8.4582500E+00  3.8875328E+01
 8.4697504E+00  3.8742821E+01
 8.4812508E+00  3.8577168E+01
 8.4927502E+00  3.8426613E+01
 8.5042505E+00  3.8289047E+01
 8.5157509E+00  3.8097580E+01
 8.5272503E+00  3.7942535E+01
 8.5387506E+00  3.7789120E+01
 8.5502501E+00  3.7553154E+01
 8.5617504E+00  3.7305824E+01
 8.5732508E+00  3.7078133E+01
 8.5847502E+00  3.6843140E+01
 8.5962505E+00  3.6690220E+01
 8.6077509E+00  3.6464783E+01
 8.6192503E+00  3.6296051E+01
 8.6307507E+00  3.6082394E+01
 8.6422501E+00  3.5948349E+01
 8.6537504E+00  3.5784260E+01
 8.6652508E+00  3.5627815E+01
 8.6767502E+00  3.5477463E+01
 8.6882505E+00  3.5277248E+01
 8.6997509E+00  3.5103199E+01
 8.7112503E+00  3.4854298E+01
 8.7227507E+00  3.4644730E+01
 8.7342501E+00  3.4469940E+01
 8.7457504E+00  3.4240704E+01
 8.7572508E+00  3.4103146E+01
 8.7687502E+00  3.3990139E+01
 8.7802505E+00  3.3951317E+01
 8.7917500E+00  3.3814415E+01
 8.8032503E+00  3.3614426E+01
 8.8147507E+00  3.3521145E+01
 8.8262501E+00  3.3378181E+01
 8.8377504E+00  3.3316757E+01
 8.8492508E+00  3.3120594E+01
 8.8607502E+00  3.2970810E+01
 8.8722506E+00  3.2840778E+01
 8.8837500E+00  3.2751968E+01
 8.8952503E+00  3.2722721E+01
 8.9067507E+00  3.2656250E+01
 8.9182501E+00  3.2502594E+01
 8.9297504E+00  3.2237335E+01
 8.9412508E+00  3.1992228E+01
 8.9527502E+00  3.1796829E+01
 8.9642506E+00  3.1674374E+01
 8.9757500E+00  3.1440109E+01
 8.9872503E+00  3.1224655E+01
 8.9987507E+00  3.0987671E+01
 9.0102501E+00  3.0872799E+01
 9.0217505E+00  3.0660191E+01
 9.0332508E+00  3.0603283E+01
 9.0447502E+00  3.0499647E+01
 9.0562506E+00  3.0367794E+01
 9.0677500E+00  3.0246054E+01
 9.0792503E+00  3.0114435E+01
 9.0907507E+00  2.9980246E+01
 9.1022501E+00  2.9796144E+01
 9.1137505E+00  2.9574816E+01
 9.1252508E+00  2.9421160E+01
 9.1367502E+00  2.9278427E+01
 9.1482506E+00  2.9244139E+01
 9.1597500E+00  2.9248249E+01
 9.1712503E+00  2.9228754E+01
 9.1827507E+00  2.9114178E+01
 9.1942501E+00  2.8997471E+01
 9.2057505E+00  2.8777763E+01
 9.2172508E+00  2.8682020E+01
 9.2287502E+00  2.8466084E+01
 9.2402506E+00  2.8444750E+01
 9.2517500E+00  2.8308996E+01
 9.2632504E+00  2.8236563E+01
 9.2747507E+00  2.8050442E+01
 9.2862501E+00  2.7941689E+01
 9.2977505E+00  2.7869791E+01
 9.3092508E+00  2.7841791E+01
 9.3207502E+00  2.7788080E+01
 9.3322506E+00  2.7721521E+01
 9.3437500E+00  2.7619841E+01
 9.3552504E+00  2.7494879E+01
 9.3667507E+00  2.7437050E+01
 9.3782501E+00  2.7344990E+01
 9.3897505E+00  2.7209539E+01
 9.4012508E+00  2.6994432E+01
 9.4127502E+00  2.6865236E+01
 9.4242506E+00  2.6788887E+01
 9.4357500E+00  2.6747362E+01
 9.4472504E+00  2.6677725E+01
 9.4587507E+00  2.6637884E+01
 9.4702501E+00  2.6617378E+01
 9.4817505E+00  2.6568655E+01
 9.4932508E+00  2.6485550E+01
 9.5047503E+00  2.6428690E+01
 9.5162506E+00  2.6363440E+01
 9.5277500E+00  2.6339027E+01
 9.5392504E+00  2.6270079E+01
 9.5507507E+00  2.6209219E+01
 9.5622501E+00  2.6162355E+01
 9.5737505E+00  2.6065102E+01
 9.5852509E+00  2.6048075E+01
 9.5967503E+00  2.6039162E+01
 9.6082506E+00  2.6082918E+01
 9.6197500E+00  2.6044456E+01
 9.6312504E+00  2.5962425E+01
 9.6427507E+00  2.5906437E+01
 9.6542501E+00  2.5856794E+01
 9.6657505E+00  2.5788439E+01
 9.6772509E+00  2.5660461E+01
 9.6887503E+00  2.5545361E+01
 9.7002506E+00  2.5495399E+01
 9.7117500E+00  2.5460897E+01
 9.7232504E+00  2.5414860E+01
 9.7347507E+00  2.5355587E+01
 9.7462502E+00  2.5281736E+01
 9.7577505E+00  2.5242229E+01
 9.7692509E+00  2.5240105E+01
 9.7807503E+00  2.5151041E+01
 9.7922506E+00  2.5113588E+01
 9.8037500E+00  2.5020983E+01
 9.8152504E+00  2.4980019E+01
 9.8267508E+00  2.4930094E+01
 9.8382502E+00  2.4885698E+01
 9.8497505E+00  2.4853277E+01
 9.8612509E+00  2.4830984E+01
 9.8727503E+00  2.4781872E+01
 9.8842506E+00  2.4772408E+01
 9.8957500E+00  2.4769072E+01
 9.9072504E+00  2.4744089E+01
 9.9187508E+00  2.4669014E+01
 9.9302502E+00  2.4556904E+01
 9.9417505E+00  2.4472223E+01
 9.9532509E+00  2.4448206E+01
 9.9647503E+00  2.4443684E+01
 9.9762506E+00  2.4489153E+01
 9.9877501E+00  2.4466774E+01
 9.9992504E+00  2.4500633E+01
 1.0010751E+01  2.4412722E+01
 1.0022250E+01  2.4353416E+01
 1.0033751E+01  2.4257509E+01
 1.0045251E+01  2.4236277E+01
 1.0056750E+01  2.4273092E+01
 1.0068251E+01  2.4233412E+01
 1.0079750E+01  2.4220119E+01
 1.0091250E+01  2.4179592E+01
 1.0102751E+01  2.4226740E+01
 1.0114250E+01  2.4218908E+01
 1.0125751E+01  2.4190865E+01
 1.0137251E+01  2.4081869E+01
 1.0148750E+01  2.3984486E+01
 1.0160251E+01  2.3926668E+01
 1.0171750E+01  2.3858381E+01
 1.0183250E+01  2.3823189E+01
 1.0194751E+01  2.3783529E+01
 1.0206250E+01  2.3832453E+01
 1.0217751E+01  2.3820387E+01
 1.0229251E+01  2.3819466E+01
 1.0240750E+01  2.3759031E+01
 1.0252251E+01  2.3708897E+01
 1.0263750E+01  2.3676905E+01
 1.0275250E+01  2.3660606E+01
 1.0286751E+01  2.3702055E+01
 1.0298250E+01  2.3756304E+01
 1.0309751E+01  2.3822535E+01
 1.0321251E+01  2.3819649E+01
 1.0332750E+01  2.3745033E+01
 1.0344251E+01  2.3680414E+01
 1.0355750E+01  2.3600336E+01
 1.0367250E+01  2.3518087E+01
 1.0378751E+01  2.3428238E+01
 1.0390250E+01  2.3464502E+01
 1.0401751E+01  2.3464262E+01
 1.0413251E+01  2.3455412E+01
 1.0424750E+01  2.3366167E+01
 1.0436251E+01  2.3346266E+01
 1.0447750E+01  2.3314280E+01
 1.0459250E+01  2.3347038E+01
 1.0470751E+01  2.3395718E+01
 1.0482250E+01  2.3467428E+01
 1.0493751E+01  2.3433878E+01
 1.0505251E+01  2.3371595E+01
 1.0516750E+01  2.3275991E+01
 1.0528251E+01  2.3171986E+01
 1.0539750E+01  2.3128958E+01
 1.0551250E+01  2.3123394E+01
 1.0562751E+01  2.3197302E+01
 1.0574250E+01  2.3215229E+01
 1.0585751E+01  2.3141891E+01
 1.0597251E+01  2.3125439E+01
 1.0608750E+01  2.3119545E+01
 1.0620251E+01  2.3134911E+01
 1.0631750E+01  2.3137518E+01
 1.0643250E+01  2.3122019E+01
 1.0654751E+01  2.3163574E+01
 1.0666250E+01  2.3165743E+01
 1.0677751E+01  2.3093882E+01
 1.0689251E+01  2.3058941E+01
 1.0700750E+01  2.3059437E+01
 1.0712251E+01  2.3100464E+01
 1.0723750E+01  2.3105957E+01
 1.0735250E+01  2.3061306E+01
 1.0746751E+01  2.3012094E+01
 1.0758250E+01  2.3031567E+01
 1.0769751E+01  2.2997328E+01
 1.0781251E+01  2.3038685E+01
 1.0792750E+01  2.2975302E+01
 1.0804251E+01  2.2978354E+01
 1.0815750E+01  2.2918211E+01
 1.0827250E+01  2.2884737E+01
 1.0838751E+01  2.2817734E+01
 1.0850250E+01  2.2809221E+01
 1.0861751E+01  2.2824249E+01
 1.0873251E+01  2.2825060E+01
 1.0884750E+01  2.2791718E+01
 1.0896251E+01  2.2755219E+01
 1.0907750E+01  2.2739477E+01
 1.0919250E+01  2.2784740E+01
 1.0930751E+01  2.2776728E+01
 1.0942250E+01  2.2752438E+01
 1.0953751E+01  2.2759489E+01
 1.0965251E+01  2.2808706E+01
 1.0976750E+01  2.2939079E+01
 1.0988251E+01  2.2986122E+01
 1.0999750E+01  2.3017534E+01
 1.1011250E+01  2.2960356E+01
 1.1022751E+01  2.2914040E+01
 1.1034250E+01  2.2876081E+01
 1.1045751E+01  2.2837700E+01
 1.1057251E+01  2.2861689E+01
 1.1068750E+01  2.2958818E+01
 1.1080251E+01  2.2999851E+01
 1.1091750E+01  2.3044630E+01
 1.1103251E+01  2.3097832E+01
 1.1114751E+01  2.3191521E+01
 1.1126250E+01  2.3226204E+01
 1.1137751E+01  2.3171146E+01
 1.1149251E+01  2.3151236E+01
 1.1160750E+01  2.3070845E+01
 1.1172251E+01  2.2968107E+01
 1.1183750E+01  2.2858355E+01
 1.1195251E+01  2.2770840E+01
 1.1206751E+01  2.2747671E+01
 1.1218250E+01  2.2790325E+01
 1.1229751E+01  2.2811728E+01
 1.1241251E+01  2.2830011E+01
 1.1252750E+01  2.2818499E+01
 1.1264251E+01  2.2824409E+01
 1.1275750E+01  2.2795198E+01
 1.1287251E+01  2.2794041E+01
 1.1298751E+01  2.2764906E+01
 1.1310250E+01  2.2850014E+01
 1.1321751E+01  2.2864689E+01
 1.1333251E+01  2.2953114E+01
 1.1344750E+01  2.2908463E+01
 1.1356251E+01  2.2945986E+01
 1.1367750E+01  2.2991434E+01
 1.1379251E+01  2.3028656E+01
 1.1390751E+01  2.3062389E+01
 1.1402250E+01  2.3142990E+01
 1.1413751E+01  2.3178185E+01
 1.1425251E+01  2.3197731E+01
 1.1436750E+01  2.3231802E+01
 1.1448251E+01  2.3339108E+01
 1.1459750E+01  2.3426313E+01
 1.1471251E+01  2.3497208E+01
 1.1482751E+01  2.3600084E+01
 1.1494250E+01  2.3904352E+01
 1.1505751E+01  2.4295801E+01
 1.1517251E+01  2.5321081E+01
 1.1528750E+01  2.6668356E+01
 1.1540251E+01  2.9301105E+01
 1.1551750E+01  3.1638769E+01
 1.1563251E+01  3.6472317E+01
 1.1574751E+01  3.7890408E+01
 1.1586250E+01  4.0742168E+01
 1.1597751E+01  3.9292076E+01
 1.1609251E+01  3.7953697E+01
 1.1620750E+01  3.4495186E+01
 1.1632251E+01  3.0999352E+01
 1.1643750E+01  2.8490286E+01
 1.1655251E+01  2.6075701E+01
 1.1666751E+01  2.4802418E+01
 1.1678250E+01  2.4221382E+01
 1.1689751E+01  2.3999701E+01
 1.1701251E+01  2.3805796E+01
 1.1712750E+01  2.3837051E+01
 1.1724251E+01  2.3542040E+01
 1.1735750E+01  2.3478922E+01
 1.1747251E+01  2.3268938E+01
 1.1758751E+01  2.3243523E+01
 1.1770250E+01  2.3051825E+01
 1.1781751E+01  2.2947752E+01
 1.1793251E+01  2.2859079E+01
 1.1804750E+01  2.2784550E+01
 1.1816251E+01  2.2767540E+01
 1.1827750E+01  2.2808655E+01
 1.1839251E+01  2.2836983E+01
 1.1850751E+01  2.2808620E+01
 1.1862250E+01  2.2764677E+01
 1.1873751E+01  2.2755182E+01
 1.1885251E+01  2.2784208E+01
 1.1896750E+01  2.2809496E+01
 1.1908251E+01  2.2874683E+01
 1.1919750E+01  2.2981560E+01
 1.1931251E+01  2.3113585E+01
 1.1942751E+01  2.3424099E+01
 1.1954250E+01  2.3630447E+01
 1.1965751E+01  2.4295433E+01
 1.1977251E+01  2.4487146E+01
 1.1988750E+01  2.5073744E+01
 1.2000251E+01  2.4804764E+01
 1.2011750E+01  2.4893620E+01
 1.2023251E+01  2.4310978E+01
 1.2034751E+01  2.4101780E+01
 1.2046250E+01  2.3764025E+01
 1.2057751E+01  2.3713020E+01
 1.2069251E+01  2.3829233E+01
 1.2080750E+01  2.4106543E+01
 1.2092251E+01  2.4556795E+01
 1.2103750E+01  2.4921890E+01
 1.2115251E+01  2.5134792E+01
 1.2126751E+01  2.5100338E+01
 1.2138250E+01  2.4809719E+01
 1.2149751E+01  2.4395830E+01
 1.2161251E+01  2.3867834E+01
 1.2172750E+01  2.3458687E+01
 1.2184251E+01  2.3148592E+01
 1.2195750E+01  2.3002354E+01
 1.2207251E+01  2.2863232E+01
 1.2218751E+01  2.2796940E+01
 1.2230250E+01  2.2716944E+01
 1.2241751E+01  2.2661322E+01
 1.2253251E+01  2.2643671E+01
 1.2264750E+01  2.2688932E+01
 1.2276251E+01  2.2675125E+01
 1.2287750E+01  2.2708500E+01
 1.2299251E+01  2.2708363E+01
 1.2310751E+01  2.2741808E+01
 1.2322250E+01  2.2682320E+01
 1.2333751E+01  2.2673525E+01
 1.2345250E+01  2.2651941E+01
 1.2356750E+01  2.2710167E+01
 1.2368251E+01  2.2691767E+01
 1.2379750E+01  2.2685652E+01
 1.2391251E+01  2.2646160E+01
 1.2402751E+01  2.2623060E+01
 1.2414250E+01  2.2603085E+01
 1.2425751E+01  2.2581022E+01
 1.2437250E+01  2.2628983E+01
 1.2448750E+01  2.2701195E+01
 1.2460251E+01  2.2756908E+01
 1.2471750E+01  2.2749212E+01
 1.2483251E+01  2.2759678E+01
 1.2494751E+01  2.2739332E+01
 1.2506250E+01  2.2735558E+01
 1.2517751E+01  2.2716335E+01
 1.2529250E+01  2.2735641E+01
 1.2540751E+01  2.2807129E+01
 1.2552251E+01  2.2794933E+01
 1.2563750E+01  2.2811430E+01
 1.2575251E+01  2.2832884E+01
 1.2586751E+01  2.2867495E+01
 1.2598250E+01  2.2907120E+01
 1.2609751E+01  2.2880924E+01
 1.2621250E+01  2.2949127E+01
 1.2632751E+01  2.2996914E+01
 1.2644251E+01  2.3014383E+01
 1.2655750E+01  2.3024317E+01
 1.2667251E+01  2.2969549E+01
 1.2678751E+01  2.2959263E+01
 1.2690250E+01  2.2904696E+01
 1.2701751E+01  2.2962891E+01
 1.2713250E+01  2.3047657E+01
 1.2724751E+01  2.3149689E+01
 1.2736251E+01  2.3192259E+01
 1.2747750E+01  2.3218912E+01
 1.2759251E+01  2.3237268E+01
 1.2770751E+01  2.3225304E+01
 1.2782250E+01  2.3270897E+01
 1.2793751E+01  2.3260614E+01
 1.2805250E+01  2.3314907E+01
 1.2816751E+01  2.3308876E+01
 1.2828251E+01  2.3304060E+01
 1.2839750E+01  2.3285963E+01
 1.2851251E+01  2.3278866E+01
 1.2862751E+01  2.3364620E+01
 1.2874250E+01  2.3434147E+01
 1.2885751E+01  2.3530256E+01
 1.2897250E+01  2.3544075E+01
 1.2908751E+01  2.3608328E+01
 1.2920251E+01  2.3656773E+01
 1.2931750E+01  2.3782360E+01
 1.2943251E+01  2.3867012E+01
 1.2954751E+01  2.3883736E+01
 1.2966250E+01  2.3915567E+01
 1.2977751E+01  2.3949606E+01
 1.2989250E+01  2.3997421E+01
 1.3000751E+01  2.4108854E+01
 1.3012251E+01  2.4161917E+01
 1.3023750E+01  2.4322790E+01
 1.3035251E+01  2.4398046E+01
 1.3046751E+01  2.4475386E+01
 1.3058250E+01  2.4561319E+01
 1.3069751E+01  2.4589907E+01
 1.3081250E+01  2.4664713E+01
 1.3092751E+01  2.4711445E+01
 1.3104251E+01  2.4843294E+01
 1.3115750E+01  2.5000511E+01
 1.3127251E+01  2.5131912E+01
 1.3138751E+01  2.5275854E+01
 1.3150250E+01  2.5411755E+01
 1.3161751E+01  2.5491592E+01
 1.3173250E+01  2.5604435E+01
 1.3184751E+01  2.5726685E+01
 1.3196251E+01  2.5865686E+01
 1.3207750E+01  2.5985771E+01
 1.3219251E+01  2.6078575E+01
 1.3230751E+01  2.6201805E+01
 1.3242250E+01  2.6348154E+01
 1.3253751E+01  2.6518354E+01
 1.3265250E+01  2.6705130E+01
 1.3276751E+01  2.6885151E+01
 1.3288251E+01  2.7092808E+01
 1.3299750E+01  2.7250082E+01
 1.3311251E+01  2.7318045E+01
 1.3322751E+01  2.7422577E+01
 1.3334250E+01  2.7560781E+01
 1.3345751E+01  2.7705282E+01
 1.3357250E+01  2.7856205E+01
 1.3368751E+01  2.7966179E+01
 1.3380251E+01  2.8182650E+01
 1.3391750E+01  2.8343414E+01
 1.3403251E+01  2.8540354E+01
 1.3414751E+01  2.8658302E+01
 1.3426250E+01  2.8697508E+01
 1.3437751E+01  2.8798752E+01
 1.3449250E+01  2.8853342E+01
 1.3460751E+01  2.9019806E+01
 1.3472251E+01  2.9133440E+01
 1.3483750E+01  2.9357365E+01
 1.3495251E+01  2.9521305E+01
 1.3506751E+01  2.9667070E+01
 1.3518250E+01  2.9782974E+01
 1.3529751E+01  2.9894184E+01
 1.3541250E+01  2.9981831E+01
 1.3552751E+01  3.0054688E+01
 1.3564251E+01  3.0103947E+01
 1.3575750E+01  3.0193037E+01
 1.3587251E+01  3.0253004E+01
 1.3598751E+01  3.0305977E+01
 1.3610250E+01  3.0262535E+01
 1.3621751E+01  3.0263773E+01
 1.3633250E+01  3.0226934E+01
 1.3644751E+01  3.0281109E+01
 1.3656251E+01  3.0260822E+01
 1.3667750E+01  3.0358957E+01
 1.3679251E+01  3.0445585E+01
 1.3690751E+01  3.0525150E+01
 1.3702250E+01  3.0615227E+01
 1.3713751E+01  3.0636906E+01
 1.3725250E+01  3.0736689E+01
 1.3736751E+01  3.0739775E+01
 1.3748251E+01  3.0828550E+01
 1.3759750E+01  3.0856121E+01
 1.3771251E+01  3.1010691E+01
 1.3782751E+01  3.1107506E+01
 1.3794250E+01  3.1277279E+01
 1.3805751E+01  3.1371078E+01
 1.3817250E+01  3.1518888E+01
 1.3828751E+01  3.1810781E+01
 1.3840251E+01  3.2122673E+01
 1.3851750E+01  3.2893490E+01
 1.3863251E+01  3.3951683E+01
 1.3874751E+01  3.6365734E+01
 1.3886250E+01  4.0484245E+01
 1.3897751E+01  4.8612602E+01
 1.3909250E+01  5.9323837E+01
 1.3920751E+01  7.4944771E+01
 1.3932251E+01  8.7577736E+01
 1.3943750E+01  9.8426773E+01
 1.3955251E+01  9.7889290E+01
 1.3966751E+01  9.3146706E+01
 1.3978251E+01  7.9209999E+01
 1.3989751E+01  6.5485420E+01
 1.4001250E+01  5.2544682E+01
 1.4012751E+01  4.2994427E+01
 1.4024251E+01  3.7062305E+01
 1.4035750E+01  3.3632687E+01
 1.4047251E+01  3.2121967E+01
 1.4058751E+01  3.0886284E+01
 1.4070251E+01  3.0479448E+01
 1.4081751E+01  2.9901491E+01
 1.4093250E+01  2.9567768E+01
 1.4104751E+01  2.9180445E+01
 1.4116251E+01  2.8912527E+01
 1.4127750E+01  2.8705299E+01
 1.4139251E+01  2.8491451E+01
 1.4150751E+01  2.8362698E+01
 1.4162251E+01  2.8161188E+01
 1.4173751E+01  2.8028120E+01
 1.4185250E+01  2.7856247E+01
 1.4196751E+01  2.7724039E+01
 1.4208251E+01  2.7569143E+01
 1.4219750E+01  2.7468529E+01
 1.4231251E+01  2.7317757E+01
 1.4242751E+01  2.7195248E+01
 1.4254251E+01  2.7070024E+01
 1.4265751E+01  2.7007690E+01
 1.4277250E+01  2.6935944E+01
 1.4288751E+01  2.6887728E+01
 1.4300251E+01  2.6815567E+01
 1.4311750E+01  2.6724903E+01
 1.4323251E+01  2.6607702E+01
 1.4334751E+01  2.6513748E+01
 1.4346251E+01  2.6413260E+01
 1.4357751E+01  2.6326471E+01
 1.4369250E+01  2.6281437E+01
 1.4380751E+01  2.6269617E+01
 1.4392251E+01  2.6244610E+01
 1.4403750E+01  2.6265209E+01
 1.4415251E+01  2.6284985E+01
 1.4426751E+01  2.6262875E+01
 1.4438251E+01  2.6209997E+01
 1.4449751E+01  2.6129675E+01
 1.4461250E+01  2.6087698E+01
 1.4472751E+01  2.5983572E+01
 1.4484251E+01  2.5951725E+01
 1.4495750E+01  2.5915625E+01
 1.4507251E+01  2.5941889E+01
 1.4518751E+01  2.5868605E+01
 1.4530251E+01  2.5857027E+01
 1.4541751E+01  2.5788788E+01
 1.4553250E+01  2.5773407E+01
 1.4564751E+01  2.5727667E+01
 1.4576251E+01  2.5741882E+01
 1.4587750E+01  2.5710911E+01
 1.4599251E+01  2.5647449E+01
 1.4610751E+01  2.5552658E+01
 1.4622251E+01  2.5494930E+01
 1.4633751E+01  2.5477619E+01
 1.4645250E+01  2.5468176E+01
 1.4656751E+01  2.5461142E+01
 1.4668251E+01  2.5437462E+01
 1.4679750E+01  2.5418379E+01
 1.4691251E+01  2.5400576E+01
 1.4702751E+01  2.5367266E+01
 1.4714251E+01  2.5352663E+01
 1.4725751E+01  2.5263906E+01
 1.4737250E+01  2.5186523E+01
 1.4748751E+01  2.5129240E+01
 1.4760251E+01  2.5123587E+01
 1.4771750E+01  2.5144184E+01
 1.4783251E+01  2.5106825E+01
 1.4794751E+01  2.5134796E+01
 1.4806251E+01  2.5149933E+01
 1.4817751E+01  2.5207649E+01
 1.4829250E+01  2.5216358E+01
 1.4840751E+01  2.5241671E+01
 1.4852251E+01  2.5228943E+01
 1.4863750E+01  2.5176355E+01
 1.4875251E+01  2.5095278E+01
 1.4886751E+01  2.5103924E+01
 1.4898251E+01  2.5180464E+01
 1.4909751E+01  2.5198729E+01
 1.4921250E+01  2.5155415E+01
 1.4932751E+01  2.5128721E+01
 1.4944251E+01  2.5067606E+01
 1.4955750E+01  2.5040873E+01
 1.4967251E+01  2.4949980E+01
 1.4978751E+01  2.4928257E+01
 1.4990251E+01  2.4934153E+01
 1.5001751E+01  2.4987429E+01
 1.5013250E+01  2.5058826E+01
 1.5024751E+01  2.5069376E+01
 1.5036251E+01  2.5025976E+01
 1.5047750E+01  2.4963409E+01
 1.5059251E+01  2.5000597E+01
 1.5070751E+01  2.5038685E+01
 1.5082251E+01  2.5116684E+01
 1.5093751E+01  2.5143415E+01
 1.5105250E+01  2.5287893E+01
 1.5116751E+01  2.5447018E+01
 1.5128251E+01  2.5572493E+01
 1.5139750E+01  2.5874453E+01
 1.5151251E+01  2.6347065E+01
 1.5162751E+01  2.6777431E+01
 1.5174251E+01  2.7496933E+01
 1.5185751E+01  2.8145033E+01
 1.5197250E+01  2.8509520E+01
 1.5208751E+01  2.8372988E+01
 1.5220251E+01  2.7925629E+01
 1.5231750E+01  2.7388966E+01
 1.5243251E+01  2.6651424E+01
 1.5254751E+01  2.6034565E+01
 1.5266251E+01  2.5542931E+01
 1.5277751E+01  2.5223965E+01
 1.5289250E+01  2.5031418E+01
 1.5300751E+01  2.4996050E+01
 1.5312251E+01  2.4898836E+01
 1.5323750E+01  2.4863552E+01
 1.5335251E+01  2.4833223E+01
 1.5346751E+01  2.4813234E+01
 1.5358251E+01  2.4797056E+01
 1.5369751E+01  2.4808508E+01
 1.5381250E+01  2.4794510E+01
 1.5392751E+01  2.4762737E+01
 1.5404251E+01  2.4772776E+01
 1.5415751E+01  2.4794748E+01
 1.5427251E+01  2.4798042E+01
 1.5438751E+01  2.4734905E+01
 1.5450251E+01  2.4701529E+01
 1.5461751E+01  2.4694201E+01
 1.5473250E+01  2.4645254E+01
 1.5484751E+01  2.4612837E+01
 1.5496251E+01  2.4579071E+01
 1.5507751E+01  2.4581860E+01
 1.5519251E+01  2.4518526E+01
 1.5530751E+01  2.4510967E+01
 1.5542251E+01  2.4483181E+01
 1.5553751E+01  2.4554893E+01
 1.5565250E+01  2.4628927E+01
 1.5576751E+01  2.4710398E+01
 1.5588251E+01  2.4740995E+01
 1.5599751E+01  2.4682629E+01
 1.5611251E+01  2.4672787E+01
 1.5622751E+01  2.4601648E+01
 1.5634251E+01  2.4644276E+01
 1.5645751E+01  2.4648689E+01
 1.5657250E+01  2.4696213E+01
 1.5668751E+01  2.4701717E+01
 1.5680251E+01  2.4734983E+01
 1.5691751E+01  2.4768267E+01
 1.5703251E+01  2.4765404E+01
 1.5714751E+01  2.4698818E+01
 1.5726251E+01  2.4674631E+01
 1.5737751E+01  2.4606220E+01
 1.5749250E+01  2.4617121E+01
 1.5760751E+01  2.4600468E+01
 1.5772251E+01  2.4642057E+01
 1.5783751E+01  2.4689404E+01
 1.5795251E+01  2.4722198E+01
 1.5806751E+01  2.4754513E+01
 1.5818251E+01  2.4759203E+01
 1.5829751E+01  2.4744902E+01
 1.5841250E+01  2.4716587E+01
 1.5852751E+01  2.4680891E+01
 1.5864251E+01  2.4723532E+01
 1.5875751E+01  2.4762922E+01
 1.5887251E+01  2.4817543E+01
 1.5898750E+01  2.4825630E+01
 1.5910251E+01  2.4878874E+01
 1.5921751E+01  2.4870224E+01
 1.5933250E+01  2.4870983E+01
 1.5944751E+01  2.4741337E+01
 1.5956251E+01  2.4695795E+01
 1.5967751E+01  2.4647198E+01
 1.5979251E+01  2.4679842E+01
 1.5990750E+01  2.4715006E+01
 1.6002251E+01  2.4707119E+01
 1.6013750E+01  2.4755499E+01
 1.6025251E+01  2.4751131E+01
 1.6036751E+01  2.4788837E+01
 1.6048250E+01  2.4782730E+01
 1.6059752E+01  2.4817772E+01
 1.6071251E+01  2.4774269E+01
 1.6082750E+01  2.4787359E+01
 1.6094252E+01  2.4768124E+01
 1.6105751E+01  2.4868168E+01
 1.6117250E+01  2.4868429E+01
 1.6128750E+01  2.4889494E+01
 1.6140251E+01  2.4947067E+01
 1.6151751E+01  2.4989960E+01
 1.6163250E+01  2.5166431E+01
 1.6174751E+01  2.5112352E+01
 1.6186251E+01  2.5480762E+01
 1.6197750E+01  2.5374655E+01
 1.6209251E+01  2.6164377E+01
 1.6220751E+01  2.6169941E+01
 1.6232250E+01  2.7050201E+01
 1.6243752E+01  2.7217396E+01
 1.6255251E+01  2.7600267E+01
 1.6266750E+01  2.7676622E+01
 1.6278252E+01  2.7063818E+01
 1.6289751E+01  2.6949202E+01
 1.6301250E+01  2.5907356E+01
 1.6312750E+01  2.5896988E+01
 1.6324251E+01  2.5245266E+01
 1.6335751E+01  2.5282436E+01
 1.6347250E+01  2.4982380E+01
 1.6358751E+01  2.4954018E+01
 1.6370251E+01  2.4828493E+01
 1.6381750E+01  2.4796017E+01
 1.6393251E+01  2.4803286E+01
 1.6404751E+01  2.4822443E+01
 1.6416250E+01  2.4897104E+01
 1.6427752E+01  2.4851151E+01
 1.6439251E+01  2.4865843E+01
 1.6450750E+01  2.4815783E+01
 1.6462252E+01  2.4798059E+01
 1.6473751E+01  2.4728354E+01
 1.6485250E+01  2.4707102E+01
 1.6496750E+01  2.4704090E+01
 1.6508251E+01  2.4652542E+01
 1.6519751E+01  2.4582323E+01
 1.6531250E+01  2.4538599E+01
 1.6542751E+01  2.4605194E+01
 1.6554251E+01  2.4628973E+01
 1.6565750E+01  2.4676510E+01
 1.6577251E+01  2.4674480E+01
 1.6588751E+01  2.4677521E+01
 1.6600250E+01  2.4656616E+01
 1.6611752E+01  2.4650177E+01
 1.6623251E+01  2.4622150E+01
 1.6634750E+01  2.4607624E+01
 1.6646252E+01  2.4564304E+01
 1.6657751E+01  2.4606596E+01
 1.6669250E+01  2.4644007E+01
 1.6680750E+01  2.4683411E+01
 1.6692251E+01  2.4668247E+01
 1.6703751E+01  2.4620352E+01
 1.6715250E+01  2.4607414E+01
 1.6726751E+01  2.4569252E+01
 1.6738251E+01  2.4603970E+01
 1.6749750E+01  2.4623568E+01
 1.6761251E+01  2.4611317E+01
 1.6772751E+01  2.4590374E+01
 1.6784250E+01  2.4530434E+01
 1.6795752E+01  2.4554987E+01
 1.6807251E+01  2.4524014E+01
 1.6818750E+01  2.4530636E+01
 1.6830252E+01  2.4521021E+01
 1.6841751E+01  2.4522873E+01
 1.6853251E+01  2.4494196E+01
 1.6864750E+01  2.4499968E+01
 1.6876251E+01  2.4460014E+01
 1.6887751E+01  2.4408525E+01
 1.6899250E+01  2.4356833E+01
 1.6910751E+01  2.4346479E+01
 1.6922251E+01  2.4377243E+01
 1.6933750E+01  2.4374790E+01
 1.6945251E+01  2.4381123E+01
 1.6956751E+01  2.4354950E+01
 1.6968250E+01  2.4358776E+01
 1.6979752E+01  2.4406612E+01
 1.6991251E+01  2.4441778E+01
 1.7002750E+01  2.4456551E+01
 1.7014252E+01  2.4435020E+01
 1.7025751E+01  2.4427738E+01
 1.7037251E+01  2.4363104E+01
 1.7048750E+01  2.4324377E+01
 1.7060251E+01  2.4282269E+01
 1.7071751E+01  2.4288433E+01
 1.7083250E+01  2.4349649E+01
 1.7094751E+01  2.4366474E+01
 1.7106251E+01  2.4394608E+01
 1.7117750E+01  2.4320902E+01
 1.7129251E+01  2.4325077E+01
 1.7140751E+01  2.4263502E+01
 1.7152250E+01  2.4234858E+01
 1.7163752E+01  2.4230352E+01
 1.7175251E+01  2.4263861E+01
 1.7186750E+01  2.4309664E+01
 1.7198252E+01  2.4266821E+01
 1.7209751E+01  2.4241453E+01
 1.7221251E+01  2.4201298E+01
 1.7232750E+01  2.4209227E+01
 1.7244251E+01  2.4267324E+01
 1.7255751E+01  2.4256006E+01
 1.7267250E+01  2.4273251E+01
 1.7278751E+01  2.4232920E+01
 1.7290251E+01  2.4250723E+01
 1.7301750E+01  2.4184771E+01
 1.7313251E+01  2.4153479E+01
 1.7324751E+01  2.4178408E+01
 1.7336250E+01  2.4197811E+01
 1.7347752E+01  2.4209839E+01
 1.7359251E+01  2.4189064E+01
 1.7370750E+01  2.4154598E+01
 1.7382252E+01  2.4073217E+01
 1.7393751E+01  2.3996590E+01
 1.7405251E+01  2.3996782E+01
 1.7416750E+01  2.4010721E+01
 1.7428251E+01  2.4018713E+01
 1.7439751E+01  2.3991488E+01
 1.7451250E+01  2.3975113E+01
 1.7462751E+01  2.3993332E+01
 1.7474251E+01  2.4024738E+01
 1.7485750E+01  2.4013123E+01
 1.7497252E+01  2.3992258E+01
 1.7508751E+01  2.3958757E+01
 1.7520250E+01  2.3986496E+01
 1.7531752E+01  2.4011652E+01
 1.7543251E+01  2.4108355E+01
 1.7554750E+01  2.4101625E+01
 1.7566252E+01  2.4082054E+01
 1.7577751E+01  2.4021345E+01
 1.7589251E+01  2.3978188E+01
 1.7600750E+01  2.3983959E+01
 1.7612251E+01  2.3978321E+01
 1.7623751E+01  2.4072073E+01
 1.7635250E+01  2.4061150E+01
 1.7646751E+01  2.4087681E+01
 1.7658251E+01  2.4044178E+01
 1.7669750E+01  2.4096050E+01
 1.7681252E+01  2.4101412E+01
 1.7692751E+01  2.4092527E+01
 1.7704250E+01  2.4071249E+01
 1.7715752E+01  2.4008553E+01
 1.7727251E+01  2.3971670E+01
 1.7738750E+01  2.3895445E+01
 1.7750252E+01  2.3850405E+01
 1.7761751E+01  2.3855423E+01
 1.7773251E+01  2.3910532E+01
 1.7784750E+01  2.3964607E+01
 1.7796251E+01  2.4034277E+01
 1.7807751E+01  2.4049078E+01
 1.7819250E+01  2.4015148E+01
 1.7830751E+01  2.3920887E+01
 1.7842251E+01  2.3876209E+01
 1.7853750E+01  2.3878780E+01
 1.7865252E+01  2.3883543E+01
 1.7876751E+01  2.3867987E+01
 1.7888250E+01  2.3822670E+01
 1.7899752E+01  2.3854158E+01
 1.7911251E+01  2.3915621E+01
 1.7922750E+01  2.3985811E+01
 1.7934252E+01  2.4000145E+01
 1.7945751E+01  2.3997955E+01
 1.7957251E+01  2.4020317E+01
 1.7968750E+01  2.4083719E+01
 1.7980251E+01  2.4180140E+01
 1.7991751E+01  2.4339825E+01
 1.8003250E+01  2.4497515E+01
 1.8014751E+01  2.4687040E+01
 1.8026251E+01  2.4896990E+01
 1.8037750E+01  2.5195658E+01
 1.8049252E+01  2.5542797E+01
 1.8060751E+01  2.5832479E+01
 1.8072250E+01  2.6414864E+01
 1.8083752E+01  2.7317430E+01
 1.8095251E+01  2.8013588E+01
 1.8106750E+01  2.8884459E+01
 1.8118252E+01  2.8867510E+01
 1.8129751E+01  2.8504652E+01
 1.8141251E+01  2.6978407E+01
 1.8152750E+01  2.6197916E+01
 1.8164251E+01  2.5329041E+01
 1.8175751E+01  2.4771124E+01
 1.8187250E+01  2.4423271E+01
 1.8198751E+01  2.4207174E+01
 1.8210251E+01  2.4122684E+01
 1.8221750E+01  2.4033272E+01
 1.8233252E+01  2.3962076E+01
 1.8244751E+01  2.3923489E+01
 1.8256250E+01  2.3928524E+01
 1.8267752E+01  2.3944569E+01
 1.8279251E+01  2.3956142E+01
 1.8290751E+01  2.3935139E+01
 1.8302252E+01  2.3925016E+01
 1.8313751E+01  2.3873844E+01
 1.8325251E+01  2.3789314E+01
 1.8336750E+01  2.3724257E+01
 1.8348251E+01  2.3736351E+01
 1.8359751E+01  2.3764399E+01
 1.8371250E+01  2.3764126E+01
 1.8382751E+01  2.3768814E+01
 1.8394251E+01  2.3827948E+01
 1.8405750E+01  2.3888193E+01
 1.8417252E+01  2.3849642E+01
 1.8428751E+01  2.3787842E+01
 1.8440250E+01  2.3752968E+01
 1.8451752E+01  2.3701523E+01
 1.8463251E+01  2.3660669E+01
 1.8474751E+01  2.3613443E+01
 1.8486252E+01  2.3626303E+01
 1.8497751E+01  2.3606556E+01
 1.8509251E+01  2.3604118E+01
 1.8520750E+01  2.3570967E+01
 1.8532251E+01  2.3522125E+01
 1.8543751E+01  2.3493097E+01
 1.8555250E+01  2.3510122E+01
 1.8566751E+01  2.3564888E+01
 1.8578251E+01  2.3652903E+01
 1.8589750E+01  2.3720449E+01
 1.8601252E+01  2.3759710E+01
 1.8612751E+01  2.3720715E+01
 1.8624250E+01  2.3650465E+01
 1.8635752E+01  2.3628511E+01
 1.8647251E+01  2.3528910E+01
 1.8658751E+01  2.3479111E+01
 1.8670252E+01  2.3437033E+01
 1.8681751E+01  2.3506771E+01
 1.8693251E+01  2.3569023E+01
 1.8704750E+01  2.3621449E+01
 1.8716251E+01  2.3649240E+01
 1.8727751E+01  2.3665079E+01
 1.8739250E+01  2.3660229E+01
 1.8750751E+01  2.3589535E+01
 1.8762251E+01  2.3531387E+01
 1.8773750E+01  2.3484489E+01
 1.8785252E+01  2.3502930E+01
 1.8796751E+01  2.3527107E+01
 1.8808250E+01  2.3533630E+01
 1.8819752E+01  2.3534296E+01
 1.8831251E+01  2.3540537E+01
 1.8842751E+01  2.3548990E+01
 1.8854252E+01  2.3544348E+01
 1.8865751E+01  2.3550835E+01
 1.8877251E+01  2.3570313E+01
 1.8888750E+01  2.3575972E+01
 1.8900251E+01  2.3556292E+01
 1.8911751E+01  2.3526081E+01
 1.8923250E+01  2.3549999E+01
 1.8934752E+01  2.3590279E+01
 1.8946251E+01  2.3649967E+01
 1.8957750E+01  2.3655401E+01
 1.8969252E+01  2.3626657E+01
 1.8980751E+01  2.3562284E+01
 1.8992250E+01  2.3513645E+01
 1.9003752E+01  2.3561701E+01
 1.9015251E+01  2.3596910E+01
 1.9026751E+01  2.3633154E+01
 1.9038252E+01  2.3657490E+01
 1.9049751E+01  2.3685755E+01
 1.9061251E+01  2.3743256E+01
 1.9072750E+01  2.3748217E+01
 1.9084251E+01  2.3761435E+01
 1.9095751E+01  2.3700775E+01
 1.9107250E+01  2.3702688E+01
 1.9118752E+01  2.3683739E+01
 1.9130251E+01  2.3696978E+01
 1.9141750E+01  2.3686390E+01
 1.9153252E+01  2.3733131E+01
 1.9164751E+01  2.3742512E+01
 1.9176250E+01  2.3699389E+01
 1.9187752E+01  2.3676243E+01
 1.9199251E+01  2.3648232E+01
 1.9210751E+01  2.3625767E+01
 1.9222252E+01  2.3574890E+01
 1.9233751E+01  2.3580521E+01
 1.9245251E+01  2.3636362E+01
 1.9256750E+01  2.3651745E+01
 1.9268251E+01  2.3646629E+01
 1.9279751E+01  2.3638887E+01
 1.9291250E+01  2.3697527E+01
 1.9302752E+01  2.3750513E+01
 1.9314251E+01  2.3764467E+01
 1.9325750E+01  2.3751078E+01
 1.9337252E+01  2.3785799E+01
 1.9348751E+01  2.3817404E+01
 1.9360250E+01  2.3826080E+01
 1.9371752E+01  2.3805878E+01
 1.9383251E+01  2.3780659E+01
 1.9394751E+01  2.3794613E+01
 1.9406250E+01  2.3804811E+01
 1.9417751E+01  2.3838369E+01
 1.9429251E+01  2.3796282E+01
 1.9440750E+01  2.3771965E+01
 1.9452251E+01  2.3733786E+01
 1.9463751E+01  2.3751400E+01
 1.9475250E+01  2.3777258E+01
 1.9486752E+01  2.3786921E+01
 1.9498251E+01  2.3771841E+01
 1.9509750E+01  2.3794498E+01
 1.9521252E+01  2.3864658E+01
 1.9532751E+01  2.3866140E+01
 1.9544250E+01  2.3958607E+01
 1.9555752E+01  2.3988871E+01
 1.9567251E+01  2.4049772E+01
 1.9578751E+01  2.4002672E+01
 1.9590250E+01  2.3989386E+01
 1.9601751E+01  2.4033558E+01
 1.9613251E+01  2.4082537E+01
 1.9624750E+01  2.4245802E+01
 1.9636251E+01  2.4374578E+01
 1.9647751E+01  2.4546425E+01
 1.9659250E+01  2.5145565E+01
 1.9670752E+01  2.5392567E+01
 1.9682251E+01  2.5859537E+01
 1.9693750E+01  2.6045479E+01
 1.9705252E+01  2.6330324E+01
 1.9716751E+01  2.6500811E+01
 1.9728251E+01  2.6475378E+01
 1.9739752E+01  2.6464727E+01
 1.9751251E+01  2.6168659E+01
 1.9762751E+01  2.5921871E+01
 1.9774250E+01  2.5749207E+01
 1.9785751E+01  2.5851297E+01
 1.9797251E+01  2.6142332E+01
 1.9808750E+01  2.8503422E+01
 1.9820251E+01  2.9125662E+01
 1.9831751E+01  3.1949450E+01
 1.9843250E+01  3.3054585E+01
 1.9854752E+01  3.3612202E+01
 1.9866251E+01  3.2123024E+01
 1.9877750E+01  3.0392113E+01
 1.9889252E+01  2.9433216E+01
 1.9900751E+01  2.7080866E+01
 1.9912251E+01  2.6531340E+01
 1.9923752E+01  2.5391218E+01
 1.9935251E+01  2.4889547E+01
 1.9946751E+01  2.4556969E+01
 1.9958250E+01  2.4331089E+01
 1.9969751E+01  2.4250444E+01
 1.9981251E+01  2.4148787E+01
 1.9992750E+01  2.4126598E+01
 2.0004251E+01  2.4095642E+01
 2.0015751E+01  2.4088533E+01
 2.0027250E+01  2.4057568E+01
 2.0038752E+01  2.4050924E+01
 2.0050251E+01  2.4057028E+01
 2.0061750E+01  2.4041740E+01
 2.0073252E+01  2.3991016E+01
 2.0084751E+01  2.3929150E+01
 2.0096251E+01  2.3903883E+01
 2.0107752E+01  2.3893457E+01
 2.0119251E+01  2.3863308E+01
 2.0130751E+01  2.3844074E+01
 2.0142250E+01  2.3842001E+01
 2.0153751E+01  2.3885155E+01
 2.0165251E+01  2.3958767E+01
 2.0176750E+01  2.3988190E+01
 2.0188251E+01  2.3979961E+01
 2.0199751E+01  2.3881124E+01
 2.0211250E+01  2.3828680E+01
 2.0222752E+01  2.3805065E+01
 2.0234251E+01  2.3812508E+01
 2.0245750E+01  2.3844465E+01
 2.0257252E+01  2.3854666E+01
 2.0268751E+01  2.3880205E+01
 2.0280251E+01  2.3866396E+01
 2.0291752E+01  2.3848167E+01
 2.0303251E+01  2.3804163E+01
 2.0314751E+01  2.3769629E+01
 2.0326250E+01  2.3784569E+01
 2.0337751E+01  2.3830849E+01
 2.0349251E+01  2.3848034E+01
 2.0360750E+01  2.3789551E+01
 2.0372252E+01  2.3755344E+01
 2.0383751E+01  2.3731089E+01
 2.0395250E+01  2.3737806E+01
 2.0406752E+01  2.3757824E+01
 2.0418251E+01  2.3798752E+01
 2.0429750E+01  2.3796629E+01
 2.0441252E+01  2.3783213E+01
 2.0452751E+01  2.3812513E+01
 2.0464251E+01  2.3810549E+01
 2.0475752E+01  2.3816303E+01
 2.0487251E+01  2.3811434E+01
 2.0498751E+01  2.3825897E+01
 2.0510250E+01  2.3806721E+01
 2.0521751E+01  2.3779945E+01
 2.0533251E+01  2.3727270E+01
 2.0544750E+01  2.3726631E+01
 2.0556252E+01  2.3760113E+01
 2.0567751E+01  2.3832510E+01
 2.0579250E+01  2.3880943E+01
 2.0590752E+01  2.3948137E+01
 2.0602251E+01  2.4034365E+01
 2.0613750E+01  2.4095907E+01
 2.0625252E+01  2.4135750E+01
 2.0636751E+01  2.4164341E+01
 2.0648251E+01  2.4102448E+01
 2.0659752E+01  2.4058395E+01
 2.0671251E+01  2.4065287E+01
 2.0682751E+01  2.4214811E+01
 2.0694250E+01  2.4387680E+01
 2.0705751E+01  2.4667891E+01
 2.0717251E+01  2.5044643E+01
 2.0728750E+01  2.5494127E+01
 2.0740252E+01  2.5994843E+01
 2.0751751E+01  2.6404259E+01
 2.0763250E+01  2.6877787E+01
 2.0774752E+01  2.6840363E+01
 2.0786251E+01  2.6683863E+01
 2.0797750E+01  2.6163136E+01
 2.0809252E+01  2.5570005E+01
 2.0820751E+01  2.5103601E+01
 2.0832251E+01  2.4669050E+01
 2.0843752E+01  2.4458214E+01
 2.0855251E+01  2.4285246E+01
 2.0866751E+01  2.4229481E+01
 2.0878250E+01  2.4174339E+01
 2.0889751E+01  2.4135599E+01
 2.0901251E+01  2.4172483E+01
 2.0912750E+01  2.4164759E+01
 2.0924252E+01  2.4228891E+01
 2.0935751E+01  2.4264170E+01
 2.0947250E+01  2.4458796E+01
 2.0958752E+01  2.4382822E+01
 2.0970251E+01  2.4302191E+01
 2.0981750E+01  2.4166840E+01
 2.0993252E+01  2.4136230E+01
 2.1004751E+01  2.4081106E+01
 2.1016251E+01  2.4060772E+01
 2.1027752E+01  2.4097170E+01
 2.1039251E+01  2.4097485E+01
 2.1050751E+01  2.4090263E+01
 2.1062250E+01  2.4087227E+01
 2.1073751E+01  2.4124050E+01
 2.1085251E+01  2.4126181E+01
 2.1096750E+01  2.4073822E+01
 2.1108252E+01  2.4032280E+01
 2.1119751E+01  2.4027826E+01
 2.1131250E+01  2.4053980E+01
 2.1142752E+01  2.3989708E+01
 2.1154251E+01  2.3961937E+01
 2.1165751E+01  2.3945135E+01
 2.1177252E+01  2.4032921E+01
 2.1188751E+01  2.4044264E+01
 2.1200251E+01  2.4076990E+01
 2.1211752E+01  2.4065674E+01
 2.1223251E+01  2.4044842E+01
 2.1234751E+01  2.3988628E+01
 2.1246250E+01  2.3992762E+01
 2.1257751E+01  2.4010416E+01
 2.1269251E+01  2.4016434E+01
 2.1280750E+01  2.4072554E+01
 2.1292252E+01  2.4071144E+01
 2.1303751E+01  2.4101675E+01
 2.1315250E+01  2.4055182E+01
 2.1326752E+01  2.4036434E+01
 2.1338251E+01  2.4032373E+01
 2.1349751E+01  2.4081633E+01
 2.1361252E+01  2.4124168E+01
 2.1372751E+01  2.4126108E+01
 2.1384251E+01  2.4062193E+01
 2.1395752E+01  2.4061779E+01
 2.1407251E+01  2.4041693E+01
 2.1418751E+01  2.4097813E+01
 2.1430250E+01  2.4097397E+01
 2.1441751E+01  2.4076902E+01
 2.1453251E+01  2.4076454E+01
 2.1464750E+01  2.4077795E+01
 2.1476252E+01  2.4054972E+01
 2.1487751E+01  2.4084736E+01
 2.1499250E+01  2.4121115E+01
 2.1510752E+01  2.4175928E+01
 2.1522251E+01  2.4166386E+01
 2.1533751E+01  2.4175716E+01
 2.1545252E+01  2.4161781E+01
 2.1556751E+01  2.4125200E+01
 2.1568251E+01  2.4079859E+01
 2.1579752E+01  2.4091719E+01
 2.1591251E+01  2.4113003E+01
 2.1602751E+01  2.4172461E+01
 2.1614250E+01  2.4218044E+01
 2.1625751E+01  2.4284365E+01
 2.1637251E+01  2.4322126E+01
 2.1648750E+01  2.4310167E+01
 2.1660252E+01  2.4266493E+01
 2.1671751E+01  2.4220240E+01
 2.1683250E+01  2.4202415E+01
 2.1694752E+01  2.4181862E+01
 2.1706251E+01  2.4228176E+01
 2.1717751E+01  2.4272181E+01
 2.1729252E+01  2.4279469E+01
 2.1740751E+01  2.4287228E+01
 2.1752251E+01  2.4286366E+01
 2.1763752E+01  2.4229351E+01
 2.1775251E+01  2.4194057E+01
 2.1786751E+01  2.4156832E+01
 2.1798250E+01  2.4198179E+01
 2.1809752E+01  2.4210709E+01
 2.1821251E+01  2.4261881E+01
 2.1832750E+01  2.4224663E+01
 2.1844252E+01  2.4233101E+01
 2.1855751E+01  2.4212534E+01
 2.1867250E+01  2.4184353E+01
 2.1878752E+01  2.4199848E+01
 2.1890251E+01  2.4217344E+01
 2.1901751E+01  2.4219433E+01
 2.1913252E+01  2.4240223E+01
 2.1924751E+01  2.4241943E+01
 2.1936251E+01  2.4246115E+01
 2.1947752E+01  2.4209801E+01
 2.1959251E+01  2.4242342E+01
 2.1970751E+01  2.4267733E+01
 2.1982250E+01  2.4282082E+01
 2.1993752E+01  2.4279638E+01
 2.2005251E+01  2.4301659E+01
 2.2016750E+01  2.4355429E+01
 2.2028252E+01  2.4387989E+01
 2.2039751E+01  2.4423748E+01
 2.2051250E+01  2.4417772E+01
 2.2062752E+01  2.4397669E+01
 2.2074251E+01  2.4382429E+01
 2.2085751E+01  2.4341536E+01
 2.2097252E+01  2.4311049E+01
 2.2108751E+01  2.4255573E+01
 2.2120251E+01  2.4314501E+01
 2.2131752E+01  2.4344038E+01
 2.2143251E+01  2.4423925E+01
 2.2154751E+01  2.4430046E+01
 2.2166250E+01  2.4448463E+01
 2.2177752E+01  2.4429867E+01
 2.2189251E+01  2.4425121E+01
 2.2200750E+01  2.4435160E+01
 2.2212252E+01  2.4480276E+01
 2.2223751E+01  2.4572748E+01
 2.2235250E+01  2.4614735E+01
 2.2246752E+01  2.4643751E+01
 2.2258251E+01  2.4583872E+01
 2.2269751E+01  2.4520599E+01
 2.2281252E+01  2.4492331E+01
 2.2292751E+01  2.4543133E+01
 2.2304251E+01  2.4614950E+01
 2.2315752E+01  2.4651245E+01
 2.2327251E+01  2.4599590E+01
 2.2338751E+01  2.4591606E+01
 2.2350250E+01  2.4624552E+01
 2.2361752E+01  2.4650335E+01
 2.2373251E+01  2.4660057E+01
 2.2384750E+01  2.4653921E+01
 2.2396252E+01  2.4691597E+01
 2.2407751E+01  2.4677641E+01
 2.2419250E+01  2.4653736E+01
 2.2430752E+01  2.4653591E+01
 2.2442251E+01  2.4692749E+01
 2.2453751E+01  2.4779640E+01
 2.2465252E+01  2.4826767E+01
 2.2476751E+01  2.4830227E+01
 2.2488251E+01  2.4868374E+01
 2.2499752E+01  2.4923723E+01
 2.2511251E+01  2.4947214E+01
 2.2522751E+01  2.4935095E+01
 2.2534250E+01  2.4922932E+01
 2.2545752E+01  2.4933794E+01
 2.2557251E+01  2.4916538E+01
 2.2568750E+01  2.4896191E+01
 2.2580252E+01  2.4903334E+01
 2.2591751E+01  2.4951153E+01
 2.2603251E+01  2.4997732E+01
 2.2614752E+01  2.5062485E+01
 2.2626251E+01  2.5125092E+01
 2.2637751E+01  2.5134163E+01
 2.2649252E+01  2.5085693E+01
 2.2660751E+01  2.5058207E+01
 2.2672251E+01  2.5122044E+01
 2.2683752E+01  2.5183231E+01
 2.2695251E+01  2.5260715E+01
 2.2706751E+01  2.5296999E+01
 2.2718250E+01  2.5298046E+01
 2.2729752E+01  2.5271471E+01
 2.2741251E+01  2.5248619E+01
 2.2752750E+01  2.5258505E+01
 2.2764252E+01  2.5303278E+01
 2.2775751E+01  2.5382526E+01
 2.2787251E+01  2.5427713E+01
 2.2798752E+01  2.5493715E+01
 2.2810251E+01  2.5557039E+01
 2.2821751E+01  2.5590796E+01
 2.2833252E+01  2.5598890E+01
 2.2844751E+01  2.5601994E+01
 2.2856251E+01  2.5590126E+01
 2.2867750E+01  2.5652569E+01
 2.2879251E+01  2.5688721E+01
 2.2890751E+01  2.5761715E+01
 2.2902250E+01  2.5784740E+01
 2.2913752E+01  2.5892973E+01
 2.2925251E+01  2.5964430E+01
 2.2936750E+01  2.6046103E+01
 2.2948252E+01  2.6076162E+01
 2.2959751E+01  2.6095140E+01
 2.2971251E+01  2.6140690E+01
 2.2982752E+01  2.6232714E+01
 2.2994251E+01  2.6333467E+01
