F:\20151113_APS_34IDE\\Brian\Particle1\OCV\Data_0047.tif
2-Theta Angle (Degrees)
Intensity
       2000
 5.7500005E-03  0.0000000E+00
 1.7250001E-02  0.0000000E+00
 2.8750001E-02  0.0000000E+00
 4.0250003E-02  0.0000000E+00
 5.1750004E-02  0.0000000E+00
 6.3250005E-02  0.0000000E+00
 7.4750006E-02  0.0000000E+00
 8.6250007E-02  0.0000000E+00
 9.7750008E-02  0.0000000E+00
 1.0925001E-01  0.0000000E+00
 1.2075000E-01  0.0000000E+00
 1.3225001E-01  0.0000000E+00
 1.4375001E-01  0.0000000E+00
 1.5525001E-01  0.0000000E+00
 1.6675001E-01  0.0000000E+00
 1.7825001E-01  0.0000000E+00
 1.8975002E-01  0.0000000E+00
 2.0125002E-01  0.0000000E+00
 2.1275002E-01  0.0000000E+00
 2.2425000E-01  0.0000000E+00
 2.3575000E-01  0.0000000E+00
 2.4725001E-01  0.0000000E+00
 2.5875002E-01  0.0000000E+00
 2.7025002E-01  0.0000000E+00
 2.8175002E-01  0.0000000E+00
 2.9325002E-01  0.0000000E+00
 3.0475003E-01  0.0000000E+00
 3.1625003E-01  0.0000000E+00
 3.2775003E-01  0.0000000E+00
 3.3925003E-01  0.0000000E+00
 3.5075003E-01  0.0000000E+00
 3.6225003E-01  0.0000000E+00
 3.7375003E-01  0.0000000E+00
 3.8525003E-01  0.0000000E+00
 3.9675003E-01  0.0000000E+00
 4.0825003E-01  0.0000000E+00
 4.1975003E-01  0.0000000E+00
 4.3125004E-01  0.0000000E+00
 4.4275001E-01  0.0000000E+00
 4.5425001E-01  0.0000000E+00
 4.6575001E-01  0.0000000E+00
 4.7725001E-01  0.0000000E+00
 4.8875001E-01  0.0000000E+00
 5.0025004E-01  0.0000000E+00
 5.1175004E-01  0.0000000E+00
 5.2325004E-01  0.0000000E+00
 5.3475004E-01  0.0000000E+00
 5.4625005E-01  0.0000000E+00
 5.5775005E-01  0.0000000E+00
 5.6925005E-01  0.0000000E+00
 5.8075005E-01  0.0000000E+00
 5.9225005E-01  0.0000000E+00
 6.0375005E-01  0.0000000E+00
 6.1525005E-01  0.0000000E+00
 6.2675005E-01  0.0000000E+00
 6.3825005E-01  0.0000000E+00
 6.4975005E-01  0.0000000E+00
 6.6125005E-01  0.0000000E+00
 6.7275006E-01  0.0000000E+00
 6.8425006E-01  0.0000000E+00
 6.9575006E-01  0.0000000E+00
 7.0725006E-01  0.0000000E+00
 7.1875006E-01  0.0000000E+00
 7.3025006E-01  0.0000000E+00
 7.4175006E-01  0.0000000E+00
 7.5325006E-01  0.0000000E+00
 7.6475006E-01  0.0000000E+00
 7.7625006E-01  0.0000000E+00
 7.8775007E-01  0.0000000E+00
 7.9925007E-01  0.0000000E+00
 8.1075007E-01  0.0000000E+00
 8.2225007E-01  0.0000000E+00
 8.3375007E-01  0.0000000E+00
 8.4525007E-01  0.0000000E+00
 8.5675007E-01  0.0000000E+00
 8.6825007E-01  0.0000000E+00
 8.7975001E-01  0.0000000E+00
 8.9125001E-01  0.0000000E+00
 9.0275002E-01  0.0000000E+00
 9.1425002E-01  0.0000000E+00
 9.2575002E-01  0.0000000E+00
 9.3725002E-01  0.0000000E+00
 9.4875002E-01  0.0000000E+00
 9.6025002E-01  0.0000000E+00
 9.7175002E-01  0.0000000E+00
 9.8325002E-01  0.0000000E+00
 9.9475002E-01  0.0000000E+00
 1.0062500E+00  0.0000000E+00
 1.0177500E+00  0.0000000E+00
 1.0292500E+00  0.0000000E+00
 1.0407500E+00  0.0000000E+00
 1.0522500E+00  0.0000000E+00
 1.0637500E+00  0.0000000E+00
 1.0752500E+00  0.0000000E+00
 1.0867500E+00  0.0000000E+00
 1.0982500E+00  0.0000000E+00
 1.1097500E+00  0.0000000E+00
 1.1212500E+00  0.0000000E+00
 1.1327500E+00  0.0000000E+00
 1.1442500E+00  0.0000000E+00
 1.1557500E+00  0.0000000E+00
 1.1672500E+00  0.0000000E+00
 1.1787500E+00  0.0000000E+00
 1.1902500E+00  0.0000000E+00
 1.2017500E+00  0.0000000E+00
 1.2132500E+00  0.0000000E+00
 1.2247500E+00  0.0000000E+00
 1.2362500E+00  0.0000000E+00
 1.2477500E+00  0.0000000E+00
 1.2592500E+00  0.0000000E+00
 1.2707500E+00  0.0000000E+00
 1.2822500E+00  0.0000000E+00
 1.2937500E+00  0.0000000E+00
 1.3052500E+00  0.0000000E+00
 1.3167500E+00  0.0000000E+00
 1.3282501E+00  0.0000000E+00
 1.3397501E+00  0.0000000E+00
 1.3512501E+00  0.0000000E+00
 1.3627501E+00  0.0000000E+00
 1.3742501E+00  0.0000000E+00
 1.3857501E+00  0.0000000E+00
 1.3972501E+00  0.0000000E+00
 1.4087501E+00  0.0000000E+00
 1.4202501E+00  0.0000000E+00
 1.4317501E+00  0.0000000E+00
 1.4432501E+00  0.0000000E+00
 1.4547501E+00  0.0000000E+00
 1.4662501E+00  0.0000000E+00
 1.4777501E+00  0.0000000E+00
 1.4892501E+00  0.0000000E+00
 1.5007501E+00  0.0000000E+00
 1.5122501E+00  0.0000000E+00
 1.5237501E+00  0.0000000E+00
 1.5352501E+00  0.0000000E+00
 1.5467501E+00  0.0000000E+00
 1.5582501E+00  0.0000000E+00
 1.5697501E+00  0.0000000E+00
 1.5812501E+00  0.0000000E+00
 1.5927501E+00  0.0000000E+00
 1.6042501E+00  0.0000000E+00
 1.6157501E+00  0.0000000E+00
 1.6272501E+00  0.0000000E+00
 1.6387501E+00  0.0000000E+00
 1.6502501E+00  0.0000000E+00
 1.6617501E+00  0.0000000E+00
 1.6732501E+00  0.0000000E+00
 1.6847501E+00  0.0000000E+00
 1.6962501E+00  0.0000000E+00
 1.7077501E+00  0.0000000E+00
 1.7192501E+00  0.0000000E+00
 1.7307501E+00  0.0000000E+00
 1.7422501E+00  0.0000000E+00
 1.7537501E+00  0.0000000E+00
 1.7652501E+00  0.0000000E+00
 1.7767501E+00  0.0000000E+00
 1.7882501E+00  0.0000000E+00
 1.7997501E+00  0.0000000E+00
 1.8112501E+00  0.0000000E+00
 1.8227501E+00  0.0000000E+00
 1.8342501E+00  0.0000000E+00
 1.8457501E+00  0.0000000E+00
 1.8572501E+00  0.0000000E+00
 1.8687501E+00  0.0000000E+00
 1.8802501E+00  0.0000000E+00
 1.8917501E+00  0.0000000E+00
 1.9032501E+00  0.0000000E+00
 1.9147501E+00  0.0000000E+00
 1.9262501E+00  0.0000000E+00
 1.9377501E+00  0.0000000E+00
 1.9492501E+00  0.0000000E+00
 1.9607501E+00  0.0000000E+00
 1.9722501E+00  0.0000000E+00
 1.9837501E+00  0.0000000E+00
 1.9952501E+00  0.0000000E+00
 2.0067501E+00  0.0000000E+00
 2.0182500E+00  0.0000000E+00
 2.0297501E+00  0.0000000E+00
 2.0412500E+00  0.0000000E+00
 2.0527501E+00  0.0000000E+00
 2.0642500E+00  0.0000000E+00
 2.0757501E+00  0.0000000E+00
 2.0872500E+00  0.0000000E+00
 2.0987501E+00  0.0000000E+00
 2.1102500E+00  0.0000000E+00
 2.1217501E+00  0.0000000E+00
 2.1332500E+00  0.0000000E+00
 2.1447501E+00  0.0000000E+00
 2.1562500E+00  0.0000000E+00
 2.1677501E+00  0.0000000E+00
 2.1792500E+00  0.0000000E+00
 2.1907501E+00  0.0000000E+00
 2.2022500E+00  0.0000000E+00
 2.2137501E+00  0.0000000E+00
 2.2252500E+00  0.0000000E+00
 2.2367501E+00  0.0000000E+00
 2.2482500E+00  0.0000000E+00
 2.2597501E+00  0.0000000E+00
 2.2712500E+00  0.0000000E+00
 2.2827501E+00  0.0000000E+00
 2.2942500E+00  0.0000000E+00
 2.3057501E+00  0.0000000E+00
 2.3172500E+00  0.0000000E+00
 2.3287501E+00  0.0000000E+00
 2.3402500E+00  0.0000000E+00
 2.3517501E+00  0.0000000E+00
 2.3632500E+00  0.0000000E+00
 2.3747501E+00  0.0000000E+00
 2.3862500E+00  0.0000000E+00
 2.3977501E+00  0.0000000E+00
 2.4092500E+00  0.0000000E+00
 2.4207501E+00  0.0000000E+00
 2.4322500E+00  0.0000000E+00
 2.4437501E+00  0.0000000E+00
 2.4552500E+00  0.0000000E+00
 2.4667501E+00  0.0000000E+00
 2.4782500E+00  0.0000000E+00
 2.4897501E+00  0.0000000E+00
 2.5012500E+00  0.0000000E+00
 2.5127501E+00  0.0000000E+00
 2.5242500E+00  0.0000000E+00
 2.5357502E+00  0.0000000E+00
 2.5472500E+00  0.0000000E+00
 2.5587502E+00  0.0000000E+00
 2.5702500E+00  0.0000000E+00
 2.5817502E+00  0.0000000E+00
 2.5932500E+00  0.0000000E+00
 2.6047502E+00  0.0000000E+00
 2.6162500E+00  0.0000000E+00
 2.6277502E+00  0.0000000E+00
 2.6392500E+00  0.0000000E+00
 2.6507502E+00  0.0000000E+00
 2.6622500E+00  0.0000000E+00
 2.6737502E+00  0.0000000E+00
 2.6852500E+00  0.0000000E+00
 2.6967502E+00  0.0000000E+00
 2.7082500E+00  0.0000000E+00
 2.7197502E+00  0.0000000E+00
 2.7312500E+00  0.0000000E+00
 2.7427502E+00  0.0000000E+00
 2.7542500E+00  0.0000000E+00
 2.7657502E+00  0.0000000E+00
 2.7772501E+00  0.0000000E+00
 2.7887502E+00  0.0000000E+00
 2.8002501E+00  0.0000000E+00
 2.8117502E+00  0.0000000E+00
 2.8232501E+00  3.2272770E+01
 2.8347502E+00  3.3458412E+01
 2.8462501E+00  3.3613754E+01
 2.8577502E+00  3.3967953E+01
 2.8692501E+00  3.4570366E+01
 2.8807502E+00  3.4530376E+01
 2.8922501E+00  3.4812004E+01
 2.9037502E+00  3.4891983E+01
 2.9152501E+00  3.5290787E+01
 2.9267502E+00  3.5602421E+01
 2.9382501E+00  3.5731144E+01
 2.9497502E+00  3.6016445E+01
 2.9612501E+00  3.5893429E+01
 2.9727502E+00  3.6010925E+01
 2.9842501E+00  3.5632130E+01
 2.9957502E+00  3.6045532E+01
 3.0072501E+00  3.5987968E+01
 3.0187502E+00  3.6043495E+01
 3.0302501E+00  3.5733704E+01
 3.0417502E+00  3.5474922E+01
 3.0532501E+00  3.5373520E+01
 3.0647502E+00  3.5063564E+01
 3.0762501E+00  3.4787342E+01
 3.0877502E+00  3.4899719E+01
 3.0992501E+00  3.5316959E+01
 3.1107502E+00  3.5153751E+01
 3.1222501E+00  3.5261635E+01
 3.1337502E+00  3.5029354E+01
 3.1452501E+00  3.5618473E+01
 3.1567502E+00  3.5502365E+01
 3.1682501E+00  3.5498737E+01
 3.1797502E+00  3.4894306E+01
 3.1912501E+00  3.4619480E+01
 3.2027502E+00  3.3976398E+01
 3.2142501E+00  3.3957619E+01
 3.2257502E+00  3.3997822E+01
 3.2372501E+00  3.4255783E+01
 3.2487502E+00  3.4279926E+01
 3.2602501E+00  3.4591385E+01
 3.2717502E+00  3.4666962E+01
 3.2832501E+00  3.4763824E+01
 3.2947502E+00  3.4626049E+01
 3.3062501E+00  3.4584351E+01
 3.3177502E+00  3.4715084E+01
 3.3292501E+00  3.4794464E+01
 3.3407502E+00  3.5044121E+01
 3.3522501E+00  3.5418060E+01
 3.3637502E+00  3.5307243E+01
 3.3752501E+00  3.5616253E+01
 3.3867502E+00  3.5330627E+01
 3.3982501E+00  3.5294380E+01
 3.4097502E+00  3.4873470E+01
 3.4212501E+00  3.4711811E+01
 3.4327502E+00  3.4442539E+01
 3.4442501E+00  3.4272278E+01
 3.4557502E+00  3.3995426E+01
 3.4672501E+00  3.3905876E+01
 3.4787502E+00  3.3756554E+01
 3.4902501E+00  3.3658165E+01
 3.5017502E+00  3.3722347E+01
 3.5132501E+00  3.3559368E+01
 3.5247502E+00  3.3301208E+01
 3.5362501E+00  3.3142292E+01
 3.5477502E+00  3.2860409E+01
 3.5592501E+00  3.3062592E+01
 3.5707502E+00  3.3010845E+01
 3.5822501E+00  3.3203747E+01
 3.5937502E+00  3.3279118E+01
 3.6052501E+00  3.3035500E+01
 3.6167502E+00  3.2956863E+01
 3.6282501E+00  3.2870964E+01
 3.6397502E+00  3.2891823E+01
 3.6512501E+00  3.3137684E+01
 3.6627502E+00  3.3004131E+01
 3.6742501E+00  3.3066143E+01
 3.6857502E+00  3.3065525E+01
 3.6972501E+00  3.3085949E+01
 3.7087502E+00  3.3081108E+01
 3.7202501E+00  3.3081604E+01
 3.7317502E+00  3.3075329E+01
 3.7432501E+00  3.3136585E+01
 3.7547503E+00  3.3032146E+01
 3.7662501E+00  3.2989128E+01
 3.7777503E+00  3.2959435E+01
 3.7892501E+00  3.2843681E+01
 3.8007503E+00  3.2622353E+01
 3.8122501E+00  3.2558571E+01
 3.8237503E+00  3.2496651E+01
 3.8352501E+00  3.2560184E+01
 3.8467503E+00  3.2564625E+01
 3.8582501E+00  3.2711838E+01
 3.8697503E+00  3.2940159E+01
 3.8812501E+00  3.3069092E+01
 3.8927503E+00  3.2846676E+01
 3.9042501E+00  3.2675873E+01
 3.9157503E+00  3.2345005E+01
 3.9272501E+00  3.2346931E+01
 3.9387503E+00  3.2197906E+01
 3.9502501E+00  3.2112030E+01
 3.9617503E+00  3.2171295E+01
 3.9732502E+00  3.2185226E+01
 3.9847503E+00  3.2305653E+01
 3.9962502E+00  3.2293381E+01
 4.0077500E+00  3.2294479E+01
 4.0192504E+00  3.2218365E+01
 4.0307503E+00  3.2260815E+01
 4.0422502E+00  3.2320477E+01
 4.0537500E+00  3.2216908E+01
 4.0652504E+00  3.2105942E+01
 4.0767503E+00  3.2181339E+01
 4.0882502E+00  3.2209969E+01
 4.0997500E+00  3.2450249E+01
 4.1112504E+00  3.2344471E+01
 4.1227503E+00  3.2288605E+01
 4.1342502E+00  3.2234760E+01
 4.1457500E+00  3.2176037E+01
 4.1572504E+00  3.2243969E+01
 4.1687503E+00  3.2176876E+01
 4.1802502E+00  3.2080353E+01
 4.1917500E+00  3.2164604E+01
 4.2032504E+00  3.2029327E+01
 4.2147503E+00  3.2220966E+01
 4.2262502E+00  3.2215893E+01
 4.2377501E+00  3.2229340E+01
 4.2492504E+00  3.2103397E+01
 4.2607503E+00  3.2068462E+01
 4.2722502E+00  3.2239433E+01
 4.2837501E+00  3.2447956E+01
 4.2952504E+00  3.2537437E+01
 4.3067503E+00  3.2562607E+01
 4.3182502E+00  3.2379406E+01
 4.3297501E+00  3.2335117E+01
 4.3412504E+00  3.2181080E+01
 4.3527503E+00  3.2154999E+01
 4.3642502E+00  3.2101151E+01
 4.3757501E+00  3.2200970E+01
 4.3872504E+00  3.2293201E+01
 4.3987503E+00  3.2553558E+01
 4.4102502E+00  3.2557178E+01
 4.4217501E+00  3.2673496E+01
 4.4332504E+00  3.2707554E+01
 4.4447503E+00  3.2624012E+01
 4.4562502E+00  3.2592026E+01
 4.4677501E+00  3.2375160E+01
 4.4792504E+00  3.2367313E+01
 4.4907503E+00  3.2414364E+01
 4.5022502E+00  3.2388367E+01
 4.5137501E+00  3.2376217E+01
 4.5252504E+00  3.2398579E+01
 4.5367503E+00  3.2470318E+01
 4.5482502E+00  3.2531120E+01
 4.5597501E+00  3.2447624E+01
 4.5712504E+00  3.2452148E+01
 4.5827503E+00  3.2418205E+01
 4.5942502E+00  3.2524025E+01
 4.6057501E+00  3.2569145E+01
 4.6172504E+00  3.2657726E+01
 4.6287503E+00  3.2719051E+01
 4.6402502E+00  3.2740490E+01
 4.6517501E+00  3.2739140E+01
 4.6632504E+00  3.2730171E+01
 4.6747503E+00  3.2722824E+01
 4.6862502E+00  3.2811226E+01
 4.6977501E+00  3.3081078E+01
 4.7092505E+00  3.3150154E+01
 4.7207503E+00  3.3212978E+01
 4.7322502E+00  3.3080166E+01
 4.7437501E+00  3.3036102E+01
 4.7552505E+00  3.3004337E+01
 4.7667503E+00  3.2858868E+01
 4.7782502E+00  3.2791962E+01
 4.7897501E+00  3.2684013E+01
 4.8012505E+00  3.2569275E+01
 4.8127503E+00  3.2529190E+01
 4.8242502E+00  3.2483612E+01
 4.8357501E+00  3.2453358E+01
 4.8472505E+00  3.2431057E+01
 4.8587503E+00  3.2523033E+01
 4.8702502E+00  3.2517906E+01
 4.8817501E+00  3.2609081E+01
 4.8932505E+00  3.2571812E+01
 4.9047503E+00  3.2619698E+01
 4.9162502E+00  3.2645599E+01
 4.9277501E+00  3.2606037E+01
 4.9392505E+00  3.2699741E+01
 4.9507504E+00  3.2683628E+01
 4.9622502E+00  3.2702381E+01
 4.9737501E+00  3.2834618E+01
 4.9852505E+00  3.3004566E+01
 4.9967504E+00  3.3134155E+01
 5.0082502E+00  3.3083172E+01
 5.0197501E+00  3.3047737E+01
 5.0312505E+00  3.3030712E+01
 5.0427504E+00  3.3147015E+01
 5.0542502E+00  3.3271736E+01
 5.0657501E+00  3.3406387E+01
 5.0772505E+00  3.3500698E+01
 5.0887504E+00  3.3507210E+01
 5.1002502E+00  3.3557003E+01
 5.1117501E+00  3.3619934E+01
 5.1232505E+00  3.3590511E+01
 5.1347504E+00  3.3778351E+01
 5.1462502E+00  3.3782047E+01
 5.1577501E+00  3.3957859E+01
 5.1692505E+00  3.3984566E+01
 5.1807504E+00  3.3913788E+01
 5.1922503E+00  3.3889309E+01
 5.2037501E+00  3.3679615E+01
 5.2152505E+00  3.3627354E+01
 5.2267504E+00  3.3555935E+01
 5.2382503E+00  3.3621880E+01
 5.2497501E+00  3.3744133E+01
 5.2612505E+00  3.3926701E+01
 5.2727504E+00  3.4081902E+01
 5.2842503E+00  3.4171337E+01
 5.2957501E+00  3.4107697E+01
 5.3072500E+00  3.4150784E+01
 5.3187504E+00  3.4225658E+01
 5.3302503E+00  3.4289337E+01
 5.3417501E+00  3.4206745E+01
 5.3532500E+00  3.4228306E+01
 5.3647504E+00  3.4364868E+01
 5.3762503E+00  3.4507919E+01
 5.3877501E+00  3.4580780E+01
 5.3992500E+00  3.4496212E+01
 5.4107504E+00  3.4281216E+01
 5.4222503E+00  3.4152153E+01
 5.4337502E+00  3.4019917E+01
 5.4452500E+00  3.4221867E+01
 5.4567504E+00  3.4363201E+01
 5.4682503E+00  3.4667633E+01
 5.4797502E+00  3.4792526E+01
 5.4912500E+00  3.4839687E+01
 5.5027504E+00  3.4787785E+01
 5.5142503E+00  3.4725468E+01
 5.5257502E+00  3.4686440E+01
 5.5372500E+00  3.4819031E+01
 5.5487504E+00  3.4917187E+01
 5.5602503E+00  3.5141933E+01
 5.5717502E+00  3.5284248E+01
 5.5832500E+00  3.5388824E+01
 5.5947504E+00  3.5452084E+01
 5.6062503E+00  3.5389545E+01
 5.6177502E+00  3.5403294E+01
 5.6292500E+00  3.5424007E+01
 5.6407504E+00  3.5414211E+01
 5.6522503E+00  3.5483696E+01
 5.6637502E+00  3.5557152E+01
 5.6752501E+00  3.5722416E+01
 5.6867504E+00  3.5717701E+01
 5.6982503E+00  3.5746178E+01
 5.7097502E+00  3.5819176E+01
 5.7212501E+00  3.5922909E+01
 5.7327504E+00  3.6044777E+01
 5.7442503E+00  3.5987736E+01
 5.7557502E+00  3.5977947E+01
 5.7672501E+00  3.5776356E+01
 5.7787504E+00  3.5745388E+01
 5.7902503E+00  3.5772602E+01
 5.8017502E+00  3.5938526E+01
 5.8132501E+00  3.6056797E+01
 5.8247504E+00  3.6318192E+01
 5.8362503E+00  3.6598797E+01
 5.8477502E+00  3.6935257E+01
 5.8592501E+00  3.7054962E+01
 5.8707504E+00  3.7326733E+01
 5.8822503E+00  3.7843315E+01
 5.8937502E+00  3.8667229E+01
 5.9052501E+00  4.0372055E+01
 5.9167504E+00  4.2432713E+01
 5.9282503E+00  4.7422089E+01
 5.9397502E+00  5.3078693E+01
 5.9512501E+00  6.2212299E+01
 5.9627504E+00  6.8983139E+01
 5.9742503E+00  7.9463623E+01
 5.9857502E+00  8.2444885E+01
 5.9972501E+00  8.2969292E+01
 6.0087504E+00  7.5873825E+01
 6.0202503E+00  6.7523468E+01
 6.0317502E+00  5.8388378E+01
 6.0432501E+00  5.0351833E+01
 6.0547504E+00  4.4751884E+01
 6.0662503E+00  4.1866497E+01
 6.0777502E+00  3.9746380E+01
 6.0892501E+00  3.8875591E+01
 6.1007504E+00  3.8234329E+01
 6.1122503E+00  3.7974831E+01
 6.1237502E+00  3.7652489E+01
 6.1352501E+00  3.7487587E+01
 6.1467505E+00  3.7312164E+01
 6.1582503E+00  3.7317795E+01
 6.1697502E+00  3.7324223E+01
 6.1812501E+00  3.7483074E+01
 6.1927505E+00  3.7448738E+01
 6.2042503E+00  3.7464272E+01
 6.2157502E+00  3.7403008E+01
 6.2272501E+00  3.7449905E+01
 6.2387505E+00  3.7368626E+01
 6.2502503E+00  3.7377453E+01
 6.2617502E+00  3.7426224E+01
 6.2732501E+00  3.7582718E+01
 6.2847505E+00  3.7623466E+01
 6.2962503E+00  3.7649433E+01
 6.3077502E+00  3.7706043E+01
 6.3192501E+00  3.7730598E+01
 6.3307505E+00  3.7804703E+01
 6.3422503E+00  3.7764263E+01
 6.3537502E+00  3.7834217E+01
 6.3652501E+00  3.7909267E+01
 6.3767505E+00  3.7975277E+01
 6.3882504E+00  3.8041023E+01
 6.3997502E+00  3.8029236E+01
 6.4112501E+00  3.8170925E+01
 6.4227505E+00  3.8267162E+01
 6.4342504E+00  3.8447109E+01
 6.4457502E+00  3.8502007E+01
 6.4572501E+00  3.8532974E+01
 6.4687505E+00  3.8578438E+01
 6.4802504E+00  3.8683029E+01
 6.4917502E+00  3.8884674E+01
 6.5032501E+00  3.9068554E+01
 6.5147505E+00  3.9268852E+01
 6.5262504E+00  3.9306145E+01
 6.5377502E+00  3.9329769E+01
 6.5492501E+00  3.9323769E+01
 6.5607505E+00  3.9397762E+01
 6.5722504E+00  3.9574219E+01
 6.5837502E+00  3.9677979E+01
 6.5952501E+00  3.9736324E+01
 6.6067505E+00  3.9711575E+01
 6.6182504E+00  3.9709633E+01
 6.6297503E+00  3.9789726E+01
 6.6412501E+00  3.9780033E+01
 6.6527505E+00  3.9807903E+01
 6.6642504E+00  3.9903088E+01
 6.6757503E+00  3.9926105E+01
 6.6872501E+00  3.9957436E+01
 6.6987505E+00  3.9916466E+01
 6.7102504E+00  4.0041939E+01
 6.7217503E+00  4.0222771E+01
 6.7332501E+00  4.0355129E+01
 6.7447505E+00  4.0498924E+01
 6.7562504E+00  4.0661133E+01
 6.7677503E+00  4.0766396E+01
 6.7792501E+00  4.0789261E+01
 6.7907505E+00  4.0862095E+01
 6.8022504E+00  4.0976566E+01
 6.8137503E+00  4.1111458E+01
 6.8252501E+00  4.1219498E+01
 6.8367505E+00  4.1191788E+01
 6.8482504E+00  4.1317379E+01
 6.8597503E+00  4.1328510E+01
 6.8712502E+00  4.1468956E+01
 6.8827505E+00  4.1547264E+01
 6.8942504E+00  4.1650211E+01
 6.9057503E+00  4.1731033E+01
 6.9172502E+00  4.1840176E+01
 6.9287505E+00  4.1828747E+01
 6.9402504E+00  4.1901829E+01
 6.9517503E+00  4.2022717E+01
 6.9632502E+00  4.2084541E+01
 6.9747505E+00  4.2162949E+01
 6.9862504E+00  4.2101379E+01
 6.9977503E+00  4.2158089E+01
 7.0092502E+00  4.2189137E+01
 7.0207505E+00  4.2255875E+01
 7.0322504E+00  4.2336990E+01
 7.0437503E+00  4.2467033E+01
 7.0552502E+00  4.2582779E+01
 7.0667505E+00  4.2716713E+01
 7.0782504E+00  4.2647644E+01
 7.0897503E+00  4.2654255E+01
 7.1012502E+00  4.2587254E+01
 7.1127505E+00  4.2656803E+01
 7.1242504E+00  4.2735630E+01
 7.1357503E+00  4.2851280E+01
 7.1472502E+00  4.3014076E+01
 7.1587505E+00  4.3090736E+01
 7.1702504E+00  4.3053139E+01
 7.1817503E+00  4.3047211E+01
 7.1932502E+00  4.3017689E+01
 7.2047505E+00  4.3100426E+01
 7.2162504E+00  4.3171379E+01
 7.2277503E+00  4.3208588E+01
 7.2392502E+00  4.3373974E+01
 7.2507505E+00  4.3459000E+01
 7.2622504E+00  4.3555443E+01
 7.2737503E+00  4.3600567E+01
 7.2852502E+00  4.3510090E+01
 7.2967505E+00  4.3511673E+01
 7.3082504E+00  4.3546673E+01
 7.3197503E+00  4.3676723E+01
 7.3312502E+00  4.3785942E+01
 7.3427505E+00  4.3768070E+01
 7.3542504E+00  4.3745960E+01
 7.3657503E+00  4.3728767E+01
 7.3772502E+00  4.3677502E+01
 7.3887506E+00  4.3624123E+01
 7.4002504E+00  4.3647121E+01
 7.4117503E+00  4.3759747E+01
 7.4232502E+00  4.3849548E+01
 7.4347506E+00  4.3921276E+01
 7.4462504E+00  4.3973885E+01
 7.4577503E+00  4.4063683E+01
 7.4692502E+00  4.4075439E+01
 7.4807506E+00  4.4085209E+01
 7.4922504E+00  4.4068096E+01
 7.5037503E+00  4.4207928E+01
 7.5152502E+00  4.4186733E+01
 7.5267506E+00  4.4237629E+01
 7.5382504E+00  4.4239616E+01
 7.5497503E+00  4.4247101E+01
 7.5612502E+00  4.4299992E+01
 7.5727506E+00  4.4348087E+01
 7.5842505E+00  4.4379265E+01
 7.5957503E+00  4.4414547E+01
 7.6072502E+00  4.4396431E+01
 7.6187506E+00  4.4354969E+01
 7.6302505E+00  4.4223244E+01
 7.6417503E+00  4.4075878E+01
 7.6532502E+00  4.3971634E+01
 7.6647506E+00  4.4004826E+01
 7.6762505E+00  4.3943703E+01
 7.6877503E+00  4.4026627E+01
 7.6992502E+00  4.4015408E+01
 7.7107506E+00  4.4080605E+01
 7.7222505E+00  4.4135582E+01
 7.7337503E+00  4.4130287E+01
 7.7452502E+00  4.4265785E+01
 7.7567506E+00  4.4250626E+01
 7.7682505E+00  4.4309944E+01
 7.7797503E+00  4.4224907E+01
 7.7912502E+00  4.4269009E+01
 7.8027506E+00  4.4191772E+01
 7.8142505E+00  4.4138771E+01
 7.8257504E+00  4.3987843E+01
 7.8372502E+00  4.3943600E+01
 7.8487506E+00  4.3902031E+01
 7.8602505E+00  4.3889160E+01
 7.8717504E+00  4.3781338E+01
 7.8832502E+00  4.3699924E+01
 7.8947506E+00  4.3581425E+01
 7.9062505E+00  4.3584152E+01
 7.9177504E+00  4.3627068E+01
 7.9292502E+00  4.3526443E+01
 7.9407506E+00  4.3430317E+01
 7.9522505E+00  4.3320713E+01
 7.9637504E+00  4.3324818E+01
 7.9752502E+00  4.3298897E+01
 7.9867506E+00  4.3242111E+01
 7.9982505E+00  4.3193256E+01
 8.0097504E+00  4.3156525E+01
 8.0212507E+00  4.3010601E+01
 8.0327501E+00  4.2992577E+01
 8.0442505E+00  4.2953457E+01
 8.0557508E+00  4.2972973E+01
 8.0672503E+00  4.2943626E+01
 8.0787506E+00  4.2933487E+01
 8.0902500E+00  4.2972012E+01
 8.1017504E+00  4.2911018E+01
 8.1132507E+00  4.2872482E+01
 8.1247501E+00  4.2686016E+01
 8.1362505E+00  4.2555664E+01
 8.1477509E+00  4.2410362E+01
 8.1592503E+00  4.2258549E+01
 8.1707506E+00  4.2184364E+01
 8.1822500E+00  4.2013252E+01
 8.1937504E+00  4.1942074E+01
 8.2052507E+00  4.1766132E+01
 8.2167501E+00  4.1626080E+01
 8.2282505E+00  4.1481022E+01
 8.2397509E+00  4.1310215E+01
 8.2512503E+00  4.1147289E+01
 8.2627506E+00  4.0924751E+01
 8.2742500E+00  4.0718166E+01
 8.2857504E+00  4.0543678E+01
 8.2972507E+00  4.0481415E+01
 8.3087502E+00  4.0458263E+01
 8.3202505E+00  4.0425823E+01
 8.3317509E+00  4.0425117E+01
 8.3432503E+00  4.0263988E+01
 8.3547506E+00  4.0097191E+01
 8.3662500E+00  3.9785542E+01
 8.3777504E+00  3.9521366E+01
 8.3892508E+00  3.9264271E+01
 8.4007502E+00  3.9147194E+01
 8.4122505E+00  3.9080761E+01
 8.4237509E+00  3.8942913E+01
 8.4352503E+00  3.8702183E+01
 8.4467506E+00  3.8574100E+01
 8.4582500E+00  3.8427464E+01
 8.4697504E+00  3.8343628E+01
 8.4812508E+00  3.8098610E+01
 8.4927502E+00  3.7897068E+01
 8.5042505E+00  3.7642952E+01
 8.5157509E+00  3.7403011E+01
 8.5272503E+00  3.7235142E+01
 8.5387506E+00  3.7114052E+01
 8.5502501E+00  3.6961773E+01
 8.5617504E+00  3.6879341E+01
 8.5732508E+00  3.6766083E+01
 8.5847502E+00  3.6691391E+01
 8.5962505E+00  3.6490574E+01
 8.6077509E+00  3.6230011E+01
 8.6192503E+00  3.6071163E+01
 8.6307507E+00  3.5947487E+01
 8.6422501E+00  3.5780643E+01
 8.6537504E+00  3.5612499E+01
 8.6652508E+00  3.5485546E+01
 8.6767502E+00  3.5384052E+01
 8.6882505E+00  3.5246506E+01
 8.6997509E+00  3.5089073E+01
 8.7112503E+00  3.4928211E+01
 8.7227507E+00  3.4755737E+01
 8.7342501E+00  3.4553249E+01
 8.7457504E+00  3.4313446E+01
 8.7572508E+00  3.4077217E+01
 8.7687502E+00  3.3828758E+01
 8.7802505E+00  3.3536247E+01
 8.7917500E+00  3.3376541E+01
 8.8032503E+00  3.3162140E+01
 8.8147507E+00  3.3075382E+01
 8.8262501E+00  3.2890411E+01
 8.8377504E+00  3.2806828E+01
 8.8492508E+00  3.2663754E+01
 8.8607502E+00  3.2550655E+01
 8.8722506E+00  3.2360233E+01
 8.8837500E+00  3.2196663E+01
 8.8952503E+00  3.1955662E+01
 8.9067507E+00  3.1802876E+01
 8.9182501E+00  3.1616064E+01
 8.9297504E+00  3.1491446E+01
 8.9412508E+00  3.1288082E+01
 8.9527502E+00  3.1199234E+01
 8.9642506E+00  3.1180489E+01
 8.9757500E+00  3.1123459E+01
 8.9872503E+00  3.1075047E+01
 8.9987507E+00  3.0862621E+01
 9.0102501E+00  3.0732285E+01
 9.0217505E+00  3.0465181E+01
 9.0332508E+00  3.0382978E+01
 9.0447502E+00  3.0251186E+01
 9.0562506E+00  3.0189917E+01
 9.0677500E+00  3.0098017E+01
 9.0792503E+00  2.9969778E+01
 9.0907507E+00  2.9917475E+01
 9.1022501E+00  2.9830307E+01
 9.1137505E+00  2.9728283E+01
 9.1252508E+00  2.9619452E+01
 9.1367502E+00  2.9404463E+01
 9.1482506E+00  2.9240232E+01
 9.1597500E+00  2.8991566E+01
 9.1712503E+00  2.8889364E+01
 9.1827507E+00  2.8754927E+01
 9.1942501E+00  2.8631899E+01
 9.2057505E+00  2.8479660E+01
 9.2172508E+00  2.8427948E+01
 9.2287502E+00  2.8350115E+01
 9.2402506E+00  2.8304081E+01
 9.2517500E+00  2.8253420E+01
 9.2632504E+00  2.8165859E+01
 9.2747507E+00  2.7988132E+01
 9.2862501E+00  2.7792814E+01
 9.2977505E+00  2.7720736E+01
 9.3092508E+00  2.7762989E+01
 9.3207502E+00  2.7747635E+01
 9.3322506E+00  2.7726873E+01
 9.3437500E+00  2.7611477E+01
 9.3552504E+00  2.7546263E+01
 9.3667507E+00  2.7458979E+01
 9.3782501E+00  2.7339640E+01
 9.3897505E+00  2.7223656E+01
 9.4012508E+00  2.7039362E+01
 9.4127502E+00  2.6935568E+01
 9.4242506E+00  2.6835785E+01
 9.4357500E+00  2.6741617E+01
 9.4472504E+00  2.6693043E+01
 9.4587507E+00  2.6647099E+01
 9.4702501E+00  2.6649998E+01
 9.4817505E+00  2.6675306E+01
 9.4932508E+00  2.6602991E+01
 9.5047503E+00  2.6581392E+01
 9.5162506E+00  2.6462910E+01
 9.5277500E+00  2.6309494E+01
 9.5392504E+00  2.6120668E+01
 9.5507507E+00  2.5948622E+01
 9.5622501E+00  2.5882261E+01
 9.5737505E+00  2.5786436E+01
 9.5852509E+00  2.5710646E+01
 9.5967503E+00  2.5732414E+01
 9.6082506E+00  2.5698853E+01
 9.6197500E+00  2.5698530E+01
 9.6312504E+00  2.5639397E+01
 9.6427507E+00  2.5595600E+01
 9.6542501E+00  2.5497780E+01
 9.6657505E+00  2.5374044E+01
 9.6772509E+00  2.5321388E+01
 9.6887503E+00  2.5306147E+01
 9.7002506E+00  2.5282742E+01
 9.7117500E+00  2.5284576E+01
 9.7232504E+00  2.5254866E+01
 9.7347507E+00  2.5167921E+01
 9.7462502E+00  2.5095449E+01
 9.7577505E+00  2.4986761E+01
 9.7692509E+00  2.4988832E+01
 9.7807503E+00  2.4956142E+01
 9.7922506E+00  2.5000200E+01
 9.8037500E+00  2.4971937E+01
 9.8152504E+00  2.4931520E+01
 9.8267508E+00  2.4849815E+01
 9.8382502E+00  2.4771654E+01
 9.8497505E+00  2.4662960E+01
 9.8612509E+00  2.4576855E+01
 9.8727503E+00  2.4509283E+01
 9.8842506E+00  2.4460243E+01
 9.8957500E+00  2.4450581E+01
 9.9072504E+00  2.4445795E+01
 9.9187508E+00  2.4514977E+01
 9.9302502E+00  2.4511963E+01
 9.9417505E+00  2.4491774E+01
 9.9532509E+00  2.4413691E+01
 9.9647503E+00  2.4336145E+01
 9.9762506E+00  2.4219778E+01
 9.9877501E+00  2.4178822E+01
 9.9992504E+00  2.4083435E+01
 1.0010751E+01  2.4095982E+01
 1.0022250E+01  2.4076607E+01
 1.0033751E+01  2.4142509E+01
 1.0045251E+01  2.4132908E+01
 1.0056750E+01  2.4086988E+01
 1.0068251E+01  2.4038103E+01
 1.0079750E+01  2.3958961E+01
 1.0091250E+01  2.3830553E+01
 1.0102751E+01  2.3809853E+01
 1.0114250E+01  2.3809572E+01
 1.0125751E+01  2.3916895E+01
 1.0137251E+01  2.3913231E+01
 1.0148750E+01  2.3997789E+01
 1.0160251E+01  2.4012470E+01
 1.0171750E+01  2.4003641E+01
 1.0183250E+01  2.3991190E+01
 1.0194751E+01  2.3959476E+01
 1.0206250E+01  2.3959913E+01
 1.0217751E+01  2.3881435E+01
 1.0229251E+01  2.3815844E+01
 1.0240750E+01  2.3738733E+01
 1.0252251E+01  2.3627750E+01
 1.0263750E+01  2.3567007E+01
 1.0275250E+01  2.3578770E+01
 1.0286751E+01  2.3641256E+01
 1.0298250E+01  2.3728722E+01
 1.0309751E+01  2.3781792E+01
 1.0321251E+01  2.3773525E+01
 1.0332750E+01  2.3759226E+01
 1.0344251E+01  2.3677195E+01
 1.0355750E+01  2.3631582E+01
 1.0367250E+01  2.3564919E+01
 1.0378751E+01  2.3559259E+01
 1.0390250E+01  2.3630505E+01
 1.0401751E+01  2.3598198E+01
 1.0413251E+01  2.3592148E+01
 1.0424750E+01  2.3481871E+01
 1.0436251E+01  2.3422035E+01
 1.0447750E+01  2.3336605E+01
 1.0459250E+01  2.3337656E+01
 1.0470751E+01  2.3286989E+01
 1.0482250E+01  2.3281803E+01
 1.0493751E+01  2.3255001E+01
 1.0505251E+01  2.3308958E+01
 1.0516750E+01  2.3320572E+01
 1.0528251E+01  2.3286736E+01
 1.0539750E+01  2.3260593E+01
 1.0551250E+01  2.3190825E+01
 1.0562751E+01  2.3156116E+01
 1.0574250E+01  2.3091215E+01
 1.0585751E+01  2.3071238E+01
 1.0597251E+01  2.3059008E+01
 1.0608750E+01  2.3078964E+01
 1.0620251E+01  2.3159431E+01
 1.0631750E+01  2.3220764E+01
 1.0643250E+01  2.3276348E+01
 1.0654751E+01  2.3219090E+01
 1.0666250E+01  2.3164968E+01
 1.0677751E+01  2.3087727E+01
 1.0689251E+01  2.3076954E+01
 1.0700750E+01  2.3089403E+01
 1.0712251E+01  2.3107882E+01
 1.0723750E+01  2.3066668E+01
 1.0735250E+01  2.3022684E+01
 1.0746751E+01  2.2991566E+01
 1.0758250E+01  2.2939352E+01
 1.0769751E+01  2.2887003E+01
 1.0781251E+01  2.2861261E+01
 1.0792750E+01  2.2839903E+01
 1.0804251E+01  2.2830353E+01
 1.0815750E+01  2.2819443E+01
 1.0827250E+01  2.2831062E+01
 1.0838751E+01  2.2840664E+01
 1.0850250E+01  2.2797438E+01
 1.0861751E+01  2.2767200E+01
 1.0873251E+01  2.2740963E+01
 1.0884750E+01  2.2751865E+01
 1.0896251E+01  2.2720346E+01
 1.0907750E+01  2.2738773E+01
 1.0919250E+01  2.2694319E+01
 1.0930751E+01  2.2742441E+01
 1.0942250E+01  2.2731201E+01
 1.0953751E+01  2.2787821E+01
 1.0965251E+01  2.2699030E+01
 1.0976750E+01  2.2629984E+01
 1.0988251E+01  2.2536646E+01
 1.0999750E+01  2.2553789E+01
 1.1011250E+01  2.2568182E+01
 1.1022751E+01  2.2610872E+01
 1.1034250E+01  2.2633249E+01
 1.1045751E+01  2.2635515E+01
 1.1057251E+01  2.2624947E+01
 1.1068750E+01  2.2656534E+01
 1.1080251E+01  2.2619057E+01
 1.1091750E+01  2.2600519E+01
 1.1103251E+01  2.2580656E+01
 1.1114751E+01  2.2592285E+01
 1.1126250E+01  2.2627962E+01
 1.1137751E+01  2.2586857E+01
 1.1149251E+01  2.2642035E+01
 1.1160750E+01  2.2673519E+01
 1.1172251E+01  2.2700781E+01
 1.1183750E+01  2.2713303E+01
 1.1195251E+01  2.2678356E+01
 1.1206751E+01  2.2714762E+01
 1.1218250E+01  2.2686539E+01
 1.1229751E+01  2.2666399E+01
 1.1241251E+01  2.2593164E+01
 1.1252750E+01  2.2514900E+01
 1.1264251E+01  2.2439999E+01
 1.1275750E+01  2.2423414E+01
 1.1287251E+01  2.2410164E+01
 1.1298751E+01  2.2443045E+01
 1.1310250E+01  2.2512560E+01
 1.1321751E+01  2.2617584E+01
 1.1333251E+01  2.2630671E+01
 1.1344750E+01  2.2635302E+01
 1.1356251E+01  2.2613182E+01
 1.1367750E+01  2.2686396E+01
 1.1379251E+01  2.2722137E+01
 1.1390751E+01  2.2800243E+01
 1.1402250E+01  2.2957964E+01
 1.1413751E+01  2.3013933E+01
 1.1425251E+01  2.3030548E+01
 1.1436750E+01  2.3030159E+01
 1.1448251E+01  2.3084585E+01
 1.1459750E+01  2.3119663E+01
 1.1471251E+01  2.3123407E+01
 1.1482751E+01  2.3143080E+01
 1.1494250E+01  2.3218788E+01
 1.1505751E+01  2.3340654E+01
 1.1517251E+01  2.3620394E+01
 1.1528750E+01  2.4133869E+01
 1.1540251E+01  2.4870798E+01
 1.1551750E+01  2.5752110E+01
 1.1563251E+01  2.6937727E+01
 1.1574751E+01  2.8084394E+01
 1.1586250E+01  2.8972311E+01
 1.1597751E+01  2.9458488E+01
 1.1609251E+01  2.9013859E+01
 1.1620750E+01  2.8314159E+01
 1.1632251E+01  2.6893314E+01
 1.1643750E+01  2.5652283E+01
 1.1655251E+01  2.4572454E+01
 1.1666751E+01  2.3766218E+01
 1.1678250E+01  2.3367193E+01
 1.1689751E+01  2.2990776E+01
 1.1701251E+01  2.2825031E+01
 1.1712750E+01  2.2725639E+01
 1.1724251E+01  2.2657187E+01
 1.1735750E+01  2.2682203E+01
 1.1747251E+01  2.2688850E+01
 1.1758751E+01  2.2747265E+01
 1.1770250E+01  2.2716339E+01
 1.1781751E+01  2.2735334E+01
 1.1793251E+01  2.2710665E+01
 1.1804750E+01  2.2701708E+01
 1.1816251E+01  2.2656725E+01
 1.1827750E+01  2.2611923E+01
 1.1839251E+01  2.2610870E+01
 1.1850751E+01  2.2575077E+01
 1.1862250E+01  2.2556335E+01
 1.1873751E+01  2.2516088E+01
 1.1885251E+01  2.2512217E+01
 1.1896750E+01  2.2512632E+01
 1.1908251E+01  2.2554810E+01
 1.1919750E+01  2.2633434E+01
 1.1931251E+01  2.2749762E+01
 1.1942751E+01  2.2919054E+01
 1.1954250E+01  2.3111008E+01
 1.1965751E+01  2.3340321E+01
 1.1977251E+01  2.3562750E+01
 1.1988750E+01  2.3779400E+01
 1.2000251E+01  2.3852932E+01
 1.2011750E+01  2.3838610E+01
 1.2023251E+01  2.3729826E+01
 1.2034751E+01  2.3699364E+01
 1.2046250E+01  2.3774942E+01
 1.2057751E+01  2.3947294E+01
 1.2069251E+01  2.4253595E+01
 1.2080750E+01  2.4687265E+01
 1.2092251E+01  2.4972145E+01
 1.2103750E+01  2.5152931E+01
 1.2115251E+01  2.5059137E+01
 1.2126751E+01  2.4821646E+01
 1.2138250E+01  2.4386084E+01
 1.2149751E+01  2.3931198E+01
 1.2161251E+01  2.3614725E+01
 1.2172750E+01  2.3363285E+01
 1.2184251E+01  2.3146147E+01
 1.2195750E+01  2.2933746E+01
 1.2207251E+01  2.2770266E+01
 1.2218751E+01  2.2639957E+01
 1.2230250E+01  2.2632252E+01
 1.2241751E+01  2.2613937E+01
 1.2253251E+01  2.2615471E+01
 1.2264750E+01  2.2597004E+01
 1.2276251E+01  2.2552319E+01
 1.2287750E+01  2.2590801E+01
 1.2299251E+01  2.2553370E+01
 1.2310751E+01  2.2613243E+01
 1.2322250E+01  2.2570829E+01
 1.2333751E+01  2.2630169E+01
 1.2345250E+01  2.2648544E+01
 1.2356750E+01  2.2682310E+01
 1.2368251E+01  2.2738792E+01
 1.2379750E+01  2.2778116E+01
 1.2391251E+01  2.2820395E+01
 1.2402751E+01  2.2815636E+01
 1.2414250E+01  2.2780500E+01
 1.2425751E+01  2.2787924E+01
 1.2437250E+01  2.2720150E+01
 1.2448750E+01  2.2735048E+01
 1.2460251E+01  2.2710178E+01
 1.2471750E+01  2.2787596E+01
 1.2483251E+01  2.2813133E+01
 1.2494751E+01  2.2813482E+01
 1.2506250E+01  2.2744875E+01
 1.2517751E+01  2.2689613E+01
 1.2529250E+01  2.2705265E+01
 1.2540751E+01  2.2721628E+01
 1.2552251E+01  2.2803421E+01
 1.2563750E+01  2.2809757E+01
 1.2575251E+01  2.2817488E+01
 1.2586751E+01  2.2743467E+01
 1.2598250E+01  2.2708271E+01
 1.2609751E+01  2.2729483E+01
 1.2621250E+01  2.2772079E+01
 1.2632751E+01  2.2827761E+01
 1.2644251E+01  2.2814102E+01
 1.2655750E+01  2.2853863E+01
 1.2667251E+01  2.2883236E+01
 1.2678751E+01  2.2929581E+01
 1.2690250E+01  2.2942898E+01
 1.2701751E+01  2.2971029E+01
 1.2713250E+01  2.3059959E+01
 1.2724751E+01  2.3115528E+01
 1.2736251E+01  2.3145235E+01
 1.2747750E+01  2.3150951E+01
 1.2759251E+01  2.3166594E+01
 1.2770751E+01  2.3196417E+01
 1.2782250E+01  2.3240444E+01
 1.2793751E+01  2.3236910E+01
 1.2805250E+01  2.3251617E+01
 1.2816751E+01  2.3271038E+01
 1.2828251E+01  2.3307491E+01
 1.2839750E+01  2.3341669E+01
 1.2851251E+01  2.3317892E+01
 1.2862751E+01  2.3310963E+01
 1.2874250E+01  2.3302374E+01
 1.2885751E+01  2.3317123E+01
 1.2897250E+01  2.3373224E+01
 1.2908751E+01  2.3493042E+01
 1.2920251E+01  2.3654779E+01
 1.2931750E+01  2.3813156E+01
 1.2943251E+01  2.3879732E+01
 1.2954751E+01  2.3894241E+01
 1.2966250E+01  2.3905493E+01
 1.2977751E+01  2.3906597E+01
 1.2989250E+01  2.3924902E+01
 1.3000751E+01  2.3968309E+01
 1.3012251E+01  2.4079235E+01
 1.3023750E+01  2.4168600E+01
 1.3035251E+01  2.4253630E+01
 1.3046751E+01  2.4309036E+01
 1.3058250E+01  2.4385668E+01
 1.3069751E+01  2.4448387E+01
 1.3081250E+01  2.4495010E+01
 1.3092751E+01  2.4590004E+01
 1.3104251E+01  2.4723003E+01
 1.3115750E+01  2.4875252E+01
 1.3127251E+01  2.5015951E+01
 1.3138751E+01  2.5086544E+01
 1.3150250E+01  2.5246571E+01
 1.3161751E+01  2.5342030E+01
 1.3173250E+01  2.5487072E+01
 1.3184751E+01  2.5593719E+01
 1.3196251E+01  2.5745827E+01
 1.3207750E+01  2.5955290E+01
 1.3219251E+01  2.6139807E+01
 1.3230751E+01  2.6330065E+01
 1.3242250E+01  2.6471006E+01
 1.3253751E+01  2.6599182E+01
 1.3265250E+01  2.6709263E+01
 1.3276751E+01  2.6803349E+01
 1.3288251E+01  2.6891201E+01
 1.3299750E+01  2.6995028E+01
 1.3311251E+01  2.7057447E+01
 1.3322751E+01  2.7182516E+01
 1.3334250E+01  2.7353848E+01
 1.3345751E+01  2.7527649E+01
 1.3357250E+01  2.7733788E+01
 1.3368751E+01  2.7809439E+01
 1.3380251E+01  2.7971218E+01
 1.3391750E+01  2.8095781E+01
 1.3403251E+01  2.8259726E+01
 1.3414751E+01  2.8323709E+01
 1.3426250E+01  2.8391541E+01
 1.3437751E+01  2.8527699E+01
 1.3449250E+01  2.8660158E+01
 1.3460751E+01  2.8832851E+01
 1.3472251E+01  2.8961624E+01
 1.3483750E+01  2.9157465E+01
 1.3495251E+01  2.9296640E+01
 1.3506751E+01  2.9455610E+01
 1.3518250E+01  2.9590225E+01
 1.3529751E+01  2.9615730E+01
 1.3541250E+01  2.9661901E+01
 1.3552751E+01  2.9642960E+01
 1.3564251E+01  2.9684753E+01
 1.3575750E+01  2.9732872E+01
 1.3587251E+01  2.9814640E+01
 1.3598751E+01  2.9922073E+01
 1.3610250E+01  2.9885790E+01
 1.3621751E+01  2.9869881E+01
 1.3633250E+01  2.9844090E+01
 1.3644751E+01  2.9854322E+01
 1.3656251E+01  2.9897484E+01
 1.3667750E+01  2.9912828E+01
 1.3679251E+01  2.9876381E+01
 1.3690751E+01  2.9790003E+01
 1.3702250E+01  2.9685755E+01
 1.3713751E+01  2.9650881E+01
 1.3725250E+01  2.9581495E+01
 1.3736751E+01  2.9567427E+01
 1.3748251E+01  2.9595272E+01
 1.3759750E+01  2.9633890E+01
 1.3771251E+01  2.9634291E+01
 1.3782751E+01  2.9579054E+01
 1.3794250E+01  2.9551205E+01
 1.3805751E+01  2.9572544E+01
 1.3817250E+01  2.9616127E+01
 1.3828751E+01  2.9703827E+01
 1.3840251E+01  2.9822556E+01
 1.3851750E+01  3.0034809E+01
 1.3863251E+01  3.0321497E+01
 1.3874751E+01  3.0789732E+01
 1.3886250E+01  3.1360271E+01
 1.3897751E+01  3.2798218E+01
 1.3909250E+01  3.4443550E+01
 1.3920751E+01  3.7385609E+01
 1.3932251E+01  4.0598305E+01
 1.3943750E+01  4.3550869E+01
 1.3955251E+01  4.5187531E+01
 1.3966751E+01  4.4610470E+01
 1.3978251E+01  4.2534039E+01
 1.3989751E+01  3.9718845E+01
 1.4001250E+01  3.6760754E+01
 1.4012751E+01  3.4120869E+01
 1.4024251E+01  3.1788176E+01
 1.4035750E+01  3.0392931E+01
 1.4047251E+01  2.9469950E+01
 1.4058751E+01  2.8796183E+01
 1.4070251E+01  2.8524826E+01
 1.4081751E+01  2.8221142E+01
 1.4093250E+01  2.8077766E+01
 1.4104751E+01  2.7957067E+01
 1.4116251E+01  2.7869648E+01
 1.4127750E+01  2.7801289E+01
 1.4139251E+01  2.7683186E+01
 1.4150751E+01  2.7598244E+01
 1.4162251E+01  2.7479862E+01
 1.4173751E+01  2.7327816E+01
 1.4185250E+01  2.7189121E+01
 1.4196751E+01  2.7093466E+01
 1.4208251E+01  2.7041195E+01
 1.4219750E+01  2.6946486E+01
 1.4231251E+01  2.6846359E+01
 1.4242751E+01  2.6760422E+01
 1.4254251E+01  2.6687756E+01
 1.4265751E+01  2.6586599E+01
 1.4277250E+01  2.6465866E+01
 1.4288751E+01  2.6412159E+01
 1.4300251E+01  2.6401094E+01
 1.4311750E+01  2.6374666E+01
 1.4323251E+01  2.6304167E+01
 1.4334751E+01  2.6280132E+01
 1.4346251E+01  2.6224031E+01
 1.4357751E+01  2.6217697E+01
 1.4369250E+01  2.6169399E+01
 1.4380751E+01  2.6140646E+01
 1.4392251E+01  2.6095581E+01
 1.4403750E+01  2.6042257E+01
 1.4415251E+01  2.6032331E+01
 1.4426751E+01  2.5985924E+01
 1.4438251E+01  2.5971275E+01
 1.4449751E+01  2.5953875E+01
 1.4461250E+01  2.5892250E+01
 1.4472751E+01  2.5839048E+01
 1.4484251E+01  2.5773695E+01
 1.4495750E+01  2.5765602E+01
 1.4507251E+01  2.5773220E+01
 1.4518751E+01  2.5738569E+01
 1.4530251E+01  2.5771603E+01
 1.4541751E+01  2.5741741E+01
 1.4553250E+01  2.5720795E+01
 1.4564751E+01  2.5689760E+01
 1.4576251E+01  2.5631941E+01
 1.4587750E+01  2.5595003E+01
 1.4599251E+01  2.5536800E+01
 1.4610751E+01  2.5519506E+01
 1.4622251E+01  2.5492332E+01
 1.4633751E+01  2.5450638E+01
 1.4645250E+01  2.5423038E+01
 1.4656751E+01  2.5368074E+01
 1.4668251E+01  2.5342854E+01
 1.4679750E+01  2.5322994E+01
 1.4691251E+01  2.5342505E+01
 1.4702751E+01  2.5372564E+01
 1.4714251E+01  2.5374630E+01
 1.4725751E+01  2.5347086E+01
 1.4737250E+01  2.5305048E+01
 1.4748751E+01  2.5302876E+01
 1.4760251E+01  2.5247597E+01
 1.4771750E+01  2.5227436E+01
 1.4783251E+01  2.5220818E+01
 1.4794751E+01  2.5262079E+01
 1.4806251E+01  2.5251804E+01
 1.4817751E+01  2.5233027E+01
 1.4829250E+01  2.5225365E+01
 1.4840751E+01  2.5223845E+01
 1.4852251E+01  2.5220865E+01
 1.4863750E+01  2.5126171E+01
 1.4875251E+01  2.5068180E+01
 1.4886751E+01  2.5036066E+01
 1.4898251E+01  2.5066662E+01
 1.4909751E+01  2.5033890E+01
 1.4921250E+01  2.5003654E+01
 1.4932751E+01  2.5000866E+01
 1.4944251E+01  2.5030020E+01
 1.4955750E+01  2.5058113E+01
 1.4967251E+01  2.5067436E+01
 1.4978751E+01  2.5089432E+01
 1.4990251E+01  2.5093689E+01
 1.5001751E+01  2.5072588E+01
 1.5013250E+01  2.5083364E+01
 1.5024751E+01  2.5130703E+01
 1.5036251E+01  2.5178444E+01
 1.5047750E+01  2.5159050E+01
 1.5059251E+01  2.5141319E+01
 1.5070751E+01  2.5145502E+01
 1.5082251E+01  2.5186049E+01
 1.5093751E+01  2.5271307E+01
 1.5105250E+01  2.5423536E+01
 1.5116751E+01  2.5602554E+01
 1.5128251E+01  2.6121149E+01
 1.5139750E+01  2.6863132E+01
 1.5151251E+01  2.8178370E+01
 1.5162751E+01  2.9439007E+01
 1.5174251E+01  3.0682226E+01
 1.5185751E+01  3.1313227E+01
 1.5197250E+01  3.1259991E+01
 1.5208751E+01  3.0783047E+01
 1.5220251E+01  2.9758795E+01
 1.5231750E+01  2.8675148E+01
 1.5243251E+01  2.7400816E+01
 1.5254751E+01  2.6574556E+01
 1.5266251E+01  2.5822626E+01
 1.5277751E+01  2.5482277E+01
 1.5289250E+01  2.5247562E+01
 1.5300751E+01  2.5180418E+01
 1.5312251E+01  2.5145912E+01
 1.5323750E+01  2.5086489E+01
 1.5335251E+01  2.5058834E+01
 1.5346751E+01  2.4953518E+01
 1.5358251E+01  2.4873487E+01
 1.5369751E+01  2.4756651E+01
 1.5381250E+01  2.4660917E+01
 1.5392751E+01  2.4620781E+01
 1.5404251E+01  2.4635191E+01
 1.5415751E+01  2.4661512E+01
 1.5427251E+01  2.4655392E+01
 1.5438751E+01  2.4687490E+01
 1.5450251E+01  2.4711876E+01
 1.5461751E+01  2.4696501E+01
 1.5473250E+01  2.4610165E+01
 1.5484751E+01  2.4600975E+01
 1.5496251E+01  2.4607517E+01
 1.5507751E+01  2.4632273E+01
 1.5519251E+01  2.4625532E+01
 1.5530751E+01  2.4647278E+01
 1.5542251E+01  2.4637896E+01
 1.5553751E+01  2.4629871E+01
 1.5565250E+01  2.4646683E+01
 1.5576751E+01  2.4664295E+01
 1.5588251E+01  2.4660532E+01
 1.5599751E+01  2.4717762E+01
 1.5611251E+01  2.4736090E+01
 1.5622751E+01  2.4740839E+01
 1.5634251E+01  2.4649376E+01
 1.5645751E+01  2.4670134E+01
 1.5657250E+01  2.4682514E+01
 1.5668751E+01  2.4700375E+01
 1.5680251E+01  2.4662022E+01
 1.5691751E+01  2.4648006E+01
 1.5703251E+01  2.4631607E+01
 1.5714751E+01  2.4631634E+01
 1.5726251E+01  2.4624657E+01
 1.5737751E+01  2.4590807E+01
 1.5749250E+01  2.4566328E+01
 1.5760751E+01  2.4615261E+01
 1.5772251E+01  2.4711449E+01
 1.5783751E+01  2.4787296E+01
 1.5795251E+01  2.4839809E+01
 1.5806751E+01  2.4884335E+01
 1.5818251E+01  2.4844473E+01
 1.5829751E+01  2.4802034E+01
 1.5841250E+01  2.4748854E+01
 1.5852751E+01  2.4762848E+01
 1.5864251E+01  2.4766376E+01
 1.5875751E+01  2.4846313E+01
 1.5887251E+01  2.4871346E+01
 1.5898750E+01  2.4876917E+01
 1.5910251E+01  2.4858648E+01
 1.5921751E+01  2.4802237E+01
 1.5933250E+01  2.4795530E+01
 1.5944751E+01  2.4722582E+01
 1.5956251E+01  2.4770306E+01
 1.5967751E+01  2.4713137E+01
 1.5979251E+01  2.4763374E+01
 1.5990750E+01  2.4819714E+01
 1.6002251E+01  2.4856318E+01
 1.6013750E+01  2.4840302E+01
 1.6025251E+01  2.4785086E+01
 1.6036751E+01  2.4791300E+01
 1.6048250E+01  2.4794451E+01
 1.6059752E+01  2.4826336E+01
 1.6071251E+01  2.4800875E+01
 1.6082750E+01  2.4879385E+01
 1.6094252E+01  2.4886614E+01
 1.6105751E+01  2.4952837E+01
 1.6117250E+01  2.4945641E+01
 1.6128750E+01  2.4957588E+01
 1.6140251E+01  2.4976080E+01
 1.6151751E+01  2.4966944E+01
 1.6163250E+01  2.5061707E+01
 1.6174751E+01  2.5062418E+01
 1.6186251E+01  2.5335312E+01
 1.6197750E+01  2.5292648E+01
 1.6209251E+01  2.5822451E+01
 1.6220751E+01  2.5801201E+01
 1.6232250E+01  2.6412354E+01
 1.6243752E+01  2.6585337E+01
 1.6255251E+01  2.6970648E+01
 1.6266750E+01  2.7133839E+01
 1.6278252E+01  2.6665216E+01
 1.6289751E+01  2.6574324E+01
 1.6301250E+01  2.5717592E+01
 1.6312750E+01  2.5745655E+01
 1.6324251E+01  2.5202484E+01
 1.6335751E+01  2.5203703E+01
 1.6347250E+01  2.4915985E+01
 1.6358751E+01  2.4884342E+01
 1.6370251E+01  2.4841780E+01
 1.6381750E+01  2.4835939E+01
 1.6393251E+01  2.4832445E+01
 1.6404751E+01  2.4884069E+01
 1.6416250E+01  2.4974009E+01
 1.6427752E+01  2.4992273E+01
 1.6439251E+01  2.4988808E+01
 1.6450750E+01  2.4940598E+01
 1.6462252E+01  2.4896801E+01
 1.6473751E+01  2.4857693E+01
 1.6485250E+01  2.4829287E+01
 1.6496750E+01  2.4868690E+01
 1.6508251E+01  2.4814133E+01
 1.6519751E+01  2.4823397E+01
 1.6531250E+01  2.4741323E+01
 1.6542751E+01  2.4775856E+01
 1.6554251E+01  2.4768164E+01
 1.6565750E+01  2.4786465E+01
 1.6577251E+01  2.4769157E+01
 1.6588751E+01  2.4776726E+01
 1.6600250E+01  2.4791590E+01
 1.6611752E+01  2.4795099E+01
 1.6623251E+01  2.4756004E+01
 1.6634750E+01  2.4743567E+01
 1.6646252E+01  2.4709732E+01
 1.6657751E+01  2.4706266E+01
 1.6669250E+01  2.4723507E+01
 1.6680750E+01  2.4726175E+01
 1.6692251E+01  2.4753088E+01
 1.6703751E+01  2.4739590E+01
 1.6715250E+01  2.4718033E+01
 1.6726751E+01  2.4682650E+01
 1.6738251E+01  2.4674492E+01
 1.6749750E+01  2.4730959E+01
 1.6761251E+01  2.4717966E+01
 1.6772751E+01  2.4722404E+01
 1.6784250E+01  2.4703548E+01
 1.6795752E+01  2.4681103E+01
 1.6807251E+01  2.4673706E+01
 1.6818750E+01  2.4661036E+01
 1.6830252E+01  2.4652178E+01
 1.6841751E+01  2.4655460E+01
 1.6853251E+01  2.4604343E+01
 1.6864750E+01  2.4536951E+01
 1.6876251E+01  2.4497494E+01
 1.6887751E+01  2.4470772E+01
 1.6899250E+01  2.4516088E+01
 1.6910751E+01  2.4522713E+01
 1.6922251E+01  2.4542109E+01
 1.6933750E+01  2.4500578E+01
 1.6945251E+01  2.4462595E+01
 1.6956751E+01  2.4422029E+01
 1.6968250E+01  2.4368784E+01
 1.6979752E+01  2.4366461E+01
 1.6991251E+01  2.4365633E+01
 1.7002750E+01  2.4396994E+01
 1.7014252E+01  2.4402168E+01
 1.7025751E+01  2.4390966E+01
 1.7037251E+01  2.4385225E+01
 1.7048750E+01  2.4339548E+01
 1.7060251E+01  2.4342018E+01
 1.7071751E+01  2.4348972E+01
 1.7083250E+01  2.4377316E+01
 1.7094751E+01  2.4394840E+01
 1.7106251E+01  2.4417532E+01
 1.7117750E+01  2.4437965E+01
 1.7129251E+01  2.4480280E+01
 1.7140751E+01  2.4513191E+01
 1.7152250E+01  2.4519125E+01
 1.7163752E+01  2.4492968E+01
 1.7175251E+01  2.4446573E+01
 1.7186750E+01  2.4420799E+01
 1.7198252E+01  2.4386068E+01
 1.7209751E+01  2.4406162E+01
 1.7221251E+01  2.4413454E+01
 1.7232750E+01  2.4446569E+01
 1.7244251E+01  2.4466707E+01
 1.7255751E+01  2.4440802E+01
 1.7267250E+01  2.4437965E+01
 1.7278751E+01  2.4373175E+01
 1.7290251E+01  2.4387938E+01
 1.7301750E+01  2.4392315E+01
 1.7313251E+01  2.4370201E+01
 1.7324751E+01  2.4348757E+01
 1.7336250E+01  2.4304863E+01
 1.7347752E+01  2.4307178E+01
 1.7359251E+01  2.4286604E+01
 1.7370750E+01  2.4268646E+01
 1.7382252E+01  2.4306793E+01
 1.7393751E+01  2.4286306E+01
 1.7405251E+01  2.4260443E+01
 1.7416750E+01  2.4188053E+01
 1.7428251E+01  2.4124084E+01
 1.7439751E+01  2.4142633E+01
 1.7451250E+01  2.4127401E+01
 1.7462751E+01  2.4172470E+01
 1.7474251E+01  2.4202690E+01
 1.7485750E+01  2.4223497E+01
 1.7497252E+01  2.4202671E+01
 1.7508751E+01  2.4135965E+01
 1.7520250E+01  2.4100939E+01
 1.7531752E+01  2.4106718E+01
 1.7543251E+01  2.4125681E+01
 1.7554750E+01  2.4094124E+01
 1.7566252E+01  2.4057415E+01
 1.7577751E+01  2.4019150E+01
 1.7589251E+01  2.3982372E+01
 1.7600750E+01  2.3973833E+01
 1.7612251E+01  2.3960001E+01
 1.7623751E+01  2.3995678E+01
 1.7635250E+01  2.3980913E+01
 1.7646751E+01  2.3971853E+01
 1.7658251E+01  2.3914934E+01
 1.7669750E+01  2.3929712E+01
 1.7681252E+01  2.3945864E+01
 1.7692751E+01  2.4005577E+01
 1.7704250E+01  2.3963882E+01
 1.7715752E+01  2.3975533E+01
 1.7727251E+01  2.3977327E+01
 1.7738750E+01  2.3988613E+01
 1.7750252E+01  2.3955971E+01
 1.7761751E+01  2.3931189E+01
 1.7773251E+01  2.3942038E+01
 1.7784750E+01  2.4002153E+01
 1.7796251E+01  2.4027983E+01
 1.7807751E+01  2.4013327E+01
 1.7819250E+01  2.4016203E+01
 1.7830751E+01  2.3981836E+01
 1.7842251E+01  2.3984205E+01
 1.7853750E+01  2.3963037E+01
 1.7865252E+01  2.4007427E+01
 1.7876751E+01  2.3999771E+01
 1.7888250E+01  2.3972181E+01
 1.7899752E+01  2.3943249E+01
 1.7911251E+01  2.3943037E+01
 1.7922750E+01  2.3947653E+01
 1.7934252E+01  2.3945913E+01
 1.7945751E+01  2.4008871E+01
 1.7957251E+01  2.4081932E+01
 1.7968750E+01  2.4199274E+01
 1.7980251E+01  2.4321484E+01
 1.7991751E+01  2.4510086E+01
 1.8003250E+01  2.4769403E+01
 1.8014751E+01  2.5019400E+01
 1.8026251E+01  2.5298634E+01
 1.8037750E+01  2.5569967E+01
 1.8049252E+01  2.5837915E+01
 1.8060751E+01  2.6271057E+01
 1.8072250E+01  2.6546425E+01
 1.8083752E+01  2.6980923E+01
 1.8095251E+01  2.7217525E+01
 1.8106750E+01  2.7426207E+01
 1.8118252E+01  2.7501068E+01
 1.8129751E+01  2.7191460E+01
 1.8141251E+01  2.6771490E+01
 1.8152750E+01  2.6154911E+01
 1.8164251E+01  2.5630554E+01
 1.8175751E+01  2.5183413E+01
 1.8187250E+01  2.4684774E+01
 1.8198751E+01  2.4438423E+01
 1.8210251E+01  2.4229328E+01
 1.8221750E+01  2.4149765E+01
 1.8233252E+01  2.4049976E+01
 1.8244751E+01  2.4043211E+01
 1.8256250E+01  2.4049686E+01
 1.8267752E+01  2.4037804E+01
 1.8279251E+01  2.3962069E+01
 1.8290751E+01  2.3897005E+01
 1.8302252E+01  2.3847296E+01
 1.8313751E+01  2.3799641E+01
 1.8325251E+01  2.3744829E+01
 1.8336750E+01  2.3754009E+01
 1.8348251E+01  2.3760567E+01
 1.8359751E+01  2.3800732E+01
 1.8371250E+01  2.3755428E+01
 1.8382751E+01  2.3765257E+01
 1.8394251E+01  2.3771160E+01
 1.8405750E+01  2.3828114E+01
 1.8417252E+01  2.3853781E+01
 1.8428751E+01  2.3810297E+01
 1.8440250E+01  2.3764988E+01
 1.8451752E+01  2.3693472E+01
 1.8463251E+01  2.3745367E+01
 1.8474751E+01  2.3771864E+01
 1.8486252E+01  2.3773508E+01
 1.8497751E+01  2.3751144E+01
 1.8509251E+01  2.3751314E+01
 1.8520750E+01  2.3768227E+01
 1.8532251E+01  2.3757265E+01
 1.8543751E+01  2.3724310E+01
 1.8555250E+01  2.3708639E+01
 1.8566751E+01  2.3690437E+01
 1.8578251E+01  2.3724455E+01
 1.8589750E+01  2.3735590E+01
 1.8601252E+01  2.3734755E+01
 1.8612751E+01  2.3728058E+01
 1.8624250E+01  2.3656286E+01
 1.8635752E+01  2.3668806E+01
 1.8647251E+01  2.3603838E+01
 1.8658751E+01  2.3621746E+01
 1.8670252E+01  2.3573690E+01
 1.8681751E+01  2.3633194E+01
 1.8693251E+01  2.3692450E+01
 1.8704750E+01  2.3744322E+01
 1.8716251E+01  2.3757626E+01
 1.8727751E+01  2.3708977E+01
 1.8739250E+01  2.3667606E+01
 1.8750751E+01  2.3650471E+01
 1.8762251E+01  2.3612469E+01
 1.8773750E+01  2.3605532E+01
 1.8785252E+01  2.3617874E+01
 1.8796751E+01  2.3678080E+01
 1.8808250E+01  2.3694418E+01
 1.8819752E+01  2.3753975E+01
 1.8831251E+01  2.3743361E+01
 1.8842751E+01  2.3764172E+01
 1.8854252E+01  2.3700571E+01
 1.8865751E+01  2.3709408E+01
 1.8877251E+01  2.3641056E+01
 1.8888750E+01  2.3656511E+01
 1.8900251E+01  2.3606546E+01
 1.8911751E+01  2.3669779E+01
 1.8923250E+01  2.3670931E+01
 1.8934752E+01  2.3712099E+01
 1.8946251E+01  2.3749897E+01
 1.8957750E+01  2.3722532E+01
 1.8969252E+01  2.3701450E+01
 1.8980751E+01  2.3675411E+01
 1.8992250E+01  2.3685015E+01
 1.9003752E+01  2.3651070E+01
 1.9015251E+01  2.3633793E+01
 1.9026751E+01  2.3682272E+01
 1.9038252E+01  2.3704376E+01
 1.9049751E+01  2.3763412E+01
 1.9061251E+01  2.3825703E+01
 1.9072750E+01  2.3849152E+01
 1.9084251E+01  2.3833986E+01
 1.9095751E+01  2.3731956E+01
 1.9107250E+01  2.3681025E+01
 1.9118752E+01  2.3614168E+01
 1.9130251E+01  2.3616251E+01
 1.9141750E+01  2.3587414E+01
 1.9153252E+01  2.3649382E+01
 1.9164751E+01  2.3638222E+01
 1.9176250E+01  2.3663139E+01
 1.9187752E+01  2.3637930E+01
 1.9199251E+01  2.3641966E+01
 1.9210751E+01  2.3661840E+01
 1.9222252E+01  2.3679726E+01
 1.9233751E+01  2.3692917E+01
 1.9245251E+01  2.3690998E+01
 1.9256750E+01  2.3745758E+01
 1.9268251E+01  2.3756762E+01
 1.9279751E+01  2.3733061E+01
 1.9291250E+01  2.3711662E+01
 1.9302752E+01  2.3732044E+01
 1.9314251E+01  2.3741304E+01
 1.9325750E+01  2.3757160E+01
 1.9337252E+01  2.3782782E+01
 1.9348751E+01  2.3821835E+01
 1.9360250E+01  2.3875978E+01
 1.9371752E+01  2.3945330E+01
 1.9383251E+01  2.3996284E+01
 1.9394751E+01  2.3965450E+01
 1.9406250E+01  2.3953924E+01
 1.9417751E+01  2.3886644E+01
 1.9429251E+01  2.3884726E+01
 1.9440750E+01  2.3863451E+01
 1.9452251E+01  2.3891476E+01
 1.9463751E+01  2.3893938E+01
 1.9475250E+01  2.3909800E+01
 1.9486752E+01  2.3926464E+01
 1.9498251E+01  2.3921322E+01
 1.9509750E+01  2.3899189E+01
 1.9521252E+01  2.3895405E+01
 1.9532751E+01  2.3909935E+01
 1.9544250E+01  2.3951637E+01
 1.9555752E+01  2.3998707E+01
 1.9567251E+01  2.4052322E+01
 1.9578751E+01  2.4107409E+01
 1.9590250E+01  2.4107468E+01
 1.9601751E+01  2.4140545E+01
 1.9613251E+01  2.4239996E+01
 1.9624750E+01  2.4383812E+01
 1.9636251E+01  2.4609955E+01
 1.9647751E+01  2.4933697E+01
 1.9659250E+01  2.5374384E+01
 1.9670752E+01  2.5898632E+01
 1.9682251E+01  2.6599697E+01
 1.9693750E+01  2.7287075E+01
 1.9705252E+01  2.7957170E+01
 1.9716751E+01  2.8376806E+01
 1.9728251E+01  2.8589907E+01
 1.9739752E+01  2.8417347E+01
 1.9751251E+01  2.8013079E+01
 1.9762751E+01  2.7484623E+01
 1.9774250E+01  2.7100908E+01
 1.9785751E+01  2.6966951E+01
 1.9797251E+01  2.7521183E+01
 1.9808750E+01  2.8375183E+01
 1.9820251E+01  2.9957253E+01
 1.9831751E+01  3.2230980E+01
 1.9843250E+01  3.4002033E+01
 1.9854752E+01  3.5737720E+01
 1.9866251E+01  3.6040115E+01
 1.9877750E+01  3.5493675E+01
 1.9889252E+01  3.3280552E+01
 1.9900751E+01  3.1380039E+01
 1.9912251E+01  2.9396555E+01
 1.9923752E+01  2.7591660E+01
 1.9935251E+01  2.6467939E+01
 1.9946751E+01  2.5608280E+01
 1.9958250E+01  2.5049755E+01
 1.9969751E+01  2.4729664E+01
 1.9981251E+01  2.4524725E+01
 1.9992750E+01  2.4457277E+01
 2.0004251E+01  2.4402527E+01
 2.0015751E+01  2.4392517E+01
 2.0027250E+01  2.4369934E+01
 2.0038752E+01  2.4366356E+01
 2.0050251E+01  2.4360666E+01
 2.0061750E+01  2.4279261E+01
 2.0073252E+01  2.4219019E+01
 2.0084751E+01  2.4149305E+01
 2.0096251E+01  2.4124355E+01
 2.0107752E+01  2.4099993E+01
 2.0119251E+01  2.4064266E+01
 2.0130751E+01  2.3996164E+01
 2.0142250E+01  2.3955532E+01
 2.0153751E+01  2.3962997E+01
 2.0165251E+01  2.3991846E+01
 2.0176750E+01  2.3976088E+01
 2.0188251E+01  2.4011332E+01
 2.0199751E+01  2.3995497E+01
 2.0211250E+01  2.3985088E+01
 2.0222752E+01  2.3979395E+01
 2.0234251E+01  2.4006214E+01
 2.0245750E+01  2.4030039E+01
 2.0257252E+01  2.3987909E+01
 2.0268751E+01  2.3902740E+01
 2.0280251E+01  2.3903490E+01
 2.0291752E+01  2.3877844E+01
 2.0303251E+01  2.3848782E+01
 2.0314751E+01  2.3814638E+01
 2.0326250E+01  2.3841354E+01
 2.0337751E+01  2.3908224E+01
 2.0349251E+01  2.3937593E+01
 2.0360750E+01  2.4011492E+01
 2.0372252E+01  2.4021420E+01
 2.0383751E+01  2.4015499E+01
 2.0395250E+01  2.4013735E+01
 2.0406752E+01  2.4033628E+01
 2.0418251E+01  2.4027584E+01
 2.0429750E+01  2.3963270E+01
 2.0441252E+01  2.3915861E+01
 2.0452751E+01  2.3886332E+01
 2.0464251E+01  2.3873795E+01
 2.0475752E+01  2.3858740E+01
 2.0487251E+01  2.3882790E+01
 2.0498751E+01  2.3922131E+01
 2.0510250E+01  2.3900524E+01
 2.0521751E+01  2.3867466E+01
 2.0533251E+01  2.3875395E+01
 2.0544750E+01  2.3912762E+01
 2.0556252E+01  2.3989384E+01
 2.0567751E+01  2.4043144E+01
 2.0579250E+01  2.4085167E+01
 2.0590752E+01  2.4125772E+01
 2.0602251E+01  2.4171532E+01
 2.0613750E+01  2.4159071E+01
 2.0625252E+01  2.4162632E+01
 2.0636751E+01  2.4163462E+01
 2.0648251E+01  2.4210764E+01
 2.0659752E+01  2.4257961E+01
 2.0671251E+01  2.4384775E+01
 2.0682751E+01  2.4532404E+01
 2.0694250E+01  2.4786617E+01
 2.0705751E+01  2.5088980E+01
 2.0717251E+01  2.5434679E+01
 2.0728750E+01  2.6100521E+01
 2.0740252E+01  2.6595318E+01
 2.0751751E+01  2.7406494E+01
 2.0763250E+01  2.7808088E+01
 2.0774752E+01  2.7919830E+01
 2.0786251E+01  2.7692444E+01
 2.0797750E+01  2.6902809E+01
 2.0809252E+01  2.6490173E+01
 2.0820751E+01  2.5604155E+01
 2.0832251E+01  2.5190338E+01
 2.0843752E+01  2.4798855E+01
 2.0855251E+01  2.4626190E+01
 2.0866751E+01  2.4464643E+01
 2.0878250E+01  2.4301481E+01
 2.0889751E+01  2.4199177E+01
 2.0901251E+01  2.4218479E+01
 2.0912750E+01  2.4245356E+01
 2.0924252E+01  2.4276814E+01
 2.0935751E+01  2.4249695E+01
 2.0947250E+01  2.4239279E+01
 2.0958752E+01  2.4147144E+01
 2.0970251E+01  2.4247669E+01
 2.0981750E+01  2.4257645E+01
 2.0993252E+01  2.4204771E+01
 2.1004751E+01  2.4009396E+01
 2.1016251E+01  2.3928118E+01
 2.1027752E+01  2.3940453E+01
 2.1039251E+01  2.3929628E+01
 2.1050751E+01  2.3975645E+01
 2.1062250E+01  2.4003904E+01
 2.1073751E+01  2.4084867E+01
 2.1085251E+01  2.4077694E+01
 2.1096750E+01  2.4042929E+01
 2.1108252E+01  2.4015827E+01
 2.1119751E+01  2.4081757E+01
 2.1131250E+01  2.4067833E+01
 2.1142752E+01  2.4053236E+01
 2.1154251E+01  2.3952917E+01
 2.1165751E+01  2.3996315E+01
 2.1177252E+01  2.3998560E+01
 2.1188751E+01  2.4027231E+01
 2.1200251E+01  2.3982567E+01
 2.1211752E+01  2.3977667E+01
 2.1223251E+01  2.3944157E+01
 2.1234751E+01  2.3958878E+01
 2.1246250E+01  2.4010569E+01
 2.1257751E+01  2.4041542E+01
 2.1269251E+01  2.4076004E+01
 2.1280750E+01  2.4069967E+01
 2.1292252E+01  2.4106396E+01
 2.1303751E+01  2.4097855E+01
 2.1315250E+01  2.4069002E+01
 2.1326752E+01  2.4075941E+01
 2.1338251E+01  2.4082016E+01
 2.1349751E+01  2.4090729E+01
 2.1361252E+01  2.4070337E+01
 2.1372751E+01  2.4091282E+01
 2.1384251E+01  2.4075075E+01
 2.1395752E+01  2.4042807E+01
 2.1407251E+01  2.4026535E+01
 2.1418751E+01  2.4064489E+01
 2.1430250E+01  2.4136490E+01
 2.1441751E+01  2.4144375E+01
 2.1453251E+01  2.4181904E+01
 2.1464750E+01  2.4126665E+01
 2.1476252E+01  2.4108620E+01
 2.1487751E+01  2.4078598E+01
 2.1499250E+01  2.4083654E+01
 2.1510752E+01  2.4068918E+01
 2.1522251E+01  2.4086557E+01
 2.1533751E+01  2.4145786E+01
 2.1545252E+01  2.4176676E+01
 2.1556751E+01  2.4202993E+01
 2.1568251E+01  2.4222603E+01
 2.1579752E+01  2.4277082E+01
 2.1591251E+01  2.4260498E+01
 2.1602751E+01  2.4275120E+01
 2.1614250E+01  2.4251211E+01
 2.1625751E+01  2.4275646E+01
 2.1637251E+01  2.4255884E+01
 2.1648750E+01  2.4244667E+01
 2.1660252E+01  2.4223946E+01
 2.1671751E+01  2.4217913E+01
 2.1683250E+01  2.4173380E+01
 2.1694752E+01  2.4131092E+01
 2.1706251E+01  2.4177958E+01
 2.1717751E+01  2.4241823E+01
 2.1729252E+01  2.4319616E+01
 2.1740751E+01  2.4360428E+01
 2.1752251E+01  2.4418037E+01
 2.1763752E+01  2.4376911E+01
 2.1775251E+01  2.4344032E+01
 2.1786751E+01  2.4310274E+01
 2.1798250E+01  2.4272247E+01
 2.1809752E+01  2.4176559E+01
 2.1821251E+01  2.4191229E+01
 2.1832750E+01  2.4172848E+01
 2.1844252E+01  2.4223423E+01
 2.1855751E+01  2.4197956E+01
 2.1867250E+01  2.4266733E+01
 2.1878752E+01  2.4284222E+01
 2.1890251E+01  2.4341589E+01
 2.1901751E+01  2.4387232E+01
 2.1913252E+01  2.4419546E+01
 2.1924751E+01  2.4454090E+01
 2.1936251E+01  2.4478916E+01
 2.1947752E+01  2.4511244E+01
 2.1959251E+01  2.4513353E+01
 2.1970751E+01  2.4467363E+01
 2.1982250E+01  2.4432106E+01
 2.1993752E+01  2.4424711E+01
 2.2005251E+01  2.4434139E+01
 2.2016750E+01  2.4496943E+01
 2.2028252E+01  2.4528521E+01
 2.2039751E+01  2.4540762E+01
 2.2051250E+01  2.4528170E+01
 2.2062752E+01  2.4529852E+01
 2.2074251E+01  2.4500809E+01
 2.2085751E+01  2.4487114E+01
 2.2097252E+01  2.4463150E+01
 2.2108751E+01  2.4442631E+01
 2.2120251E+01  2.4474045E+01
 2.2131752E+01  2.4500237E+01
 2.2143251E+01  2.4578264E+01
 2.2154751E+01  2.4583166E+01
 2.2166250E+01  2.4553389E+01
 2.2177752E+01  2.4461357E+01
 2.2189251E+01  2.4420450E+01
 2.2200750E+01  2.4437414E+01
 2.2212252E+01  2.4429193E+01
 2.2223751E+01  2.4419889E+01
 2.2235250E+01  2.4447363E+01
 2.2246752E+01  2.4525175E+01
 2.2258251E+01  2.4576117E+01
 2.2269751E+01  2.4602791E+01
 2.2281252E+01  2.4607956E+01
 2.2292751E+01  2.4579096E+01
 2.2304251E+01  2.4595537E+01
 2.2315752E+01  2.4597506E+01
 2.2327251E+01  2.4562380E+01
 2.2338751E+01  2.4573284E+01
 2.2350250E+01  2.4607355E+01
 2.2361752E+01  2.4678251E+01
 2.2373251E+01  2.4718018E+01
 2.2384750E+01  2.4692949E+01
 2.2396252E+01  2.4677948E+01
 2.2407751E+01  2.4656610E+01
 2.2419250E+01  2.4686769E+01
 2.2430752E+01  2.4777885E+01
 2.2442251E+01  2.4861408E+01
 2.2453751E+01  2.4825436E+01
 2.2465252E+01  2.4728462E+01
 2.2476751E+01  2.4661125E+01
 2.2488251E+01  2.4735107E+01
 2.2499752E+01  2.4781988E+01
 2.2511251E+01  2.4918665E+01
 2.2522751E+01  2.5021717E+01
 2.2534250E+01  2.5037668E+01
 2.2545752E+01  2.5092369E+01
 2.2557251E+01  2.5065159E+01
 2.2568750E+01  2.5161150E+01
 2.2580252E+01  2.5130650E+01
 2.2591751E+01  2.5130939E+01
 2.2603251E+01  2.5096977E+01
 2.2614752E+01  2.5116091E+01
 2.2626251E+01  2.5191492E+01
 2.2637751E+01  2.5246595E+01
 2.2649252E+01  2.5289904E+01
 2.2660751E+01  2.5327963E+01
 2.2672251E+01  2.5351006E+01
 2.2683752E+01  2.5351587E+01
 2.2695251E+01  2.5360567E+01
 2.2706751E+01  2.5342669E+01
 2.2718250E+01  2.5373556E+01
 2.2729752E+01  2.5381414E+01
 2.2741251E+01  2.5424990E+01
 2.2752750E+01  2.5427622E+01
 2.2764252E+01  2.5470211E+01
 2.2775751E+01  2.5490803E+01
 2.2787251E+01  2.5490286E+01
 2.2798752E+01  2.5556059E+01
 2.2810251E+01  2.5658600E+01
 2.2821751E+01  2.5743174E+01
 2.2833252E+01  2.5787245E+01
 2.2844751E+01  2.5813093E+01
 2.2856251E+01  2.5824966E+01
 2.2867750E+01  2.5850437E+01
 2.2879251E+01  2.5880833E+01
 2.2890751E+01  2.5925714E+01
 2.2902250E+01  2.5955648E+01
 2.2913752E+01  2.6077040E+01
 2.2925251E+01  2.6189871E+01
 2.2936750E+01  2.6239100E+01
 2.2948252E+01  2.6320715E+01
 2.2959751E+01  2.6379560E+01
 2.2971251E+01  2.6509996E+01
 2.2982752E+01  2.6624842E+01
 2.2994251E+01  2.6766438E+01
