F:\20151113_APS_34IDE\\Brian\Particle1\OCV\Data_0095.tif
2-Theta Angle (Degrees)
Intensity
       2000
 5.7500005E-03  0.0000000E+00
 1.7250001E-02  0.0000000E+00
 2.8750001E-02  0.0000000E+00
 4.0250003E-02  0.0000000E+00
 5.1750004E-02  0.0000000E+00
 6.3250005E-02  0.0000000E+00
 7.4750006E-02  0.0000000E+00
 8.6250007E-02  0.0000000E+00
 9.7750008E-02  0.0000000E+00
 1.0925001E-01  0.0000000E+00
 1.2075000E-01  0.0000000E+00
 1.3225001E-01  0.0000000E+00
 1.4375001E-01  0.0000000E+00
 1.5525001E-01  0.0000000E+00
 1.6675001E-01  0.0000000E+00
 1.7825001E-01  0.0000000E+00
 1.8975002E-01  0.0000000E+00
 2.0125002E-01  0.0000000E+00
 2.1275002E-01  0.0000000E+00
 2.2425000E-01  0.0000000E+00
 2.3575000E-01  0.0000000E+00
 2.4725001E-01  0.0000000E+00
 2.5875002E-01  0.0000000E+00
 2.7025002E-01  0.0000000E+00
 2.8175002E-01  0.0000000E+00
 2.9325002E-01  0.0000000E+00
 3.0475003E-01  0.0000000E+00
 3.1625003E-01  0.0000000E+00
 3.2775003E-01  0.0000000E+00
 3.3925003E-01  0.0000000E+00
 3.5075003E-01  0.0000000E+00
 3.6225003E-01  0.0000000E+00
 3.7375003E-01  0.0000000E+00
 3.8525003E-01  0.0000000E+00
 3.9675003E-01  0.0000000E+00
 4.0825003E-01  0.0000000E+00
 4.1975003E-01  0.0000000E+00
 4.3125004E-01  0.0000000E+00
 4.4275001E-01  0.0000000E+00
 4.5425001E-01  0.0000000E+00
 4.6575001E-01  0.0000000E+00
 4.7725001E-01  0.0000000E+00
 4.8875001E-01  0.0000000E+00
 5.0025004E-01  0.0000000E+00
 5.1175004E-01  0.0000000E+00
 5.2325004E-01  0.0000000E+00
 5.3475004E-01  0.0000000E+00
 5.4625005E-01  0.0000000E+00
 5.5775005E-01  0.0000000E+00
 5.6925005E-01  0.0000000E+00
 5.8075005E-01  0.0000000E+00
 5.9225005E-01  0.0000000E+00
 6.0375005E-01  0.0000000E+00
 6.1525005E-01  0.0000000E+00
 6.2675005E-01  0.0000000E+00
 6.3825005E-01  0.0000000E+00
 6.4975005E-01  0.0000000E+00
 6.6125005E-01  0.0000000E+00
 6.7275006E-01  0.0000000E+00
 6.8425006E-01  0.0000000E+00
 6.9575006E-01  0.0000000E+00
 7.0725006E-01  0.0000000E+00
 7.1875006E-01  0.0000000E+00
 7.3025006E-01  0.0000000E+00
 7.4175006E-01  0.0000000E+00
 7.5325006E-01  0.0000000E+00
 7.6475006E-01  0.0000000E+00
 7.7625006E-01  0.0000000E+00
 7.8775007E-01  0.0000000E+00
 7.9925007E-01  0.0000000E+00
 8.1075007E-01  0.0000000E+00
 8.2225007E-01  0.0000000E+00
 8.3375007E-01  0.0000000E+00
 8.4525007E-01  0.0000000E+00
 8.5675007E-01  0.0000000E+00
 8.6825007E-01  0.0000000E+00
 8.7975001E-01  0.0000000E+00
 8.9125001E-01  0.0000000E+00
 9.0275002E-01  0.0000000E+00
 9.1425002E-01  0.0000000E+00
 9.2575002E-01  0.0000000E+00
 9.3725002E-01  0.0000000E+00
 9.4875002E-01  0.0000000E+00
 9.6025002E-01  0.0000000E+00
 9.7175002E-01  0.0000000E+00
 9.8325002E-01  0.0000000E+00
 9.9475002E-01  0.0000000E+00
 1.0062500E+00  0.0000000E+00
 1.0177500E+00  0.0000000E+00
 1.0292500E+00  0.0000000E+00
 1.0407500E+00  0.0000000E+00
 1.0522500E+00  0.0000000E+00
 1.0637500E+00  0.0000000E+00
 1.0752500E+00  0.0000000E+00
 1.0867500E+00  0.0000000E+00
 1.0982500E+00  0.0000000E+00
 1.1097500E+00  0.0000000E+00
 1.1212500E+00  0.0000000E+00
 1.1327500E+00  0.0000000E+00
 1.1442500E+00  0.0000000E+00
 1.1557500E+00  0.0000000E+00
 1.1672500E+00  0.0000000E+00
 1.1787500E+00  0.0000000E+00
 1.1902500E+00  0.0000000E+00
 1.2017500E+00  0.0000000E+00
 1.2132500E+00  0.0000000E+00
 1.2247500E+00  0.0000000E+00
 1.2362500E+00  0.0000000E+00
 1.2477500E+00  0.0000000E+00
 1.2592500E+00  0.0000000E+00
 1.2707500E+00  0.0000000E+00
 1.2822500E+00  0.0000000E+00
 1.2937500E+00  0.0000000E+00
 1.3052500E+00  0.0000000E+00
 1.3167500E+00  0.0000000E+00
 1.3282501E+00  0.0000000E+00
 1.3397501E+00  0.0000000E+00
 1.3512501E+00  0.0000000E+00
 1.3627501E+00  0.0000000E+00
 1.3742501E+00  0.0000000E+00
 1.3857501E+00  0.0000000E+00
 1.3972501E+00  0.0000000E+00
 1.4087501E+00  0.0000000E+00
 1.4202501E+00  0.0000000E+00
 1.4317501E+00  0.0000000E+00
 1.4432501E+00  0.0000000E+00
 1.4547501E+00  0.0000000E+00
 1.4662501E+00  0.0000000E+00
 1.4777501E+00  0.0000000E+00
 1.4892501E+00  0.0000000E+00
 1.5007501E+00  0.0000000E+00
 1.5122501E+00  0.0000000E+00
 1.5237501E+00  0.0000000E+00
 1.5352501E+00  0.0000000E+00
 1.5467501E+00  0.0000000E+00
 1.5582501E+00  0.0000000E+00
 1.5697501E+00  0.0000000E+00
 1.5812501E+00  0.0000000E+00
 1.5927501E+00  0.0000000E+00
 1.6042501E+00  0.0000000E+00
 1.6157501E+00  0.0000000E+00
 1.6272501E+00  0.0000000E+00
 1.6387501E+00  0.0000000E+00
 1.6502501E+00  0.0000000E+00
 1.6617501E+00  0.0000000E+00
 1.6732501E+00  0.0000000E+00
 1.6847501E+00  0.0000000E+00
 1.6962501E+00  0.0000000E+00
 1.7077501E+00  0.0000000E+00
 1.7192501E+00  0.0000000E+00
 1.7307501E+00  0.0000000E+00
 1.7422501E+00  0.0000000E+00
 1.7537501E+00  0.0000000E+00
 1.7652501E+00  0.0000000E+00
 1.7767501E+00  0.0000000E+00
 1.7882501E+00  0.0000000E+00
 1.7997501E+00  0.0000000E+00
 1.8112501E+00  0.0000000E+00
 1.8227501E+00  0.0000000E+00
 1.8342501E+00  0.0000000E+00
 1.8457501E+00  0.0000000E+00
 1.8572501E+00  0.0000000E+00
 1.8687501E+00  0.0000000E+00
 1.8802501E+00  0.0000000E+00
 1.8917501E+00  0.0000000E+00
 1.9032501E+00  0.0000000E+00
 1.9147501E+00  0.0000000E+00
 1.9262501E+00  0.0000000E+00
 1.9377501E+00  0.0000000E+00
 1.9492501E+00  0.0000000E+00
 1.9607501E+00  0.0000000E+00
 1.9722501E+00  0.0000000E+00
 1.9837501E+00  0.0000000E+00
 1.9952501E+00  0.0000000E+00
 2.0067501E+00  0.0000000E+00
 2.0182500E+00  0.0000000E+00
 2.0297501E+00  0.0000000E+00
 2.0412500E+00  0.0000000E+00
 2.0527501E+00  0.0000000E+00
 2.0642500E+00  0.0000000E+00
 2.0757501E+00  0.0000000E+00
 2.0872500E+00  0.0000000E+00
 2.0987501E+00  0.0000000E+00
 2.1102500E+00  0.0000000E+00
 2.1217501E+00  0.0000000E+00
 2.1332500E+00  0.0000000E+00
 2.1447501E+00  0.0000000E+00
 2.1562500E+00  0.0000000E+00
 2.1677501E+00  0.0000000E+00
 2.1792500E+00  0.0000000E+00
 2.1907501E+00  0.0000000E+00
 2.2022500E+00  0.0000000E+00
 2.2137501E+00  0.0000000E+00
 2.2252500E+00  0.0000000E+00
 2.2367501E+00  0.0000000E+00
 2.2482500E+00  0.0000000E+00
 2.2597501E+00  0.0000000E+00
 2.2712500E+00  0.0000000E+00
 2.2827501E+00  0.0000000E+00
 2.2942500E+00  0.0000000E+00
 2.3057501E+00  0.0000000E+00
 2.3172500E+00  0.0000000E+00
 2.3287501E+00  0.0000000E+00
 2.3402500E+00  0.0000000E+00
 2.3517501E+00  0.0000000E+00
 2.3632500E+00  0.0000000E+00
 2.3747501E+00  0.0000000E+00
 2.3862500E+00  0.0000000E+00
 2.3977501E+00  0.0000000E+00
 2.4092500E+00  0.0000000E+00
 2.4207501E+00  0.0000000E+00
 2.4322500E+00  0.0000000E+00
 2.4437501E+00  0.0000000E+00
 2.4552500E+00  0.0000000E+00
 2.4667501E+00  0.0000000E+00
 2.4782500E+00  0.0000000E+00
 2.4897501E+00  0.0000000E+00
 2.5012500E+00  0.0000000E+00
 2.5127501E+00  0.0000000E+00
 2.5242500E+00  0.0000000E+00
 2.5357502E+00  0.0000000E+00
 2.5472500E+00  0.0000000E+00
 2.5587502E+00  0.0000000E+00
 2.5702500E+00  0.0000000E+00
 2.5817502E+00  0.0000000E+00
 2.5932500E+00  0.0000000E+00
 2.6047502E+00  0.0000000E+00
 2.6162500E+00  0.0000000E+00
 2.6277502E+00  0.0000000E+00
 2.6392500E+00  0.0000000E+00
 2.6507502E+00  0.0000000E+00
 2.6622500E+00  0.0000000E+00
 2.6737502E+00  0.0000000E+00
 2.6852500E+00  0.0000000E+00
 2.6967502E+00  0.0000000E+00
 2.7082500E+00  0.0000000E+00
 2.7197502E+00  0.0000000E+00
 2.7312500E+00  0.0000000E+00
 2.7427502E+00  0.0000000E+00
 2.7542500E+00  0.0000000E+00
 2.7657502E+00  0.0000000E+00
 2.7772501E+00  0.0000000E+00
 2.7887502E+00  0.0000000E+00
 2.8002501E+00  0.0000000E+00
 2.8117502E+00  0.0000000E+00
 2.8232501E+00  3.6433739E+01
 2.8347502E+00  3.6357262E+01
 2.8462501E+00  3.5174438E+01
 2.8577502E+00  3.5689899E+01
 2.8692501E+00  3.6163013E+01
 2.8807502E+00  3.6636036E+01
 2.8922501E+00  3.6882599E+01
 2.9037502E+00  3.6733379E+01
 2.9152501E+00  3.6872696E+01
 2.9267502E+00  3.6925728E+01
 2.9382501E+00  3.6955822E+01
 2.9497502E+00  3.7272858E+01
 2.9612501E+00  3.6980873E+01
 2.9727502E+00  3.6692707E+01
 2.9842501E+00  3.6026810E+01
 2.9957502E+00  3.6107578E+01
 3.0072501E+00  3.5928383E+01
 3.0187502E+00  3.6017910E+01
 3.0302501E+00  3.5764015E+01
 3.0417502E+00  3.5705437E+01
 3.0532501E+00  3.5802380E+01
 3.0647502E+00  3.5579048E+01
 3.0762501E+00  3.5759121E+01
 3.0877502E+00  3.5780025E+01
 3.0992501E+00  3.6160538E+01
 3.1107502E+00  3.6430595E+01
 3.1222501E+00  3.6453133E+01
 3.1337502E+00  3.6349529E+01
 3.1452501E+00  3.5923580E+01
 3.1567502E+00  3.5743015E+01
 3.1682501E+00  3.5584198E+01
 3.1797502E+00  3.5436008E+01
 3.1912501E+00  3.5067787E+01
 3.2027502E+00  3.4939812E+01
 3.2142501E+00  3.4887421E+01
 3.2257502E+00  3.4942303E+01
 3.2372501E+00  3.4373539E+01
 3.2487502E+00  3.3984665E+01
 3.2602501E+00  3.3967762E+01
 3.2717502E+00  3.3793098E+01
 3.2832501E+00  3.3801609E+01
 3.2947502E+00  3.3700153E+01
 3.3062501E+00  3.3839409E+01
 3.3177502E+00  3.3780415E+01
 3.3292501E+00  3.3787872E+01
 3.3407502E+00  3.3724686E+01
 3.3522501E+00  3.4112545E+01
 3.3637502E+00  3.4428955E+01
 3.3752501E+00  3.5100853E+01
 3.3867502E+00  3.4909473E+01
 3.3982501E+00  3.5007236E+01
 3.4097502E+00  3.4772579E+01
 3.4212501E+00  3.4947098E+01
 3.4327502E+00  3.4876812E+01
 3.4442501E+00  3.5036469E+01
 3.4557502E+00  3.5166466E+01
 3.4672501E+00  3.4931000E+01
 3.4787502E+00  3.4670582E+01
 3.4902501E+00  3.4299667E+01
 3.5017502E+00  3.4131210E+01
 3.5132501E+00  3.3762856E+01
 3.5247502E+00  3.3766102E+01
 3.5362501E+00  3.3805073E+01
 3.5477502E+00  3.3855724E+01
 3.5592501E+00  3.4049782E+01
 3.5707502E+00  3.3935352E+01
 3.5822501E+00  3.3757336E+01
 3.5937502E+00  3.3551720E+01
 3.6052501E+00  3.3472816E+01
 3.6167502E+00  3.3464348E+01
 3.6282501E+00  3.3486099E+01
 3.6397502E+00  3.3451603E+01
 3.6512501E+00  3.3514362E+01
 3.6627502E+00  3.3504025E+01
 3.6742501E+00  3.3283245E+01
 3.6857502E+00  3.2891483E+01
 3.6972501E+00  3.2687428E+01
 3.7087502E+00  3.2664478E+01
 3.7202501E+00  3.3063103E+01
 3.7317502E+00  3.3204250E+01
 3.7432501E+00  3.3375267E+01
 3.7547503E+00  3.3376728E+01
 3.7662501E+00  3.3425838E+01
 3.7777503E+00  3.3351955E+01
 3.7892501E+00  3.3330879E+01
 3.8007503E+00  3.3104977E+01
 3.8122501E+00  3.3111561E+01
 3.8237503E+00  3.3060585E+01
 3.8352501E+00  3.3060856E+01
 3.8467503E+00  3.3071461E+01
 3.8582501E+00  3.3117767E+01
 3.8697503E+00  3.3135590E+01
 3.8812501E+00  3.3128204E+01
 3.8927503E+00  3.2969231E+01
 3.9042501E+00  3.2680267E+01
 3.9157503E+00  3.2448120E+01
 3.9272501E+00  3.2303986E+01
 3.9387503E+00  3.2255997E+01
 3.9502501E+00  3.2263447E+01
 3.9617503E+00  3.2263779E+01
 3.9732502E+00  3.2369209E+01
 3.9847503E+00  3.2589596E+01
 3.9962502E+00  3.2599468E+01
 4.0077500E+00  3.2776958E+01
 4.0192504E+00  3.2696358E+01
 4.0307503E+00  3.2599216E+01
 4.0422502E+00  3.2665737E+01
 4.0537500E+00  3.2635254E+01
 4.0652504E+00  3.2799725E+01
 4.0767503E+00  3.2676353E+01
 4.0882502E+00  3.2507793E+01
 4.0997500E+00  3.2382469E+01
 4.1112504E+00  3.2318493E+01
 4.1227503E+00  3.2469818E+01
 4.1342502E+00  3.2683586E+01
 4.1457500E+00  3.2850128E+01
 4.1572504E+00  3.2759663E+01
 4.1687503E+00  3.2596924E+01
 4.1802502E+00  3.2258545E+01
 4.1917500E+00  3.2125885E+01
 4.2032504E+00  3.1900675E+01
 4.2147503E+00  3.1897806E+01
 4.2262502E+00  3.1915022E+01
 4.2377501E+00  3.2031109E+01
 4.2492504E+00  3.2075916E+01
 4.2607503E+00  3.2113991E+01
 4.2722502E+00  3.2070953E+01
 4.2837501E+00  3.2144138E+01
 4.2952504E+00  3.2029556E+01
 4.3067503E+00  3.2068573E+01
 4.3182502E+00  3.2004780E+01
 4.3297501E+00  3.2035355E+01
 4.3412504E+00  3.2084435E+01
 4.3527503E+00  3.2144703E+01
 4.3642502E+00  3.2293610E+01
 4.3757501E+00  3.2295620E+01
 4.3872504E+00  3.2433670E+01
 4.3987503E+00  3.2412399E+01
 4.4102502E+00  3.2616833E+01
 4.4217501E+00  3.2532913E+01
 4.4332504E+00  3.2428738E+01
 4.4447503E+00  3.2340141E+01
 4.4562502E+00  3.2284981E+01
 4.4677501E+00  3.2421410E+01
 4.4792504E+00  3.2553043E+01
 4.4907503E+00  3.2632977E+01
 4.5022502E+00  3.2867340E+01
 4.5137501E+00  3.2932137E+01
 4.5252504E+00  3.2925743E+01
 4.5367503E+00  3.2685863E+01
 4.5482502E+00  3.2577171E+01
 4.5597501E+00  3.2496033E+01
 4.5712504E+00  3.2612068E+01
 4.5827503E+00  3.2672680E+01
 4.5942502E+00  3.2790081E+01
 4.6057501E+00  3.2827339E+01
 4.6172504E+00  3.2820675E+01
 4.6287503E+00  3.2778587E+01
 4.6402502E+00  3.2770691E+01
 4.6517501E+00  3.2832428E+01
 4.6632504E+00  3.2956921E+01
 4.6747503E+00  3.2961533E+01
 4.6862502E+00  3.2928394E+01
 4.6977501E+00  3.2935078E+01
 4.7092505E+00  3.3063374E+01
 4.7207503E+00  3.3061508E+01
 4.7322502E+00  3.3042004E+01
 4.7437501E+00  3.2942314E+01
 4.7552505E+00  3.2981220E+01
 4.7667503E+00  3.2922768E+01
 4.7782502E+00  3.2872456E+01
 4.7897501E+00  3.2688210E+01
 4.8012505E+00  3.2554493E+01
 4.8127503E+00  3.2513996E+01
 4.8242502E+00  3.2535709E+01
 4.8357501E+00  3.2628918E+01
 4.8472505E+00  3.2659058E+01
 4.8587503E+00  3.2915909E+01
 4.8702502E+00  3.2919804E+01
 4.8817501E+00  3.2952461E+01
 4.8932505E+00  3.2812599E+01
 4.9047503E+00  3.2868580E+01
 4.9162502E+00  3.3066193E+01
 4.9277501E+00  3.3144283E+01
 4.9392505E+00  3.3319504E+01
 4.9507504E+00  3.3342636E+01
 4.9622502E+00  3.3415939E+01
 4.9737501E+00  3.3341137E+01
 4.9852505E+00  3.3335190E+01
 4.9967504E+00  3.3317867E+01
 5.0082502E+00  3.3411583E+01
 5.0197501E+00  3.3370190E+01
 5.0312505E+00  3.3304352E+01
 5.0427504E+00  3.3260139E+01
 5.0542502E+00  3.3280655E+01
 5.0657501E+00  3.3273407E+01
 5.0772505E+00  3.3282665E+01
 5.0887504E+00  3.3395134E+01
 5.1002502E+00  3.3504414E+01
 5.1117501E+00  3.3615341E+01
 5.1232505E+00  3.3644142E+01
 5.1347504E+00  3.3736343E+01
 5.1462502E+00  3.3719574E+01
 5.1577501E+00  3.3727600E+01
 5.1692505E+00  3.3743877E+01
 5.1807504E+00  3.3867386E+01
 5.1922503E+00  3.4079273E+01
 5.2037501E+00  3.4170540E+01
 5.2152505E+00  3.4246246E+01
 5.2267504E+00  3.4243256E+01
 5.2382503E+00  3.4211979E+01
 5.2497501E+00  3.4156475E+01
 5.2612505E+00  3.4017628E+01
 5.2727504E+00  3.3883934E+01
 5.2842503E+00  3.3870861E+01
 5.2957501E+00  3.3988155E+01
 5.3072500E+00  3.4051712E+01
 5.3187504E+00  3.4211765E+01
 5.3302503E+00  3.4220577E+01
 5.3417501E+00  3.4318493E+01
 5.3532500E+00  3.4329865E+01
 5.3647504E+00  3.4359070E+01
 5.3762503E+00  3.4441902E+01
 5.3877501E+00  3.4497383E+01
 5.3992500E+00  3.4410412E+01
 5.4107504E+00  3.4305016E+01
 5.4222503E+00  3.4269257E+01
 5.4337502E+00  3.4237980E+01
 5.4452500E+00  3.4446075E+01
 5.4567504E+00  3.4618179E+01
 5.4682503E+00  3.4704052E+01
 5.4797502E+00  3.4826836E+01
 5.4912500E+00  3.4799610E+01
 5.5027504E+00  3.4867153E+01
 5.5142503E+00  3.4887897E+01
 5.5257502E+00  3.4954830E+01
 5.5372500E+00  3.4989979E+01
 5.5487504E+00  3.5001717E+01
 5.5602503E+00  3.4962662E+01
 5.5717502E+00  3.5067997E+01
 5.5832500E+00  3.5133286E+01
 5.5947504E+00  3.5206104E+01
 5.6062503E+00  3.5205830E+01
 5.6177502E+00  3.5250259E+01
 5.6292500E+00  3.5328033E+01
 5.6407504E+00  3.5463726E+01
 5.6522503E+00  3.5661602E+01
 5.6637502E+00  3.5876266E+01
 5.6752501E+00  3.5951122E+01
 5.6867504E+00  3.5904514E+01
 5.6982503E+00  3.5811981E+01
 5.7097502E+00  3.5782600E+01
 5.7212501E+00  3.5794224E+01
 5.7327504E+00  3.5809990E+01
 5.7442503E+00  3.5864967E+01
 5.7557502E+00  3.5929188E+01
 5.7672501E+00  3.5952690E+01
 5.7787504E+00  3.5968834E+01
 5.7902503E+00  3.5953983E+01
 5.8017502E+00  3.5944935E+01
 5.8132501E+00  3.5985470E+01
 5.8247504E+00  3.6055248E+01
 5.8362503E+00  3.6211967E+01
 5.8477502E+00  3.6235641E+01
 5.8592501E+00  3.6249481E+01
 5.8707504E+00  3.6314732E+01
 5.8822503E+00  3.6497944E+01
 5.8937502E+00  3.6774513E+01
 5.9052501E+00  3.7269100E+01
 5.9167504E+00  3.7834736E+01
 5.9282503E+00  3.8962448E+01
 5.9397502E+00  4.1132790E+01
 5.9512501E+00  4.3776230E+01
 5.9627504E+00  4.6724449E+01
 5.9742503E+00  5.0019783E+01
 5.9857502E+00  5.1147575E+01
 5.9972501E+00  5.1941013E+01
 6.0087504E+00  4.9813686E+01
 6.0202503E+00  4.7339001E+01
 6.0317502E+00  4.4371868E+01
 6.0432501E+00  4.1395649E+01
 6.0547504E+00  3.9837074E+01
 6.0662503E+00  3.8528969E+01
 6.0777502E+00  3.7797855E+01
 6.0892501E+00  3.7509026E+01
 6.1007504E+00  3.7302521E+01
 6.1122503E+00  3.7252602E+01
 6.1237502E+00  3.7166889E+01
 6.1352501E+00  3.7148396E+01
 6.1467505E+00  3.6962475E+01
 6.1582503E+00  3.6995834E+01
 6.1697502E+00  3.7029362E+01
 6.1812501E+00  3.7118824E+01
 6.1927505E+00  3.7122849E+01
 6.2042503E+00  3.7038998E+01
 6.2157502E+00  3.7136509E+01
 6.2272501E+00  3.7234840E+01
 6.2387505E+00  3.7352913E+01
 6.2502503E+00  3.7418137E+01
 6.2617502E+00  3.7476826E+01
 6.2732501E+00  3.7604687E+01
 6.2847505E+00  3.7753178E+01
 6.2962503E+00  3.7755665E+01
 6.3077502E+00  3.7757069E+01
 6.3192501E+00  3.7734501E+01
 6.3307505E+00  3.7933029E+01
 6.3422503E+00  3.8038544E+01
 6.3537502E+00  3.8209797E+01
 6.3652501E+00  3.8345081E+01
 6.3767505E+00  3.8479683E+01
 6.3882504E+00  3.8612263E+01
 6.3997502E+00  3.8575695E+01
 6.4112501E+00  3.8678383E+01
 6.4227505E+00  3.8722664E+01
 6.4342504E+00  3.8811901E+01
 6.4457502E+00  3.8931488E+01
 6.4572501E+00  3.8927288E+01
 6.4687505E+00  3.9024509E+01
 6.4802504E+00  3.9002548E+01
 6.4917502E+00  3.9010826E+01
 6.5032501E+00  3.9127777E+01
 6.5147505E+00  3.9244835E+01
 6.5262504E+00  3.9452568E+01
 6.5377502E+00  3.9602001E+01
 6.5492501E+00  3.9607098E+01
 6.5607505E+00  3.9662281E+01
 6.5722504E+00  3.9620762E+01
 6.5837502E+00  3.9678177E+01
 6.5952501E+00  3.9745670E+01
 6.6067505E+00  3.9762077E+01
 6.6182504E+00  3.9910290E+01
 6.6297503E+00  4.0018414E+01
 6.6412501E+00  4.0134319E+01
 6.6527505E+00  4.0188450E+01
 6.6642504E+00  4.0239628E+01
 6.6757503E+00  4.0291393E+01
 6.6872501E+00  4.0320984E+01
 6.6987505E+00  4.0395660E+01
 6.7102504E+00  4.0419006E+01
 6.7217503E+00  4.0538925E+01
 6.7332501E+00  4.0498493E+01
 6.7447505E+00  4.0659477E+01
 6.7562504E+00  4.0814571E+01
 6.7677503E+00  4.1012295E+01
 6.7792501E+00  4.1096619E+01
 6.7907505E+00  4.1246449E+01
 6.8022504E+00  4.1366837E+01
 6.8137503E+00  4.1581528E+01
 6.8252501E+00  4.1646236E+01
 6.8367505E+00  4.1786877E+01
 6.8482504E+00  4.1895382E+01
 6.8597503E+00  4.1956188E+01
 6.8712502E+00  4.1924423E+01
 6.8827505E+00  4.1985935E+01
 6.8942504E+00  4.1939152E+01
 6.9057503E+00  4.1975105E+01
 6.9172502E+00  4.1973328E+01
 6.9287505E+00  4.1994629E+01
 6.9402504E+00  4.2029202E+01
 6.9517503E+00  4.2055031E+01
 6.9632502E+00  4.2088131E+01
 6.9747505E+00  4.2247936E+01
 6.9862504E+00  4.2419212E+01
 6.9977503E+00  4.2612877E+01
 7.0092502E+00  4.2793617E+01
 7.0207505E+00  4.2841244E+01
 7.0322504E+00  4.3025269E+01
 7.0437503E+00  4.3009495E+01
 7.0552502E+00  4.3104450E+01
 7.0667505E+00  4.3147861E+01
 7.0782504E+00  4.3239204E+01
 7.0897503E+00  4.3333935E+01
 7.1012502E+00  4.3393326E+01
 7.1127505E+00  4.3356907E+01
 7.1242504E+00  4.3367455E+01
 7.1357503E+00  4.3287663E+01
 7.1472502E+00  4.3363823E+01
 7.1587505E+00  4.3339161E+01
 7.1702504E+00  4.3400532E+01
 7.1817503E+00  4.3465076E+01
 7.1932502E+00  4.3605862E+01
 7.2047505E+00  4.3664921E+01
 7.2162504E+00  4.3755569E+01
 7.2277503E+00  4.3780777E+01
 7.2392502E+00  4.3813274E+01
 7.2507505E+00  4.3906509E+01
 7.2622504E+00  4.3918892E+01
 7.2737503E+00  4.3984852E+01
 7.2852502E+00  4.3929928E+01
 7.2967505E+00  4.3900551E+01
 7.3082504E+00  4.3900703E+01
 7.3197503E+00  4.3945328E+01
 7.3312502E+00  4.4037060E+01
 7.3427505E+00  4.4154594E+01
 7.3542504E+00  4.4248802E+01
 7.3657503E+00  4.4299477E+01
 7.3772502E+00  4.4159744E+01
 7.3887506E+00  4.4091560E+01
 7.4002504E+00  4.4040131E+01
 7.4117503E+00  4.4103210E+01
 7.4232502E+00  4.4167065E+01
 7.4347506E+00  4.4249050E+01
 7.4462504E+00  4.4290195E+01
 7.4577503E+00  4.4361954E+01
 7.4692502E+00  4.4380840E+01
 7.4807506E+00  4.4493668E+01
 7.4922504E+00  4.4567932E+01
 7.5037503E+00  4.4619019E+01
 7.5152502E+00  4.4643181E+01
 7.5267506E+00  4.4529690E+01
 7.5382504E+00  4.4448483E+01
 7.5497503E+00  4.4295029E+01
 7.5612502E+00  4.4237495E+01
 7.5727506E+00  4.4137440E+01
 7.5842505E+00  4.4227859E+01
 7.5957503E+00  4.4359348E+01
 7.6072502E+00  4.4472034E+01
 7.6187506E+00  4.4535461E+01
 7.6302505E+00  4.4533779E+01
 7.6417503E+00  4.4613018E+01
 7.6532502E+00  4.4663746E+01
 7.6647506E+00  4.4630672E+01
 7.6762505E+00  4.4523407E+01
 7.6877503E+00  4.4345860E+01
 7.6992502E+00  4.4207592E+01
 7.7107506E+00  4.4200531E+01
 7.7222505E+00  4.4271385E+01
 7.7337503E+00  4.4315971E+01
 7.7452502E+00  4.4380409E+01
 7.7567506E+00  4.4405258E+01
 7.7682505E+00  4.4493965E+01
 7.7797503E+00  4.4457920E+01
 7.7912502E+00  4.4438602E+01
 7.8027506E+00  4.4482368E+01
 7.8142505E+00  4.4471329E+01
 7.8257504E+00  4.4415874E+01
 7.8372502E+00  4.4343861E+01
 7.8487506E+00  4.4216377E+01
 7.8602505E+00  4.4178341E+01
 7.8717504E+00  4.4066135E+01
 7.8832502E+00  4.4059246E+01
 7.8947506E+00  4.4023468E+01
 7.9062505E+00  4.3973431E+01
 7.9177504E+00  4.4008068E+01
 7.9292502E+00  4.3955860E+01
 7.9407506E+00  4.4001774E+01
 7.9522505E+00  4.3859600E+01
 7.9637504E+00  4.3815147E+01
 7.9752502E+00  4.3738914E+01
 7.9867506E+00  4.3833054E+01
 7.9982505E+00  4.3840355E+01
 8.0097504E+00  4.3820206E+01
 8.0212507E+00  4.3744999E+01
 8.0327501E+00  4.3624889E+01
 8.0442505E+00  4.3593151E+01
 8.0557508E+00  4.3351154E+01
 8.0672503E+00  4.3182182E+01
 8.0787506E+00  4.3010128E+01
 8.0902500E+00  4.2979969E+01
 8.1017504E+00  4.2975475E+01
 8.1132507E+00  4.2855968E+01
 8.1247501E+00  4.2611721E+01
 8.1362505E+00  4.2393162E+01
 8.1477509E+00  4.2199017E+01
 8.1592503E+00  4.2107773E+01
 8.1707506E+00  4.2046619E+01
 8.1822500E+00  4.1961021E+01
 8.1937504E+00  4.1923599E+01
 8.2052507E+00  4.1823063E+01
 8.2167501E+00  4.1715477E+01
 8.2282505E+00  4.1642017E+01
 8.2397509E+00  4.1522789E+01
 8.2512503E+00  4.1413982E+01
 8.2627506E+00  4.1198051E+01
 8.2742500E+00  4.0969685E+01
 8.2857504E+00  4.0721760E+01
 8.2972507E+00  4.0550747E+01
 8.3087502E+00  4.0381737E+01
 8.3202505E+00  4.0238815E+01
 8.3317509E+00  4.0080318E+01
 8.3432503E+00  4.0023045E+01
 8.3547506E+00  3.9919563E+01
 8.3662500E+00  3.9859253E+01
 8.3777504E+00  3.9696510E+01
 8.3892508E+00  3.9600475E+01
 8.4007502E+00  3.9539928E+01
 8.4122505E+00  3.9496727E+01
 8.4237509E+00  3.9344501E+01
 8.4352503E+00  3.9185093E+01
 8.4467506E+00  3.8935776E+01
 8.4582500E+00  3.8741417E+01
 8.4697504E+00  3.8572739E+01
 8.4812508E+00  3.8377628E+01
 8.4927502E+00  3.8221760E+01
 8.5042505E+00  3.7995300E+01
 8.5157509E+00  3.7892220E+01
 8.5272503E+00  3.7782127E+01
 8.5387506E+00  3.7678646E+01
 8.5502501E+00  3.7482353E+01
 8.5617504E+00  3.7257957E+01
 8.5732508E+00  3.7121189E+01
 8.5847502E+00  3.6877979E+01
 8.5962505E+00  3.6814629E+01
 8.6077509E+00  3.6513954E+01
 8.6192503E+00  3.6401379E+01
 8.6307507E+00  3.6121555E+01
 8.6422501E+00  3.5924397E+01
 8.6537504E+00  3.5662971E+01
 8.6652508E+00  3.5496758E+01
 8.6767502E+00  3.5309090E+01
 8.6882505E+00  3.5175812E+01
 8.6997509E+00  3.5040531E+01
 8.7112503E+00  3.4919281E+01
 8.7227507E+00  3.4789841E+01
 8.7342501E+00  3.4558105E+01
 8.7457504E+00  3.4283623E+01
 8.7572508E+00  3.4023724E+01
 8.7687502E+00  3.3818535E+01
 8.7802505E+00  3.3612991E+01
 8.7917500E+00  3.3446423E+01
 8.8032503E+00  3.3323166E+01
 8.8147507E+00  3.3306736E+01
 8.8262501E+00  3.3231731E+01
 8.8377504E+00  3.3111328E+01
 8.8492508E+00  3.2926735E+01
 8.8607502E+00  3.2761890E+01
 8.8722506E+00  3.2603485E+01
 8.8837500E+00  3.2435558E+01
 8.8952503E+00  3.2238258E+01
 8.9067507E+00  3.2065235E+01
 8.9182501E+00  3.1870674E+01
 8.9297504E+00  3.1719212E+01
 8.9412508E+00  3.1490028E+01
 8.9527502E+00  3.1365673E+01
 8.9642506E+00  3.1254398E+01
 8.9757500E+00  3.1194048E+01
 8.9872503E+00  3.1052019E+01
 8.9987507E+00  3.0880259E+01
 9.0102501E+00  3.0655878E+01
 9.0217505E+00  3.0450453E+01
 9.0332508E+00  3.0300451E+01
 9.0447502E+00  3.0111429E+01
 9.0562506E+00  2.9942654E+01
 9.0677500E+00  2.9777027E+01
 9.0792503E+00  2.9733067E+01
 9.0907507E+00  2.9627506E+01
 9.1022501E+00  2.9537619E+01
 9.1137505E+00  2.9450691E+01
 9.1252508E+00  2.9410162E+01
 9.1367502E+00  2.9383238E+01
 9.1482506E+00  2.9281073E+01
 9.1597500E+00  2.9171082E+01
 9.1712503E+00  2.8936520E+01
 9.1827507E+00  2.8765009E+01
 9.1942501E+00  2.8609711E+01
 9.2057505E+00  2.8484304E+01
 9.2172508E+00  2.8374468E+01
 9.2287502E+00  2.8222210E+01
 9.2402506E+00  2.8151499E+01
 9.2517500E+00  2.8045500E+01
 9.2632504E+00  2.7951363E+01
 9.2747507E+00  2.7836384E+01
 9.2862501E+00  2.7745893E+01
 9.2977505E+00  2.7647165E+01
 9.3092508E+00  2.7587618E+01
 9.3207502E+00  2.7467205E+01
 9.3322506E+00  2.7385124E+01
 9.3437500E+00  2.7284105E+01
 9.3552504E+00  2.7244587E+01
 9.3667507E+00  2.7158527E+01
 9.3782501E+00  2.7111898E+01
 9.3897505E+00  2.6994904E+01
 9.4012508E+00  2.6942465E+01
 9.4127502E+00  2.6760250E+01
 9.4242506E+00  2.6672031E+01
 9.4357500E+00  2.6599937E+01
 9.4472504E+00  2.6577839E+01
 9.4587507E+00  2.6576965E+01
 9.4702501E+00  2.6537037E+01
 9.4817505E+00  2.6565186E+01
 9.4932508E+00  2.6463255E+01
 9.5047503E+00  2.6417452E+01
 9.5162506E+00  2.6299509E+01
 9.5277500E+00  2.6237345E+01
 9.5392504E+00  2.6198736E+01
 9.5507507E+00  2.6138983E+01
 9.5622501E+00  2.6120741E+01
 9.5737505E+00  2.6009176E+01
 9.5852509E+00  2.5883583E+01
 9.5967503E+00  2.5778276E+01
 9.6082506E+00  2.5750422E+01
 9.6197500E+00  2.5731613E+01
 9.6312504E+00  2.5753441E+01
 9.6427507E+00  2.5691971E+01
 9.6542501E+00  2.5656412E+01
 9.6657505E+00  2.5571011E+01
 9.6772509E+00  2.5471823E+01
 9.6887503E+00  2.5362352E+01
 9.7002506E+00  2.5258148E+01
 9.7117500E+00  2.5239817E+01
 9.7232504E+00  2.5233603E+01
 9.7347507E+00  2.5211538E+01
 9.7462502E+00  2.5184977E+01
 9.7577505E+00  2.5132278E+01
 9.7692509E+00  2.5142103E+01
 9.7807503E+00  2.5126148E+01
 9.7922506E+00  2.5131834E+01
 9.8037500E+00  2.5140776E+01
 9.8152504E+00  2.5062170E+01
 9.8267508E+00  2.5012407E+01
 9.8382502E+00  2.4951950E+01
 9.8497505E+00  2.4873930E+01
 9.8612509E+00  2.4826180E+01
 9.8727503E+00  2.4753824E+01
 9.8842506E+00  2.4746214E+01
 9.8957500E+00  2.4771305E+01
 9.9072504E+00  2.4753288E+01
 9.9187508E+00  2.4789322E+01
 9.9302502E+00  2.4806326E+01
 9.9417505E+00  2.4847139E+01
 9.9532509E+00  2.4982199E+01
 9.9647503E+00  2.5190132E+01
 9.9762506E+00  2.5147194E+01
 9.9877501E+00  2.5134800E+01
 9.9992504E+00  2.4896307E+01
 1.0010751E+01  2.4751505E+01
 1.0022250E+01  2.4542973E+01
 1.0033751E+01  2.4392742E+01
 1.0045251E+01  2.4309322E+01
 1.0056750E+01  2.4163975E+01
 1.0068251E+01  2.4041319E+01
 1.0079750E+01  2.3952850E+01
 1.0091250E+01  2.3905550E+01
 1.0102751E+01  2.3880405E+01
 1.0114250E+01  2.3934048E+01
 1.0125751E+01  2.4008499E+01
 1.0137251E+01  2.4054230E+01
 1.0148750E+01  2.4119698E+01
 1.0160251E+01  2.4102818E+01
 1.0171750E+01  2.4042252E+01
 1.0183250E+01  2.3978909E+01
 1.0194751E+01  2.3872234E+01
 1.0206250E+01  2.3892900E+01
 1.0217751E+01  2.3871683E+01
 1.0229251E+01  2.3864449E+01
 1.0240750E+01  2.3826727E+01
 1.0252251E+01  2.3703733E+01
 1.0263750E+01  2.3683300E+01
 1.0275250E+01  2.3612297E+01
 1.0286751E+01  2.3623037E+01
 1.0298250E+01  2.3615192E+01
 1.0309751E+01  2.3636021E+01
 1.0321251E+01  2.3657330E+01
 1.0332750E+01  2.3684464E+01
 1.0344251E+01  2.3689354E+01
 1.0355750E+01  2.3675701E+01
 1.0367250E+01  2.3575035E+01
 1.0378751E+01  2.3523827E+01
 1.0390250E+01  2.3525259E+01
 1.0401751E+01  2.3578831E+01
 1.0413251E+01  2.3531729E+01
 1.0424750E+01  2.3469757E+01
 1.0436251E+01  2.3368620E+01
 1.0447750E+01  2.3296412E+01
 1.0459250E+01  2.3249224E+01
 1.0470751E+01  2.3237667E+01
 1.0482250E+01  2.3294909E+01
 1.0493751E+01  2.3319649E+01
 1.0505251E+01  2.3350672E+01
 1.0516750E+01  2.3359394E+01
 1.0528251E+01  2.3346840E+01
 1.0539750E+01  2.3331013E+01
 1.0551250E+01  2.3346336E+01
 1.0562751E+01  2.3268883E+01
 1.0574250E+01  2.3170177E+01
 1.0585751E+01  2.3002247E+01
 1.0597251E+01  2.2982075E+01
 1.0608750E+01  2.3003696E+01
 1.0620251E+01  2.3046320E+01
 1.0631750E+01  2.3061031E+01
 1.0643250E+01  2.3057556E+01
 1.0654751E+01  2.3071402E+01
 1.0666250E+01  2.3051346E+01
 1.0677751E+01  2.3011330E+01
 1.0689251E+01  2.2950636E+01
 1.0700750E+01  2.2992161E+01
 1.0712251E+01  2.3028309E+01
 1.0723750E+01  2.3094030E+01
 1.0735250E+01  2.3026701E+01
 1.0746751E+01  2.2980803E+01
 1.0758250E+01  2.2893324E+01
 1.0769751E+01  2.2904715E+01
 1.0781251E+01  2.2900438E+01
 1.0792750E+01  2.2900284E+01
 1.0804251E+01  2.2918459E+01
 1.0815750E+01  2.2890102E+01
 1.0827250E+01  2.2880598E+01
 1.0838751E+01  2.2779564E+01
 1.0850250E+01  2.2742878E+01
 1.0861751E+01  2.2690834E+01
 1.0873251E+01  2.2681993E+01
 1.0884750E+01  2.2633465E+01
 1.0896251E+01  2.2599237E+01
 1.0907750E+01  2.2594315E+01
 1.0919250E+01  2.2669947E+01
 1.0930751E+01  2.2740328E+01
 1.0942250E+01  2.2797005E+01
 1.0953751E+01  2.2770687E+01
 1.0965251E+01  2.2737289E+01
 1.0976750E+01  2.2716740E+01
 1.0988251E+01  2.2669685E+01
 1.0999750E+01  2.2611433E+01
 1.1011250E+01  2.2587748E+01
 1.1022751E+01  2.2624895E+01
 1.1034250E+01  2.2667053E+01
 1.1045751E+01  2.2657841E+01
 1.1057251E+01  2.2631044E+01
 1.1068750E+01  2.2599262E+01
 1.1080251E+01  2.2551634E+01
 1.1091750E+01  2.2489685E+01
 1.1103251E+01  2.2502378E+01
 1.1114751E+01  2.2508587E+01
 1.1126250E+01  2.2548752E+01
 1.1137751E+01  2.2523399E+01
 1.1149251E+01  2.2529198E+01
 1.1160750E+01  2.2548775E+01
 1.1172251E+01  2.2563396E+01
 1.1183750E+01  2.2547354E+01
 1.1195251E+01  2.2533142E+01
 1.1206751E+01  2.2534784E+01
 1.1218250E+01  2.2511345E+01
 1.1229751E+01  2.2515846E+01
 1.1241251E+01  2.2506826E+01
 1.1252750E+01  2.2499868E+01
 1.1264251E+01  2.2504774E+01
 1.1275750E+01  2.2499405E+01
 1.1287251E+01  2.2508583E+01
 1.1298751E+01  2.2497480E+01
 1.1310250E+01  2.2527172E+01
 1.1321751E+01  2.2577560E+01
 1.1333251E+01  2.2553175E+01
 1.1344750E+01  2.2494648E+01
 1.1356251E+01  2.2412210E+01
 1.1367750E+01  2.2401897E+01
 1.1379251E+01  2.2428888E+01
 1.1390751E+01  2.2474676E+01
 1.1402250E+01  2.2609516E+01
 1.1413751E+01  2.2664728E+01
 1.1425251E+01  2.2730679E+01
 1.1436750E+01  2.2703201E+01
 1.1448251E+01  2.2679180E+01
 1.1459750E+01  2.2658844E+01
 1.1471251E+01  2.2676994E+01
 1.1482751E+01  2.2710812E+01
 1.1494250E+01  2.2817341E+01
 1.1505751E+01  2.2869818E+01
 1.1517251E+01  2.3029886E+01
 1.1528750E+01  2.3351280E+01
 1.1540251E+01  2.3712675E+01
 1.1551750E+01  2.4346369E+01
 1.1563251E+01  2.5277281E+01
 1.1574751E+01  2.5937420E+01
 1.1586250E+01  2.6896803E+01
 1.1597751E+01  2.6980387E+01
 1.1609251E+01  2.7066803E+01
 1.1620750E+01  2.6325399E+01
 1.1632251E+01  2.5692110E+01
 1.1643750E+01  2.4776634E+01
 1.1655251E+01  2.4130182E+01
 1.1666751E+01  2.3439547E+01
 1.1678250E+01  2.3205830E+01
 1.1689751E+01  2.2867840E+01
 1.1701251E+01  2.2735828E+01
 1.1712750E+01  2.2654478E+01
 1.1724251E+01  2.2589125E+01
 1.1735750E+01  2.2536345E+01
 1.1747251E+01  2.2510204E+01
 1.1758751E+01  2.2471144E+01
 1.1770250E+01  2.2460518E+01
 1.1781751E+01  2.2430925E+01
 1.1793251E+01  2.2381287E+01
 1.1804750E+01  2.2424793E+01
 1.1816251E+01  2.2446394E+01
 1.1827750E+01  2.2479958E+01
 1.1839251E+01  2.2399145E+01
 1.1850751E+01  2.2308121E+01
 1.1862250E+01  2.2328001E+01
 1.1873751E+01  2.2319613E+01
 1.1885251E+01  2.2348927E+01
 1.1896750E+01  2.2352625E+01
 1.1908251E+01  2.2468233E+01
 1.1919750E+01  2.2575678E+01
 1.1931251E+01  2.2737787E+01
 1.1942751E+01  2.2899967E+01
 1.1954250E+01  2.3163479E+01
 1.1965751E+01  2.3251957E+01
 1.1977251E+01  2.3433067E+01
 1.1988750E+01  2.3395023E+01
 1.2000251E+01  2.3416056E+01
 1.2011750E+01  2.3317484E+01
 1.2023251E+01  2.3299170E+01
 1.2034751E+01  2.3349333E+01
 1.2046250E+01  2.3476444E+01
 1.2057751E+01  2.3811373E+01
 1.2069251E+01  2.4150402E+01
 1.2080750E+01  2.4515991E+01
 1.2092251E+01  2.4639111E+01
 1.2103750E+01  2.4606791E+01
 1.2115251E+01  2.4381136E+01
 1.2126751E+01  2.4036554E+01
 1.2138250E+01  2.3708870E+01
 1.2149751E+01  2.3338276E+01
 1.2161251E+01  2.3068262E+01
 1.2172750E+01  2.2860502E+01
 1.2184251E+01  2.2713320E+01
 1.2195750E+01  2.2645308E+01
 1.2207251E+01  2.2550327E+01
 1.2218751E+01  2.2485613E+01
 1.2230250E+01  2.2388552E+01
 1.2241751E+01  2.2404900E+01
 1.2253251E+01  2.2453045E+01
 1.2264750E+01  2.2490072E+01
 1.2276251E+01  2.2450773E+01
 1.2287750E+01  2.2422550E+01
 1.2299251E+01  2.2434261E+01
 1.2310751E+01  2.2480341E+01
 1.2322250E+01  2.2465475E+01
 1.2333751E+01  2.2522585E+01
 1.2345250E+01  2.2510691E+01
 1.2356750E+01  2.2546392E+01
 1.2368251E+01  2.2527189E+01
 1.2379750E+01  2.2554449E+01
 1.2391251E+01  2.2583977E+01
 1.2402751E+01  2.2547785E+01
 1.2414250E+01  2.2568951E+01
 1.2425751E+01  2.2580029E+01
 1.2437250E+01  2.2706596E+01
 1.2448750E+01  2.2721439E+01
 1.2460251E+01  2.2782677E+01
 1.2471750E+01  2.2762390E+01
 1.2483251E+01  2.2822664E+01
 1.2494751E+01  2.2784304E+01
 1.2506250E+01  2.2751568E+01
 1.2517751E+01  2.2714436E+01
 1.2529250E+01  2.2717152E+01
 1.2540751E+01  2.2730726E+01
 1.2552251E+01  2.2731283E+01
 1.2563750E+01  2.2723339E+01
 1.2575251E+01  2.2682222E+01
 1.2586751E+01  2.2711285E+01
 1.2598250E+01  2.2741501E+01
 1.2609751E+01  2.2818550E+01
 1.2621250E+01  2.2829308E+01
 1.2632751E+01  2.2863052E+01
 1.2644251E+01  2.2812956E+01
 1.2655750E+01  2.2731981E+01
 1.2667251E+01  2.2662539E+01
 1.2678751E+01  2.2641989E+01
 1.2690250E+01  2.2711666E+01
 1.2701751E+01  2.2751709E+01
 1.2713250E+01  2.2910295E+01
 1.2724751E+01  2.2951130E+01
 1.2736251E+01  2.2997280E+01
 1.2747750E+01  2.2978777E+01
 1.2759251E+01  2.2988321E+01
 1.2770751E+01  2.3007278E+01
 1.2782250E+01  2.3015301E+01
 1.2793751E+01  2.3014002E+01
 1.2805250E+01  2.3079420E+01
 1.2816751E+01  2.3121290E+01
 1.2828251E+01  2.3257572E+01
 1.2839750E+01  2.3318115E+01
 1.2851251E+01  2.3387615E+01
 1.2862751E+01  2.3377274E+01
 1.2874250E+01  2.3408697E+01
 1.2885751E+01  2.3416891E+01
 1.2897250E+01  2.3469902E+01
 1.2908751E+01  2.3520493E+01
 1.2920251E+01  2.3606724E+01
 1.2931750E+01  2.3720516E+01
 1.2943251E+01  2.3838734E+01
 1.2954751E+01  2.3933966E+01
 1.2966250E+01  2.3990721E+01
 1.2977751E+01  2.4009640E+01
 1.2989250E+01  2.3972008E+01
 1.3000751E+01  2.4003187E+01
 1.3012251E+01  2.4050091E+01
 1.3023750E+01  2.4217655E+01
 1.3035251E+01  2.4260313E+01
 1.3046751E+01  2.4379379E+01
 1.3058250E+01  2.4443289E+01
 1.3069751E+01  2.4514496E+01
 1.3081250E+01  2.4577919E+01
 1.3092751E+01  2.4636784E+01
 1.3104251E+01  2.4767906E+01
 1.3115750E+01  2.4883476E+01
 1.3127251E+01  2.5060713E+01
 1.3138751E+01  2.5177979E+01
 1.3150250E+01  2.5375097E+01
 1.3161751E+01  2.5489685E+01
 1.3173250E+01  2.5702017E+01
 1.3184751E+01  2.5922541E+01
 1.3196251E+01  2.6042337E+01
 1.3207750E+01  2.6341906E+01
 1.3219251E+01  2.6459030E+01
 1.3230751E+01  2.6617590E+01
 1.3242250E+01  2.6544628E+01
 1.3253751E+01  2.6549473E+01
 1.3265250E+01  2.6601759E+01
 1.3276751E+01  2.6658604E+01
 1.3288251E+01  2.6758791E+01
 1.3299750E+01  2.6956390E+01
 1.3311251E+01  2.7090162E+01
 1.3322751E+01  2.7291187E+01
 1.3334250E+01  2.7461426E+01
 1.3345751E+01  2.7613718E+01
 1.3357250E+01  2.7735579E+01
 1.3368751E+01  2.7830446E+01
 1.3380251E+01  2.8019094E+01
 1.3391750E+01  2.8171288E+01
 1.3403251E+01  2.8329256E+01
 1.3414751E+01  2.8369904E+01
 1.3426250E+01  2.8459774E+01
 1.3437751E+01  2.8502064E+01
 1.3449250E+01  2.8618414E+01
 1.3460751E+01  2.8752670E+01
 1.3472251E+01  2.8935350E+01
 1.3483750E+01  2.9138340E+01
 1.3495251E+01  2.9257664E+01
 1.3506751E+01  2.9368349E+01
 1.3518250E+01  2.9461721E+01
 1.3529751E+01  2.9545294E+01
 1.3541250E+01  2.9693096E+01
 1.3552751E+01  2.9734972E+01
 1.3564251E+01  2.9854507E+01
 1.3575750E+01  2.9890135E+01
 1.3587251E+01  2.9969967E+01
 1.3598751E+01  3.0004860E+01
 1.3610250E+01  3.0058270E+01
 1.3621751E+01  3.0035872E+01
 1.3633250E+01  3.0057343E+01
 1.3644751E+01  3.0012924E+01
 1.3656251E+01  2.9995941E+01
 1.3667750E+01  2.9912384E+01
 1.3679251E+01  2.9906546E+01
 1.3690751E+01  2.9923117E+01
 1.3702250E+01  2.9951675E+01
 1.3713751E+01  2.9957224E+01
 1.3725250E+01  2.9967127E+01
 1.3736751E+01  2.9990446E+01
 1.3748251E+01  2.9968737E+01
 1.3759750E+01  2.9968918E+01
 1.3771251E+01  2.9899906E+01
 1.3782751E+01  2.9937819E+01
 1.3794250E+01  2.9921503E+01
 1.3805751E+01  2.9994411E+01
 1.3817250E+01  3.0072275E+01
 1.3828751E+01  3.0211906E+01
 1.3840251E+01  3.0378689E+01
 1.3851750E+01  3.0700016E+01
 1.3863251E+01  3.1246946E+01
 1.3874751E+01  3.2184040E+01
 1.3886250E+01  3.3754742E+01
 1.3897751E+01  3.6458820E+01
 1.3909250E+01  4.0639828E+01
 1.3920751E+01  4.6057312E+01
 1.3932251E+01  5.3752583E+01
 1.3943750E+01  5.7955208E+01
 1.3955251E+01  6.6012634E+01
 1.3966751E+01  6.2830109E+01
 1.3978251E+01  6.4156029E+01
 1.3989751E+01  5.2681980E+01
 1.4001250E+01  4.8668869E+01
 1.4012751E+01  3.8930855E+01
 1.4024251E+01  3.5731083E+01
 1.4035750E+01  3.2191074E+01
 1.4047251E+01  3.0801258E+01
 1.4058751E+01  2.9724758E+01
 1.4070251E+01  2.9316017E+01
 1.4081751E+01  2.8921526E+01
 1.4093250E+01  2.8626377E+01
 1.4104751E+01  2.8351477E+01
 1.4116251E+01  2.8127071E+01
 1.4127750E+01  2.7980778E+01
 1.4139251E+01  2.7845100E+01
 1.4150751E+01  2.7751102E+01
 1.4162251E+01  2.7638100E+01
 1.4173751E+01  2.7513845E+01
 1.4185250E+01  2.7391241E+01
 1.4196751E+01  2.7265015E+01
 1.4208251E+01  2.7147396E+01
 1.4219750E+01  2.7121529E+01
 1.4231251E+01  2.7009533E+01
 1.4242751E+01  2.6956776E+01
 1.4254251E+01  2.6778152E+01
 1.4265751E+01  2.6702175E+01
 1.4277250E+01  2.6600042E+01
 1.4288751E+01  2.6578966E+01
 1.4300251E+01  2.6519846E+01
 1.4311750E+01  2.6505455E+01
 1.4323251E+01  2.6387838E+01
 1.4334751E+01  2.6331682E+01
 1.4346251E+01  2.6212095E+01
 1.4357751E+01  2.6198433E+01
 1.4369250E+01  2.6133623E+01
 1.4380751E+01  2.6189116E+01
 1.4392251E+01  2.6156689E+01
 1.4403750E+01  2.6205748E+01
 1.4415251E+01  2.6163809E+01
 1.4426751E+01  2.6163895E+01
 1.4438251E+01  2.6114418E+01
 1.4449751E+01  2.5999662E+01
 1.4461250E+01  2.5910028E+01
 1.4472751E+01  2.5816618E+01
 1.4484251E+01  2.5733696E+01
 1.4495750E+01  2.5707676E+01
 1.4507251E+01  2.5697906E+01
 1.4518751E+01  2.5710848E+01
 1.4530251E+01  2.5690113E+01
 1.4541751E+01  2.5724220E+01
 1.4553250E+01  2.5724609E+01
 1.4564751E+01  2.5722038E+01
 1.4576251E+01  2.5602026E+01
 1.4587750E+01  2.5554983E+01
 1.4599251E+01  2.5518316E+01
 1.4610751E+01  2.5538858E+01
 1.4622251E+01  2.5567442E+01
 1.4633751E+01  2.5524836E+01
 1.4645250E+01  2.5456800E+01
 1.4656751E+01  2.5432247E+01
 1.4668251E+01  2.5398905E+01
 1.4679750E+01  2.5438507E+01
 1.4691251E+01  2.5410309E+01
 1.4702751E+01  2.5430882E+01
 1.4714251E+01  2.5371561E+01
 1.4725751E+01  2.5306053E+01
 1.4737250E+01  2.5244040E+01
 1.4748751E+01  2.5203573E+01
 1.4760251E+01  2.5122757E+01
 1.4771750E+01  2.5078550E+01
 1.4783251E+01  2.4996828E+01
 1.4794751E+01  2.4986633E+01
 1.4806251E+01  2.4963202E+01
 1.4817751E+01  2.5008205E+01
 1.4829250E+01  2.5039568E+01
 1.4840751E+01  2.5102655E+01
 1.4852251E+01  2.5113991E+01
 1.4863750E+01  2.5089901E+01
 1.4875251E+01  2.5050688E+01
 1.4886751E+01  2.5022966E+01
 1.4898251E+01  2.5049955E+01
 1.4909751E+01  2.5073233E+01
 1.4921250E+01  2.5093222E+01
 1.4932751E+01  2.5059132E+01
 1.4944251E+01  2.5003014E+01
 1.4955750E+01  2.4902006E+01
 1.4967251E+01  2.4855223E+01
 1.4978751E+01  2.4815550E+01
 1.4990251E+01  2.4831406E+01
 1.5001751E+01  2.4876926E+01
 1.5013250E+01  2.4968451E+01
 1.5024751E+01  2.5024162E+01
 1.5036251E+01  2.4995438E+01
 1.5047750E+01  2.4956081E+01
 1.5059251E+01  2.4948467E+01
 1.5070751E+01  2.4962919E+01
 1.5082251E+01  2.4990812E+01
 1.5093751E+01  2.5013712E+01
 1.5105250E+01  2.5059698E+01
 1.5116751E+01  2.5129906E+01
 1.5128251E+01  2.5253029E+01
 1.5139750E+01  2.5468351E+01
 1.5151251E+01  2.5850513E+01
 1.5162751E+01  2.6296738E+01
 1.5174251E+01  2.6853254E+01
 1.5185751E+01  2.7276310E+01
 1.5197250E+01  2.7404770E+01
 1.5208751E+01  2.7439383E+01
 1.5220251E+01  2.7072069E+01
 1.5231750E+01  2.6693926E+01
 1.5243251E+01  2.5999210E+01
 1.5254751E+01  2.5634979E+01
 1.5266251E+01  2.5304909E+01
 1.5277751E+01  2.5091675E+01
 1.5289250E+01  2.5010536E+01
 1.5300751E+01  2.4888960E+01
 1.5312251E+01  2.4813431E+01
 1.5323750E+01  2.4740969E+01
 1.5335251E+01  2.4691801E+01
 1.5346751E+01  2.4716898E+01
 1.5358251E+01  2.4722425E+01
 1.5369751E+01  2.4757542E+01
 1.5381250E+01  2.4729374E+01
 1.5392751E+01  2.4688873E+01
 1.5404251E+01  2.4676579E+01
 1.5415751E+01  2.4661623E+01
 1.5427251E+01  2.4686367E+01
 1.5438751E+01  2.4711432E+01
 1.5450251E+01  2.4710293E+01
 1.5461751E+01  2.4669189E+01
 1.5473250E+01  2.4579039E+01
 1.5484751E+01  2.4534193E+01
 1.5496251E+01  2.4500391E+01
 1.5507751E+01  2.4503633E+01
 1.5519251E+01  2.4501177E+01
 1.5530751E+01  2.4486799E+01
 1.5542251E+01  2.4488268E+01
 1.5553751E+01  2.4498884E+01
 1.5565250E+01  2.4549757E+01
 1.5576751E+01  2.4607948E+01
 1.5588251E+01  2.4645334E+01
 1.5599751E+01  2.4662539E+01
 1.5611251E+01  2.4627064E+01
 1.5622751E+01  2.4584248E+01
 1.5634251E+01  2.4562126E+01
 1.5645751E+01  2.4562963E+01
 1.5657250E+01  2.4605564E+01
 1.5668751E+01  2.4648834E+01
 1.5680251E+01  2.4720627E+01
 1.5691751E+01  2.4797682E+01
 1.5703251E+01  2.4823744E+01
 1.5714751E+01  2.4803232E+01
 1.5726251E+01  2.4774443E+01
 1.5737751E+01  2.4683672E+01
 1.5749250E+01  2.4613283E+01
 1.5760751E+01  2.4554285E+01
 1.5772251E+01  2.4605747E+01
 1.5783751E+01  2.4596672E+01
 1.5795251E+01  2.4614166E+01
 1.5806751E+01  2.4640697E+01
 1.5818251E+01  2.4658501E+01
 1.5829751E+01  2.4610216E+01
 1.5841250E+01  2.4542786E+01
 1.5852751E+01  2.4527189E+01
 1.5864251E+01  2.4500437E+01
 1.5875751E+01  2.4541782E+01
 1.5887251E+01  2.4571344E+01
 1.5898750E+01  2.4639818E+01
 1.5910251E+01  2.4645866E+01
 1.5921751E+01  2.4673428E+01
 1.5933250E+01  2.4684059E+01
 1.5944751E+01  2.4629463E+01
 1.5956251E+01  2.4632643E+01
 1.5967751E+01  2.4607845E+01
 1.5979251E+01  2.4642212E+01
 1.5990750E+01  2.4652637E+01
 1.6002251E+01  2.4639889E+01
 1.6013750E+01  2.4651503E+01
 1.6025251E+01  2.4651291E+01
 1.6036751E+01  2.4693459E+01
 1.6048250E+01  2.4716053E+01
 1.6059752E+01  2.4726097E+01
 1.6071251E+01  2.4729694E+01
 1.6082750E+01  2.4789606E+01
 1.6094252E+01  2.4836529E+01
 1.6105751E+01  2.4950966E+01
 1.6117250E+01  2.4955400E+01
 1.6128750E+01  2.4919247E+01
 1.6140251E+01  2.4890762E+01
 1.6151751E+01  2.4845104E+01
 1.6163250E+01  2.4940672E+01
 1.6174751E+01  2.4917170E+01
 1.6186251E+01  2.5089689E+01
 1.6197750E+01  2.5068863E+01
 1.6209251E+01  2.5304306E+01
 1.6220751E+01  2.5262981E+01
 1.6232250E+01  2.5443495E+01
 1.6243752E+01  2.5460842E+01
 1.6255251E+01  2.5607239E+01
 1.6266750E+01  2.5804720E+01
 1.6278252E+01  2.5647968E+01
 1.6289751E+01  2.5766354E+01
 1.6301250E+01  2.5315716E+01
 1.6312750E+01  2.5426891E+01
 1.6324251E+01  2.5027609E+01
 1.6335751E+01  2.5030245E+01
 1.6347250E+01  2.4772465E+01
 1.6358751E+01  2.4716749E+01
 1.6370251E+01  2.4653519E+01
 1.6381750E+01  2.4673582E+01
 1.6393251E+01  2.4731350E+01
 1.6404751E+01  2.4751253E+01
 1.6416250E+01  2.4800430E+01
 1.6427752E+01  2.4755951E+01
 1.6439251E+01  2.4729763E+01
 1.6450750E+01  2.4648550E+01
 1.6462252E+01  2.4658970E+01
 1.6473751E+01  2.4648058E+01
 1.6485250E+01  2.4720575E+01
 1.6496750E+01  2.4802580E+01
 1.6508251E+01  2.4857426E+01
 1.6519751E+01  2.4821108E+01
 1.6531250E+01  2.4763422E+01
 1.6542751E+01  2.4764114E+01
 1.6554251E+01  2.4743807E+01
 1.6565750E+01  2.4681433E+01
 1.6577251E+01  2.4667397E+01
 1.6588751E+01  2.4650106E+01
 1.6600250E+01  2.4657173E+01
 1.6611752E+01  2.4599476E+01
 1.6623251E+01  2.4543549E+01
 1.6634750E+01  2.4518469E+01
 1.6646252E+01  2.4523628E+01
 1.6657751E+01  2.4569386E+01
 1.6669250E+01  2.4610006E+01
 1.6680750E+01  2.4561855E+01
 1.6692251E+01  2.4602259E+01
 1.6703751E+01  2.4576002E+01
 1.6715250E+01  2.4642485E+01
 1.6726751E+01  2.4590746E+01
 1.6738251E+01  2.4616226E+01
 1.6749750E+01  2.4617897E+01
 1.6761251E+01  2.4588583E+01
 1.6772751E+01  2.4558031E+01
 1.6784250E+01  2.4536612E+01
 1.6795752E+01  2.4558617E+01
 1.6807251E+01  2.4551729E+01
 1.6818750E+01  2.4537844E+01
 1.6830252E+01  2.4523499E+01
 1.6841751E+01  2.4519657E+01
 1.6853251E+01  2.4487156E+01
 1.6864750E+01  2.4489004E+01
 1.6876251E+01  2.4472742E+01
 1.6887751E+01  2.4444826E+01
 1.6899250E+01  2.4394007E+01
 1.6910751E+01  2.4389465E+01
 1.6922251E+01  2.4424551E+01
 1.6933750E+01  2.4401272E+01
 1.6945251E+01  2.4413225E+01
 1.6956751E+01  2.4324390E+01
 1.6968250E+01  2.4295591E+01
 1.6979752E+01  2.4178516E+01
 1.6991251E+01  2.4205250E+01
 1.7002750E+01  2.4163195E+01
 1.7014252E+01  2.4190775E+01
 1.7025751E+01  2.4180910E+01
 1.7037251E+01  2.4178699E+01
 1.7048750E+01  2.4151165E+01
 1.7060251E+01  2.4144236E+01
 1.7071751E+01  2.4173857E+01
 1.7083250E+01  2.4169535E+01
 1.7094751E+01  2.4203514E+01
 1.7106251E+01  2.4245615E+01
 1.7117750E+01  2.4250414E+01
 1.7129251E+01  2.4282610E+01
 1.7140751E+01  2.4310200E+01
 1.7152250E+01  2.4297138E+01
 1.7163752E+01  2.4294615E+01
 1.7175251E+01  2.4302839E+01
 1.7186750E+01  2.4309380E+01
 1.7198252E+01  2.4278475E+01
 1.7209751E+01  2.4238922E+01
 1.7221251E+01  2.4194252E+01
 1.7232750E+01  2.4172836E+01
 1.7244251E+01  2.4150911E+01
 1.7255751E+01  2.4112923E+01
 1.7267250E+01  2.4102133E+01
 1.7278751E+01  2.4104757E+01
 1.7290251E+01  2.4111059E+01
 1.7301750E+01  2.4125957E+01
 1.7313251E+01  2.4175615E+01
 1.7324751E+01  2.4242775E+01
 1.7336250E+01  2.4245588E+01
 1.7347752E+01  2.4207260E+01
 1.7359251E+01  2.4153351E+01
 1.7370750E+01  2.4139824E+01
 1.7382252E+01  2.4140158E+01
 1.7393751E+01  2.4088732E+01
 1.7405251E+01  2.4016212E+01
 1.7416750E+01  2.3958973E+01
 1.7428251E+01  2.3983801E+01
 1.7439751E+01  2.4008631E+01
 1.7451250E+01  2.3997271E+01
 1.7462751E+01  2.3977684E+01
 1.7474251E+01  2.3997490E+01
 1.7485750E+01  2.4044264E+01
 1.7497252E+01  2.4036934E+01
 1.7508751E+01  2.3987280E+01
 1.7520250E+01  2.3940121E+01
 1.7531752E+01  2.3893764E+01
 1.7543251E+01  2.3929808E+01
 1.7554750E+01  2.3943745E+01
 1.7566252E+01  2.3956499E+01
 1.7577751E+01  2.3946806E+01
 1.7589251E+01  2.3953560E+01
 1.7600750E+01  2.3960625E+01
 1.7612251E+01  2.3925316E+01
 1.7623751E+01  2.3930023E+01
 1.7635250E+01  2.3862251E+01
 1.7646751E+01  2.3811697E+01
 1.7658251E+01  2.3781498E+01
 1.7669750E+01  2.3824377E+01
 1.7681252E+01  2.3880304E+01
 1.7692751E+01  2.3917982E+01
 1.7704250E+01  2.3919310E+01
 1.7715752E+01  2.3916847E+01
 1.7727251E+01  2.3900105E+01
 1.7738750E+01  2.3901543E+01
 1.7750252E+01  2.3899174E+01
 1.7761751E+01  2.3896282E+01
 1.7773251E+01  2.3943613E+01
 1.7784750E+01  2.4023441E+01
 1.7796251E+01  2.4113926E+01
 1.7807751E+01  2.4052092E+01
 1.7819250E+01  2.4003172E+01
 1.7830751E+01  2.3974358E+01
 1.7842251E+01  2.4022646E+01
 1.7853750E+01  2.4020365E+01
 1.7865252E+01  2.4013765E+01
 1.7876751E+01  2.3987291E+01
 1.7888250E+01  2.3922976E+01
 1.7899752E+01  2.3872856E+01
 1.7911251E+01  2.3882683E+01
 1.7922750E+01  2.3928135E+01
 1.7934252E+01  2.3993752E+01
 1.7945751E+01  2.4054785E+01
 1.7957251E+01  2.4036470E+01
 1.7968750E+01  2.4050442E+01
 1.7980251E+01  2.4123741E+01
 1.7991751E+01  2.4230320E+01
 1.8003250E+01  2.4474220E+01
 1.8014751E+01  2.4553164E+01
 1.8026251E+01  2.4670868E+01
 1.8037750E+01  2.4735626E+01
 1.8049252E+01  2.4879530E+01
 1.8060751E+01  2.5283756E+01
 1.8072250E+01  2.5384279E+01
 1.8083752E+01  2.6018518E+01
 1.8095251E+01  2.6286896E+01
 1.8106750E+01  2.6465405E+01
 1.8118252E+01  2.6481617E+01
 1.8129751E+01  2.6064560E+01
 1.8141251E+01  2.5826077E+01
 1.8152750E+01  2.5117727E+01
 1.8164251E+01  2.4886053E+01
 1.8175751E+01  2.4484303E+01
 1.8187250E+01  2.4157719E+01
 1.8198751E+01  2.3987116E+01
 1.8210251E+01  2.3887629E+01
 1.8221750E+01  2.3847532E+01
 1.8233252E+01  2.3777233E+01
 1.8244751E+01  2.3766380E+01
 1.8256250E+01  2.3722782E+01
 1.8267752E+01  2.3714428E+01
 1.8279251E+01  2.3672293E+01
 1.8290751E+01  2.3680601E+01
 1.8302252E+01  2.3689718E+01
 1.8313751E+01  2.3688334E+01
 1.8325251E+01  2.3731138E+01
 1.8336750E+01  2.3704620E+01
 1.8348251E+01  2.3749088E+01
 1.8359751E+01  2.3743975E+01
 1.8371250E+01  2.3777149E+01
 1.8382751E+01  2.3784624E+01
 1.8394251E+01  2.3791157E+01
 1.8405750E+01  2.3811134E+01
 1.8417252E+01  2.3729918E+01
 1.8428751E+01  2.3714571E+01
 1.8440250E+01  2.3681318E+01
 1.8451752E+01  2.3687469E+01
 1.8463251E+01  2.3701807E+01
 1.8474751E+01  2.3774857E+01
 1.8486252E+01  2.3790554E+01
 1.8497751E+01  2.3730326E+01
 1.8509251E+01  2.3675610E+01
 1.8520750E+01  2.3610558E+01
 1.8532251E+01  2.3598862E+01
 1.8543751E+01  2.3557356E+01
 1.8555250E+01  2.3578167E+01
 1.8566751E+01  2.3545776E+01
 1.8578251E+01  2.3546040E+01
 1.8589750E+01  2.3561626E+01
 1.8601252E+01  2.3583958E+01
 1.8612751E+01  2.3595356E+01
 1.8624250E+01  2.3582785E+01
 1.8635752E+01  2.3613457E+01
 1.8647251E+01  2.3569738E+01
 1.8658751E+01  2.3552275E+01
 1.8670252E+01  2.3526207E+01
 1.8681751E+01  2.3542049E+01
 1.8693251E+01  2.3564110E+01
 1.8704750E+01  2.3563517E+01
 1.8716251E+01  2.3543638E+01
 1.8727751E+01  2.3544571E+01
 1.8739250E+01  2.3542746E+01
 1.8750751E+01  2.3562407E+01
 1.8762251E+01  2.3519201E+01
 1.8773750E+01  2.3500793E+01
 1.8785252E+01  2.3505781E+01
 1.8796751E+01  2.3518597E+01
 1.8808250E+01  2.3541832E+01
 1.8819752E+01  2.3563946E+01
 1.8831251E+01  2.3582310E+01
 1.8842751E+01  2.3578970E+01
 1.8854252E+01  2.3540260E+01
 1.8865751E+01  2.3542175E+01
 1.8877251E+01  2.3590097E+01
 1.8888750E+01  2.3579067E+01
 1.8900251E+01  2.3566566E+01
 1.8911751E+01  2.3573256E+01
 1.8923250E+01  2.3619009E+01
 1.8934752E+01  2.3658369E+01
 1.8946251E+01  2.3651243E+01
 1.8957750E+01  2.3608156E+01
 1.8969252E+01  2.3537783E+01
 1.8980751E+01  2.3523977E+01
 1.8992250E+01  2.3511332E+01
 1.9003752E+01  2.3519466E+01
 1.9015251E+01  2.3540304E+01
 1.9026751E+01  2.3546104E+01
 1.9038252E+01  2.3542324E+01
 1.9049751E+01  2.3531750E+01
 1.9061251E+01  2.3563261E+01
 1.9072750E+01  2.3631784E+01
 1.9084251E+01  2.3649466E+01
 1.9095751E+01  2.3626408E+01
 1.9107250E+01  2.3580875E+01
 1.9118752E+01  2.3564344E+01
 1.9130251E+01  2.3589689E+01
 1.9141750E+01  2.3602734E+01
 1.9153252E+01  2.3611067E+01
 1.9164751E+01  2.3558794E+01
 1.9176250E+01  2.3487593E+01
 1.9187752E+01  2.3546371E+01
 1.9199251E+01  2.3581778E+01
 1.9210751E+01  2.3672342E+01
 1.9222252E+01  2.3616859E+01
 1.9233751E+01  2.3594521E+01
 1.9245251E+01  2.3504562E+01
 1.9256750E+01  2.3550865E+01
 1.9268251E+01  2.3617916E+01
 1.9279751E+01  2.3621861E+01
 1.9291250E+01  2.3612423E+01
 1.9302752E+01  2.3611725E+01
 1.9314251E+01  2.3675949E+01
 1.9325750E+01  2.3695545E+01
 1.9337252E+01  2.3735779E+01
 1.9348751E+01  2.3762297E+01
 1.9360250E+01  2.3710749E+01
 1.9371752E+01  2.3701447E+01
 1.9383251E+01  2.3653467E+01
 1.9394751E+01  2.3696882E+01
 1.9406250E+01  2.3703871E+01
 1.9417751E+01  2.3712883E+01
 1.9429251E+01  2.3737541E+01
 1.9440750E+01  2.3855667E+01
 1.9452251E+01  2.3896694E+01
 1.9463751E+01  2.3922915E+01
 1.9475250E+01  2.3908504E+01
 1.9486752E+01  2.3915611E+01
 1.9498251E+01  2.3797266E+01
 1.9509750E+01  2.3716259E+01
 1.9521252E+01  2.3722637E+01
 1.9532751E+01  2.3778435E+01
 1.9544250E+01  2.3864059E+01
 1.9555752E+01  2.3920483E+01
 1.9567251E+01  2.3974566E+01
 1.9578751E+01  2.4008278E+01
 1.9590250E+01  2.4032187E+01
 1.9601751E+01  2.4068144E+01
 1.9613251E+01  2.4135742E+01
 1.9624750E+01  2.4269773E+01
 1.9636251E+01  2.4457960E+01
 1.9647751E+01  2.4763336E+01
 1.9659250E+01  2.5269268E+01
 1.9670752E+01  2.6108015E+01
 1.9682251E+01  2.7074074E+01
 1.9693750E+01  2.8314617E+01
 1.9705252E+01  2.9396177E+01
 1.9716751E+01  2.9782040E+01
 1.9728251E+01  2.9839998E+01
 1.9739752E+01  2.8778482E+01
 1.9751251E+01  2.8043203E+01
 1.9762751E+01  2.6925228E+01
 1.9774250E+01  2.6391830E+01
 1.9785751E+01  2.6027031E+01
 1.9797251E+01  2.6100863E+01
 1.9808750E+01  2.6365974E+01
 1.9820251E+01  2.7014406E+01
 1.9831751E+01  2.7650805E+01
 1.9843250E+01  2.8323805E+01
 1.9854752E+01  2.8801733E+01
 1.9866251E+01  2.8893198E+01
 1.9877750E+01  2.8972160E+01
 1.9889252E+01  2.8236254E+01
 1.9900751E+01  2.7747345E+01
 1.9912251E+01  2.6562195E+01
 1.9923752E+01  2.5730854E+01
 1.9935251E+01  2.5004292E+01
 1.9946751E+01  2.4579823E+01
 1.9958250E+01  2.4359783E+01
 1.9969751E+01  2.4267664E+01
 1.9981251E+01  2.4188902E+01
 1.9992750E+01  2.4147703E+01
 2.0004251E+01  2.4072559E+01
 2.0015751E+01  2.4035046E+01
 2.0027250E+01  2.4013849E+01
 2.0038752E+01  2.4022919E+01
 2.0050251E+01  2.4008608E+01
 2.0061750E+01  2.3949663E+01
 2.0073252E+01  2.3889154E+01
 2.0084751E+01  2.3872524E+01
 2.0096251E+01  2.3888000E+01
 2.0107752E+01  2.3915094E+01
 2.0119251E+01  2.3917833E+01
 2.0130751E+01  2.3868765E+01
 2.0142250E+01  2.3882034E+01
 2.0153751E+01  2.3835478E+01
 2.0165251E+01  2.3825623E+01
 2.0176750E+01  2.3796820E+01
 2.0188251E+01  2.3782824E+01
 2.0199751E+01  2.3778337E+01
 2.0211250E+01  2.3811577E+01
 2.0222752E+01  2.3851881E+01
 2.0234251E+01  2.3919373E+01
 2.0245750E+01  2.3915413E+01
 2.0257252E+01  2.3944603E+01
 2.0268751E+01  2.3882193E+01
 2.0280251E+01  2.3897343E+01
 2.0291752E+01  2.3886015E+01
 2.0303251E+01  2.3784292E+01
 2.0314751E+01  2.3718855E+01
 2.0326250E+01  2.3686705E+01
 2.0337751E+01  2.3708958E+01
 2.0349251E+01  2.3705614E+01
 2.0360750E+01  2.3734104E+01
 2.0372252E+01  2.3795984E+01
 2.0383751E+01  2.3806234E+01
 2.0395250E+01  2.3839054E+01
 2.0406752E+01  2.3836365E+01
 2.0418251E+01  2.3881804E+01
 2.0429750E+01  2.3852249E+01
 2.0441252E+01  2.3830893E+01
 2.0452751E+01  2.3803413E+01
 2.0464251E+01  2.3853170E+01
 2.0475752E+01  2.3878448E+01
 2.0487251E+01  2.3894753E+01
 2.0498751E+01  2.3911093E+01
 2.0510250E+01  2.3881327E+01
 2.0521751E+01  2.3856304E+01
 2.0533251E+01  2.3794924E+01
 2.0544750E+01  2.3802586E+01
 2.0556252E+01  2.3820963E+01
 2.0567751E+01  2.3861101E+01
 2.0579250E+01  2.3887136E+01
 2.0590752E+01  2.3951330E+01
 2.0602251E+01  2.4034021E+01
 2.0613750E+01  2.4072224E+01
 2.0625252E+01  2.4102995E+01
 2.0636751E+01  2.4106745E+01
 2.0648251E+01  2.4198849E+01
 2.0659752E+01  2.4252733E+01
 2.0671251E+01  2.4419151E+01
 2.0682751E+01  2.4721075E+01
 2.0694250E+01  2.5075809E+01
 2.0705751E+01  2.5762539E+01
 2.0717251E+01  2.6489944E+01
 2.0728750E+01  2.7216303E+01
 2.0740252E+01  2.7564716E+01
 2.0751751E+01  2.7570391E+01
 2.0763250E+01  2.7411261E+01
 2.0774752E+01  2.6886971E+01
 2.0786251E+01  2.6529703E+01
 2.0797750E+01  2.6009155E+01
 2.0809252E+01  2.5612030E+01
 2.0820751E+01  2.5146320E+01
 2.0832251E+01  2.4803267E+01
 2.0843752E+01  2.4517899E+01
 2.0855251E+01  2.4323505E+01
 2.0866751E+01  2.4180904E+01
 2.0878250E+01  2.4119518E+01
 2.0889751E+01  2.4074511E+01
 2.0901251E+01  2.4079109E+01
 2.0912750E+01  2.4054924E+01
 2.0924252E+01  2.4042137E+01
 2.0935751E+01  2.3976028E+01
 2.0947250E+01  2.3981825E+01
 2.0958752E+01  2.3946949E+01
 2.0970251E+01  2.3962408E+01
 2.0981750E+01  2.3925035E+01
 2.0993252E+01  2.3954630E+01
 2.1004751E+01  2.3937759E+01
 2.1016251E+01  2.3939972E+01
 2.1027752E+01  2.3914684E+01
 2.1039251E+01  2.3924520E+01
 2.1050751E+01  2.3940239E+01
 2.1062250E+01  2.3956203E+01
 2.1073751E+01  2.3995333E+01
 2.1085251E+01  2.4015610E+01
 2.1096750E+01  2.3992414E+01
 2.1108252E+01  2.4023470E+01
 2.1119751E+01  2.4043112E+01
 2.1131250E+01  2.4068647E+01
 2.1142752E+01  2.3973917E+01
 2.1154251E+01  2.3927481E+01
 2.1165751E+01  2.3927835E+01
 2.1177252E+01  2.3998861E+01
 2.1188751E+01  2.4048168E+01
 2.1200251E+01  2.4045813E+01
 2.1211752E+01  2.3968958E+01
 2.1223251E+01  2.3863577E+01
 2.1234751E+01  2.3821846E+01
 2.1246250E+01  2.3818781E+01
 2.1257751E+01  2.3828360E+01
 2.1269251E+01  2.3825066E+01
 2.1280750E+01  2.3837139E+01
 2.1292252E+01  2.3869732E+01
 2.1303751E+01  2.3896721E+01
 2.1315250E+01  2.3911158E+01
 2.1326752E+01  2.3922064E+01
 2.1338251E+01  2.3917316E+01
 2.1349751E+01  2.3930048E+01
 2.1361252E+01  2.3936632E+01
 2.1372751E+01  2.3994488E+01
 2.1384251E+01  2.3951674E+01
 2.1395752E+01  2.3959240E+01
 2.1407251E+01  2.3946726E+01
 2.1418751E+01  2.4054552E+01
 2.1430250E+01  2.4078732E+01
 2.1441751E+01  2.4178085E+01
 2.1453251E+01  2.4146734E+01
 2.1464750E+01  2.4177715E+01
 2.1476252E+01  2.4156822E+01
 2.1487751E+01  2.4339102E+01
 2.1499250E+01  2.4317347E+01
 2.1510752E+01  2.4457323E+01
 2.1522251E+01  2.4403236E+01
 2.1533751E+01  2.4386780E+01
 2.1545252E+01  2.4230083E+01
 2.1556751E+01  2.4172222E+01
 2.1568251E+01  2.4069172E+01
 2.1579752E+01  2.4084930E+01
 2.1591251E+01  2.4082396E+01
 2.1602751E+01  2.4106163E+01
 2.1614250E+01  2.4102407E+01
 2.1625751E+01  2.4103794E+01
 2.1637251E+01  2.4076685E+01
 2.1648750E+01  2.4070553E+01
 2.1660252E+01  2.4040550E+01
 2.1671751E+01  2.4060678E+01
 2.1683250E+01  2.4079620E+01
 2.1694752E+01  2.4087442E+01
 2.1706251E+01  2.4108156E+01
 2.1717751E+01  2.4125179E+01
 2.1729252E+01  2.4125912E+01
 2.1740751E+01  2.4121077E+01
 2.1752251E+01  2.4089762E+01
 2.1763752E+01  2.4070200E+01
 2.1775251E+01  2.4036091E+01
 2.1786751E+01  2.4052729E+01
 2.1798250E+01  2.4090544E+01
 2.1809752E+01  2.4157446E+01
 2.1821251E+01  2.4170181E+01
 2.1832750E+01  2.4173677E+01
 2.1844252E+01  2.4181236E+01
 2.1855751E+01  2.4187012E+01
 2.1867250E+01  2.4212244E+01
 2.1878752E+01  2.4246431E+01
 2.1890251E+01  2.4217209E+01
 2.1901751E+01  2.4209957E+01
 2.1913252E+01  2.4235685E+01
 2.1924751E+01  2.4224438E+01
 2.1936251E+01  2.4197206E+01
 2.1947752E+01  2.4200186E+01
 2.1959251E+01  2.4239489E+01
 2.1970751E+01  2.4257734E+01
 2.1982250E+01  2.4238922E+01
 2.1993752E+01  2.4257191E+01
 2.2005251E+01  2.4252102E+01
 2.2016750E+01  2.4276834E+01
 2.2028252E+01  2.4271254E+01
 2.2039751E+01  2.4276663E+01
 2.2051250E+01  2.4275640E+01
 2.2062752E+01  2.4212013E+01
 2.2074251E+01  2.4256615E+01
 2.2085751E+01  2.4289328E+01
 2.2097252E+01  2.4326399E+01
 2.2108751E+01  2.4308973E+01
 2.2120251E+01  2.4308611E+01
 2.2131752E+01  2.4297411E+01
 2.2143251E+01  2.4294661E+01
 2.2154751E+01  2.4317495E+01
 2.2166250E+01  2.4319120E+01
 2.2177752E+01  2.4321264E+01
 2.2189251E+01  2.4300732E+01
 2.2200750E+01  2.4351027E+01
 2.2212252E+01  2.4369339E+01
 2.2223751E+01  2.4474411E+01
 2.2235250E+01  2.4541391E+01
 2.2246752E+01  2.4609470E+01
 2.2258251E+01  2.4607914E+01
 2.2269751E+01  2.4576365E+01
 2.2281252E+01  2.4546782E+01
 2.2292751E+01  2.4520889E+01
 2.2304251E+01  2.4582907E+01
 2.2315752E+01  2.4603361E+01
 2.2327251E+01  2.4619265E+01
 2.2338751E+01  2.4599169E+01
 2.2350250E+01  2.4627937E+01
 2.2361752E+01  2.4657593E+01
 2.2373251E+01  2.4667459E+01
 2.2384750E+01  2.4633764E+01
 2.2396252E+01  2.4605165E+01
 2.2407751E+01  2.4591473E+01
 2.2419250E+01  2.4560673E+01
 2.2430752E+01  2.4546753E+01
 2.2442251E+01  2.4546633E+01
 2.2453751E+01  2.4593454E+01
 2.2465252E+01  2.4632195E+01
 2.2476751E+01  2.4631514E+01
 2.2488251E+01  2.4657883E+01
 2.2499752E+01  2.4701349E+01
 2.2511251E+01  2.4734871E+01
 2.2522751E+01  2.4735655E+01
 2.2534250E+01  2.4768648E+01
 2.2545752E+01  2.4804770E+01
 2.2557251E+01  2.4816912E+01
 2.2568750E+01  2.4831789E+01
 2.2580252E+01  2.4873636E+01
 2.2591751E+01  2.4886007E+01
 2.2603251E+01  2.4869680E+01
 2.2614752E+01  2.4891350E+01
 2.2626251E+01  2.4926395E+01
 2.2637751E+01  2.4941139E+01
 2.2649252E+01  2.4951462E+01
 2.2660751E+01  2.4979837E+01
 2.2672251E+01  2.5024426E+01
 2.2683752E+01  2.5090492E+01
 2.2695251E+01  2.5200243E+01
 2.2706751E+01  2.5233894E+01
 2.2718250E+01  2.5249739E+01
 2.2729752E+01  2.5257618E+01
 2.2741251E+01  2.5291601E+01
 2.2752750E+01  2.5311346E+01
 2.2764252E+01  2.5294308E+01
 2.2775751E+01  2.5309860E+01
 2.2787251E+01  2.5312273E+01
 2.2798752E+01  2.5419212E+01
 2.2810251E+01  2.5472290E+01
 2.2821751E+01  2.5525732E+01
 2.2833252E+01  2.5569309E+01
 2.2844751E+01  2.5595135E+01
 2.2856251E+01  2.5618736E+01
 2.2867750E+01  2.5645325E+01
 2.2879251E+01  2.5670012E+01
 2.2890751E+01  2.5709599E+01
 2.2902250E+01  2.5729858E+01
 2.2913752E+01  2.5829424E+01
 2.2925251E+01  2.5902037E+01
 2.2936750E+01  2.5993650E+01
 2.2948252E+01  2.6060539E+01
 2.2959751E+01  2.6146143E+01
 2.2971251E+01  2.6265114E+01
 2.2982752E+01  2.6358385E+01
 2.2994251E+01  2.6463005E+01
