F:\20151113_APS_34IDE\\Brian\Particle1\OCV\Data_0071.tif
2-Theta Angle (Degrees)
Intensity
       2000
 5.7500005E-03  0.0000000E+00
 1.7250001E-02  0.0000000E+00
 2.8750001E-02  0.0000000E+00
 4.0250003E-02  0.0000000E+00
 5.1750004E-02  0.0000000E+00
 6.3250005E-02  0.0000000E+00
 7.4750006E-02  0.0000000E+00
 8.6250007E-02  0.0000000E+00
 9.7750008E-02  0.0000000E+00
 1.0925001E-01  0.0000000E+00
 1.2075000E-01  0.0000000E+00
 1.3225001E-01  0.0000000E+00
 1.4375001E-01  0.0000000E+00
 1.5525001E-01  0.0000000E+00
 1.6675001E-01  0.0000000E+00
 1.7825001E-01  0.0000000E+00
 1.8975002E-01  0.0000000E+00
 2.0125002E-01  0.0000000E+00
 2.1275002E-01  0.0000000E+00
 2.2425000E-01  0.0000000E+00
 2.3575000E-01  0.0000000E+00
 2.4725001E-01  0.0000000E+00
 2.5875002E-01  0.0000000E+00
 2.7025002E-01  0.0000000E+00
 2.8175002E-01  0.0000000E+00
 2.9325002E-01  0.0000000E+00
 3.0475003E-01  0.0000000E+00
 3.1625003E-01  0.0000000E+00
 3.2775003E-01  0.0000000E+00
 3.3925003E-01  0.0000000E+00
 3.5075003E-01  0.0000000E+00
 3.6225003E-01  0.0000000E+00
 3.7375003E-01  0.0000000E+00
 3.8525003E-01  0.0000000E+00
 3.9675003E-01  0.0000000E+00
 4.0825003E-01  0.0000000E+00
 4.1975003E-01  0.0000000E+00
 4.3125004E-01  0.0000000E+00
 4.4275001E-01  0.0000000E+00
 4.5425001E-01  0.0000000E+00
 4.6575001E-01  0.0000000E+00
 4.7725001E-01  0.0000000E+00
 4.8875001E-01  0.0000000E+00
 5.0025004E-01  0.0000000E+00
 5.1175004E-01  0.0000000E+00
 5.2325004E-01  0.0000000E+00
 5.3475004E-01  0.0000000E+00
 5.4625005E-01  0.0000000E+00
 5.5775005E-01  0.0000000E+00
 5.6925005E-01  0.0000000E+00
 5.8075005E-01  0.0000000E+00
 5.9225005E-01  0.0000000E+00
 6.0375005E-01  0.0000000E+00
 6.1525005E-01  0.0000000E+00
 6.2675005E-01  0.0000000E+00
 6.3825005E-01  0.0000000E+00
 6.4975005E-01  0.0000000E+00
 6.6125005E-01  0.0000000E+00
 6.7275006E-01  0.0000000E+00
 6.8425006E-01  0.0000000E+00
 6.9575006E-01  0.0000000E+00
 7.0725006E-01  0.0000000E+00
 7.1875006E-01  0.0000000E+00
 7.3025006E-01  0.0000000E+00
 7.4175006E-01  0.0000000E+00
 7.5325006E-01  0.0000000E+00
 7.6475006E-01  0.0000000E+00
 7.7625006E-01  0.0000000E+00
 7.8775007E-01  0.0000000E+00
 7.9925007E-01  0.0000000E+00
 8.1075007E-01  0.0000000E+00
 8.2225007E-01  0.0000000E+00
 8.3375007E-01  0.0000000E+00
 8.4525007E-01  0.0000000E+00
 8.5675007E-01  0.0000000E+00
 8.6825007E-01  0.0000000E+00
 8.7975001E-01  0.0000000E+00
 8.9125001E-01  0.0000000E+00
 9.0275002E-01  0.0000000E+00
 9.1425002E-01  0.0000000E+00
 9.2575002E-01  0.0000000E+00
 9.3725002E-01  0.0000000E+00
 9.4875002E-01  0.0000000E+00
 9.6025002E-01  0.0000000E+00
 9.7175002E-01  0.0000000E+00
 9.8325002E-01  0.0000000E+00
 9.9475002E-01  0.0000000E+00
 1.0062500E+00  0.0000000E+00
 1.0177500E+00  0.0000000E+00
 1.0292500E+00  0.0000000E+00
 1.0407500E+00  0.0000000E+00
 1.0522500E+00  0.0000000E+00
 1.0637500E+00  0.0000000E+00
 1.0752500E+00  0.0000000E+00
 1.0867500E+00  0.0000000E+00
 1.0982500E+00  0.0000000E+00
 1.1097500E+00  0.0000000E+00
 1.1212500E+00  0.0000000E+00
 1.1327500E+00  0.0000000E+00
 1.1442500E+00  0.0000000E+00
 1.1557500E+00  0.0000000E+00
 1.1672500E+00  0.0000000E+00
 1.1787500E+00  0.0000000E+00
 1.1902500E+00  0.0000000E+00
 1.2017500E+00  0.0000000E+00
 1.2132500E+00  0.0000000E+00
 1.2247500E+00  0.0000000E+00
 1.2362500E+00  0.0000000E+00
 1.2477500E+00  0.0000000E+00
 1.2592500E+00  0.0000000E+00
 1.2707500E+00  0.0000000E+00
 1.2822500E+00  0.0000000E+00
 1.2937500E+00  0.0000000E+00
 1.3052500E+00  0.0000000E+00
 1.3167500E+00  0.0000000E+00
 1.3282501E+00  0.0000000E+00
 1.3397501E+00  0.0000000E+00
 1.3512501E+00  0.0000000E+00
 1.3627501E+00  0.0000000E+00
 1.3742501E+00  0.0000000E+00
 1.3857501E+00  0.0000000E+00
 1.3972501E+00  0.0000000E+00
 1.4087501E+00  0.0000000E+00
 1.4202501E+00  0.0000000E+00
 1.4317501E+00  0.0000000E+00
 1.4432501E+00  0.0000000E+00
 1.4547501E+00  0.0000000E+00
 1.4662501E+00  0.0000000E+00
 1.4777501E+00  0.0000000E+00
 1.4892501E+00  0.0000000E+00
 1.5007501E+00  0.0000000E+00
 1.5122501E+00  0.0000000E+00
 1.5237501E+00  0.0000000E+00
 1.5352501E+00  0.0000000E+00
 1.5467501E+00  0.0000000E+00
 1.5582501E+00  0.0000000E+00
 1.5697501E+00  0.0000000E+00
 1.5812501E+00  0.0000000E+00
 1.5927501E+00  0.0000000E+00
 1.6042501E+00  0.0000000E+00
 1.6157501E+00  0.0000000E+00
 1.6272501E+00  0.0000000E+00
 1.6387501E+00  0.0000000E+00
 1.6502501E+00  0.0000000E+00
 1.6617501E+00  0.0000000E+00
 1.6732501E+00  0.0000000E+00
 1.6847501E+00  0.0000000E+00
 1.6962501E+00  0.0000000E+00
 1.7077501E+00  0.0000000E+00
 1.7192501E+00  0.0000000E+00
 1.7307501E+00  0.0000000E+00
 1.7422501E+00  0.0000000E+00
 1.7537501E+00  0.0000000E+00
 1.7652501E+00  0.0000000E+00
 1.7767501E+00  0.0000000E+00
 1.7882501E+00  0.0000000E+00
 1.7997501E+00  0.0000000E+00
 1.8112501E+00  0.0000000E+00
 1.8227501E+00  0.0000000E+00
 1.8342501E+00  0.0000000E+00
 1.8457501E+00  0.0000000E+00
 1.8572501E+00  0.0000000E+00
 1.8687501E+00  0.0000000E+00
 1.8802501E+00  0.0000000E+00
 1.8917501E+00  0.0000000E+00
 1.9032501E+00  0.0000000E+00
 1.9147501E+00  0.0000000E+00
 1.9262501E+00  0.0000000E+00
 1.9377501E+00  0.0000000E+00
 1.9492501E+00  0.0000000E+00
 1.9607501E+00  0.0000000E+00
 1.9722501E+00  0.0000000E+00
 1.9837501E+00  0.0000000E+00
 1.9952501E+00  0.0000000E+00
 2.0067501E+00  0.0000000E+00
 2.0182500E+00  0.0000000E+00
 2.0297501E+00  0.0000000E+00
 2.0412500E+00  0.0000000E+00
 2.0527501E+00  0.0000000E+00
 2.0642500E+00  0.0000000E+00
 2.0757501E+00  0.0000000E+00
 2.0872500E+00  0.0000000E+00
 2.0987501E+00  0.0000000E+00
 2.1102500E+00  0.0000000E+00
 2.1217501E+00  0.0000000E+00
 2.1332500E+00  0.0000000E+00
 2.1447501E+00  0.0000000E+00
 2.1562500E+00  0.0000000E+00
 2.1677501E+00  0.0000000E+00
 2.1792500E+00  0.0000000E+00
 2.1907501E+00  0.0000000E+00
 2.2022500E+00  0.0000000E+00
 2.2137501E+00  0.0000000E+00
 2.2252500E+00  0.0000000E+00
 2.2367501E+00  0.0000000E+00
 2.2482500E+00  0.0000000E+00
 2.2597501E+00  0.0000000E+00
 2.2712500E+00  0.0000000E+00
 2.2827501E+00  0.0000000E+00
 2.2942500E+00  0.0000000E+00
 2.3057501E+00  0.0000000E+00
 2.3172500E+00  0.0000000E+00
 2.3287501E+00  0.0000000E+00
 2.3402500E+00  0.0000000E+00
 2.3517501E+00  0.0000000E+00
 2.3632500E+00  0.0000000E+00
 2.3747501E+00  0.0000000E+00
 2.3862500E+00  0.0000000E+00
 2.3977501E+00  0.0000000E+00
 2.4092500E+00  0.0000000E+00
 2.4207501E+00  0.0000000E+00
 2.4322500E+00  0.0000000E+00
 2.4437501E+00  0.0000000E+00
 2.4552500E+00  0.0000000E+00
 2.4667501E+00  0.0000000E+00
 2.4782500E+00  0.0000000E+00
 2.4897501E+00  0.0000000E+00
 2.5012500E+00  0.0000000E+00
 2.5127501E+00  0.0000000E+00
 2.5242500E+00  0.0000000E+00
 2.5357502E+00  0.0000000E+00
 2.5472500E+00  0.0000000E+00
 2.5587502E+00  0.0000000E+00
 2.5702500E+00  0.0000000E+00
 2.5817502E+00  0.0000000E+00
 2.5932500E+00  0.0000000E+00
 2.6047502E+00  0.0000000E+00
 2.6162500E+00  0.0000000E+00
 2.6277502E+00  0.0000000E+00
 2.6392500E+00  0.0000000E+00
 2.6507502E+00  0.0000000E+00
 2.6622500E+00  0.0000000E+00
 2.6737502E+00  0.0000000E+00
 2.6852500E+00  0.0000000E+00
 2.6967502E+00  0.0000000E+00
 2.7082500E+00  0.0000000E+00
 2.7197502E+00  0.0000000E+00
 2.7312500E+00  0.0000000E+00
 2.7427502E+00  0.0000000E+00
 2.7542500E+00  0.0000000E+00
 2.7657502E+00  0.0000000E+00
 2.7772501E+00  0.0000000E+00
 2.7887502E+00  0.0000000E+00
 2.8002501E+00  0.0000000E+00
 2.8117502E+00  0.0000000E+00
 2.8232501E+00  3.1127020E+01
 2.8347502E+00  3.3233776E+01
 2.8462501E+00  3.4284489E+01
 2.8577502E+00  3.5621525E+01
 2.8692501E+00  3.6209217E+01
 2.8807502E+00  3.6465847E+01
 2.8922501E+00  3.5973148E+01
 2.9037502E+00  3.6015450E+01
 2.9152501E+00  3.6366196E+01
 2.9267502E+00  3.6646976E+01
 2.9382501E+00  3.6549522E+01
 2.9497502E+00  3.6537609E+01
 2.9612501E+00  3.6120415E+01
 2.9727502E+00  3.6189346E+01
 2.9842501E+00  3.5550835E+01
 2.9957502E+00  3.5571819E+01
 3.0072501E+00  3.5318459E+01
 3.0187502E+00  3.5315037E+01
 3.0302501E+00  3.5161324E+01
 3.0417502E+00  3.5233135E+01
 3.0532501E+00  3.5479301E+01
 3.0647502E+00  3.5698036E+01
 3.0762501E+00  3.5940105E+01
 3.0877502E+00  3.5674931E+01
 3.0992501E+00  3.5442226E+01
 3.1107502E+00  3.4640179E+01
 3.1222501E+00  3.4550041E+01
 3.1337502E+00  3.4533569E+01
 3.1452501E+00  3.4827541E+01
 3.1567502E+00  3.5086025E+01
 3.1682501E+00  3.5081890E+01
 3.1797502E+00  3.5124405E+01
 3.1912501E+00  3.5201466E+01
 3.2027502E+00  3.5099236E+01
 3.2142501E+00  3.5124302E+01
 3.2257502E+00  3.4968685E+01
 3.2372501E+00  3.4604847E+01
 3.2487502E+00  3.4323502E+01
 3.2602501E+00  3.4248005E+01
 3.2717502E+00  3.3865437E+01
 3.2832501E+00  3.3773659E+01
 3.2947502E+00  3.3489193E+01
 3.3062501E+00  3.3338341E+01
 3.3177502E+00  3.3403599E+01
 3.3292501E+00  3.3596718E+01
 3.3407502E+00  3.4456169E+01
 3.3522501E+00  3.5036266E+01
 3.3637502E+00  3.5201160E+01
 3.3752501E+00  3.5332767E+01
 3.3867502E+00  3.5223667E+01
 3.3982501E+00  3.5224850E+01
 3.4097502E+00  3.5011162E+01
 3.4212501E+00  3.4666107E+01
 3.4327502E+00  3.4434658E+01
 3.4442501E+00  3.4243797E+01
 3.4557502E+00  3.4030754E+01
 3.4672501E+00  3.3799004E+01
 3.4787502E+00  3.3517815E+01
 3.4902501E+00  3.3210537E+01
 3.5017502E+00  3.2953300E+01
 3.5132501E+00  3.2750084E+01
 3.5247502E+00  3.2961449E+01
 3.5362501E+00  3.2979851E+01
 3.5477502E+00  3.3206409E+01
 3.5592501E+00  3.3361355E+01
 3.5707502E+00  3.3275875E+01
 3.5822501E+00  3.3163071E+01
 3.5937502E+00  3.3193268E+01
 3.6052501E+00  3.3202442E+01
 3.6167502E+00  3.3164124E+01
 3.6282501E+00  3.3010445E+01
 3.6397502E+00  3.2930798E+01
 3.6512501E+00  3.2881168E+01
 3.6627502E+00  3.2772346E+01
 3.6742501E+00  3.2660248E+01
 3.6857502E+00  3.2571781E+01
 3.6972501E+00  3.2611511E+01
 3.7087502E+00  3.2562683E+01
 3.7202501E+00  3.2646816E+01
 3.7317502E+00  3.2599148E+01
 3.7432501E+00  3.2561497E+01
 3.7547503E+00  3.2715111E+01
 3.7662501E+00  3.2689323E+01
 3.7777503E+00  3.2952244E+01
 3.7892501E+00  3.2775723E+01
 3.8007503E+00  3.2687439E+01
 3.8122501E+00  3.2554619E+01
 3.8237503E+00  3.2638348E+01
 3.8352501E+00  3.2666824E+01
 3.8467503E+00  3.2713215E+01
 3.8582501E+00  3.2607986E+01
 3.8697503E+00  3.2683117E+01
 3.8812501E+00  3.2743462E+01
 3.8927503E+00  3.2913822E+01
 3.9042501E+00  3.3040939E+01
 3.9157503E+00  3.3073929E+01
 3.9272501E+00  3.3028610E+01
 3.9387503E+00  3.2947392E+01
 3.9502501E+00  3.2629326E+01
 3.9617503E+00  3.2451641E+01
 3.9732502E+00  3.2261841E+01
 3.9847503E+00  3.2362553E+01
 3.9962502E+00  3.2504864E+01
 4.0077500E+00  3.2510891E+01
 4.0192504E+00  3.2723625E+01
 4.0307503E+00  3.2662663E+01
 4.0422502E+00  3.2693272E+01
 4.0537500E+00  3.2600311E+01
 4.0652504E+00  3.2510864E+01
 4.0767503E+00  3.2417183E+01
 4.0882502E+00  3.2431488E+01
 4.0997500E+00  3.2507828E+01
 4.1112504E+00  3.2618420E+01
 4.1227503E+00  3.2548946E+01
 4.1342502E+00  3.2529636E+01
 4.1457500E+00  3.2505539E+01
 4.1572504E+00  3.2401783E+01
 4.1687503E+00  3.2369186E+01
 4.1802502E+00  3.2093987E+01
 4.1917500E+00  3.2151527E+01
 4.2032504E+00  3.1955091E+01
 4.2147503E+00  3.1962061E+01
 4.2262502E+00  3.1854868E+01
 4.2377501E+00  3.1830696E+01
 4.2492504E+00  3.1929903E+01
 4.2607503E+00  3.2092194E+01
 4.2722502E+00  3.2195438E+01
 4.2837501E+00  3.2298603E+01
 4.2952504E+00  3.2162781E+01
 4.3067503E+00  3.2078796E+01
 4.3182502E+00  3.2081421E+01
 4.3297501E+00  3.2050182E+01
 4.3412504E+00  3.2165176E+01
 4.3527503E+00  3.2128723E+01
 4.3642502E+00  3.2097992E+01
 4.3757501E+00  3.2191383E+01
 4.3872504E+00  3.2221878E+01
 4.3987503E+00  3.2393440E+01
 4.4102502E+00  3.2579762E+01
 4.4217501E+00  3.2595997E+01
 4.4332504E+00  3.2736752E+01
 4.4447503E+00  3.2696598E+01
 4.4562502E+00  3.2699467E+01
 4.4677501E+00  3.2677898E+01
 4.4792504E+00  3.2461216E+01
 4.4907503E+00  3.2428169E+01
 4.5022502E+00  3.2348488E+01
 4.5137501E+00  3.2467762E+01
 4.5252504E+00  3.2585239E+01
 4.5367503E+00  3.2732147E+01
 4.5482502E+00  3.2731644E+01
 4.5597501E+00  3.2683067E+01
 4.5712504E+00  3.2670322E+01
 4.5827503E+00  3.2628696E+01
 4.5942502E+00  3.2579651E+01
 4.6057501E+00  3.2592617E+01
 4.6172504E+00  3.2558792E+01
 4.6287503E+00  3.2714252E+01
 4.6402502E+00  3.2821724E+01
 4.6517501E+00  3.2821754E+01
 4.6632504E+00  3.2989597E+01
 4.6747503E+00  3.2913422E+01
 4.6862502E+00  3.2860737E+01
 4.6977501E+00  3.2668262E+01
 4.7092505E+00  3.2618790E+01
 4.7207503E+00  3.2632313E+01
 4.7322502E+00  3.2633743E+01
 4.7437501E+00  3.2621014E+01
 4.7552505E+00  3.2573662E+01
 4.7667503E+00  3.2552895E+01
 4.7782502E+00  3.2317314E+01
 4.7897501E+00  3.2167122E+01
 4.8012505E+00  3.2093098E+01
 4.8127503E+00  3.1980577E+01
 4.8242502E+00  3.2060307E+01
 4.8357501E+00  3.2103878E+01
 4.8472505E+00  3.2366364E+01
 4.8587503E+00  3.2460884E+01
 4.8702502E+00  3.2589607E+01
 4.8817501E+00  3.2571926E+01
 4.8932505E+00  3.2512875E+01
 4.9047503E+00  3.2420795E+01
 4.9162502E+00  3.2510036E+01
 4.9277501E+00  3.2517555E+01
 4.9392505E+00  3.2661747E+01
 4.9507504E+00  3.2623638E+01
 4.9622502E+00  3.2704117E+01
 4.9737501E+00  3.2761547E+01
 4.9852505E+00  3.2795620E+01
 4.9967504E+00  3.2769222E+01
 5.0082502E+00  3.2814240E+01
 5.0197501E+00  3.2771278E+01
 5.0312505E+00  3.2904911E+01
 5.0427504E+00  3.2876759E+01
 5.0542502E+00  3.2961899E+01
 5.0657501E+00  3.2952515E+01
 5.0772505E+00  3.3050312E+01
 5.0887504E+00  3.3134750E+01
 5.1002502E+00  3.3378994E+01
 5.1117501E+00  3.3383633E+01
 5.1232505E+00  3.3478699E+01
 5.1347504E+00  3.3523384E+01
 5.1462502E+00  3.3788589E+01
 5.1577501E+00  3.3998413E+01
 5.1692505E+00  3.4088688E+01
 5.1807504E+00  3.3994316E+01
 5.1922503E+00  3.3928257E+01
 5.2037501E+00  3.3795944E+01
 5.2152505E+00  3.3761456E+01
 5.2267504E+00  3.3757156E+01
 5.2382503E+00  3.3725761E+01
 5.2497501E+00  3.3685478E+01
 5.2612505E+00  3.3653267E+01
 5.2727504E+00  3.3677345E+01
 5.2842503E+00  3.3707359E+01
 5.2957501E+00  3.3643093E+01
 5.3072500E+00  3.3710777E+01
 5.3187504E+00  3.3874126E+01
 5.3302503E+00  3.4199677E+01
 5.3417501E+00  3.4333809E+01
 5.3532500E+00  3.4405388E+01
 5.3647504E+00  3.4452068E+01
 5.3762503E+00  3.4667530E+01
 5.3877501E+00  3.4751015E+01
 5.3992500E+00  3.4758602E+01
 5.4107504E+00  3.4589607E+01
 5.4222503E+00  3.4554291E+01
 5.4337502E+00  3.4439880E+01
 5.4452500E+00  3.4465118E+01
 5.4567504E+00  3.4403339E+01
 5.4682503E+00  3.4461872E+01
 5.4797502E+00  3.4447449E+01
 5.4912500E+00  3.4497864E+01
 5.5027504E+00  3.4561131E+01
 5.5142503E+00  3.4733128E+01
 5.5257502E+00  3.4777863E+01
 5.5372500E+00  3.4804050E+01
 5.5487504E+00  3.4798134E+01
 5.5602503E+00  3.4801250E+01
 5.5717502E+00  3.4829433E+01
 5.5832500E+00  3.4795933E+01
 5.5947504E+00  3.4855099E+01
 5.6062503E+00  3.4943878E+01
 5.6177502E+00  3.4814751E+01
 5.6292500E+00  3.4768219E+01
 5.6407504E+00  3.4761608E+01
 5.6522503E+00  3.5004864E+01
 5.6637502E+00  3.5275127E+01
 5.6752501E+00  3.5418682E+01
 5.6867504E+00  3.5510685E+01
 5.6982503E+00  3.5506741E+01
 5.7097502E+00  3.5563534E+01
 5.7212501E+00  3.5621887E+01
 5.7327504E+00  3.5782310E+01
 5.7442503E+00  3.5830555E+01
 5.7557502E+00  3.5910618E+01
 5.7672501E+00  3.6060051E+01
 5.7787504E+00  3.6141804E+01
 5.7902503E+00  3.6215710E+01
 5.8017502E+00  3.6258316E+01
 5.8132501E+00  3.6285755E+01
 5.8247504E+00  3.6442631E+01
 5.8362503E+00  3.6529251E+01
 5.8477502E+00  3.6912331E+01
 5.8592501E+00  3.7152355E+01
 5.8707504E+00  3.7610825E+01
 5.8822503E+00  3.7935863E+01
 5.8937502E+00  3.8909843E+01
 5.9052501E+00  3.9863377E+01
 5.9167504E+00  4.2565762E+01
 5.9282503E+00  4.5493851E+01
 5.9397502E+00  5.1140850E+01
 5.9512501E+00  5.8014927E+01
 5.9627504E+00  6.7437782E+01
 5.9742503E+00  7.4298576E+01
 5.9857502E+00  7.7691086E+01
 5.9972501E+00  7.5143433E+01
 6.0087504E+00  6.9814125E+01
 6.0202503E+00  6.1639156E+01
 6.0317502E+00  5.3811424E+01
 6.0432501E+00  4.7495800E+01
 6.0547504E+00  4.3322639E+01
 6.0662503E+00  4.0823174E+01
 6.0777502E+00  3.9384842E+01
 6.0892501E+00  3.8660931E+01
 6.1007504E+00  3.8222569E+01
 6.1122503E+00  3.7950813E+01
 6.1237502E+00  3.7718800E+01
 6.1352501E+00  3.7532528E+01
 6.1467505E+00  3.7473019E+01
 6.1582503E+00  3.7409275E+01
 6.1697502E+00  3.7377045E+01
 6.1812501E+00  3.7383530E+01
 6.1927505E+00  3.7451553E+01
 6.2042503E+00  3.7521442E+01
 6.2157502E+00  3.7564743E+01
 6.2272501E+00  3.7560707E+01
 6.2387505E+00  3.7615158E+01
 6.2502503E+00  3.7579582E+01
 6.2617502E+00  3.7553299E+01
 6.2732501E+00  3.7643745E+01
 6.2847505E+00  3.7685921E+01
 6.2962503E+00  3.7770184E+01
 6.3077502E+00  3.7794910E+01
 6.3192501E+00  3.7746071E+01
 6.3307505E+00  3.7724201E+01
 6.3422503E+00  3.7720379E+01
 6.3537502E+00  3.7881840E+01
 6.3652501E+00  3.8104744E+01
 6.3767505E+00  3.8253876E+01
 6.3882504E+00  3.8377819E+01
 6.3997502E+00  3.8426678E+01
 6.4112501E+00  3.8487671E+01
 6.4227505E+00  3.8451641E+01
 6.4342504E+00  3.8471714E+01
 6.4457502E+00  3.8407192E+01
 6.4572501E+00  3.8404663E+01
 6.4687505E+00  3.8393658E+01
 6.4802504E+00  3.8488514E+01
 6.4917502E+00  3.8674637E+01
 6.5032501E+00  3.8857567E+01
 6.5147505E+00  3.9081020E+01
 6.5262504E+00  3.9252319E+01
 6.5377502E+00  3.9261097E+01
 6.5492501E+00  3.9161034E+01
 6.5607505E+00  3.9047104E+01
 6.5722504E+00  3.9064236E+01
 6.5837502E+00  3.9111088E+01
 6.5952501E+00  3.9187935E+01
 6.6067505E+00  3.9245823E+01
 6.6182504E+00  3.9327766E+01
 6.6297503E+00  3.9397755E+01
 6.6412501E+00  3.9550163E+01
 6.6527505E+00  3.9694679E+01
 6.6642504E+00  3.9861290E+01
 6.6757503E+00  3.9931236E+01
 6.6872501E+00  3.9957672E+01
 6.6987505E+00  3.9868805E+01
 6.7102504E+00  3.9996769E+01
 6.7217503E+00  4.0140972E+01
 6.7332501E+00  4.0395397E+01
 6.7447505E+00  4.0653885E+01
 6.7562504E+00  4.0901249E+01
 6.7677503E+00  4.1172295E+01
 6.7792501E+00  4.1218658E+01
 6.7907505E+00  4.1211205E+01
 6.8022504E+00  4.1207142E+01
 6.8137503E+00  4.1178127E+01
 6.8252501E+00  4.1270374E+01
 6.8367505E+00  4.1212257E+01
 6.8482504E+00  4.1467480E+01
 6.8597503E+00  4.1517567E+01
 6.8712502E+00  4.1622925E+01
 6.8827505E+00  4.1622627E+01
 6.8942504E+00  4.1693470E+01
 6.9057503E+00  4.1806057E+01
 6.9172502E+00  4.1755497E+01
 6.9287505E+00  4.1687561E+01
 6.9402504E+00  4.1730762E+01
 6.9517503E+00  4.1738403E+01
 6.9632502E+00  4.1834675E+01
 6.9747505E+00  4.1974827E+01
 6.9862504E+00  4.2012405E+01
 6.9977503E+00  4.2201519E+01
 7.0092502E+00  4.2156773E+01
 7.0207505E+00  4.2258068E+01
 7.0322504E+00  4.2224274E+01
 7.0437503E+00  4.2331764E+01
 7.0552502E+00  4.2425137E+01
 7.0667505E+00  4.2582329E+01
 7.0782504E+00  4.2585274E+01
 7.0897503E+00  4.2645084E+01
 7.1012502E+00  4.2656258E+01
 7.1127505E+00  4.2738285E+01
 7.1242504E+00  4.2954746E+01
 7.1357503E+00  4.3061218E+01
 7.1472502E+00  4.3144657E+01
 7.1587505E+00  4.3237347E+01
 7.1702504E+00  4.3265709E+01
 7.1817503E+00  4.3263355E+01
 7.1932502E+00  4.3270966E+01
 7.2047505E+00  4.3275234E+01
 7.2162504E+00  4.3377659E+01
 7.2277503E+00  4.3309845E+01
 7.2392502E+00  4.3297203E+01
 7.2507505E+00  4.3292168E+01
 7.2622504E+00  4.3231049E+01
 7.2737503E+00  4.3253265E+01
 7.2852502E+00  4.3270432E+01
 7.2967505E+00  4.3302364E+01
 7.3082504E+00  4.3276596E+01
 7.3197503E+00  4.3326481E+01
 7.3312502E+00  4.3385376E+01
 7.3427505E+00  4.3493122E+01
 7.3542504E+00  4.3522526E+01
 7.3657503E+00  4.3583073E+01
 7.3772502E+00  4.3553978E+01
 7.3887506E+00  4.3569168E+01
 7.4002504E+00  4.3663815E+01
 7.4117503E+00  4.3718838E+01
 7.4232502E+00  4.3705051E+01
 7.4347506E+00  4.3619041E+01
 7.4462504E+00  4.3639893E+01
 7.4577503E+00  4.3695038E+01
 7.4692502E+00  4.3794983E+01
 7.4807506E+00  4.3878826E+01
 7.4922504E+00  4.4032288E+01
 7.5037503E+00  4.4128948E+01
 7.5152502E+00  4.4189793E+01
 7.5267506E+00  4.4223034E+01
 7.5382504E+00  4.4287292E+01
 7.5497503E+00  4.4299606E+01
 7.5612502E+00  4.4333885E+01
 7.5727506E+00  4.4374653E+01
 7.5842505E+00  4.4445892E+01
 7.5957503E+00  4.4492325E+01
 7.6072502E+00  4.4507126E+01
 7.6187506E+00  4.4528194E+01
 7.6302505E+00  4.4528587E+01
 7.6417503E+00  4.4537952E+01
 7.6532502E+00  4.4454277E+01
 7.6647506E+00  4.4293507E+01
 7.6762505E+00  4.4139130E+01
 7.6877503E+00  4.4055115E+01
 7.6992502E+00  4.3937363E+01
 7.7107506E+00  4.3864056E+01
 7.7222505E+00  4.3797047E+01
 7.7337503E+00  4.3861950E+01
 7.7452502E+00  4.3958275E+01
 7.7567506E+00  4.3969635E+01
 7.7682505E+00  4.4003201E+01
 7.7797503E+00  4.3879719E+01
 7.7912502E+00  4.3833958E+01
 7.8027506E+00  4.3748894E+01
 7.8142505E+00  4.3701000E+01
 7.8257504E+00  4.3702629E+01
 7.8372502E+00  4.3686417E+01
 7.8487506E+00  4.3680733E+01
 7.8602505E+00  4.3680840E+01
 7.8717504E+00  4.3582142E+01
 7.8832502E+00  4.3514572E+01
 7.8947506E+00  4.3378128E+01
 7.9062505E+00  4.3376671E+01
 7.9177504E+00  4.3306610E+01
 7.9292502E+00  4.3271923E+01
 7.9407506E+00  4.3202393E+01
 7.9522505E+00  4.3200100E+01
 7.9637504E+00  4.3209625E+01
 7.9752502E+00  4.3210842E+01
 7.9867506E+00  4.3222427E+01
 7.9982505E+00  4.3196468E+01
 8.0097504E+00  4.3089275E+01
 8.0212507E+00  4.2986210E+01
 8.0327501E+00  4.2830654E+01
 8.0442505E+00  4.2840210E+01
 8.0557508E+00  4.2758236E+01
 8.0672503E+00  4.2665863E+01
 8.0787506E+00  4.2549629E+01
 8.0902500E+00  4.2443756E+01
 8.1017504E+00  4.2459877E+01
 8.1132507E+00  4.2505028E+01
 8.1247501E+00  4.2522820E+01
 8.1362505E+00  4.2445290E+01
 8.1477509E+00  4.2306259E+01
 8.1592503E+00  4.2140430E+01
 8.1707506E+00  4.1978626E+01
 8.1822500E+00  4.1799580E+01
 8.1937504E+00  4.1681118E+01
 8.2052507E+00  4.1548149E+01
 8.2167501E+00  4.1335804E+01
 8.2282505E+00  4.1163128E+01
 8.2397509E+00  4.0996960E+01
 8.2512503E+00  4.0887604E+01
 8.2627506E+00  4.0738731E+01
 8.2742500E+00  4.0692097E+01
 8.2857504E+00  4.0567394E+01
 8.2972507E+00  4.0483875E+01
 8.3087502E+00  4.0360031E+01
 8.3202505E+00  4.0337059E+01
 8.3317509E+00  4.0195580E+01
 8.3432503E+00  4.0118477E+01
 8.3547506E+00  3.9950325E+01
 8.3662500E+00  3.9950768E+01
 8.3777504E+00  3.9807827E+01
 8.3892508E+00  3.9696827E+01
 8.4007502E+00  3.9505672E+01
 8.4122505E+00  3.9304127E+01
 8.4237509E+00  3.9114780E+01
 8.4352503E+00  3.8822948E+01
 8.4467506E+00  3.8597099E+01
 8.4582500E+00  3.8389385E+01
 8.4697504E+00  3.8257580E+01
 8.4812508E+00  3.8139919E+01
 8.4927502E+00  3.8042080E+01
 8.5042505E+00  3.7955051E+01
 8.5157509E+00  3.7775230E+01
 8.5272503E+00  3.7602299E+01
 8.5387506E+00  3.7371277E+01
 8.5502501E+00  3.7129471E+01
 8.5617504E+00  3.6925034E+01
 8.5732508E+00  3.6709316E+01
 8.5847502E+00  3.6496597E+01
 8.5962505E+00  3.6238972E+01
 8.6077509E+00  3.6048557E+01
 8.6192503E+00  3.5959824E+01
 8.6307507E+00  3.5861801E+01
 8.6422501E+00  3.5736778E+01
 8.6537504E+00  3.5483070E+01
 8.6652508E+00  3.5306282E+01
 8.6767502E+00  3.5127460E+01
 8.6882505E+00  3.5037415E+01
 8.6997509E+00  3.4914394E+01
 8.7112503E+00  3.4716068E+01
 8.7227507E+00  3.4608845E+01
 8.7342501E+00  3.4381126E+01
 8.7457504E+00  3.4140919E+01
 8.7572508E+00  3.3846466E+01
 8.7687502E+00  3.3645596E+01
 8.7802505E+00  3.3502659E+01
 8.7917500E+00  3.3396137E+01
 8.8032503E+00  3.3283920E+01
 8.8147507E+00  3.3213608E+01
 8.8262501E+00  3.3066029E+01
 8.8377504E+00  3.2927452E+01
 8.8492508E+00  3.2742367E+01
 8.8607502E+00  3.2584633E+01
 8.8722506E+00  3.2400005E+01
 8.8837500E+00  3.2206577E+01
 8.8952503E+00  3.1982553E+01
 8.9067507E+00  3.1750731E+01
 8.9182501E+00  3.1550753E+01
 8.9297504E+00  3.1361065E+01
 8.9412508E+00  3.1241045E+01
 8.9527502E+00  3.1170406E+01
 8.9642506E+00  3.1064096E+01
 8.9757500E+00  3.0995960E+01
 8.9872503E+00  3.0845135E+01
 8.9987507E+00  3.0729177E+01
 9.0102501E+00  3.0611122E+01
 9.0217505E+00  3.0471693E+01
 9.0332508E+00  3.0373323E+01
 9.0447502E+00  3.0195436E+01
 9.0562506E+00  3.0110281E+01
 9.0677500E+00  3.0019384E+01
 9.0792503E+00  2.9944197E+01
 9.0907507E+00  2.9817926E+01
 9.1022501E+00  2.9693455E+01
 9.1137505E+00  2.9555981E+01
 9.1252508E+00  2.9427387E+01
 9.1367502E+00  2.9286541E+01
 9.1482506E+00  2.9169870E+01
 9.1597500E+00  2.9023579E+01
 9.1712503E+00  2.8894629E+01
 9.1827507E+00  2.8747084E+01
 9.1942501E+00  2.8628223E+01
 9.2057505E+00  2.8461010E+01
 9.2172508E+00  2.8314789E+01
 9.2287502E+00  2.8199831E+01
 9.2402506E+00  2.8122461E+01
 9.2517500E+00  2.8097252E+01
 9.2632504E+00  2.8071949E+01
 9.2747507E+00  2.8014784E+01
 9.2862501E+00  2.7867506E+01
 9.2977505E+00  2.7732843E+01
 9.3092508E+00  2.7602499E+01
 9.3207502E+00  2.7513706E+01
 9.3322506E+00  2.7356585E+01
 9.3437500E+00  2.7245468E+01
 9.3552504E+00  2.7142185E+01
 9.3667507E+00  2.7091040E+01
 9.3782501E+00  2.7087399E+01
 9.3897505E+00  2.7079977E+01
 9.4012508E+00  2.7016941E+01
 9.4127502E+00  2.6952156E+01
 9.4242506E+00  2.6827808E+01
 9.4357500E+00  2.6693041E+01
 9.4472504E+00  2.6640846E+01
 9.4587507E+00  2.6586376E+01
 9.4702501E+00  2.6600561E+01
 9.4817505E+00  2.6551270E+01
 9.4932508E+00  2.6487167E+01
 9.5047503E+00  2.6456573E+01
 9.5162506E+00  2.6378496E+01
 9.5277500E+00  2.6285355E+01
 9.5392504E+00  2.6242847E+01
 9.5507507E+00  2.6126459E+01
 9.5622501E+00  2.6062166E+01
 9.5737505E+00  2.5958853E+01
 9.5852509E+00  2.5896557E+01
 9.5967503E+00  2.5907463E+01
 9.6082506E+00  2.5841352E+01
 9.6197500E+00  2.5834734E+01
 9.6312504E+00  2.5753811E+01
 9.6427507E+00  2.5691021E+01
 9.6542501E+00  2.5614120E+01
 9.6657505E+00  2.5519567E+01
 9.6772509E+00  2.5468573E+01
 9.6887503E+00  2.5358278E+01
 9.7002506E+00  2.5290005E+01
 9.7117500E+00  2.5247084E+01
 9.7232504E+00  2.5254679E+01
 9.7347507E+00  2.5237059E+01
 9.7462502E+00  2.5191219E+01
 9.7577505E+00  2.5095654E+01
 9.7692509E+00  2.5032038E+01
 9.7807503E+00  2.5014788E+01
 9.7922506E+00  2.4998318E+01
 9.8037500E+00  2.5008245E+01
 9.8152504E+00  2.4932150E+01
 9.8267508E+00  2.4876278E+01
 9.8382502E+00  2.4821316E+01
 9.8497505E+00  2.4809597E+01
 9.8612509E+00  2.4764553E+01
 9.8727503E+00  2.4755968E+01
 9.8842506E+00  2.4735407E+01
 9.8957500E+00  2.4713634E+01
 9.9072504E+00  2.4623539E+01
 9.9187508E+00  2.4575436E+01
 9.9302502E+00  2.4489557E+01
 9.9417505E+00  2.4431515E+01
 9.9532509E+00  2.4312696E+01
 9.9647503E+00  2.4324295E+01
 9.9762506E+00  2.4336670E+01
 9.9877501E+00  2.4383253E+01
 9.9992504E+00  2.4371912E+01
 1.0010751E+01  2.4301710E+01
 1.0022250E+01  2.4246241E+01
 1.0033751E+01  2.4225710E+01
 1.0045251E+01  2.4254389E+01
 1.0056750E+01  2.4260067E+01
 1.0068251E+01  2.4232012E+01
 1.0079750E+01  2.4155703E+01
 1.0091250E+01  2.4110138E+01
 1.0102751E+01  2.4038355E+01
 1.0114250E+01  2.4012680E+01
 1.0125751E+01  2.4024960E+01
 1.0137251E+01  2.4060713E+01
 1.0148750E+01  2.4097412E+01
 1.0160251E+01  2.4035378E+01
 1.0171750E+01  2.3956959E+01
 1.0183250E+01  2.3871054E+01
 1.0194751E+01  2.3775301E+01
 1.0206250E+01  2.3699024E+01
 1.0217751E+01  2.3718700E+01
 1.0229251E+01  2.3724199E+01
 1.0240750E+01  2.3712015E+01
 1.0252251E+01  2.3625290E+01
 1.0263750E+01  2.3592030E+01
 1.0275250E+01  2.3626814E+01
 1.0286751E+01  2.3692223E+01
 1.0298250E+01  2.3764576E+01
 1.0309751E+01  2.3776476E+01
 1.0321251E+01  2.3734194E+01
 1.0332750E+01  2.3705845E+01
 1.0344251E+01  2.3691319E+01
 1.0355750E+01  2.3625406E+01
 1.0367250E+01  2.3521696E+01
 1.0378751E+01  2.3479486E+01
 1.0390250E+01  2.3497961E+01
 1.0401751E+01  2.3565470E+01
 1.0413251E+01  2.3522232E+01
 1.0424750E+01  2.3475046E+01
 1.0436251E+01  2.3412750E+01
 1.0447750E+01  2.3324087E+01
 1.0459250E+01  2.3280550E+01
 1.0470751E+01  2.3246746E+01
 1.0482250E+01  2.3334995E+01
 1.0493751E+01  2.3320189E+01
 1.0505251E+01  2.3331100E+01
 1.0516750E+01  2.3254246E+01
 1.0528251E+01  2.3205210E+01
 1.0539750E+01  2.3150440E+01
 1.0551250E+01  2.3147726E+01
 1.0562751E+01  2.3224197E+01
 1.0574250E+01  2.3195644E+01
 1.0585751E+01  2.3166206E+01
 1.0597251E+01  2.3056280E+01
 1.0608750E+01  2.2969011E+01
 1.0620251E+01  2.2910149E+01
 1.0631750E+01  2.2900213E+01
 1.0643250E+01  2.2961729E+01
 1.0654751E+01  2.3052603E+01
 1.0666250E+01  2.3102987E+01
 1.0677751E+01  2.3128405E+01
 1.0689251E+01  2.3100822E+01
 1.0700750E+01  2.3103771E+01
 1.0712251E+01  2.3048510E+01
 1.0723750E+01  2.3039673E+01
 1.0735250E+01  2.2981689E+01
 1.0746751E+01  2.3005365E+01
 1.0758250E+01  2.2935156E+01
 1.0769751E+01  2.2930370E+01
 1.0781251E+01  2.2925619E+01
 1.0792750E+01  2.2925095E+01
 1.0804251E+01  2.2884012E+01
 1.0815750E+01  2.2825670E+01
 1.0827250E+01  2.2822308E+01
 1.0838751E+01  2.2808651E+01
 1.0850250E+01  2.2815948E+01
 1.0861751E+01  2.2786892E+01
 1.0873251E+01  2.2782841E+01
 1.0884750E+01  2.2763056E+01
 1.0896251E+01  2.2704815E+01
 1.0907750E+01  2.2701700E+01
 1.0919250E+01  2.2690672E+01
 1.0930751E+01  2.2720749E+01
 1.0942250E+01  2.2681171E+01
 1.0953751E+01  2.2673639E+01
 1.0965251E+01  2.2653820E+01
 1.0976750E+01  2.2703875E+01
 1.0988251E+01  2.2710167E+01
 1.0999750E+01  2.2726522E+01
 1.1011250E+01  2.2677710E+01
 1.1022751E+01  2.2677570E+01
 1.1034250E+01  2.2660751E+01
 1.1045751E+01  2.2667400E+01
 1.1057251E+01  2.2630024E+01
 1.1068750E+01  2.2669491E+01
 1.1080251E+01  2.2652174E+01
 1.1091750E+01  2.2641485E+01
 1.1103251E+01  2.2585743E+01
 1.1114751E+01  2.2552189E+01
 1.1126250E+01  2.2559923E+01
 1.1137751E+01  2.2571474E+01
 1.1149251E+01  2.2598520E+01
 1.1160750E+01  2.2573107E+01
 1.1172251E+01  2.2545425E+01
 1.1183750E+01  2.2554756E+01
 1.1195251E+01  2.2504683E+01
 1.1206751E+01  2.2494291E+01
 1.1218250E+01  2.2462614E+01
 1.1229751E+01  2.2494278E+01
 1.1241251E+01  2.2525774E+01
 1.1252750E+01  2.2505260E+01
 1.1264251E+01  2.2506327E+01
 1.1275750E+01  2.2484074E+01
 1.1287251E+01  2.2481903E+01
 1.1298751E+01  2.2507603E+01
 1.1310250E+01  2.2536642E+01
 1.1321751E+01  2.2539377E+01
 1.1333251E+01  2.2559427E+01
 1.1344750E+01  2.2545843E+01
 1.1356251E+01  2.2565338E+01
 1.1367750E+01  2.2597639E+01
 1.1379251E+01  2.2629774E+01
 1.1390751E+01  2.2702173E+01
 1.1402250E+01  2.2828249E+01
 1.1413751E+01  2.2871265E+01
 1.1425251E+01  2.2900972E+01
 1.1436750E+01  2.2898003E+01
 1.1448251E+01  2.2923754E+01
 1.1459750E+01  2.3021351E+01
 1.1471251E+01  2.3018400E+01
 1.1482751E+01  2.3067364E+01
 1.1494250E+01  2.3097649E+01
 1.1505751E+01  2.3167545E+01
 1.1517251E+01  2.3387259E+01
 1.1528750E+01  2.3820189E+01
 1.1540251E+01  2.4565535E+01
 1.1551750E+01  2.5576399E+01
 1.1563251E+01  2.7033270E+01
 1.1574751E+01  2.8472803E+01
 1.1586250E+01  2.9785727E+01
 1.1597751E+01  2.9926920E+01
 1.1609251E+01  3.0285753E+01
 1.1620750E+01  2.9183609E+01
 1.1632251E+01  2.8516813E+01
 1.1643750E+01  2.6509829E+01
 1.1655251E+01  2.5533623E+01
 1.1666751E+01  2.4293844E+01
 1.1678250E+01  2.3738230E+01
 1.1689751E+01  2.3273285E+01
 1.1701251E+01  2.2982996E+01
 1.1712750E+01  2.2863153E+01
 1.1724251E+01  2.2705858E+01
 1.1735750E+01  2.2684162E+01
 1.1747251E+01  2.2652712E+01
 1.1758751E+01  2.2713320E+01
 1.1770250E+01  2.2670408E+01
 1.1781751E+01  2.2660957E+01
 1.1793251E+01  2.2638390E+01
 1.1804750E+01  2.2686802E+01
 1.1816251E+01  2.2644403E+01
 1.1827750E+01  2.2681833E+01
 1.1839251E+01  2.2710192E+01
 1.1850751E+01  2.2709639E+01
 1.1862250E+01  2.2747454E+01
 1.1873751E+01  2.2740177E+01
 1.1885251E+01  2.2830172E+01
 1.1896750E+01  2.2900618E+01
 1.1908251E+01  2.3043949E+01
 1.1919750E+01  2.3251020E+01
 1.1931251E+01  2.3526085E+01
 1.1942751E+01  2.4117195E+01
 1.1954250E+01  2.4839743E+01
 1.1965751E+01  2.6089622E+01
 1.1977251E+01  2.6907673E+01
 1.1988750E+01  2.7829290E+01
 1.2000251E+01  2.7672812E+01
 1.2011750E+01  2.7268351E+01
 1.2023251E+01  2.6296440E+01
 1.2034751E+01  2.5513422E+01
 1.2046250E+01  2.5108896E+01
 1.2057751E+01  2.4946451E+01
 1.2069251E+01  2.5298939E+01
 1.2080750E+01  2.6023939E+01
 1.2092251E+01  2.6882187E+01
 1.2103750E+01  2.7547655E+01
 1.2115251E+01  2.8361597E+01
 1.2126751E+01  2.8619696E+01
 1.2138250E+01  2.8193132E+01
 1.2149751E+01  2.7166237E+01
 1.2161251E+01  2.6034676E+01
 1.2172750E+01  2.5087645E+01
 1.2184251E+01  2.4074032E+01
 1.2195750E+01  2.3485479E+01
 1.2207251E+01  2.3188677E+01
 1.2218751E+01  2.2946964E+01
 1.2230250E+01  2.2843969E+01
 1.2241751E+01  2.2822073E+01
 1.2253251E+01  2.2784231E+01
 1.2264750E+01  2.2745163E+01
 1.2276251E+01  2.2633457E+01
 1.2287750E+01  2.2616592E+01
 1.2299251E+01  2.2606541E+01
 1.2310751E+01  2.2668943E+01
 1.2322250E+01  2.2669083E+01
 1.2333751E+01  2.2709118E+01
 1.2345250E+01  2.2696194E+01
 1.2356750E+01  2.2684811E+01
 1.2368251E+01  2.2655670E+01
 1.2379750E+01  2.2689310E+01
 1.2391251E+01  2.2656372E+01
 1.2402751E+01  2.2658543E+01
 1.2414250E+01  2.2700245E+01
 1.2425751E+01  2.2717976E+01
 1.2437250E+01  2.2742476E+01
 1.2448750E+01  2.2714973E+01
 1.2460251E+01  2.2789852E+01
 1.2471750E+01  2.2803831E+01
 1.2483251E+01  2.2820761E+01
 1.2494751E+01  2.2752653E+01
 1.2506250E+01  2.2684278E+01
 1.2517751E+01  2.2632923E+01
 1.2529250E+01  2.2668404E+01
 1.2540751E+01  2.2732641E+01
 1.2552251E+01  2.2805672E+01
 1.2563750E+01  2.2884682E+01
 1.2575251E+01  2.2930359E+01
 1.2586751E+01  2.2980795E+01
 1.2598250E+01  2.2970810E+01
 1.2609751E+01  2.2986208E+01
 1.2621250E+01  2.2924206E+01
 1.2632751E+01  2.2908524E+01
 1.2644251E+01  2.2845675E+01
 1.2655750E+01  2.2861607E+01
 1.2667251E+01  2.2834255E+01
 1.2678751E+01  2.2895359E+01
 1.2690250E+01  2.2956081E+01
 1.2701751E+01  2.3001755E+01
 1.2713250E+01  2.3070919E+01
 1.2724751E+01  2.3046871E+01
 1.2736251E+01  2.3132870E+01
 1.2747750E+01  2.3106331E+01
 1.2759251E+01  2.3167070E+01
 1.2770751E+01  2.3103947E+01
 1.2782250E+01  2.3161793E+01
 1.2793751E+01  2.3119875E+01
 1.2805250E+01  2.3232191E+01
 1.2816751E+01  2.3207331E+01
 1.2828251E+01  2.3342161E+01
 1.2839750E+01  2.3353863E+01
 1.2851251E+01  2.3435450E+01
 1.2862751E+01  2.3441261E+01
 1.2874250E+01  2.3452299E+01
 1.2885751E+01  2.3448977E+01
 1.2897250E+01  2.3442034E+01
 1.2908751E+01  2.3525505E+01
 1.2920251E+01  2.3564342E+01
 1.2931750E+01  2.3672125E+01
 1.2943251E+01  2.3712152E+01
 1.2954751E+01  2.3789253E+01
 1.2966250E+01  2.3818386E+01
 1.2977751E+01  2.3897697E+01
 1.2989250E+01  2.3943125E+01
 1.3000751E+01  2.3974941E+01
 1.3012251E+01  2.4019615E+01
 1.3023750E+01  2.4112743E+01
 1.3035251E+01  2.4214584E+01
 1.3046751E+01  2.4283476E+01
 1.3058250E+01  2.4346441E+01
 1.3069751E+01  2.4400370E+01
 1.3081250E+01  2.4514391E+01
 1.3092751E+01  2.4638189E+01
 1.3104251E+01  2.4867723E+01
 1.3115750E+01  2.4982264E+01
 1.3127251E+01  2.5087549E+01
 1.3138751E+01  2.5090916E+01
 1.3150250E+01  2.5173222E+01
 1.3161751E+01  2.5244278E+01
 1.3173250E+01  2.5351675E+01
 1.3184751E+01  2.5457952E+01
 1.3196251E+01  2.5577208E+01
 1.3207750E+01  2.5680183E+01
 1.3219251E+01  2.5800922E+01
 1.3230751E+01  2.5963762E+01
 1.3242250E+01  2.6164595E+01
 1.3253751E+01  2.6353445E+01
 1.3265250E+01  2.6532745E+01
 1.3276751E+01  2.6707567E+01
 1.3288251E+01  2.6850273E+01
 1.3299750E+01  2.7008154E+01
 1.3311251E+01  2.7110094E+01
 1.3322751E+01  2.7250387E+01
 1.3334250E+01  2.7402246E+01
 1.3345751E+01  2.7597807E+01
 1.3357250E+01  2.7769545E+01
 1.3368751E+01  2.7855042E+01
 1.3380251E+01  2.7973051E+01
 1.3391750E+01  2.8104193E+01
 1.3403251E+01  2.8261358E+01
 1.3414751E+01  2.8318953E+01
 1.3426250E+01  2.8396622E+01
 1.3437751E+01  2.8538347E+01
 1.3449250E+01  2.8642570E+01
 1.3460751E+01  2.8790155E+01
 1.3472251E+01  2.8904621E+01
 1.3483750E+01  2.9092487E+01
 1.3495251E+01  2.9197332E+01
 1.3506751E+01  2.9378260E+01
 1.3518250E+01  2.9532864E+01
 1.3529751E+01  2.9700317E+01
 1.3541250E+01  2.9742325E+01
 1.3552751E+01  2.9771078E+01
 1.3564251E+01  2.9775724E+01
 1.3575750E+01  2.9779604E+01
 1.3587251E+01  2.9761969E+01
 1.3598751E+01  2.9749228E+01
 1.3610250E+01  2.9735121E+01
 1.3621751E+01  2.9760847E+01
 1.3633250E+01  2.9811161E+01
 1.3644751E+01  2.9912603E+01
 1.3656251E+01  2.9974781E+01
 1.3667750E+01  3.0046188E+01
 1.3679251E+01  3.0065678E+01
 1.3690751E+01  3.0088099E+01
 1.3702250E+01  3.0221605E+01
 1.3713751E+01  3.0149574E+01
 1.3725250E+01  3.0391182E+01
 1.3736751E+01  3.0306473E+01
 1.3748251E+01  3.0278919E+01
 1.3759750E+01  2.9944788E+01
 1.3771251E+01  2.9763260E+01
 1.3782751E+01  2.9714069E+01
 1.3794250E+01  2.9625860E+01
 1.3805751E+01  2.9603836E+01
 1.3817250E+01  2.9627502E+01
 1.3828751E+01  2.9686375E+01
 1.3840251E+01  2.9855690E+01
 1.3851750E+01  3.0153584E+01
 1.3863251E+01  3.0644682E+01
 1.3874751E+01  3.1648399E+01
 1.3886250E+01  3.2990643E+01
 1.3897751E+01  3.5755966E+01
 1.3909250E+01  3.9057323E+01
 1.3920751E+01  4.4012077E+01
 1.3932251E+01  4.8700298E+01
 1.3943750E+01  5.3240074E+01
 1.3955251E+01  5.4856136E+01
 1.3966751E+01  5.3670311E+01
 1.3978251E+01  4.9036091E+01
 1.3989751E+01  4.3191570E+01
 1.4001250E+01  3.8193295E+01
 1.4012751E+01  3.4675385E+01
 1.4024251E+01  3.2147850E+01
 1.4035750E+01  3.0640520E+01
 1.4047251E+01  2.9678949E+01
 1.4058751E+01  2.9198286E+01
 1.4070251E+01  2.8833397E+01
 1.4081751E+01  2.8614233E+01
 1.4093250E+01  2.8474070E+01
 1.4104751E+01  2.8314966E+01
 1.4116251E+01  2.8126665E+01
 1.4127750E+01  2.7928579E+01
 1.4139251E+01  2.7743673E+01
 1.4150751E+01  2.7541824E+01
 1.4162251E+01  2.7395958E+01
 1.4173751E+01  2.7295795E+01
 1.4185250E+01  2.7187160E+01
 1.4196751E+01  2.7041359E+01
 1.4208251E+01  2.6908354E+01
 1.4219750E+01  2.6800669E+01
 1.4231251E+01  2.6721699E+01
 1.4242751E+01  2.6694235E+01
 1.4254251E+01  2.6646360E+01
 1.4265751E+01  2.6581251E+01
 1.4277250E+01  2.6493105E+01
 1.4288751E+01  2.6454130E+01
 1.4300251E+01  2.6428078E+01
 1.4311750E+01  2.6415991E+01
 1.4323251E+01  2.6331877E+01
 1.4334751E+01  2.6271774E+01
 1.4346251E+01  2.6192272E+01
 1.4357751E+01  2.6149050E+01
 1.4369250E+01  2.6093100E+01
 1.4380751E+01  2.6082842E+01
 1.4392251E+01  2.6045080E+01
 1.4403750E+01  2.6046753E+01
 1.4415251E+01  2.6037432E+01
 1.4426751E+01  2.6023525E+01
 1.4438251E+01  2.6026722E+01
 1.4449751E+01  2.5957127E+01
 1.4461250E+01  2.5941570E+01
 1.4472751E+01  2.5851561E+01
 1.4484251E+01  2.5846884E+01
 1.4495750E+01  2.5807066E+01
 1.4507251E+01  2.5795036E+01
 1.4518751E+01  2.5785852E+01
 1.4530251E+01  2.5776672E+01
 1.4541751E+01  2.5780010E+01
 1.4553250E+01  2.5701977E+01
 1.4564751E+01  2.5687107E+01
 1.4576251E+01  2.5641848E+01
 1.4587750E+01  2.5681030E+01
 1.4599251E+01  2.5598564E+01
 1.4610751E+01  2.5564104E+01
 1.4622251E+01  2.5484083E+01
 1.4633751E+01  2.5440268E+01
 1.4645250E+01  2.5409382E+01
 1.4656751E+01  2.5357588E+01
 1.4668251E+01  2.5288107E+01
 1.4679750E+01  2.5271097E+01
 1.4691251E+01  2.5314201E+01
 1.4702751E+01  2.5379824E+01
 1.4714251E+01  2.5390652E+01
 1.4725751E+01  2.5333981E+01
 1.4737250E+01  2.5267937E+01
 1.4748751E+01  2.5153135E+01
 1.4760251E+01  2.5116688E+01
 1.4771750E+01  2.5099897E+01
 1.4783251E+01  2.5101622E+01
 1.4794751E+01  2.5094383E+01
 1.4806251E+01  2.5027662E+01
 1.4817751E+01  2.4947744E+01
 1.4829250E+01  2.4895533E+01
 1.4840751E+01  2.4908400E+01
 1.4852251E+01  2.4994230E+01
 1.4863750E+01  2.5020096E+01
 1.4875251E+01  2.5004341E+01
 1.4886751E+01  2.5010809E+01
 1.4898251E+01  2.5064270E+01
 1.4909751E+01  2.5104382E+01
 1.4921250E+01  2.5080894E+01
 1.4932751E+01  2.5045195E+01
 1.4944251E+01  2.5016338E+01
 1.4955750E+01  2.5000385E+01
 1.4967251E+01  2.4978374E+01
 1.4978751E+01  2.4967575E+01
 1.4990251E+01  2.4877831E+01
 1.5001751E+01  2.4878223E+01
 1.5013250E+01  2.4884825E+01
 1.5024751E+01  2.4968788E+01
 1.5036251E+01  2.4984764E+01
 1.5047750E+01  2.5014050E+01
 1.5059251E+01  2.5045298E+01
 1.5070751E+01  2.5053202E+01
 1.5082251E+01  2.5070892E+01
 1.5093751E+01  2.5134184E+01
 1.5105250E+01  2.5275946E+01
 1.5116751E+01  2.5453829E+01
 1.5128251E+01  2.5709072E+01
 1.5139750E+01  2.6164162E+01
 1.5151251E+01  2.6734123E+01
 1.5162751E+01  2.7602339E+01
 1.5174251E+01  2.8550827E+01
 1.5185751E+01  2.9183344E+01
 1.5197250E+01  2.9692291E+01
 1.5208751E+01  2.9654480E+01
 1.5220251E+01  2.9486149E+01
 1.5231750E+01  2.8597134E+01
 1.5243251E+01  2.7672075E+01
 1.5254751E+01  2.6746044E+01
 1.5266251E+01  2.5916330E+01
 1.5277751E+01  2.5461210E+01
 1.5289250E+01  2.5228558E+01
 1.5300751E+01  2.5035223E+01
 1.5312251E+01  2.4948881E+01
 1.5323750E+01  2.4820511E+01
 1.5335251E+01  2.4785841E+01
 1.5346751E+01  2.4672773E+01
 1.5358251E+01  2.4611925E+01
 1.5369751E+01  2.4605677E+01
 1.5381250E+01  2.4617264E+01
 1.5392751E+01  2.4674713E+01
 1.5404251E+01  2.4752710E+01
 1.5415751E+01  2.4753851E+01
 1.5427251E+01  2.4677687E+01
 1.5438751E+01  2.4619650E+01
 1.5450251E+01  2.4636751E+01
 1.5461751E+01  2.4695585E+01
 1.5473250E+01  2.4705557E+01
 1.5484751E+01  2.4749430E+01
 1.5496251E+01  2.4774477E+01
 1.5507751E+01  2.4799295E+01
 1.5519251E+01  2.4825665E+01
 1.5530751E+01  2.4826159E+01
 1.5542251E+01  2.4799038E+01
 1.5553751E+01  2.4729128E+01
 1.5565250E+01  2.4738403E+01
 1.5576751E+01  2.4744602E+01
 1.5588251E+01  2.4761547E+01
 1.5599751E+01  2.4705223E+01
 1.5611251E+01  2.4749836E+01
 1.5622751E+01  2.4778040E+01
 1.5634251E+01  2.4773762E+01
 1.5645751E+01  2.4696386E+01
 1.5657250E+01  2.4712341E+01
 1.5668751E+01  2.4755152E+01
 1.5680251E+01  2.4771910E+01
 1.5691751E+01  2.4779812E+01
 1.5703251E+01  2.4761166E+01
 1.5714751E+01  2.4756548E+01
 1.5726251E+01  2.4805964E+01
 1.5737751E+01  2.4788383E+01
 1.5749250E+01  2.4812155E+01
 1.5760751E+01  2.4774683E+01
 1.5772251E+01  2.4838287E+01
 1.5783751E+01  2.4789526E+01
 1.5795251E+01  2.4814995E+01
 1.5806751E+01  2.4801640E+01
 1.5818251E+01  2.4810392E+01
 1.5829751E+01  2.4753967E+01
 1.5841250E+01  2.4720221E+01
 1.5852751E+01  2.4683640E+01
 1.5864251E+01  2.4674957E+01
 1.5875751E+01  2.4717642E+01
 1.5887251E+01  2.4774944E+01
 1.5898750E+01  2.4764696E+01
 1.5910251E+01  2.4781923E+01
 1.5921751E+01  2.4808590E+01
 1.5933250E+01  2.4871454E+01
 1.5944751E+01  2.4827885E+01
 1.5956251E+01  2.4842466E+01
 1.5967751E+01  2.4768059E+01
 1.5979251E+01  2.4736851E+01
 1.5990750E+01  2.4741539E+01
 1.6002251E+01  2.4752542E+01
 1.6013750E+01  2.4814413E+01
 1.6025251E+01  2.4806320E+01
 1.6036751E+01  2.4887497E+01
 1.6048250E+01  2.4888575E+01
 1.6059752E+01  2.4910629E+01
 1.6071251E+01  2.4834557E+01
 1.6082750E+01  2.4851601E+01
 1.6094252E+01  2.4802868E+01
 1.6105751E+01  2.4874577E+01
 1.6117250E+01  2.4826294E+01
 1.6128750E+01  2.4852821E+01
 1.6140251E+01  2.4925226E+01
 1.6151751E+01  2.4955988E+01
 1.6163250E+01  2.5033440E+01
 1.6174751E+01  2.4933296E+01
 1.6186251E+01  2.5131559E+01
 1.6197750E+01  2.5125206E+01
 1.6209251E+01  2.5590916E+01
 1.6220751E+01  2.5587748E+01
 1.6232250E+01  2.6016878E+01
 1.6243752E+01  2.6034399E+01
 1.6255251E+01  2.6254900E+01
 1.6266750E+01  2.6374567E+01
 1.6278252E+01  2.6131456E+01
 1.6289751E+01  2.6162569E+01
 1.6301250E+01  2.5517479E+01
 1.6312750E+01  2.5523066E+01
 1.6324251E+01  2.5019325E+01
 1.6335751E+01  2.4979753E+01
 1.6347250E+01  2.4726522E+01
 1.6358751E+01  2.4678432E+01
 1.6370251E+01  2.4646652E+01
 1.6381750E+01  2.4665791E+01
 1.6393251E+01  2.4729309E+01
 1.6404751E+01  2.4738111E+01
 1.6416250E+01  2.4802717E+01
 1.6427752E+01  2.4789091E+01
 1.6439251E+01  2.4818953E+01
 1.6450750E+01  2.4816542E+01
 1.6462252E+01  2.4860256E+01
 1.6473751E+01  2.4860142E+01
 1.6485250E+01  2.4865271E+01
 1.6496750E+01  2.4861870E+01
 1.6508251E+01  2.4835018E+01
 1.6519751E+01  2.4781504E+01
 1.6531250E+01  2.4697695E+01
 1.6542751E+01  2.4667259E+01
 1.6554251E+01  2.4627028E+01
 1.6565750E+01  2.4607914E+01
 1.6577251E+01  2.4644575E+01
 1.6588751E+01  2.4637152E+01
 1.6600250E+01  2.4712299E+01
 1.6611752E+01  2.4667677E+01
 1.6623251E+01  2.4626137E+01
 1.6634750E+01  2.4526302E+01
 1.6646252E+01  2.4552849E+01
 1.6657751E+01  2.4623268E+01
 1.6669250E+01  2.4695786E+01
 1.6680750E+01  2.4705624E+01
 1.6692251E+01  2.4656693E+01
 1.6703751E+01  2.4606506E+01
 1.6715250E+01  2.4559156E+01
 1.6726751E+01  2.4526266E+01
 1.6738251E+01  2.4556862E+01
 1.6749750E+01  2.4610664E+01
 1.6761251E+01  2.4635019E+01
 1.6772751E+01  2.4618881E+01
 1.6784250E+01  2.4606085E+01
 1.6795752E+01  2.4628407E+01
 1.6807251E+01  2.4626556E+01
 1.6818750E+01  2.4616766E+01
 1.6830252E+01  2.4536810E+01
 1.6841751E+01  2.4465887E+01
 1.6853251E+01  2.4438549E+01
 1.6864750E+01  2.4492167E+01
 1.6876251E+01  2.4502340E+01
 1.6887751E+01  2.4489708E+01
 1.6899250E+01  2.4419252E+01
 1.6910751E+01  2.4396542E+01
 1.6922251E+01  2.4373024E+01
 1.6933750E+01  2.4382946E+01
 1.6945251E+01  2.4395681E+01
 1.6956751E+01  2.4444395E+01
 1.6968250E+01  2.4468967E+01
 1.6979752E+01  2.4468052E+01
 1.6991251E+01  2.4465679E+01
 1.7002750E+01  2.4427294E+01
 1.7014252E+01  2.4384842E+01
 1.7025751E+01  2.4354553E+01
 1.7037251E+01  2.4353319E+01
 1.7048750E+01  2.4341133E+01
 1.7060251E+01  2.4292233E+01
 1.7071751E+01  2.4294935E+01
 1.7083250E+01  2.4325857E+01
 1.7094751E+01  2.4374714E+01
 1.7106251E+01  2.4392014E+01
 1.7117750E+01  2.4355501E+01
 1.7129251E+01  2.4373363E+01
 1.7140751E+01  2.4365408E+01
 1.7152250E+01  2.4337193E+01
 1.7163752E+01  2.4264799E+01
 1.7175251E+01  2.4231859E+01
 1.7186750E+01  2.4205879E+01
 1.7198252E+01  2.4238605E+01
 1.7209751E+01  2.4272432E+01
 1.7221251E+01  2.4322208E+01
 1.7232750E+01  2.4276772E+01
 1.7244251E+01  2.4230202E+01
 1.7255751E+01  2.4108847E+01
 1.7267250E+01  2.4037062E+01
 1.7278751E+01  2.4028456E+01
 1.7290251E+01  2.4083691E+01
 1.7301750E+01  2.4104687E+01
 1.7313251E+01  2.4064308E+01
 1.7324751E+01  2.4089411E+01
 1.7336250E+01  2.4097271E+01
 1.7347752E+01  2.4081802E+01
 1.7359251E+01  2.4029367E+01
 1.7370750E+01  2.4036854E+01
 1.7382252E+01  2.4063150E+01
 1.7393751E+01  2.4064203E+01
 1.7405251E+01  2.4077072E+01
 1.7416750E+01  2.4077665E+01
 1.7428251E+01  2.4101164E+01
 1.7439751E+01  2.4202787E+01
 1.7451250E+01  2.4250193E+01
 1.7462751E+01  2.4223473E+01
 1.7474251E+01  2.4044529E+01
 1.7485750E+01  2.4011444E+01
 1.7497252E+01  2.3975458E+01
 1.7508751E+01  2.3963936E+01
 1.7520250E+01  2.3977617E+01
 1.7531752E+01  2.4026642E+01
 1.7543251E+01  2.4065987E+01
 1.7554750E+01  2.4015415E+01
 1.7566252E+01  2.4051910E+01
 1.7577751E+01  2.4046125E+01
 1.7589251E+01  2.4020319E+01
 1.7600750E+01  2.3990274E+01
 1.7612251E+01  2.3972511E+01
 1.7623751E+01  2.3956810E+01
 1.7635250E+01  2.3854248E+01
 1.7646751E+01  2.3811178E+01
 1.7658251E+01  2.3792490E+01
 1.7669750E+01  2.3827280E+01
 1.7681252E+01  2.3873230E+01
 1.7692751E+01  2.3950081E+01
 1.7704250E+01  2.3978077E+01
 1.7715752E+01  2.3989462E+01
 1.7727251E+01  2.3930992E+01
 1.7738750E+01  2.3876661E+01
 1.7750252E+01  2.3827114E+01
 1.7761751E+01  2.3873577E+01
 1.7773251E+01  2.3943626E+01
 1.7784750E+01  2.3981733E+01
 1.7796251E+01  2.4016203E+01
 1.7807751E+01  2.3972883E+01
 1.7819250E+01  2.3970984E+01
 1.7830751E+01  2.3900124E+01
 1.7842251E+01  2.3916025E+01
 1.7853750E+01  2.3864428E+01
 1.7865252E+01  2.3888998E+01
 1.7876751E+01  2.3933744E+01
 1.7888250E+01  2.3915827E+01
 1.7899752E+01  2.3882837E+01
 1.7911251E+01  2.3869619E+01
 1.7922750E+01  2.3892109E+01
 1.7934252E+01  2.3946064E+01
 1.7945751E+01  2.3999807E+01
 1.7957251E+01  2.4165918E+01
 1.7968750E+01  2.4313112E+01
 1.7980251E+01  2.4704199E+01
 1.7991751E+01  2.4935946E+01
 1.8003250E+01  2.5296373E+01
 1.8014751E+01  2.5449930E+01
 1.8026251E+01  2.5630068E+01
 1.8037750E+01  2.5738701E+01
 1.8049252E+01  2.5825962E+01
 1.8060751E+01  2.6062284E+01
 1.8072250E+01  2.6335470E+01
 1.8083752E+01  2.6843985E+01
 1.8095251E+01  2.7392097E+01
 1.8106750E+01  2.7687119E+01
 1.8118252E+01  2.7826736E+01
 1.8129751E+01  2.7655870E+01
 1.8141251E+01  2.7257498E+01
 1.8152750E+01  2.6526041E+01
 1.8164251E+01  2.5799339E+01
 1.8175751E+01  2.5217234E+01
 1.8187250E+01  2.4686619E+01
 1.8198751E+01  2.4395721E+01
 1.8210251E+01  2.4179464E+01
 1.8221750E+01  2.4058390E+01
 1.8233252E+01  2.3977924E+01
 1.8244751E+01  2.3875217E+01
 1.8256250E+01  2.3793011E+01
 1.8267752E+01  2.3728294E+01
 1.8279251E+01  2.3720236E+01
 1.8290751E+01  2.3769133E+01
 1.8302252E+01  2.3801029E+01
 1.8313751E+01  2.3827726E+01
 1.8325251E+01  2.3811966E+01
 1.8336750E+01  2.3803642E+01
 1.8348251E+01  2.3825397E+01
 1.8359751E+01  2.3839956E+01
 1.8371250E+01  2.3866579E+01
 1.8382751E+01  2.3823620E+01
 1.8394251E+01  2.3875719E+01
 1.8405750E+01  2.3903679E+01
 1.8417252E+01  2.3978218E+01
 1.8428751E+01  2.3898157E+01
 1.8440250E+01  2.3850092E+01
 1.8451752E+01  2.3746290E+01
 1.8463251E+01  2.3795563E+01
 1.8474751E+01  2.3848328E+01
 1.8486252E+01  2.3890173E+01
 1.8497751E+01  2.3866095E+01
 1.8509251E+01  2.3808422E+01
 1.8520750E+01  2.3720354E+01
 1.8532251E+01  2.3673901E+01
 1.8543751E+01  2.3632719E+01
 1.8555250E+01  2.3680937E+01
 1.8566751E+01  2.3649338E+01
 1.8578251E+01  2.3686914E+01
 1.8589750E+01  2.3690157E+01
 1.8601252E+01  2.3699989E+01
 1.8612751E+01  2.3638651E+01
 1.8624250E+01  2.3600559E+01
 1.8635752E+01  2.3595633E+01
 1.8647251E+01  2.3584278E+01
 1.8658751E+01  2.3547743E+01
 1.8670252E+01  2.3534885E+01
 1.8681751E+01  2.3549767E+01
 1.8693251E+01  2.3606577E+01
 1.8704750E+01  2.3627928E+01
 1.8716251E+01  2.3628237E+01
 1.8727751E+01  2.3620710E+01
 1.8739250E+01  2.3595840E+01
 1.8750751E+01  2.3571550E+01
 1.8762251E+01  2.3598322E+01
 1.8773750E+01  2.3612623E+01
 1.8785252E+01  2.3693691E+01
 1.8796751E+01  2.3731710E+01
 1.8808250E+01  2.3736626E+01
 1.8819752E+01  2.3666990E+01
 1.8831251E+01  2.3623436E+01
 1.8842751E+01  2.3616282E+01
 1.8854252E+01  2.3621111E+01
 1.8865751E+01  2.3634077E+01
 1.8877251E+01  2.3638805E+01
 1.8888750E+01  2.3656656E+01
 1.8900251E+01  2.3622353E+01
 1.8911751E+01  2.3596331E+01
 1.8923250E+01  2.3600389E+01
 1.8934752E+01  2.3658121E+01
 1.8946251E+01  2.3728607E+01
 1.8957750E+01  2.3720556E+01
 1.8969252E+01  2.3647003E+01
 1.8980751E+01  2.3598101E+01
 1.8992250E+01  2.3599768E+01
 1.9003752E+01  2.3658934E+01
 1.9015251E+01  2.3663792E+01
 1.9026751E+01  2.3701803E+01
 1.9038252E+01  2.3694143E+01
 1.9049751E+01  2.3697651E+01
 1.9061251E+01  2.3666508E+01
 1.9072750E+01  2.3647526E+01
 1.9084251E+01  2.3636194E+01
 1.9095751E+01  2.3631905E+01
 1.9107250E+01  2.3637709E+01
 1.9118752E+01  2.3639225E+01
 1.9130251E+01  2.3674837E+01
 1.9141750E+01  2.3699923E+01
 1.9153252E+01  2.3735416E+01
 1.9164751E+01  2.3741144E+01
 1.9176250E+01  2.3718224E+01
 1.9187752E+01  2.3733950E+01
 1.9199251E+01  2.3752424E+01
 1.9210751E+01  2.3754068E+01
 1.9222252E+01  2.3743990E+01
 1.9233751E+01  2.3731983E+01
 1.9245251E+01  2.3737814E+01
 1.9256750E+01  2.3733023E+01
 1.9268251E+01  2.3733454E+01
 1.9279751E+01  2.3758568E+01
 1.9291250E+01  2.3768520E+01
 1.9302752E+01  2.3776970E+01
 1.9314251E+01  2.3753208E+01
 1.9325750E+01  2.3768559E+01
 1.9337252E+01  2.3763266E+01
 1.9348751E+01  2.3754967E+01
 1.9360250E+01  2.3753641E+01
 1.9371752E+01  2.3736082E+01
 1.9383251E+01  2.3697529E+01
 1.9394751E+01  2.3668966E+01
 1.9406250E+01  2.3642696E+01
 1.9417751E+01  2.3668388E+01
 1.9429251E+01  2.3696760E+01
 1.9440750E+01  2.3743284E+01
 1.9452251E+01  2.3759953E+01
 1.9463751E+01  2.3787958E+01
 1.9475250E+01  2.3827978E+01
 1.9486752E+01  2.3846003E+01
 1.9498251E+01  2.3854023E+01
 1.9509750E+01  2.3854265E+01
 1.9521252E+01  2.3918921E+01
 1.9532751E+01  2.3961924E+01
 1.9544250E+01  2.4115648E+01
 1.9555752E+01  2.4157368E+01
 1.9567251E+01  2.4214388E+01
 1.9578751E+01  2.4213955E+01
 1.9590250E+01  2.4220968E+01
 1.9601751E+01  2.4220451E+01
 1.9613251E+01  2.4331768E+01
 1.9624750E+01  2.4487061E+01
 1.9636251E+01  2.4867743E+01
 1.9647751E+01  2.5243839E+01
 1.9659250E+01  2.6178490E+01
 1.9670752E+01  2.7299105E+01
 1.9682251E+01  2.8418848E+01
 1.9693750E+01  3.0304592E+01
 1.9705252E+01  3.0628298E+01
 1.9716751E+01  3.1550385E+01
 1.9728251E+01  3.0209059E+01
 1.9739752E+01  2.9485697E+01
 1.9751251E+01  2.7948744E+01
 1.9762751E+01  2.7047678E+01
 1.9774250E+01  2.6354937E+01
 1.9785751E+01  2.5907299E+01
 1.9797251E+01  2.5975634E+01
 1.9808750E+01  2.6180086E+01
 1.9820251E+01  2.6692083E+01
 1.9831751E+01  2.7746700E+01
 1.9843250E+01  2.8157372E+01
 1.9854752E+01  2.9044823E+01
 1.9866251E+01  2.8852270E+01
 1.9877750E+01  2.8609976E+01
 1.9889252E+01  2.7348421E+01
 1.9900751E+01  2.6674770E+01
 1.9912251E+01  2.5993622E+01
 1.9923752E+01  2.5173132E+01
 1.9935251E+01  2.4889561E+01
 1.9946751E+01  2.4514250E+01
 1.9958250E+01  2.4396515E+01
 1.9969751E+01  2.4343410E+01
 1.9981251E+01  2.4256124E+01
 1.9992750E+01  2.4194366E+01
 2.0004251E+01  2.4167435E+01
 2.0015751E+01  2.4103998E+01
 2.0027250E+01  2.4049385E+01
 2.0038752E+01  2.4004503E+01
 2.0050251E+01  2.4014082E+01
 2.0061750E+01  2.3948496E+01
 2.0073252E+01  2.3888855E+01
 2.0084751E+01  2.3878548E+01
 2.0096251E+01  2.3929577E+01
 2.0107752E+01  2.3979403E+01
 2.0119251E+01  2.4002905E+01
 2.0130751E+01  2.3974642E+01
 2.0142250E+01  2.3941238E+01
 2.0153751E+01  2.3928379E+01
 2.0165251E+01  2.3909925E+01
 2.0176750E+01  2.3913689E+01
 2.0188251E+01  2.3917595E+01
 2.0199751E+01  2.3960781E+01
 2.0211250E+01  2.3947441E+01
 2.0222752E+01  2.3964016E+01
 2.0234251E+01  2.3950911E+01
 2.0245750E+01  2.3890572E+01
 2.0257252E+01  2.3815615E+01
 2.0268751E+01  2.3793768E+01
 2.0280251E+01  2.3808458E+01
 2.0291752E+01  2.3835686E+01
 2.0303251E+01  2.3829433E+01
 2.0314751E+01  2.3828550E+01
 2.0326250E+01  2.3816074E+01
 2.0337751E+01  2.3806370E+01
 2.0349251E+01  2.3812662E+01
 2.0360750E+01  2.3801031E+01
 2.0372252E+01  2.3781149E+01
 2.0383751E+01  2.3730093E+01
 2.0395250E+01  2.3730154E+01
 2.0406752E+01  2.3739046E+01
 2.0418251E+01  2.3776937E+01
 2.0429750E+01  2.3797441E+01
 2.0441252E+01  2.3810514E+01
 2.0452751E+01  2.3823902E+01
 2.0464251E+01  2.3834352E+01
 2.0475752E+01  2.3875053E+01
 2.0487251E+01  2.3906549E+01
 2.0498751E+01  2.3944902E+01
 2.0510250E+01  2.3907021E+01
 2.0521751E+01  2.3895529E+01
 2.0533251E+01  2.3893444E+01
 2.0544750E+01  2.3936493E+01
 2.0556252E+01  2.3999117E+01
 2.0567751E+01  2.4049175E+01
 2.0579250E+01  2.4047483E+01
 2.0590752E+01  2.4038559E+01
 2.0602251E+01  2.4032520E+01
 2.0613750E+01  2.4024452E+01
 2.0625252E+01  2.4016962E+01
 2.0636751E+01  2.4053701E+01
 2.0648251E+01  2.4084473E+01
 2.0659752E+01  2.4188698E+01
 2.0671251E+01  2.4290762E+01
 2.0682751E+01  2.4422806E+01
 2.0694250E+01  2.4559978E+01
 2.0705751E+01  2.4856857E+01
 2.0717251E+01  2.5112669E+01
 2.0728750E+01  2.5631342E+01
 2.0740252E+01  2.6162374E+01
 2.0751751E+01  2.6597851E+01
 2.0763250E+01  2.7041162E+01
 2.0774752E+01  2.6660898E+01
 2.0786251E+01  2.6494930E+01
 2.0797750E+01  2.5763260E+01
 2.0809252E+01  2.5429743E+01
 2.0820751E+01  2.5003065E+01
 2.0832251E+01  2.4682934E+01
 2.0843752E+01  2.4486219E+01
 2.0855251E+01  2.4349627E+01
 2.0866751E+01  2.4237862E+01
 2.0878250E+01  2.4182867E+01
 2.0889751E+01  2.4128939E+01
 2.0901251E+01  2.4146980E+01
 2.0912750E+01  2.4096489E+01
 2.0924252E+01  2.4111050E+01
 2.0935751E+01  2.4118956E+01
 2.0947250E+01  2.4151999E+01
 2.0958752E+01  2.4111740E+01
 2.0970251E+01  2.4077934E+01
 2.0981750E+01  2.4036167E+01
 2.0993252E+01  2.4025846E+01
 2.1004751E+01  2.4008066E+01
 2.1016251E+01  2.4010899E+01
 2.1027752E+01  2.3991980E+01
 2.1039251E+01  2.4033075E+01
 2.1050751E+01  2.4044485E+01
 2.1062250E+01  2.4095932E+01
 2.1073751E+01  2.4176695E+01
 2.1085251E+01  2.4134541E+01
 2.1096750E+01  2.4126644E+01
 2.1108252E+01  2.4070614E+01
 2.1119751E+01  2.4082445E+01
 2.1131250E+01  2.4074844E+01
 2.1142752E+01  2.4042837E+01
 2.1154251E+01  2.3971191E+01
 2.1165751E+01  2.3897778E+01
 2.1177252E+01  2.3922167E+01
 2.1188751E+01  2.3926777E+01
 2.1200251E+01  2.3957096E+01
 2.1211752E+01  2.3958912E+01
 2.1223251E+01  2.3968391E+01
 2.1234751E+01  2.3999445E+01
 2.1246250E+01  2.4075180E+01
 2.1257751E+01  2.4077665E+01
 2.1269251E+01  2.4062141E+01
 2.1280750E+01  2.4055494E+01
 2.1292252E+01  2.4065729E+01
 2.1303751E+01  2.4043999E+01
 2.1315250E+01  2.4012394E+01
 2.1326752E+01  2.4011829E+01
 2.1338251E+01  2.4039162E+01
 2.1349751E+01  2.4052912E+01
 2.1361252E+01  2.4047375E+01
 2.1372751E+01  2.3964985E+01
 2.1384251E+01  2.3921949E+01
 2.1395752E+01  2.3953295E+01
 2.1407251E+01  2.4019222E+01
 2.1418751E+01  2.4047714E+01
 2.1430250E+01  2.4050533E+01
 2.1441751E+01  2.4027359E+01
 2.1453251E+01  2.4062880E+01
 2.1464750E+01  2.4087667E+01
 2.1476252E+01  2.4085421E+01
 2.1487751E+01  2.4105982E+01
 2.1499250E+01  2.4098824E+01
 2.1510752E+01  2.4116724E+01
 2.1522251E+01  2.4105413E+01
 2.1533751E+01  2.4110067E+01
 2.1545252E+01  2.4107023E+01
 2.1556751E+01  2.4099062E+01
 2.1568251E+01  2.4080400E+01
 2.1579752E+01  2.4118599E+01
 2.1591251E+01  2.4178778E+01
 2.1602751E+01  2.4225790E+01
 2.1614250E+01  2.4229883E+01
 2.1625751E+01  2.4220697E+01
 2.1637251E+01  2.4228912E+01
 2.1648750E+01  2.4194220E+01
 2.1660252E+01  2.4207176E+01
 2.1671751E+01  2.4203718E+01
 2.1683250E+01  2.4201008E+01
 2.1694752E+01  2.4161539E+01
 2.1706251E+01  2.4153399E+01
 2.1717751E+01  2.4147547E+01
 2.1729252E+01  2.4137039E+01
 2.1740751E+01  2.4179110E+01
 2.1752251E+01  2.4200035E+01
 2.1763752E+01  2.4217983E+01
 2.1775251E+01  2.4205391E+01
 2.1786751E+01  2.4225348E+01
 2.1798250E+01  2.4220484E+01
 2.1809752E+01  2.4221272E+01
 2.1821251E+01  2.4207232E+01
 2.1832750E+01  2.4188501E+01
 2.1844252E+01  2.4199503E+01
 2.1855751E+01  2.4253592E+01
 2.1867250E+01  2.4295639E+01
 2.1878752E+01  2.4363297E+01
 2.1890251E+01  2.4324009E+01
 2.1901751E+01  2.4313931E+01
 2.1913252E+01  2.4261267E+01
 2.1924751E+01  2.4254248E+01
 2.1936251E+01  2.4251282E+01
 2.1947752E+01  2.4268337E+01
 2.1959251E+01  2.4299273E+01
 2.1970751E+01  2.4307579E+01
 2.1982250E+01  2.4282301E+01
 2.1993752E+01  2.4265497E+01
 2.2005251E+01  2.4268850E+01
 2.2016750E+01  2.4373743E+01
 2.2028252E+01  2.4440117E+01
 2.2039751E+01  2.4444359E+01
 2.2051250E+01  2.4398273E+01
 2.2062752E+01  2.4333439E+01
 2.2074251E+01  2.4342117E+01
 2.2085751E+01  2.4349485E+01
 2.2097252E+01  2.4392464E+01
 2.2108751E+01  2.4424736E+01
 2.2120251E+01  2.4480379E+01
 2.2131752E+01  2.4497437E+01
 2.2143251E+01  2.4499323E+01
 2.2154751E+01  2.4516935E+01
 2.2166250E+01  2.4542559E+01
 2.2177752E+01  2.4527678E+01
 2.2189251E+01  2.4541868E+01
 2.2200750E+01  2.4562996E+01
 2.2212252E+01  2.4613955E+01
 2.2223751E+01  2.4627403E+01
 2.2235250E+01  2.4655582E+01
 2.2246752E+01  2.4643036E+01
 2.2258251E+01  2.4644045E+01
 2.2269751E+01  2.4632391E+01
 2.2281252E+01  2.4684114E+01
 2.2292751E+01  2.4721493E+01
 2.2304251E+01  2.4820652E+01
 2.2315752E+01  2.4828335E+01
 2.2327251E+01  2.4814581E+01
 2.2338751E+01  2.4778133E+01
 2.2350250E+01  2.4790356E+01
 2.2361752E+01  2.4763300E+01
 2.2373251E+01  2.4733192E+01
 2.2384750E+01  2.4652369E+01
 2.2396252E+01  2.4622225E+01
 2.2407751E+01  2.4580833E+01
 2.2419250E+01  2.4602709E+01
 2.2430752E+01  2.4677284E+01
 2.2442251E+01  2.4746767E+01
 2.2453751E+01  2.4758385E+01
 2.2465252E+01  2.4742947E+01
 2.2476751E+01  2.4741228E+01
 2.2488251E+01  2.4781622E+01
 2.2499752E+01  2.4856686E+01
 2.2511251E+01  2.4884548E+01
 2.2522751E+01  2.4938749E+01
 2.2534250E+01  2.4979012E+01
 2.2545752E+01  2.5015331E+01
 2.2557251E+01  2.5000702E+01
 2.2568750E+01  2.4982090E+01
 2.2580252E+01  2.5005846E+01
 2.2591751E+01  2.4969330E+01
 2.2603251E+01  2.4983150E+01
 2.2614752E+01  2.5003773E+01
 2.2626251E+01  2.5078489E+01
 2.2637751E+01  2.5071442E+01
 2.2649252E+01  2.5146088E+01
 2.2660751E+01  2.5145840E+01
 2.2672251E+01  2.5200489E+01
 2.2683752E+01  2.5219959E+01
 2.2695251E+01  2.5274965E+01
 2.2706751E+01  2.5276768E+01
 2.2718250E+01  2.5274776E+01
 2.2729752E+01  2.5301661E+01
 2.2741251E+01  2.5345528E+01
 2.2752750E+01  2.5435205E+01
 2.2764252E+01  2.5490864E+01
 2.2775751E+01  2.5604937E+01
 2.2787251E+01  2.5727060E+01
 2.2798752E+01  2.5929558E+01
 2.2810251E+01  2.6201014E+01
 2.2821751E+01  2.6076197E+01
 2.2833252E+01  2.5958109E+01
 2.2844751E+01  2.5701292E+01
 2.2856251E+01  2.5744823E+01
 2.2867750E+01  2.5795105E+01
 2.2879251E+01  2.5830929E+01
 2.2890751E+01  2.5882719E+01
 2.2902250E+01  2.5917027E+01
 2.2913752E+01  2.6063234E+01
 2.2925251E+01  2.6188631E+01
 2.2936750E+01  2.6238823E+01
 2.2948252E+01  2.6265875E+01
 2.2959751E+01  2.6260593E+01
 2.2971251E+01  2.6340395E+01
 2.2982752E+01  2.6410095E+01
 2.2994251E+01  2.6502728E+01
