F:\20151113_APS_34IDE\\Brian\Particle1\OCV\Data_0079.tif
2-Theta Angle (Degrees)
Intensity
       2000
 5.7500005E-03  0.0000000E+00
 1.7250001E-02  0.0000000E+00
 2.8750001E-02  0.0000000E+00
 4.0250003E-02  0.0000000E+00
 5.1750004E-02  0.0000000E+00
 6.3250005E-02  0.0000000E+00
 7.4750006E-02  0.0000000E+00
 8.6250007E-02  0.0000000E+00
 9.7750008E-02  0.0000000E+00
 1.0925001E-01  0.0000000E+00
 1.2075000E-01  0.0000000E+00
 1.3225001E-01  0.0000000E+00
 1.4375001E-01  0.0000000E+00
 1.5525001E-01  0.0000000E+00
 1.6675001E-01  0.0000000E+00
 1.7825001E-01  0.0000000E+00
 1.8975002E-01  0.0000000E+00
 2.0125002E-01  0.0000000E+00
 2.1275002E-01  0.0000000E+00
 2.2425000E-01  0.0000000E+00
 2.3575000E-01  0.0000000E+00
 2.4725001E-01  0.0000000E+00
 2.5875002E-01  0.0000000E+00
 2.7025002E-01  0.0000000E+00
 2.8175002E-01  0.0000000E+00
 2.9325002E-01  0.0000000E+00
 3.0475003E-01  0.0000000E+00
 3.1625003E-01  0.0000000E+00
 3.2775003E-01  0.0000000E+00
 3.3925003E-01  0.0000000E+00
 3.5075003E-01  0.0000000E+00
 3.6225003E-01  0.0000000E+00
 3.7375003E-01  0.0000000E+00
 3.8525003E-01  0.0000000E+00
 3.9675003E-01  0.0000000E+00
 4.0825003E-01  0.0000000E+00
 4.1975003E-01  0.0000000E+00
 4.3125004E-01  0.0000000E+00
 4.4275001E-01  0.0000000E+00
 4.5425001E-01  0.0000000E+00
 4.6575001E-01  0.0000000E+00
 4.7725001E-01  0.0000000E+00
 4.8875001E-01  0.0000000E+00
 5.0025004E-01  0.0000000E+00
 5.1175004E-01  0.0000000E+00
 5.2325004E-01  0.0000000E+00
 5.3475004E-01  0.0000000E+00
 5.4625005E-01  0.0000000E+00
 5.5775005E-01  0.0000000E+00
 5.6925005E-01  0.0000000E+00
 5.8075005E-01  0.0000000E+00
 5.9225005E-01  0.0000000E+00
 6.0375005E-01  0.0000000E+00
 6.1525005E-01  0.0000000E+00
 6.2675005E-01  0.0000000E+00
 6.3825005E-01  0.0000000E+00
 6.4975005E-01  0.0000000E+00
 6.6125005E-01  0.0000000E+00
 6.7275006E-01  0.0000000E+00
 6.8425006E-01  0.0000000E+00
 6.9575006E-01  0.0000000E+00
 7.0725006E-01  0.0000000E+00
 7.1875006E-01  0.0000000E+00
 7.3025006E-01  0.0000000E+00
 7.4175006E-01  0.0000000E+00
 7.5325006E-01  0.0000000E+00
 7.6475006E-01  0.0000000E+00
 7.7625006E-01  0.0000000E+00
 7.8775007E-01  0.0000000E+00
 7.9925007E-01  0.0000000E+00
 8.1075007E-01  0.0000000E+00
 8.2225007E-01  0.0000000E+00
 8.3375007E-01  0.0000000E+00
 8.4525007E-01  0.0000000E+00
 8.5675007E-01  0.0000000E+00
 8.6825007E-01  0.0000000E+00
 8.7975001E-01  0.0000000E+00
 8.9125001E-01  0.0000000E+00
 9.0275002E-01  0.0000000E+00
 9.1425002E-01  0.0000000E+00
 9.2575002E-01  0.0000000E+00
 9.3725002E-01  0.0000000E+00
 9.4875002E-01  0.0000000E+00
 9.6025002E-01  0.0000000E+00
 9.7175002E-01  0.0000000E+00
 9.8325002E-01  0.0000000E+00
 9.9475002E-01  0.0000000E+00
 1.0062500E+00  0.0000000E+00
 1.0177500E+00  0.0000000E+00
 1.0292500E+00  0.0000000E+00
 1.0407500E+00  0.0000000E+00
 1.0522500E+00  0.0000000E+00
 1.0637500E+00  0.0000000E+00
 1.0752500E+00  0.0000000E+00
 1.0867500E+00  0.0000000E+00
 1.0982500E+00  0.0000000E+00
 1.1097500E+00  0.0000000E+00
 1.1212500E+00  0.0000000E+00
 1.1327500E+00  0.0000000E+00
 1.1442500E+00  0.0000000E+00
 1.1557500E+00  0.0000000E+00
 1.1672500E+00  0.0000000E+00
 1.1787500E+00  0.0000000E+00
 1.1902500E+00  0.0000000E+00
 1.2017500E+00  0.0000000E+00
 1.2132500E+00  0.0000000E+00
 1.2247500E+00  0.0000000E+00
 1.2362500E+00  0.0000000E+00
 1.2477500E+00  0.0000000E+00
 1.2592500E+00  0.0000000E+00
 1.2707500E+00  0.0000000E+00
 1.2822500E+00  0.0000000E+00
 1.2937500E+00  0.0000000E+00
 1.3052500E+00  0.0000000E+00
 1.3167500E+00  0.0000000E+00
 1.3282501E+00  0.0000000E+00
 1.3397501E+00  0.0000000E+00
 1.3512501E+00  0.0000000E+00
 1.3627501E+00  0.0000000E+00
 1.3742501E+00  0.0000000E+00
 1.3857501E+00  0.0000000E+00
 1.3972501E+00  0.0000000E+00
 1.4087501E+00  0.0000000E+00
 1.4202501E+00  0.0000000E+00
 1.4317501E+00  0.0000000E+00
 1.4432501E+00  0.0000000E+00
 1.4547501E+00  0.0000000E+00
 1.4662501E+00  0.0000000E+00
 1.4777501E+00  0.0000000E+00
 1.4892501E+00  0.0000000E+00
 1.5007501E+00  0.0000000E+00
 1.5122501E+00  0.0000000E+00
 1.5237501E+00  0.0000000E+00
 1.5352501E+00  0.0000000E+00
 1.5467501E+00  0.0000000E+00
 1.5582501E+00  0.0000000E+00
 1.5697501E+00  0.0000000E+00
 1.5812501E+00  0.0000000E+00
 1.5927501E+00  0.0000000E+00
 1.6042501E+00  0.0000000E+00
 1.6157501E+00  0.0000000E+00
 1.6272501E+00  0.0000000E+00
 1.6387501E+00  0.0000000E+00
 1.6502501E+00  0.0000000E+00
 1.6617501E+00  0.0000000E+00
 1.6732501E+00  0.0000000E+00
 1.6847501E+00  0.0000000E+00
 1.6962501E+00  0.0000000E+00
 1.7077501E+00  0.0000000E+00
 1.7192501E+00  0.0000000E+00
 1.7307501E+00  0.0000000E+00
 1.7422501E+00  0.0000000E+00
 1.7537501E+00  0.0000000E+00
 1.7652501E+00  0.0000000E+00
 1.7767501E+00  0.0000000E+00
 1.7882501E+00  0.0000000E+00
 1.7997501E+00  0.0000000E+00
 1.8112501E+00  0.0000000E+00
 1.8227501E+00  0.0000000E+00
 1.8342501E+00  0.0000000E+00
 1.8457501E+00  0.0000000E+00
 1.8572501E+00  0.0000000E+00
 1.8687501E+00  0.0000000E+00
 1.8802501E+00  0.0000000E+00
 1.8917501E+00  0.0000000E+00
 1.9032501E+00  0.0000000E+00
 1.9147501E+00  0.0000000E+00
 1.9262501E+00  0.0000000E+00
 1.9377501E+00  0.0000000E+00
 1.9492501E+00  0.0000000E+00
 1.9607501E+00  0.0000000E+00
 1.9722501E+00  0.0000000E+00
 1.9837501E+00  0.0000000E+00
 1.9952501E+00  0.0000000E+00
 2.0067501E+00  0.0000000E+00
 2.0182500E+00  0.0000000E+00
 2.0297501E+00  0.0000000E+00
 2.0412500E+00  0.0000000E+00
 2.0527501E+00  0.0000000E+00
 2.0642500E+00  0.0000000E+00
 2.0757501E+00  0.0000000E+00
 2.0872500E+00  0.0000000E+00
 2.0987501E+00  0.0000000E+00
 2.1102500E+00  0.0000000E+00
 2.1217501E+00  0.0000000E+00
 2.1332500E+00  0.0000000E+00
 2.1447501E+00  0.0000000E+00
 2.1562500E+00  0.0000000E+00
 2.1677501E+00  0.0000000E+00
 2.1792500E+00  0.0000000E+00
 2.1907501E+00  0.0000000E+00
 2.2022500E+00  0.0000000E+00
 2.2137501E+00  0.0000000E+00
 2.2252500E+00  0.0000000E+00
 2.2367501E+00  0.0000000E+00
 2.2482500E+00  0.0000000E+00
 2.2597501E+00  0.0000000E+00
 2.2712500E+00  0.0000000E+00
 2.2827501E+00  0.0000000E+00
 2.2942500E+00  0.0000000E+00
 2.3057501E+00  0.0000000E+00
 2.3172500E+00  0.0000000E+00
 2.3287501E+00  0.0000000E+00
 2.3402500E+00  0.0000000E+00
 2.3517501E+00  0.0000000E+00
 2.3632500E+00  0.0000000E+00
 2.3747501E+00  0.0000000E+00
 2.3862500E+00  0.0000000E+00
 2.3977501E+00  0.0000000E+00
 2.4092500E+00  0.0000000E+00
 2.4207501E+00  0.0000000E+00
 2.4322500E+00  0.0000000E+00
 2.4437501E+00  0.0000000E+00
 2.4552500E+00  0.0000000E+00
 2.4667501E+00  0.0000000E+00
 2.4782500E+00  0.0000000E+00
 2.4897501E+00  0.0000000E+00
 2.5012500E+00  0.0000000E+00
 2.5127501E+00  0.0000000E+00
 2.5242500E+00  0.0000000E+00
 2.5357502E+00  0.0000000E+00
 2.5472500E+00  0.0000000E+00
 2.5587502E+00  0.0000000E+00
 2.5702500E+00  0.0000000E+00
 2.5817502E+00  0.0000000E+00
 2.5932500E+00  0.0000000E+00
 2.6047502E+00  0.0000000E+00
 2.6162500E+00  0.0000000E+00
 2.6277502E+00  0.0000000E+00
 2.6392500E+00  0.0000000E+00
 2.6507502E+00  0.0000000E+00
 2.6622500E+00  0.0000000E+00
 2.6737502E+00  0.0000000E+00
 2.6852500E+00  0.0000000E+00
 2.6967502E+00  0.0000000E+00
 2.7082500E+00  0.0000000E+00
 2.7197502E+00  0.0000000E+00
 2.7312500E+00  0.0000000E+00
 2.7427502E+00  0.0000000E+00
 2.7542500E+00  0.0000000E+00
 2.7657502E+00  0.0000000E+00
 2.7772501E+00  0.0000000E+00
 2.7887502E+00  0.0000000E+00
 2.8002501E+00  0.0000000E+00
 2.8117502E+00  0.0000000E+00
 2.8232501E+00  3.1714300E+01
 2.8347502E+00  3.0896214E+01
 2.8462501E+00  3.1454325E+01
 2.8577502E+00  3.2700985E+01
 2.8692501E+00  3.4034958E+01
 2.8807502E+00  3.5283730E+01
 2.8922501E+00  3.5856567E+01
 2.9037502E+00  3.6013042E+01
 2.9152501E+00  3.6048866E+01
 2.9267502E+00  3.5985371E+01
 2.9382501E+00  3.6059120E+01
 2.9497502E+00  3.6116467E+01
 2.9612501E+00  3.6212654E+01
 2.9727502E+00  3.6131294E+01
 2.9842501E+00  3.6057323E+01
 2.9957502E+00  3.5907291E+01
 3.0072501E+00  3.5949562E+01
 3.0187502E+00  3.5967335E+01
 3.0302501E+00  3.6154064E+01
 3.0417502E+00  3.5994232E+01
 3.0532501E+00  3.5749550E+01
 3.0647502E+00  3.5457680E+01
 3.0762501E+00  3.5458954E+01
 3.0877502E+00  3.5457066E+01
 3.0992501E+00  3.5490372E+01
 3.1107502E+00  3.4973488E+01
 3.1222501E+00  3.4956341E+01
 3.1337502E+00  3.5128639E+01
 3.1452501E+00  3.5664253E+01
 3.1567502E+00  3.5775799E+01
 3.1682501E+00  3.5406624E+01
 3.1797502E+00  3.5315819E+01
 3.1912501E+00  3.5261715E+01
 3.2027502E+00  3.5455959E+01
 3.2142501E+00  3.5756001E+01
 3.2257502E+00  3.6096127E+01
 3.2372501E+00  3.6485603E+01
 3.2487502E+00  3.6616310E+01
 3.2602501E+00  3.6653671E+01
 3.2717502E+00  3.6265705E+01
 3.2832501E+00  3.6181587E+01
 3.2947502E+00  3.5836163E+01
 3.3062501E+00  3.6045444E+01
 3.3177502E+00  3.5945183E+01
 3.3292501E+00  3.5742661E+01
 3.3407502E+00  3.5578247E+01
 3.3522501E+00  3.5393631E+01
 3.3637502E+00  3.5660671E+01
 3.3752501E+00  3.6077198E+01
 3.3867502E+00  3.6215527E+01
 3.3982501E+00  3.6065475E+01
 3.4097502E+00  3.5490932E+01
 3.4212501E+00  3.4937378E+01
 3.4327502E+00  3.4554287E+01
 3.4442501E+00  3.4304581E+01
 3.4557502E+00  3.4052097E+01
 3.4672501E+00  3.3982655E+01
 3.4787502E+00  3.3948483E+01
 3.4902501E+00  3.4065174E+01
 3.5017502E+00  3.3883183E+01
 3.5132501E+00  3.4002804E+01
 3.5247502E+00  3.4071278E+01
 3.5362501E+00  3.4079567E+01
 3.5477502E+00  3.4221230E+01
 3.5592501E+00  3.4513020E+01
 3.5707502E+00  3.4590672E+01
 3.5822501E+00  3.4320789E+01
 3.5937502E+00  3.4120865E+01
 3.6052501E+00  3.4072697E+01
 3.6167502E+00  3.4128227E+01
 3.6282501E+00  3.3922253E+01
 3.6397502E+00  3.3561054E+01
 3.6512501E+00  3.3367950E+01
 3.6627502E+00  3.3045135E+01
 3.6742501E+00  3.3056091E+01
 3.6857502E+00  3.3079037E+01
 3.6972501E+00  3.2979893E+01
 3.7087502E+00  3.2882439E+01
 3.7202501E+00  3.2901958E+01
 3.7317502E+00  3.2825073E+01
 3.7432501E+00  3.2995632E+01
 3.7547503E+00  3.2755863E+01
 3.7662501E+00  3.2933052E+01
 3.7777503E+00  3.2813667E+01
 3.7892501E+00  3.3145477E+01
 3.8007503E+00  3.3279072E+01
 3.8122501E+00  3.3628994E+01
 3.8237503E+00  3.3622013E+01
 3.8352501E+00  3.3547588E+01
 3.8467503E+00  3.3326122E+01
 3.8582501E+00  3.3339027E+01
 3.8697503E+00  3.3243126E+01
 3.8812501E+00  3.3123959E+01
 3.8927503E+00  3.2833099E+01
 3.9042501E+00  3.2608227E+01
 3.9157503E+00  3.2462448E+01
 3.9272501E+00  3.2277718E+01
 3.9387503E+00  3.2176678E+01
 3.9502501E+00  3.2369801E+01
 3.9617503E+00  3.2545486E+01
 3.9732502E+00  3.2835941E+01
 3.9847503E+00  3.2755733E+01
 3.9962502E+00  3.2734104E+01
 4.0077500E+00  3.2564037E+01
 4.0192504E+00  3.2434284E+01
 4.0307503E+00  3.2279011E+01
 4.0422502E+00  3.2238640E+01
 4.0537500E+00  3.2432125E+01
 4.0652504E+00  3.2389538E+01
 4.0767503E+00  3.2388443E+01
 4.0882502E+00  3.2341236E+01
 4.0997500E+00  3.2394821E+01
 4.1112504E+00  3.2404579E+01
 4.1227503E+00  3.2398388E+01
 4.1342502E+00  3.2469955E+01
 4.1457500E+00  3.2671494E+01
 4.1572504E+00  3.2880131E+01
 4.1687503E+00  3.3207993E+01
 4.1802502E+00  3.3161514E+01
 4.1917500E+00  3.3146786E+01
 4.2032504E+00  3.3091396E+01
 4.2147503E+00  3.3024479E+01
 4.2262502E+00  3.2910973E+01
 4.2377501E+00  3.2645485E+01
 4.2492504E+00  3.2500874E+01
 4.2607503E+00  3.2395069E+01
 4.2722502E+00  3.2365658E+01
 4.2837501E+00  3.2398384E+01
 4.2952504E+00  3.2433537E+01
 4.3067503E+00  3.2506409E+01
 4.3182502E+00  3.2395855E+01
 4.3297501E+00  3.2436882E+01
 4.3412504E+00  3.2381878E+01
 4.3527503E+00  3.2532475E+01
 4.3642502E+00  3.2551800E+01
 4.3757501E+00  3.2716251E+01
 4.3872504E+00  3.2707897E+01
 4.3987503E+00  3.2737968E+01
 4.4102502E+00  3.2574100E+01
 4.4217501E+00  3.2526657E+01
 4.4332504E+00  3.2549374E+01
 4.4447503E+00  3.2443733E+01
 4.4562502E+00  3.2524036E+01
 4.4677501E+00  3.2466179E+01
 4.4792504E+00  3.2741802E+01
 4.4907503E+00  3.2584496E+01
 4.5022502E+00  3.2716949E+01
 4.5137501E+00  3.2532085E+01
 4.5252504E+00  3.2644432E+01
 4.5367503E+00  3.2501011E+01
 4.5482502E+00  3.2584423E+01
 4.5597501E+00  3.2560745E+01
 4.5712504E+00  3.2773563E+01
 4.5827503E+00  3.2938622E+01
 4.5942502E+00  3.3076813E+01
 4.6057501E+00  3.3167679E+01
 4.6172504E+00  3.3117611E+01
 4.6287503E+00  3.3076427E+01
 4.6402502E+00  3.3035717E+01
 4.6517501E+00  3.2971664E+01
 4.6632504E+00  3.3015255E+01
 4.6747503E+00  3.2894554E+01
 4.6862502E+00  3.2865208E+01
 4.6977501E+00  3.2868382E+01
 4.7092505E+00  3.2797527E+01
 4.7207503E+00  3.2853123E+01
 4.7322502E+00  3.2760635E+01
 4.7437501E+00  3.2853458E+01
 4.7552505E+00  3.2887989E+01
 4.7667503E+00  3.2994347E+01
 4.7782502E+00  3.2997902E+01
 4.7897501E+00  3.2921078E+01
 4.8012505E+00  3.2921501E+01
 4.8127503E+00  3.2804131E+01
 4.8242502E+00  3.2827347E+01
 4.8357501E+00  3.2818310E+01
 4.8472505E+00  3.2901455E+01
 4.8587503E+00  3.2957569E+01
 4.8702502E+00  3.2964127E+01
 4.8817501E+00  3.2995090E+01
 4.8932505E+00  3.3044064E+01
 4.9047503E+00  3.3065945E+01
 4.9162502E+00  3.3141403E+01
 4.9277501E+00  3.3166294E+01
 4.9392505E+00  3.3092148E+01
 4.9507504E+00  3.3115040E+01
 4.9622502E+00  3.3028744E+01
 4.9737501E+00  3.3067947E+01
 4.9852505E+00  3.2970833E+01
 4.9967504E+00  3.2948586E+01
 5.0082502E+00  3.3038445E+01
 5.0197501E+00  3.3092690E+01
 5.0312505E+00  3.3201572E+01
 5.0427504E+00  3.3264542E+01
 5.0542502E+00  3.3300503E+01
 5.0657501E+00  3.3356609E+01
 5.0772505E+00  3.3444027E+01
 5.0887504E+00  3.3560474E+01
 5.1002502E+00  3.3647816E+01
 5.1117501E+00  3.3710201E+01
 5.1232505E+00  3.3797070E+01
 5.1347504E+00  3.3836315E+01
 5.1462502E+00  3.4046185E+01
 5.1577501E+00  3.4043503E+01
 5.1692505E+00  3.4219570E+01
 5.1807504E+00  3.4126743E+01
 5.1922503E+00  3.4168083E+01
 5.2037501E+00  3.4096378E+01
 5.2152505E+00  3.4025486E+01
 5.2267504E+00  3.3966568E+01
 5.2382503E+00  3.3977856E+01
 5.2497501E+00  3.3940014E+01
 5.2612505E+00  3.3870182E+01
 5.2727504E+00  3.3812252E+01
 5.2842503E+00  3.3851555E+01
 5.2957501E+00  3.3929073E+01
 5.3072500E+00  3.4024284E+01
 5.3187504E+00  3.4148258E+01
 5.3302503E+00  3.4215034E+01
 5.3417501E+00  3.4276752E+01
 5.3532500E+00  3.4217331E+01
 5.3647504E+00  3.4270302E+01
 5.3762503E+00  3.4310738E+01
 5.3877501E+00  3.4496586E+01
 5.3992500E+00  3.4611935E+01
 5.4107504E+00  3.4657379E+01
 5.4222503E+00  3.4676811E+01
 5.4337502E+00  3.4598717E+01
 5.4452500E+00  3.4576820E+01
 5.4567504E+00  3.4618992E+01
 5.4682503E+00  3.4605576E+01
 5.4797502E+00  3.4714417E+01
 5.4912500E+00  3.4671162E+01
 5.5027504E+00  3.4828983E+01
 5.5142503E+00  3.4897282E+01
 5.5257502E+00  3.5009285E+01
 5.5372500E+00  3.5037899E+01
 5.5487504E+00  3.5146523E+01
 5.5602503E+00  3.5255482E+01
 5.5717502E+00  3.5396366E+01
 5.5832500E+00  3.5440586E+01
 5.5947504E+00  3.5480057E+01
 5.6062503E+00  3.5529831E+01
 5.6177502E+00  3.5524887E+01
 5.6292500E+00  3.5484104E+01
 5.6407504E+00  3.5429192E+01
 5.6522503E+00  3.5442806E+01
 5.6637502E+00  3.5500847E+01
 5.6752501E+00  3.5514687E+01
 5.6867504E+00  3.5577862E+01
 5.6982503E+00  3.5542850E+01
 5.7097502E+00  3.5611984E+01
 5.7212501E+00  3.5605061E+01
 5.7327504E+00  3.5687984E+01
 5.7442503E+00  3.5670765E+01
 5.7557502E+00  3.5720695E+01
 5.7672501E+00  3.5696045E+01
 5.7787504E+00  3.5778912E+01
 5.7902503E+00  3.5922092E+01
 5.8017502E+00  3.6117512E+01
 5.8132501E+00  3.6208061E+01
 5.8247504E+00  3.6424461E+01
 5.8362503E+00  3.6724316E+01
 5.8477502E+00  3.7027096E+01
 5.8592501E+00  3.7384129E+01
 5.8707504E+00  3.7495216E+01
 5.8822503E+00  3.7943890E+01
 5.8937502E+00  3.8750240E+01
 5.9052501E+00  3.9340210E+01
 5.9167504E+00  4.2472446E+01
 5.9282503E+00  4.4969704E+01
 5.9397502E+00  4.9104134E+01
 5.9512501E+00  6.1556248E+01
 5.9627504E+00  6.6216591E+01
 5.9742503E+00  6.9551125E+01
 5.9857502E+00  6.8472824E+01
 5.9972501E+00  6.2153648E+01
 6.0087504E+00  5.8839855E+01
 6.0202503E+00  4.7262989E+01
 6.0317502E+00  4.4407124E+01
 6.0432501E+00  4.1411728E+01
 6.0547504E+00  3.9333794E+01
 6.0662503E+00  3.8446972E+01
 6.0777502E+00  3.7905617E+01
 6.0892501E+00  3.7521858E+01
 6.1007504E+00  3.7424507E+01
 6.1122503E+00  3.7324451E+01
 6.1237502E+00  3.7217499E+01
 6.1352501E+00  3.7311909E+01
 6.1467505E+00  3.7316257E+01
 6.1582503E+00  3.7434937E+01
 6.1697502E+00  3.7436909E+01
 6.1812501E+00  3.7464237E+01
 6.1927505E+00  3.7455532E+01
 6.2042503E+00  3.7447189E+01
 6.2157502E+00  3.7356030E+01
 6.2272501E+00  3.7331921E+01
 6.2387505E+00  3.7429230E+01
 6.2502503E+00  3.7585747E+01
 6.2617502E+00  3.7768173E+01
 6.2732501E+00  3.7942345E+01
 6.2847505E+00  3.8071568E+01
 6.2962503E+00  3.8133694E+01
 6.3077502E+00  3.8183208E+01
 6.3192501E+00  3.8108696E+01
 6.3307505E+00  3.8198311E+01
 6.3422503E+00  3.8148289E+01
 6.3537502E+00  3.8344929E+01
 6.3652501E+00  3.8385433E+01
 6.3767505E+00  3.8387897E+01
 6.3882504E+00  3.8325401E+01
 6.3997502E+00  3.8228722E+01
 6.4112501E+00  3.8199806E+01
 6.4227505E+00  3.8258869E+01
 6.4342504E+00  3.8308537E+01
 6.4457502E+00  3.8475388E+01
 6.4572501E+00  3.8578533E+01
 6.4687505E+00  3.8833717E+01
 6.4802504E+00  3.8978809E+01
 6.4917502E+00  3.9160572E+01
 6.5032501E+00  3.9181198E+01
 6.5147505E+00  3.9283375E+01
 6.5262504E+00  3.9188663E+01
 6.5377502E+00  3.9278011E+01
 6.5492501E+00  3.9262238E+01
 6.5607505E+00  3.9452553E+01
 6.5722504E+00  3.9490417E+01
 6.5837502E+00  3.9580784E+01
 6.5952501E+00  3.9671272E+01
 6.6067505E+00  3.9828274E+01
 6.6182504E+00  3.9936638E+01
 6.6297503E+00  4.0026115E+01
 6.6412501E+00  4.0084099E+01
 6.6527505E+00  4.0195831E+01
 6.6642504E+00  4.0229946E+01
 6.6757503E+00  4.0305851E+01
 6.6872501E+00  4.0330730E+01
 6.6987505E+00  4.0456318E+01
 6.7102504E+00  4.0503117E+01
 6.7217503E+00  4.0657372E+01
 6.7332501E+00  4.0779903E+01
 6.7447505E+00  4.0884186E+01
 6.7562504E+00  4.0896622E+01
 6.7677503E+00  4.0960293E+01
 6.7792501E+00  4.1055763E+01
 6.7907505E+00  4.1164417E+01
 6.8022504E+00  4.1290043E+01
 6.8137503E+00  4.1483406E+01
 6.8252501E+00  4.1644726E+01
 6.8367505E+00  4.1699516E+01
 6.8482504E+00  4.1737015E+01
 6.8597503E+00  4.1750328E+01
 6.8712502E+00  4.1776077E+01
 6.8827505E+00  4.1811153E+01
 6.8942504E+00  4.1763660E+01
 6.9057503E+00  4.1736176E+01
 6.9172502E+00  4.1762413E+01
 6.9287505E+00  4.1856453E+01
 6.9402504E+00  4.2063366E+01
 6.9517503E+00  4.2168327E+01
 6.9632502E+00  4.2282291E+01
 6.9747505E+00  4.2482922E+01
 6.9862504E+00  4.2612694E+01
 6.9977503E+00  4.2706100E+01
 7.0092502E+00  4.2675209E+01
 7.0207505E+00  4.2551849E+01
 7.0322504E+00  4.2520550E+01
 7.0437503E+00  4.2514172E+01
 7.0552502E+00  4.2565208E+01
 7.0667505E+00  4.2649189E+01
 7.0782504E+00  4.2674103E+01
 7.0897503E+00  4.2823750E+01
 7.1012502E+00  4.2787991E+01
 7.1127505E+00  4.2930996E+01
 7.1242504E+00  4.2964947E+01
 7.1357503E+00  4.3119259E+01
 7.1472502E+00  4.3100605E+01
 7.1587505E+00  4.3145649E+01
 7.1702504E+00  4.3248302E+01
 7.1817503E+00  4.3322311E+01
 7.1932502E+00  4.3358654E+01
 7.2047505E+00  4.3401505E+01
 7.2162504E+00  4.3486851E+01
 7.2277503E+00  4.3603760E+01
 7.2392502E+00  4.3665733E+01
 7.2507505E+00  4.3748226E+01
 7.2622504E+00  4.3792072E+01
 7.2737503E+00  4.3823109E+01
 7.2852502E+00  4.3823574E+01
 7.2967505E+00  4.3808346E+01
 7.3082504E+00  4.3699074E+01
 7.3197503E+00  4.3773064E+01
 7.3312502E+00  4.3802086E+01
 7.3427505E+00  4.3925900E+01
 7.3542504E+00  4.3887062E+01
 7.3657503E+00  4.3914330E+01
 7.3772502E+00  4.3900433E+01
 7.3887506E+00  4.3934132E+01
 7.4002504E+00  4.3995483E+01
 7.4117503E+00  4.4125191E+01
 7.4232502E+00  4.4234989E+01
 7.4347506E+00  4.4320702E+01
 7.4462504E+00  4.4451157E+01
 7.4577503E+00  4.4468525E+01
 7.4692502E+00  4.4448666E+01
 7.4807506E+00  4.4347137E+01
 7.4922504E+00  4.4371094E+01
 7.5037503E+00  4.4369614E+01
 7.5152502E+00  4.4375023E+01
 7.5267506E+00  4.4395569E+01
 7.5382504E+00  4.4481331E+01
 7.5497503E+00  4.4549129E+01
 7.5612502E+00  4.4648006E+01
 7.5727506E+00  4.4599094E+01
 7.5842505E+00  4.4629486E+01
 7.5957503E+00  4.4581715E+01
 7.6072502E+00  4.4602661E+01
 7.6187506E+00  4.4576675E+01
 7.6302505E+00  4.4574947E+01
 7.6417503E+00  4.4593193E+01
 7.6532502E+00  4.4593563E+01
 7.6647506E+00  4.4544811E+01
 7.6762505E+00  4.4409863E+01
 7.6877503E+00  4.4366497E+01
 7.6992502E+00  4.4268818E+01
 7.7107506E+00  4.4306061E+01
 7.7222505E+00  4.4339603E+01
 7.7337503E+00  4.4366802E+01
 7.7452502E+00  4.4384468E+01
 7.7567506E+00  4.4344261E+01
 7.7682505E+00  4.4367970E+01
 7.7797503E+00  4.4372051E+01
 7.7912502E+00  4.4371269E+01
 7.8027506E+00  4.4343899E+01
 7.8142505E+00  4.4350193E+01
 7.8257504E+00  4.4385338E+01
 7.8372502E+00  4.4504356E+01
 7.8487506E+00  4.4442307E+01
 7.8602505E+00  4.4428093E+01
 7.8717504E+00  4.4182167E+01
 7.8832502E+00  4.4181515E+01
 7.8947506E+00  4.4010971E+01
 7.9062505E+00  4.3946583E+01
 7.9177504E+00  4.3898460E+01
 7.9292502E+00  4.3792702E+01
 7.9407506E+00  4.3834663E+01
 7.9522505E+00  4.3692745E+01
 7.9637504E+00  4.3697647E+01
 7.9752502E+00  4.3586491E+01
 7.9867506E+00  4.3559624E+01
 7.9982505E+00  4.3499382E+01
 8.0097504E+00  4.3404804E+01
 8.0212507E+00  4.3379177E+01
 8.0327501E+00  4.3338051E+01
 8.0442505E+00  4.3296352E+01
 8.0557508E+00  4.3150711E+01
 8.0672503E+00  4.3154797E+01
 8.0787506E+00  4.3089394E+01
 8.0902500E+00  4.3045349E+01
 8.1017504E+00  4.2981995E+01
 8.1132507E+00  4.2974339E+01
 8.1247501E+00  4.2851292E+01
 8.1362505E+00  4.2682137E+01
 8.1477509E+00  4.2450108E+01
 8.1592503E+00  4.2389446E+01
 8.1707506E+00  4.2284863E+01
 8.1822500E+00  4.2169895E+01
 8.1937504E+00  4.2055855E+01
 8.2052507E+00  4.1847340E+01
 8.2167501E+00  4.1597469E+01
 8.2282505E+00  4.1405846E+01
 8.2397509E+00  4.1219666E+01
 8.2512503E+00  4.1123894E+01
 8.2627506E+00  4.1021053E+01
 8.2742500E+00  4.0913376E+01
 8.2857504E+00  4.0838772E+01
 8.2972507E+00  4.0700699E+01
 8.3087502E+00  4.0580261E+01
 8.3202505E+00  4.0508732E+01
 8.3317509E+00  4.0400486E+01
 8.3432503E+00  4.0259613E+01
 8.3547506E+00  4.0013714E+01
 8.3662500E+00  3.9879524E+01
 8.3777504E+00  3.9758007E+01
 8.3892508E+00  3.9649235E+01
 8.4007502E+00  3.9588097E+01
 8.4122505E+00  3.9501415E+01
 8.4237509E+00  3.9366768E+01
 8.4352503E+00  3.9056248E+01
 8.4467506E+00  3.8834328E+01
 8.4582500E+00  3.8580700E+01
 8.4697504E+00  3.8440865E+01
 8.4812508E+00  3.8323887E+01
 8.4927502E+00  3.8191418E+01
 8.5042505E+00  3.8054050E+01
 8.5157509E+00  3.7842613E+01
 8.5272503E+00  3.7670784E+01
 8.5387506E+00  3.7511772E+01
 8.5502501E+00  3.7209675E+01
 8.5617504E+00  3.6994678E+01
 8.5732508E+00  3.6797874E+01
 8.5847502E+00  3.6712315E+01
 8.5962505E+00  3.6596642E+01
 8.6077509E+00  3.6450989E+01
 8.6192503E+00  3.6302731E+01
 8.6307507E+00  3.6212605E+01
 8.6422501E+00  3.6106682E+01
 8.6537504E+00  3.5924644E+01
 8.6652508E+00  3.5759235E+01
 8.6767502E+00  3.5493626E+01
 8.6882505E+00  3.5291157E+01
 8.6997509E+00  3.5029148E+01
 8.7112503E+00  3.4790848E+01
 8.7227507E+00  3.4584888E+01
 8.7342501E+00  3.4404778E+01
 8.7457504E+00  3.4239555E+01
 8.7572508E+00  3.4136772E+01
 8.7687502E+00  3.3999794E+01
 8.7802505E+00  3.3866482E+01
 8.7917500E+00  3.3636425E+01
 8.8032503E+00  3.3373062E+01
 8.8147507E+00  3.3160305E+01
 8.8262501E+00  3.2975723E+01
 8.8377504E+00  3.2858379E+01
 8.8492508E+00  3.2716251E+01
 8.8607502E+00  3.2601959E+01
 8.8722506E+00  3.2416565E+01
 8.8837500E+00  3.2280476E+01
 8.8952503E+00  3.2055813E+01
 8.9067507E+00  3.1947237E+01
 8.9182501E+00  3.1781488E+01
 8.9297504E+00  3.1682190E+01
 8.9412508E+00  3.1563192E+01
 8.9527502E+00  3.1388515E+01
 8.9642506E+00  3.1311928E+01
 8.9757500E+00  3.1154469E+01
 8.9872503E+00  3.1085623E+01
 8.9987507E+00  3.0883387E+01
 9.0102501E+00  3.0772669E+01
 9.0217505E+00  3.0629894E+01
 9.0332508E+00  3.0599562E+01
 9.0447502E+00  3.0589388E+01
 9.0562506E+00  3.0479465E+01
 9.0677500E+00  3.0326279E+01
 9.0792503E+00  3.0100361E+01
 9.0907507E+00  2.9898525E+01
 9.1022501E+00  2.9726786E+01
 9.1137505E+00  2.9574694E+01
 9.1252508E+00  2.9480965E+01
 9.1367502E+00  2.9360025E+01
 9.1482506E+00  2.9267002E+01
 9.1597500E+00  2.9085955E+01
 9.1712503E+00  2.8919847E+01
 9.1827507E+00  2.8711710E+01
 9.1942501E+00  2.8651190E+01
 9.2057505E+00  2.8574116E+01
 9.2172508E+00  2.8517515E+01
 9.2287502E+00  2.8324091E+01
 9.2402506E+00  2.8194307E+01
 9.2517500E+00  2.8065208E+01
 9.2632504E+00  2.8006472E+01
 9.2747507E+00  2.7906061E+01
 9.2862501E+00  2.7830566E+01
 9.2977505E+00  2.7774717E+01
 9.3092508E+00  2.7721281E+01
 9.3207502E+00  2.7627289E+01
 9.3322506E+00  2.7476961E+01
 9.3437500E+00  2.7350063E+01
 9.3552504E+00  2.7202808E+01
 9.3667507E+00  2.7118153E+01
 9.3782501E+00  2.7062822E+01
 9.3897505E+00  2.7006231E+01
 9.4012508E+00  2.6907307E+01
 9.4127502E+00  2.6858685E+01
 9.4242506E+00  2.6810623E+01
 9.4357500E+00  2.6795040E+01
 9.4472504E+00  2.6729424E+01
 9.4587507E+00  2.6638233E+01
 9.4702501E+00  2.6552633E+01
 9.4817505E+00  2.6545652E+01
 9.4932508E+00  2.6485056E+01
 9.5047503E+00  2.6488251E+01
 9.5162506E+00  2.6366659E+01
 9.5277500E+00  2.6275572E+01
 9.5392504E+00  2.6173470E+01
 9.5507507E+00  2.6059643E+01
 9.5622501E+00  2.6063635E+01
 9.5737505E+00  2.5967003E+01
 9.5852509E+00  2.5987762E+01
 9.5967503E+00  2.5950377E+01
 9.6082506E+00  2.5959230E+01
 9.6197500E+00  2.5941191E+01
 9.6312504E+00  2.5920338E+01
 9.6427507E+00  2.5848192E+01
 9.6542501E+00  2.5732954E+01
 9.6657505E+00  2.5577845E+01
 9.6772509E+00  2.5454996E+01
 9.6887503E+00  2.5312489E+01
 9.7002506E+00  2.5235605E+01
 9.7117500E+00  2.5232525E+01
 9.7232504E+00  2.5299402E+01
 9.7347507E+00  2.5311985E+01
 9.7462502E+00  2.5261496E+01
 9.7577505E+00  2.5174978E+01
 9.7692509E+00  2.5142630E+01
 9.7807503E+00  2.5105316E+01
 9.7922506E+00  2.5041195E+01
 9.8037500E+00  2.5012142E+01
 9.8152504E+00  2.4994141E+01
 9.8267508E+00  2.4941689E+01
 9.8382502E+00  2.4905693E+01
 9.8497505E+00  2.4798790E+01
 9.8612509E+00  2.4728973E+01
 9.8727503E+00  2.4676485E+01
 9.8842506E+00  2.4625872E+01
 9.8957500E+00  2.4611969E+01
 9.9072504E+00  2.4542820E+01
 9.9187508E+00  2.4481447E+01
 9.9302502E+00  2.4478367E+01
 9.9417505E+00  2.4435982E+01
 9.9532509E+00  2.4463018E+01
 9.9647503E+00  2.4431257E+01
 9.9762506E+00  2.4379206E+01
 9.9877501E+00  2.4390892E+01
 9.9992504E+00  2.4389526E+01
 1.0010751E+01  2.4398991E+01
 1.0022250E+01  2.4368517E+01
 1.0033751E+01  2.4344166E+01
 1.0045251E+01  2.4270977E+01
 1.0056750E+01  2.4196623E+01
 1.0068251E+01  2.4124092E+01
 1.0079750E+01  2.4081310E+01
 1.0091250E+01  2.4037258E+01
 1.0102751E+01  2.4020906E+01
 1.0114250E+01  2.4010206E+01
 1.0125751E+01  2.3981367E+01
 1.0137251E+01  2.3954506E+01
 1.0148750E+01  2.3952976E+01
 1.0160251E+01  2.3953188E+01
 1.0171750E+01  2.3918924E+01
 1.0183250E+01  2.3875284E+01
 1.0194751E+01  2.3842800E+01
 1.0206250E+01  2.3866533E+01
 1.0217751E+01  2.3851215E+01
 1.0229251E+01  2.3825787E+01
 1.0240750E+01  2.3724201E+01
 1.0252251E+01  2.3656567E+01
 1.0263750E+01  2.3601181E+01
 1.0275250E+01  2.3550121E+01
 1.0286751E+01  2.3555128E+01
 1.0298250E+01  2.3598408E+01
 1.0309751E+01  2.3574123E+01
 1.0321251E+01  2.3562670E+01
 1.0332750E+01  2.3541636E+01
 1.0344251E+01  2.3522905E+01
 1.0355750E+01  2.3528673E+01
 1.0367250E+01  2.3474787E+01
 1.0378751E+01  2.3487240E+01
 1.0390250E+01  2.3480799E+01
 1.0401751E+01  2.3498671E+01
 1.0413251E+01  2.3498962E+01
 1.0424750E+01  2.3457306E+01
 1.0436251E+01  2.3403397E+01
 1.0447750E+01  2.3382492E+01
 1.0459250E+01  2.3401306E+01
 1.0470751E+01  2.3416521E+01
 1.0482250E+01  2.3395649E+01
 1.0493751E+01  2.3329323E+01
 1.0505251E+01  2.3302002E+01
 1.0516750E+01  2.3310633E+01
 1.0528251E+01  2.3280308E+01
 1.0539750E+01  2.3256866E+01
 1.0551250E+01  2.3210770E+01
 1.0562751E+01  2.3235348E+01
 1.0574250E+01  2.3157942E+01
 1.0585751E+01  2.3160749E+01
 1.0597251E+01  2.3198706E+01
 1.0608750E+01  2.3237732E+01
 1.0620251E+01  2.3311932E+01
 1.0631750E+01  2.3306833E+01
 1.0643250E+01  2.3388695E+01
 1.0654751E+01  2.3323687E+01
 1.0666250E+01  2.3295736E+01
 1.0677751E+01  2.3233192E+01
 1.0689251E+01  2.3188076E+01
 1.0700750E+01  2.3117426E+01
 1.0712251E+01  2.3035191E+01
 1.0723750E+01  2.2967257E+01
 1.0735250E+01  2.2882845E+01
 1.0746751E+01  2.2872147E+01
 1.0758250E+01  2.2899038E+01
 1.0769751E+01  2.2963940E+01
 1.0781251E+01  2.2945637E+01
 1.0792750E+01  2.2918047E+01
 1.0804251E+01  2.2890873E+01
 1.0815750E+01  2.2863848E+01
 1.0827250E+01  2.2862015E+01
 1.0838751E+01  2.2834127E+01
 1.0850250E+01  2.2835089E+01
 1.0861751E+01  2.2799479E+01
 1.0873251E+01  2.2738758E+01
 1.0884750E+01  2.2686493E+01
 1.0896251E+01  2.2658239E+01
 1.0907750E+01  2.2705994E+01
 1.0919250E+01  2.2799570E+01
 1.0930751E+01  2.2888176E+01
 1.0942250E+01  2.2873407E+01
 1.0953751E+01  2.2873791E+01
 1.0965251E+01  2.2802568E+01
 1.0976750E+01  2.2815453E+01
 1.0988251E+01  2.2736870E+01
 1.0999750E+01  2.2761118E+01
 1.1011250E+01  2.2708256E+01
 1.1022751E+01  2.2670162E+01
 1.1034250E+01  2.2614422E+01
 1.1045751E+01  2.2595629E+01
 1.1057251E+01  2.2589130E+01
 1.1068750E+01  2.2595083E+01
 1.1080251E+01  2.2583715E+01
 1.1091750E+01  2.2548294E+01
 1.1103251E+01  2.2549391E+01
 1.1114751E+01  2.2552301E+01
 1.1126250E+01  2.2625053E+01
 1.1137751E+01  2.2607851E+01
 1.1149251E+01  2.2595898E+01
 1.1160750E+01  2.2574776E+01
 1.1172251E+01  2.2525084E+01
 1.1183750E+01  2.2526752E+01
 1.1195251E+01  2.2480274E+01
 1.1206751E+01  2.2483614E+01
 1.1218250E+01  2.2452011E+01
 1.1229751E+01  2.2435778E+01
 1.1241251E+01  2.2445990E+01
 1.1252750E+01  2.2459986E+01
 1.1264251E+01  2.2498386E+01
 1.1275750E+01  2.2524969E+01
 1.1287251E+01  2.2593315E+01
 1.1298751E+01  2.2621754E+01
 1.1310250E+01  2.2714647E+01
 1.1321751E+01  2.2750740E+01
 1.1333251E+01  2.2812571E+01
 1.1344750E+01  2.2812387E+01
 1.1356251E+01  2.2784531E+01
 1.1367750E+01  2.2839375E+01
 1.1379251E+01  2.2853895E+01
 1.1390751E+01  2.2991966E+01
 1.1402250E+01  2.3010988E+01
 1.1413751E+01  2.3085217E+01
 1.1425251E+01  2.3045645E+01
 1.1436750E+01  2.3132059E+01
 1.1448251E+01  2.3120836E+01
 1.1459750E+01  2.3282614E+01
 1.1471251E+01  2.3316572E+01
 1.1482751E+01  2.3497696E+01
 1.1494250E+01  2.3611874E+01
 1.1505751E+01  2.3865295E+01
 1.1517251E+01  2.4261700E+01
 1.1528750E+01  2.4852854E+01
 1.1540251E+01  2.6722795E+01
 1.1551750E+01  2.8388874E+01
 1.1563251E+01  3.3891731E+01
 1.1574751E+01  3.6378044E+01
 1.1586250E+01  4.4031647E+01
 1.1597751E+01  4.2810242E+01
 1.1609251E+01  4.6806698E+01
 1.1620750E+01  3.9332901E+01
 1.1632251E+01  3.7912075E+01
 1.1643750E+01  3.0298071E+01
 1.1655251E+01  2.8753574E+01
 1.1666751E+01  2.5489250E+01
 1.1678250E+01  2.4748079E+01
 1.1689751E+01  2.3974155E+01
 1.1701251E+01  2.3579166E+01
 1.1712750E+01  2.3346764E+01
 1.1724251E+01  2.3208405E+01
 1.1735750E+01  2.3144485E+01
 1.1747251E+01  2.3028034E+01
 1.1758751E+01  2.3037943E+01
 1.1770250E+01  2.2916399E+01
 1.1781751E+01  2.2938829E+01
 1.1793251E+01  2.2833075E+01
 1.1804750E+01  2.2824970E+01
 1.1816251E+01  2.2805079E+01
 1.1827750E+01  2.2829370E+01
 1.1839251E+01  2.2822002E+01
 1.1850751E+01  2.2759003E+01
 1.1862250E+01  2.2736057E+01
 1.1873751E+01  2.2733633E+01
 1.1885251E+01  2.2765574E+01
 1.1896750E+01  2.2809641E+01
 1.1908251E+01  2.2923386E+01
 1.1919750E+01  2.3118504E+01
 1.1931251E+01  2.3403414E+01
 1.1942751E+01  2.3801311E+01
 1.1954250E+01  2.4318855E+01
 1.1965751E+01  2.4561316E+01
 1.1977251E+01  2.4736446E+01
 1.1988750E+01  2.4696838E+01
 1.2000251E+01  2.4532951E+01
 1.2011750E+01  2.4157600E+01
 1.2023251E+01  2.3768782E+01
 1.2034751E+01  2.3686588E+01
 1.2046250E+01  2.3762043E+01
 1.2057751E+01  2.4310396E+01
 1.2069251E+01  2.4800449E+01
 1.2080750E+01  2.5563831E+01
 1.2092251E+01  2.6037315E+01
 1.2103750E+01  2.6327284E+01
 1.2115251E+01  2.6294004E+01
 1.2126751E+01  2.5634584E+01
 1.2138250E+01  2.5143970E+01
 1.2149751E+01  2.4404650E+01
 1.2161251E+01  2.3899807E+01
 1.2172750E+01  2.3432333E+01
 1.2184251E+01  2.3150198E+01
 1.2195750E+01  2.3059258E+01
 1.2207251E+01  2.2931423E+01
 1.2218751E+01  2.2833088E+01
 1.2230250E+01  2.2814983E+01
 1.2241751E+01  2.2797913E+01
 1.2253251E+01  2.2745213E+01
 1.2264750E+01  2.2750553E+01
 1.2276251E+01  2.2724743E+01
 1.2287750E+01  2.2756161E+01
 1.2299251E+01  2.2714983E+01
 1.2310751E+01  2.2691248E+01
 1.2322250E+01  2.2613895E+01
 1.2333751E+01  2.2598116E+01
 1.2345250E+01  2.2557756E+01
 1.2356750E+01  2.2604233E+01
 1.2368251E+01  2.2582829E+01
 1.2379750E+01  2.2654821E+01
 1.2391251E+01  2.2709833E+01
 1.2402751E+01  2.2740700E+01
 1.2414250E+01  2.2755276E+01
 1.2425751E+01  2.2715141E+01
 1.2437250E+01  2.2764027E+01
 1.2448750E+01  2.2785645E+01
 1.2460251E+01  2.2850636E+01
 1.2471750E+01  2.2850439E+01
 1.2483251E+01  2.2835604E+01
 1.2494751E+01  2.2804846E+01
 1.2506250E+01  2.2738426E+01
 1.2517751E+01  2.2671015E+01
 1.2529250E+01  2.2650948E+01
 1.2540751E+01  2.2699659E+01
 1.2552251E+01  2.2786806E+01
 1.2563750E+01  2.2834816E+01
 1.2575251E+01  2.2860991E+01
 1.2586751E+01  2.2870985E+01
 1.2598250E+01  2.2889984E+01
 1.2609751E+01  2.2882088E+01
 1.2621250E+01  2.2907383E+01
 1.2632751E+01  2.2916412E+01
 1.2644251E+01  2.2947449E+01
 1.2655750E+01  2.2961021E+01
 1.2667251E+01  2.2983593E+01
 1.2678751E+01  2.2998585E+01
 1.2690250E+01  2.3009462E+01
 1.2701751E+01  2.3033686E+01
 1.2713250E+01  2.3058809E+01
 1.2724751E+01  2.3087734E+01
 1.2736251E+01  2.3091654E+01
 1.2747750E+01  2.3093969E+01
 1.2759251E+01  2.3091410E+01
 1.2770751E+01  2.3111195E+01
 1.2782250E+01  2.3161638E+01
 1.2793751E+01  2.3173065E+01
 1.2805250E+01  2.3159454E+01
 1.2816751E+01  2.3217857E+01
 1.2828251E+01  2.3284950E+01
 1.2839750E+01  2.3346064E+01
 1.2851251E+01  2.3349155E+01
 1.2862751E+01  2.3384077E+01
 1.2874250E+01  2.3468931E+01
 1.2885751E+01  2.3509890E+01
 1.2897250E+01  2.3519131E+01
 1.2908751E+01  2.3574394E+01
 1.2920251E+01  2.3612698E+01
 1.2931750E+01  2.3729118E+01
 1.2943251E+01  2.3720669E+01
 1.2954751E+01  2.3771828E+01
 1.2966250E+01  2.3852623E+01
 1.2977751E+01  2.3990198E+01
 1.2989250E+01  2.4084198E+01
 1.3000751E+01  2.4193762E+01
 1.3012251E+01  2.4289743E+01
 1.3023750E+01  2.4424580E+01
 1.3035251E+01  2.4589998E+01
 1.3046751E+01  2.4721361E+01
 1.3058250E+01  2.4898544E+01
 1.3069751E+01  2.4896873E+01
 1.3081250E+01  2.4917955E+01
 1.3092751E+01  2.4867172E+01
 1.3104251E+01  2.4921915E+01
 1.3115750E+01  2.4981573E+01
 1.3127251E+01  2.5073305E+01
 1.3138751E+01  2.5141064E+01
 1.3150250E+01  2.5274118E+01
 1.3161751E+01  2.5377098E+01
 1.3173250E+01  2.5530354E+01
 1.3184751E+01  2.5663282E+01
 1.3196251E+01  2.5789248E+01
 1.3207750E+01  2.5935104E+01
 1.3219251E+01  2.6012844E+01
 1.3230751E+01  2.6165480E+01
 1.3242250E+01  2.6281265E+01
 1.3253751E+01  2.6415810E+01
 1.3265250E+01  2.6560467E+01
 1.3276751E+01  2.6677223E+01
 1.3288251E+01  2.6869123E+01
 1.3299750E+01  2.7026909E+01
 1.3311251E+01  2.7135033E+01
 1.3322751E+01  2.7274002E+01
 1.3334250E+01  2.7442068E+01
 1.3345751E+01  2.7622465E+01
 1.3357250E+01  2.7809916E+01
 1.3368751E+01  2.7891779E+01
 1.3380251E+01  2.8078033E+01
 1.3391750E+01  2.8211321E+01
 1.3403251E+01  2.8455589E+01
 1.3414751E+01  2.8613918E+01
 1.3426250E+01  2.8740952E+01
 1.3437751E+01  2.8813204E+01
 1.3449250E+01  2.8931274E+01
 1.3460751E+01  2.9040401E+01
 1.3472251E+01  2.9152975E+01
 1.3483750E+01  2.9242682E+01
 1.3495251E+01  2.9314932E+01
 1.3506751E+01  2.9390923E+01
 1.3518250E+01  2.9421513E+01
 1.3529751E+01  2.9501377E+01
 1.3541250E+01  2.9557306E+01
 1.3552751E+01  2.9606876E+01
 1.3564251E+01  2.9652628E+01
 1.3575750E+01  2.9721066E+01
 1.3587251E+01  2.9765141E+01
 1.3598751E+01  2.9806997E+01
 1.3610250E+01  2.9833546E+01
 1.3621751E+01  2.9975231E+01
 1.3633250E+01  2.9958914E+01
 1.3644751E+01  2.9972992E+01
 1.3656251E+01  2.9917814E+01
 1.3667750E+01  2.9993616E+01
 1.3679251E+01  2.9961927E+01
 1.3690751E+01  2.9894627E+01
 1.3702250E+01  2.9794640E+01
 1.3713751E+01  2.9731533E+01
 1.3725250E+01  2.9771358E+01
 1.3736751E+01  2.9787333E+01
 1.3748251E+01  2.9773764E+01
 1.3759750E+01  2.9683859E+01
 1.3771251E+01  2.9620590E+01
 1.3782751E+01  2.9612854E+01
 1.3794250E+01  2.9623001E+01
 1.3805751E+01  2.9627195E+01
 1.3817250E+01  2.9588860E+01
 1.3828751E+01  2.9586180E+01
 1.3840251E+01  2.9705376E+01
 1.3851750E+01  2.9887049E+01
 1.3863251E+01  3.0299072E+01
 1.3874751E+01  3.0899086E+01
 1.3886250E+01  3.1454433E+01
 1.3897751E+01  3.3112255E+01
 1.3909250E+01  3.4385735E+01
 1.3920751E+01  3.6428074E+01
 1.3932251E+01  3.9365417E+01
 1.3943750E+01  4.1027824E+01
 1.3955251E+01  4.5027496E+01
 1.3966751E+01  4.6582981E+01
 1.3978251E+01  4.9424011E+01
 1.3989751E+01  4.9310894E+01
 1.4001250E+01  4.7141373E+01
 1.4012751E+01  4.3798782E+01
 1.4024251E+01  3.8549221E+01
 1.4035750E+01  3.5095970E+01
 1.4047251E+01  3.2003757E+01
 1.4058751E+01  3.0226082E+01
 1.4070251E+01  2.9335766E+01
 1.4081751E+01  2.8712658E+01
 1.4093250E+01  2.8371725E+01
 1.4104751E+01  2.8200796E+01
 1.4116251E+01  2.8040836E+01
 1.4127750E+01  2.7871813E+01
 1.4139251E+01  2.7704103E+01
 1.4150751E+01  2.7541870E+01
 1.4162251E+01  2.7476099E+01
 1.4173751E+01  2.7380676E+01
 1.4185250E+01  2.7358295E+01
 1.4196751E+01  2.7304396E+01
 1.4208251E+01  2.7261120E+01
 1.4219750E+01  2.7193123E+01
 1.4231251E+01  2.7144035E+01
 1.4242751E+01  2.7029280E+01
 1.4254251E+01  2.6861937E+01
 1.4265751E+01  2.6720037E+01
 1.4277250E+01  2.6624931E+01
 1.4288751E+01  2.6592634E+01
 1.4300251E+01  2.6519997E+01
 1.4311750E+01  2.6487036E+01
 1.4323251E+01  2.6394978E+01
 1.4334751E+01  2.6358639E+01
 1.4346251E+01  2.6309465E+01
 1.4357751E+01  2.6305391E+01
 1.4369250E+01  2.6239723E+01
 1.4380751E+01  2.6148418E+01
 1.4392251E+01  2.6086081E+01
 1.4403750E+01  2.6044836E+01
 1.4415251E+01  2.6041407E+01
 1.4426751E+01  2.6008484E+01
 1.4438251E+01  2.5982775E+01
 1.4449751E+01  2.5917601E+01
 1.4461250E+01  2.5905897E+01
 1.4472751E+01  2.5842051E+01
 1.4484251E+01  2.5797304E+01
 1.4495750E+01  2.5736546E+01
 1.4507251E+01  2.5733809E+01
 1.4518751E+01  2.5686779E+01
 1.4530251E+01  2.5610785E+01
 1.4541751E+01  2.5593397E+01
 1.4553250E+01  2.5602650E+01
 1.4564751E+01  2.5638540E+01
 1.4576251E+01  2.5685211E+01
 1.4587750E+01  2.5712742E+01
 1.4599251E+01  2.5663071E+01
 1.4610751E+01  2.5620634E+01
 1.4622251E+01  2.5610470E+01
 1.4633751E+01  2.5622267E+01
 1.4645250E+01  2.5570309E+01
 1.4656751E+01  2.5507141E+01
 1.4668251E+01  2.5440872E+01
 1.4679750E+01  2.5332186E+01
 1.4691251E+01  2.5266773E+01
 1.4702751E+01  2.5227053E+01
 1.4714251E+01  2.5238520E+01
 1.4725751E+01  2.5187258E+01
 1.4737250E+01  2.5187557E+01
 1.4748751E+01  2.5188023E+01
 1.4760251E+01  2.5215605E+01
 1.4771750E+01  2.5224001E+01
 1.4783251E+01  2.5217312E+01
 1.4794751E+01  2.5187841E+01
 1.4806251E+01  2.5132463E+01
 1.4817751E+01  2.5072826E+01
 1.4829250E+01  2.5062483E+01
 1.4840751E+01  2.5074875E+01
 1.4852251E+01  2.5103186E+01
 1.4863750E+01  2.5050652E+01
 1.4875251E+01  2.4997082E+01
 1.4886751E+01  2.4918768E+01
 1.4898251E+01  2.4886429E+01
 1.4909751E+01  2.4886698E+01
 1.4921250E+01  2.4864546E+01
 1.4932751E+01  2.4852402E+01
 1.4944251E+01  2.4844675E+01
 1.4955750E+01  2.4894255E+01
 1.4967251E+01  2.4965673E+01
 1.4978751E+01  2.4987371E+01
 1.4990251E+01  2.5016451E+01
 1.5001751E+01  2.5011988E+01
 1.5013250E+01  2.5090960E+01
 1.5024751E+01  2.5122953E+01
 1.5036251E+01  2.5073772E+01
 1.5047750E+01  2.4994915E+01
 1.5059251E+01  2.4978468E+01
 1.5070751E+01  2.5022619E+01
 1.5082251E+01  2.5053738E+01
 1.5093751E+01  2.5095016E+01
 1.5105250E+01  2.5188169E+01
 1.5116751E+01  2.5243809E+01
 1.5128251E+01  2.5363268E+01
 1.5139750E+01  2.5492840E+01
 1.5151251E+01  2.5996262E+01
 1.5162751E+01  2.6460373E+01
 1.5174251E+01  2.7761808E+01
 1.5185751E+01  2.8300009E+01
 1.5197250E+01  3.0285698E+01
 1.5208751E+01  3.0089569E+01
 1.5220251E+01  3.0770138E+01
 1.5231750E+01  2.9050343E+01
 1.5243251E+01  2.8379829E+01
 1.5254751E+01  2.6781931E+01
 1.5266251E+01  2.6048956E+01
 1.5277751E+01  2.5427784E+01
 1.5289250E+01  2.5124243E+01
 1.5300751E+01  2.4993582E+01
 1.5312251E+01  2.4878645E+01
 1.5323750E+01  2.4773682E+01
 1.5335251E+01  2.4724518E+01
 1.5346751E+01  2.4726681E+01
 1.5358251E+01  2.4734768E+01
 1.5369751E+01  2.4702269E+01
 1.5381250E+01  2.4679121E+01
 1.5392751E+01  2.4678770E+01
 1.5404251E+01  2.4704622E+01
 1.5415751E+01  2.4658470E+01
 1.5427251E+01  2.4638536E+01
 1.5438751E+01  2.4642183E+01
 1.5450251E+01  2.4653320E+01
 1.5461751E+01  2.4666834E+01
 1.5473250E+01  2.4677668E+01
 1.5484751E+01  2.4735712E+01
 1.5496251E+01  2.4737545E+01
 1.5507751E+01  2.4720968E+01
 1.5519251E+01  2.4725996E+01
 1.5530751E+01  2.4701502E+01
 1.5542251E+01  2.4683369E+01
 1.5553751E+01  2.4593582E+01
 1.5565250E+01  2.4579821E+01
 1.5576751E+01  2.4549534E+01
 1.5588251E+01  2.4566715E+01
 1.5599751E+01  2.4579340E+01
 1.5611251E+01  2.4623421E+01
 1.5622751E+01  2.4633738E+01
 1.5634251E+01  2.4587423E+01
 1.5645751E+01  2.4596455E+01
 1.5657250E+01  2.4594223E+01
 1.5668751E+01  2.4646267E+01
 1.5680251E+01  2.4660686E+01
 1.5691751E+01  2.4691238E+01
 1.5703251E+01  2.4718046E+01
 1.5714751E+01  2.4703905E+01
 1.5726251E+01  2.4685858E+01
 1.5737751E+01  2.4617163E+01
 1.5749250E+01  2.4601025E+01
 1.5760751E+01  2.4646528E+01
 1.5772251E+01  2.4689550E+01
 1.5783751E+01  2.4710581E+01
 1.5795251E+01  2.4687540E+01
 1.5806751E+01  2.4695795E+01
 1.5818251E+01  2.4659779E+01
 1.5829751E+01  2.4599215E+01
 1.5841250E+01  2.4577627E+01
 1.5852751E+01  2.4663225E+01
 1.5864251E+01  2.4698708E+01
 1.5875751E+01  2.4709116E+01
 1.5887251E+01  2.4682863E+01
 1.5898750E+01  2.4696108E+01
 1.5910251E+01  2.4748995E+01
 1.5921751E+01  2.4745422E+01
 1.5933250E+01  2.4745358E+01
 1.5944751E+01  2.4643126E+01
 1.5956251E+01  2.4608900E+01
 1.5967751E+01  2.4576649E+01
 1.5979251E+01  2.4565536E+01
 1.5990750E+01  2.4583492E+01
 1.6002251E+01  2.4637154E+01
 1.6013750E+01  2.4675142E+01
 1.6025251E+01  2.4716509E+01
 1.6036751E+01  2.4734406E+01
 1.6048250E+01  2.4781336E+01
 1.6059752E+01  2.4784092E+01
 1.6071251E+01  2.4738792E+01
 1.6082750E+01  2.4782187E+01
 1.6094252E+01  2.4747961E+01
 1.6105751E+01  2.4864447E+01
 1.6117250E+01  2.4864634E+01
 1.6128750E+01  2.4904861E+01
 1.6140251E+01  2.4955326E+01
 1.6151751E+01  2.4973862E+01
 1.6163250E+01  2.5139631E+01
 1.6174751E+01  2.5096354E+01
 1.6186251E+01  2.5447937E+01
 1.6197750E+01  2.5373089E+01
 1.6209251E+01  2.6159571E+01
 1.6220751E+01  2.6197765E+01
 1.6232250E+01  2.7073353E+01
 1.6243752E+01  2.7273117E+01
 1.6255251E+01  2.7662596E+01
 1.6266750E+01  2.7742804E+01
 1.6278252E+01  2.7116699E+01
 1.6289751E+01  2.6967829E+01
 1.6301250E+01  2.5894566E+01
 1.6312750E+01  2.5870289E+01
 1.6324251E+01  2.5174948E+01
 1.6335751E+01  2.5240751E+01
 1.6347250E+01  2.4993666E+01
 1.6358751E+01  2.4987301E+01
 1.6370251E+01  2.4856182E+01
 1.6381750E+01  2.4805937E+01
 1.6393251E+01  2.4837515E+01
 1.6404751E+01  2.4825701E+01
 1.6416250E+01  2.4874973E+01
 1.6427752E+01  2.4833624E+01
 1.6439251E+01  2.4827036E+01
 1.6450750E+01  2.4795467E+01
 1.6462252E+01  2.4770681E+01
 1.6473751E+01  2.4721531E+01
 1.6485250E+01  2.4680235E+01
 1.6496750E+01  2.4663195E+01
 1.6508251E+01  2.4658422E+01
 1.6519751E+01  2.4665592E+01
 1.6531250E+01  2.4694597E+01
 1.6542751E+01  2.4757320E+01
 1.6554251E+01  2.4779974E+01
 1.6565750E+01  2.4841434E+01
 1.6577251E+01  2.4847649E+01
 1.6588751E+01  2.4927887E+01
 1.6600250E+01  2.4932734E+01
 1.6611752E+01  2.4909502E+01
 1.6623251E+01  2.4728374E+01
 1.6634750E+01  2.4618923E+01
 1.6646252E+01  2.4546040E+01
 1.6657751E+01  2.4574989E+01
 1.6669250E+01  2.4568592E+01
 1.6680750E+01  2.4565126E+01
 1.6692251E+01  2.4582649E+01
 1.6703751E+01  2.4605392E+01
 1.6715250E+01  2.4632755E+01
 1.6726751E+01  2.4575356E+01
 1.6738251E+01  2.4587011E+01
 1.6749750E+01  2.4588587E+01
 1.6761251E+01  2.4589907E+01
 1.6772751E+01  2.4548429E+01
 1.6784250E+01  2.4475365E+01
 1.6795752E+01  2.4445082E+01
 1.6807251E+01  2.4451635E+01
 1.6818750E+01  2.4510195E+01
 1.6830252E+01  2.4552704E+01
 1.6841751E+01  2.4561062E+01
 1.6853251E+01  2.4557713E+01
 1.6864750E+01  2.4564135E+01
 1.6876251E+01  2.4542719E+01
 1.6887751E+01  2.4515644E+01
 1.6899250E+01  2.4501257E+01
 1.6910751E+01  2.4502136E+01
 1.6922251E+01  2.4531507E+01
 1.6933750E+01  2.4500681E+01
 1.6945251E+01  2.4478640E+01
 1.6956751E+01  2.4458544E+01
 1.6968250E+01  2.4469898E+01
 1.6979752E+01  2.4488270E+01
 1.6991251E+01  2.4452652E+01
 1.7002750E+01  2.4421312E+01
 1.7014252E+01  2.4449375E+01
 1.7025751E+01  2.4462749E+01
 1.7037251E+01  2.4479958E+01
 1.7048750E+01  2.4376783E+01
 1.7060251E+01  2.4292814E+01
 1.7071751E+01  2.4231697E+01
 1.7083250E+01  2.4241358E+01
 1.7094751E+01  2.4232502E+01
 1.7106251E+01  2.4252768E+01
 1.7117750E+01  2.4311203E+01
 1.7129251E+01  2.4395027E+01
 1.7140751E+01  2.4407896E+01
 1.7152250E+01  2.4387789E+01
 1.7163752E+01  2.4322624E+01
 1.7175251E+01  2.4304445E+01
 1.7186750E+01  2.4282572E+01
 1.7198252E+01  2.4330708E+01
 1.7209751E+01  2.4334436E+01
 1.7221251E+01  2.4364775E+01
 1.7232750E+01  2.4315529E+01
 1.7244251E+01  2.4276611E+01
 1.7255751E+01  2.4205593E+01
 1.7267250E+01  2.4184280E+01
 1.7278751E+01  2.4177797E+01
 1.7290251E+01  2.4209137E+01
 1.7301750E+01  2.4220228E+01
 1.7313251E+01  2.4213268E+01
 1.7324751E+01  2.4164236E+01
 1.7336250E+01  2.4148542E+01
 1.7347752E+01  2.4138395E+01
 1.7359251E+01  2.4133587E+01
 1.7370750E+01  2.4102934E+01
 1.7382252E+01  2.4079861E+01
 1.7393751E+01  2.4065531E+01
 1.7405251E+01  2.4020323E+01
 1.7416750E+01  2.4002298E+01
 1.7428251E+01  2.4019594E+01
 1.7439751E+01  2.4051420E+01
 1.7451250E+01  2.4097769E+01
 1.7462751E+01  2.4109810E+01
 1.7474251E+01  2.4089361E+01
 1.7485750E+01  2.4062969E+01
 1.7497252E+01  2.4060007E+01
 1.7508751E+01  2.4029379E+01
 1.7520250E+01  2.3956629E+01
 1.7531752E+01  2.3875463E+01
 1.7543251E+01  2.3863300E+01
 1.7554750E+01  2.3839508E+01
 1.7566252E+01  2.3829340E+01
 1.7577751E+01  2.3821537E+01
 1.7589251E+01  2.3856411E+01
 1.7600750E+01  2.3886364E+01
 1.7612251E+01  2.3946213E+01
 1.7623751E+01  2.3975616E+01
 1.7635250E+01  2.3985111E+01
 1.7646751E+01  2.3924711E+01
 1.7658251E+01  2.3887733E+01
 1.7669750E+01  2.3866085E+01
 1.7681252E+01  2.3883755E+01
 1.7692751E+01  2.3925798E+01
 1.7704250E+01  2.3964705E+01
 1.7715752E+01  2.3930500E+01
 1.7727251E+01  2.3899557E+01
 1.7738750E+01  2.3885527E+01
 1.7750252E+01  2.3947458E+01
 1.7761751E+01  2.3958441E+01
 1.7773251E+01  2.3981459E+01
 1.7784750E+01  2.3977051E+01
 1.7796251E+01  2.3993925E+01
 1.7807751E+01  2.3924236E+01
 1.7819250E+01  2.3868631E+01
 1.7830751E+01  2.3838369E+01
 1.7842251E+01  2.3872852E+01
 1.7853750E+01  2.3897734E+01
 1.7865252E+01  2.3962677E+01
 1.7876751E+01  2.4011711E+01
 1.7888250E+01  2.4009075E+01
 1.7899752E+01  2.3989424E+01
 1.7911251E+01  2.3996025E+01
 1.7922750E+01  2.4036751E+01
 1.7934252E+01  2.4038746E+01
 1.7945751E+01  2.4044579E+01
 1.7957251E+01  2.4067335E+01
 1.7968750E+01  2.4163652E+01
 1.7980251E+01  2.4303474E+01
 1.7991751E+01  2.4540682E+01
 1.8003250E+01  2.4899401E+01
 1.8014751E+01  2.5321428E+01
 1.8026251E+01  2.5668709E+01
 1.8037750E+01  2.6067165E+01
 1.8049252E+01  2.6691507E+01
 1.8060751E+01  2.7159407E+01
 1.8072250E+01  2.7792511E+01
 1.8083752E+01  2.8372330E+01
 1.8095251E+01  2.8502079E+01
 1.8106750E+01  2.8418640E+01
 1.8118252E+01  2.8120691E+01
 1.8129751E+01  2.7578028E+01
 1.8141251E+01  2.7029863E+01
 1.8152750E+01  2.6147825E+01
 1.8164251E+01  2.5746456E+01
 1.8175751E+01  2.4970064E+01
 1.8187250E+01  2.4650196E+01
 1.8198751E+01  2.4348701E+01
 1.8210251E+01  2.4248516E+01
 1.8221750E+01  2.4156773E+01
 1.8233252E+01  2.4045977E+01
 1.8244751E+01  2.3959221E+01
 1.8256250E+01  2.3867672E+01
 1.8267752E+01  2.3811033E+01
 1.8279251E+01  2.3805552E+01
 1.8290751E+01  2.3833866E+01
 1.8302252E+01  2.3869408E+01
 1.8313751E+01  2.3925449E+01
 1.8325251E+01  2.3879704E+01
 1.8336750E+01  2.3835291E+01
 1.8348251E+01  2.3772240E+01
 1.8359751E+01  2.3790270E+01
 1.8371250E+01  2.3751240E+01
 1.8382751E+01  2.3708189E+01
 1.8394251E+01  2.3715881E+01
 1.8405750E+01  2.3710987E+01
 1.8417252E+01  2.3687418E+01
 1.8428751E+01  2.3644697E+01
 1.8440250E+01  2.3604259E+01
 1.8451752E+01  2.3592680E+01
 1.8463251E+01  2.3598562E+01
 1.8474751E+01  2.3592493E+01
 1.8486252E+01  2.3564383E+01
 1.8497751E+01  2.3588352E+01
 1.8509251E+01  2.3679235E+01
 1.8520750E+01  2.3701586E+01
 1.8532251E+01  2.3693951E+01
 1.8543751E+01  2.3624903E+01
 1.8555250E+01  2.3571112E+01
 1.8566751E+01  2.3537172E+01
 1.8578251E+01  2.3545992E+01
 1.8589750E+01  2.3630676E+01
 1.8601252E+01  2.3685629E+01
 1.8612751E+01  2.3678738E+01
 1.8624250E+01  2.3611942E+01
 1.8635752E+01  2.3589008E+01
 1.8647251E+01  2.3578279E+01
 1.8658751E+01  2.3585518E+01
 1.8670252E+01  2.3555412E+01
 1.8681751E+01  2.3568827E+01
 1.8693251E+01  2.3574753E+01
 1.8704750E+01  2.3601336E+01
 1.8716251E+01  2.3578362E+01
 1.8727751E+01  2.3592348E+01
 1.8739250E+01  2.3598265E+01
 1.8750751E+01  2.3655991E+01
 1.8762251E+01  2.3706188E+01
 1.8773750E+01  2.3723318E+01
 1.8785252E+01  2.3716103E+01
 1.8796751E+01  2.3682825E+01
 1.8808250E+01  2.3641056E+01
 1.8819752E+01  2.3618927E+01
 1.8831251E+01  2.3567978E+01
 1.8842751E+01  2.3588287E+01
 1.8854252E+01  2.3564842E+01
 1.8865751E+01  2.3601271E+01
 1.8877251E+01  2.3614918E+01
 1.8888750E+01  2.3623390E+01
 1.8900251E+01  2.3605864E+01
 1.8911751E+01  2.3603170E+01
 1.8923250E+01  2.3634373E+01
 1.8934752E+01  2.3657415E+01
 1.8946251E+01  2.3670546E+01
 1.8957750E+01  2.3615902E+01
 1.8969252E+01  2.3616461E+01
 1.8980751E+01  2.3588305E+01
 1.8992250E+01  2.3615534E+01
 1.9003752E+01  2.3617474E+01
 1.9015251E+01  2.3621759E+01
 1.9026751E+01  2.3645187E+01
 1.9038252E+01  2.3640617E+01
 1.9049751E+01  2.3611847E+01
 1.9061251E+01  2.3572075E+01
 1.9072750E+01  2.3622967E+01
 1.9084251E+01  2.3680849E+01
 1.9095751E+01  2.3684483E+01
 1.9107250E+01  2.3772089E+01
 1.9118752E+01  2.3782314E+01
 1.9130251E+01  2.3840555E+01
 1.9141750E+01  2.3780903E+01
 1.9153252E+01  2.3817608E+01
 1.9164751E+01  2.3760065E+01
 1.9176250E+01  2.3771242E+01
 1.9187752E+01  2.3736668E+01
 1.9199251E+01  2.3711336E+01
 1.9210751E+01  2.3673103E+01
 1.9222252E+01  2.3627239E+01
 1.9233751E+01  2.3603977E+01
 1.9245251E+01  2.3627108E+01
 1.9256750E+01  2.3665453E+01
 1.9268251E+01  2.3722095E+01
 1.9279751E+01  2.3658970E+01
 1.9291250E+01  2.3668505E+01
 1.9302752E+01  2.3655596E+01
 1.9314251E+01  2.3705585E+01
 1.9325750E+01  2.3661428E+01
 1.9337252E+01  2.3696476E+01
 1.9348751E+01  2.3694967E+01
 1.9360250E+01  2.3750568E+01
 1.9371752E+01  2.3814274E+01
 1.9383251E+01  2.3881870E+01
 1.9394751E+01  2.3868185E+01
 1.9406250E+01  2.3814089E+01
 1.9417751E+01  2.3807013E+01
 1.9429251E+01  2.3847458E+01
 1.9440750E+01  2.3894207E+01
 1.9452251E+01  2.3885002E+01
 1.9463751E+01  2.3831871E+01
 1.9475250E+01  2.3825645E+01
 1.9486752E+01  2.3846693E+01
 1.9498251E+01  2.3843983E+01
 1.9509750E+01  2.3859447E+01
 1.9521252E+01  2.3923399E+01
 1.9532751E+01  2.3956274E+01
 1.9544250E+01  2.3998859E+01
 1.9555752E+01  2.3955132E+01
 1.9567251E+01  2.3984802E+01
 1.9578751E+01  2.3992918E+01
 1.9590250E+01  2.4094347E+01
 1.9601751E+01  2.4137531E+01
 1.9613251E+01  2.4264032E+01
 1.9624750E+01  2.4472549E+01
 1.9636251E+01  2.4788254E+01
 1.9647751E+01  2.5165670E+01
 1.9659250E+01  2.5619772E+01
 1.9670752E+01  2.6218763E+01
 1.9682251E+01  2.6783878E+01
 1.9693750E+01  2.7820461E+01
 1.9705252E+01  2.8512842E+01
 1.9716751E+01  3.0090557E+01
 1.9728251E+01  3.0088820E+01
 1.9739752E+01  3.0491819E+01
 1.9751251E+01  2.9244072E+01
 1.9762751E+01  2.8229357E+01
 1.9774250E+01  2.7193491E+01
 1.9785751E+01  2.6616438E+01
 1.9797251E+01  2.6612387E+01
 1.9808750E+01  2.7060837E+01
 1.9820251E+01  2.7930376E+01
 1.9831751E+01  2.9212872E+01
 1.9843250E+01  3.0698227E+01
 1.9854752E+01  3.1695473E+01
 1.9866251E+01  3.2368675E+01
 1.9877750E+01  3.2104050E+01
 1.9889252E+01  3.1502815E+01
 1.9900751E+01  3.0467598E+01
 1.9912251E+01  2.9124151E+01
 1.9923752E+01  2.7785337E+01
 1.9935251E+01  2.6389019E+01
 1.9946751E+01  2.5563486E+01
 1.9958250E+01  2.4962168E+01
 1.9969751E+01  2.4633003E+01
 1.9981251E+01  2.4412132E+01
 1.9992750E+01  2.4358458E+01
 2.0004251E+01  2.4285004E+01
 2.0015751E+01  2.4224308E+01
 2.0027250E+01  2.4142937E+01
 2.0038752E+01  2.4079306E+01
 2.0050251E+01  2.4075754E+01
 2.0061750E+01  2.4037109E+01
 2.0073252E+01  2.4041433E+01
 2.0084751E+01  2.4012894E+01
 2.0096251E+01  2.3998634E+01
 2.0107752E+01  2.4001593E+01
 2.0119251E+01  2.3998011E+01
 2.0130751E+01  2.3950809E+01
 2.0142250E+01  2.3876173E+01
 2.0153751E+01  2.3878517E+01
 2.0165251E+01  2.3892891E+01
 2.0176750E+01  2.3881601E+01
 2.0188251E+01  2.3855139E+01
 2.0199751E+01  2.3808914E+01
 2.0211250E+01  2.3816051E+01
 2.0222752E+01  2.3857563E+01
 2.0234251E+01  2.3898527E+01
 2.0245750E+01  2.3862642E+01
 2.0257252E+01  2.3800451E+01
 2.0268751E+01  2.3751396E+01
 2.0280251E+01  2.3786701E+01
 2.0291752E+01  2.3807266E+01
 2.0303251E+01  2.3809353E+01
 2.0314751E+01  2.3779667E+01
 2.0326250E+01  2.3764376E+01
 2.0337751E+01  2.3762634E+01
 2.0349251E+01  2.3763464E+01
 2.0360750E+01  2.3758289E+01
 2.0372252E+01  2.3799173E+01
 2.0383751E+01  2.3769703E+01
 2.0395250E+01  2.3786732E+01
 2.0406752E+01  2.3767756E+01
 2.0418251E+01  2.3834919E+01
 2.0429750E+01  2.3855064E+01
 2.0441252E+01  2.3877567E+01
 2.0452751E+01  2.3875404E+01
 2.0464251E+01  2.3856392E+01
 2.0475752E+01  2.3868931E+01
 2.0487251E+01  2.3925880E+01
 2.0498751E+01  2.3976959E+01
 2.0510250E+01  2.3949766E+01
 2.0521751E+01  2.3872269E+01
 2.0533251E+01  2.3889362E+01
 2.0544750E+01  2.3935186E+01
 2.0556252E+01  2.4056490E+01
 2.0567751E+01  2.4138556E+01
 2.0579250E+01  2.4239042E+01
 2.0590752E+01  2.4294840E+01
 2.0602251E+01  2.4297680E+01
 2.0613750E+01  2.4269772E+01
 2.0625252E+01  2.4302361E+01
 2.0636751E+01  2.4402006E+01
 2.0648251E+01  2.4511398E+01
 2.0659752E+01  2.4628206E+01
 2.0671251E+01  2.4723263E+01
 2.0682751E+01  2.4900711E+01
 2.0694250E+01  2.5262579E+01
 2.0705751E+01  2.5929129E+01
 2.0717251E+01  2.7003586E+01
 2.0728750E+01  2.8316042E+01
 2.0740252E+01  2.9686926E+01
 2.0751751E+01  3.1074791E+01
 2.0763250E+01  3.1335527E+01
 2.0774752E+01  3.0809423E+01
 2.0786251E+01  2.9503038E+01
 2.0797750E+01  2.8295233E+01
 2.0809252E+01  2.6814249E+01
 2.0820751E+01  2.5973612E+01
 2.0832251E+01  2.5305683E+01
 2.0843752E+01  2.4876669E+01
 2.0855251E+01  2.4670959E+01
 2.0866751E+01  2.4499693E+01
 2.0878250E+01  2.4399309E+01
 2.0889751E+01  2.4311577E+01
 2.0901251E+01  2.4308359E+01
 2.0912750E+01  2.4293903E+01
 2.0924252E+01  2.4291483E+01
 2.0935751E+01  2.4262676E+01
 2.0947250E+01  2.4318268E+01
 2.0958752E+01  2.4311977E+01
 2.0970251E+01  2.4325489E+01
 2.0981750E+01  2.4280516E+01
 2.0993252E+01  2.4231977E+01
 2.1004751E+01  2.4171598E+01
 2.1016251E+01  2.4090065E+01
 2.1027752E+01  2.4032688E+01
 2.1039251E+01  2.3998381E+01
 2.1050751E+01  2.4021696E+01
 2.1062250E+01  2.4022457E+01
 2.1073751E+01  2.4043922E+01
 2.1085251E+01  2.4062059E+01
 2.1096750E+01  2.4016432E+01
 2.1108252E+01  2.4021301E+01
 2.1119751E+01  2.3996557E+01
 2.1131250E+01  2.3956631E+01
 2.1142752E+01  2.3924728E+01
 2.1154251E+01  2.3859423E+01
 2.1165751E+01  2.3848301E+01
 2.1177252E+01  2.3867590E+01
 2.1188751E+01  2.3918013E+01
 2.1200251E+01  2.3970331E+01
 2.1211752E+01  2.3988493E+01
 2.1223251E+01  2.3998678E+01
 2.1234751E+01  2.3964739E+01
 2.1246250E+01  2.3975300E+01
 2.1257751E+01  2.4003456E+01
 2.1269251E+01  2.4016171E+01
 2.1280750E+01  2.4011583E+01
 2.1292252E+01  2.4016579E+01
 2.1303751E+01  2.4022804E+01
 2.1315250E+01  2.3995960E+01
 2.1326752E+01  2.3969810E+01
 2.1338251E+01  2.3961632E+01
 2.1349751E+01  2.3939407E+01
 2.1361252E+01  2.3952065E+01
 2.1372751E+01  2.4025640E+01
 2.1384251E+01  2.4043903E+01
 2.1395752E+01  2.4040525E+01
 2.1407251E+01  2.3998703E+01
 2.1418751E+01  2.3981382E+01
 2.1430250E+01  2.3957220E+01
 2.1441751E+01  2.3931988E+01
 2.1453251E+01  2.3904528E+01
 2.1464750E+01  2.3913485E+01
 2.1476252E+01  2.3944061E+01
 2.1487751E+01  2.4019520E+01
 2.1499250E+01  2.4021898E+01
 2.1510752E+01  2.4018564E+01
 2.1522251E+01  2.3994629E+01
 2.1533751E+01  2.4035965E+01
 2.1545252E+01  2.4022306E+01
 2.1556751E+01  2.4019127E+01
 2.1568251E+01  2.4023989E+01
 2.1579752E+01  2.4102119E+01
 2.1591251E+01  2.4141409E+01
 2.1602751E+01  2.4187166E+01
 2.1614250E+01  2.4214165E+01
 2.1625751E+01  2.4240702E+01
 2.1637251E+01  2.4233841E+01
 2.1648750E+01  2.4243904E+01
 2.1660252E+01  2.4219442E+01
 2.1671751E+01  2.4196703E+01
 2.1683250E+01  2.4141998E+01
 2.1694752E+01  2.4122061E+01
 2.1706251E+01  2.4124023E+01
 2.1717751E+01  2.4128517E+01
 2.1729252E+01  2.4161373E+01
 2.1740751E+01  2.4186314E+01
 2.1752251E+01  2.4149513E+01
 2.1763752E+01  2.4137733E+01
 2.1775251E+01  2.4195015E+01
 2.1786751E+01  2.4256119E+01
 2.1798250E+01  2.4306572E+01
 2.1809752E+01  2.4286785E+01
 2.1821251E+01  2.4261896E+01
 2.1832750E+01  2.4202238E+01
 2.1844252E+01  2.4206026E+01
 2.1855751E+01  2.4182373E+01
 2.1867250E+01  2.4180254E+01
 2.1878752E+01  2.4174255E+01
 2.1890251E+01  2.4147306E+01
 2.1901751E+01  2.4160606E+01
 2.1913252E+01  2.4141373E+01
 2.1924751E+01  2.4138594E+01
 2.1936251E+01  2.4168602E+01
 2.1947752E+01  2.4226927E+01
 2.1959251E+01  2.4224024E+01
 2.1970751E+01  2.4226582E+01
 2.1982250E+01  2.4270845E+01
 2.1993752E+01  2.4313124E+01
 2.2005251E+01  2.4351654E+01
 2.2016750E+01  2.4371391E+01
 2.2028252E+01  2.4370913E+01
 2.2039751E+01  2.4382179E+01
 2.2051250E+01  2.4422272E+01
 2.2062752E+01  2.4434183E+01
 2.2074251E+01  2.4451754E+01
 2.2085751E+01  2.4427685E+01
 2.2097252E+01  2.4465025E+01
 2.2108751E+01  2.4442842E+01
 2.2120251E+01  2.4474018E+01
 2.2131752E+01  2.4515400E+01
 2.2143251E+01  2.4490580E+01
 2.2154751E+01  2.4409428E+01
 2.2166250E+01  2.4364315E+01
 2.2177752E+01  2.4334896E+01
 2.2189251E+01  2.4295746E+01
 2.2200750E+01  2.4313540E+01
 2.2212252E+01  2.4351767E+01
 2.2223751E+01  2.4410322E+01
 2.2235250E+01  2.4420568E+01
 2.2246752E+01  2.4490108E+01
 2.2258251E+01  2.4510105E+01
 2.2269751E+01  2.4485771E+01
 2.2281252E+01  2.4500639E+01
 2.2292751E+01  2.4571554E+01
 2.2304251E+01  2.4683151E+01
 2.2315752E+01  2.4732874E+01
 2.2327251E+01  2.4685608E+01
 2.2338751E+01  2.4610809E+01
 2.2350250E+01  2.4634192E+01
 2.2361752E+01  2.4671635E+01
 2.2373251E+01  2.4705044E+01
 2.2384750E+01  2.4688059E+01
 2.2396252E+01  2.4707710E+01
 2.2407751E+01  2.4683821E+01
 2.2419250E+01  2.4724442E+01
 2.2430752E+01  2.4762390E+01
 2.2442251E+01  2.4841021E+01
 2.2453751E+01  2.4810715E+01
 2.2465252E+01  2.4803907E+01
 2.2476751E+01  2.4771774E+01
 2.2488251E+01  2.4804325E+01
 2.2499752E+01  2.4805384E+01
 2.2511251E+01  2.4823555E+01
 2.2522751E+01  2.4853334E+01
 2.2534250E+01  2.4841713E+01
 2.2545752E+01  2.4862852E+01
 2.2557251E+01  2.4870955E+01
 2.2568750E+01  2.4859879E+01
 2.2580252E+01  2.4855547E+01
 2.2591751E+01  2.4892973E+01
 2.2603251E+01  2.4923162E+01
 2.2614752E+01  2.4920446E+01
 2.2626251E+01  2.4926451E+01
 2.2637751E+01  2.4947102E+01
 2.2649252E+01  2.4966124E+01
 2.2660751E+01  2.4980398E+01
 2.2672251E+01  2.5017433E+01
 2.2683752E+01  2.5075819E+01
 2.2695251E+01  2.5099695E+01
 2.2706751E+01  2.5108086E+01
 2.2718250E+01  2.5134983E+01
 2.2729752E+01  2.5179974E+01
 2.2741251E+01  2.5230368E+01
 2.2752750E+01  2.5304865E+01
 2.2764252E+01  2.5347759E+01
 2.2775751E+01  2.5346287E+01
 2.2787251E+01  2.5306709E+01
 2.2798752E+01  2.5313082E+01
 2.2810251E+01  2.5386219E+01
 2.2821751E+01  2.5439560E+01
 2.2833252E+01  2.5512135E+01
 2.2844751E+01  2.5554886E+01
 2.2856251E+01  2.5595596E+01
 2.2867750E+01  2.5625616E+01
 2.2879251E+01  2.5611742E+01
 2.2890751E+01  2.5712990E+01
 2.2902250E+01  2.5732414E+01
 2.2913752E+01  2.5875877E+01
 2.2925251E+01  2.5975883E+01
 2.2936750E+01  2.6054615E+01
 2.2948252E+01  2.6079424E+01
 2.2959751E+01  2.6095579E+01
 2.2971251E+01  2.6164146E+01
 2.2982752E+01  2.6187689E+01
 2.2994251E+01  2.6270899E+01
