F:\20151113_APS_34IDE\\Brian\Particle1\OCV\Data_0020.tif
2-Theta Angle (Degrees)
Intensity
       2000
 5.7500005E-03  0.0000000E+00
 1.7250001E-02  0.0000000E+00
 2.8750001E-02  0.0000000E+00
 4.0250003E-02  0.0000000E+00
 5.1750004E-02  0.0000000E+00
 6.3250005E-02  0.0000000E+00
 7.4750006E-02  0.0000000E+00
 8.6250007E-02  0.0000000E+00
 9.7750008E-02  0.0000000E+00
 1.0925001E-01  0.0000000E+00
 1.2075000E-01  0.0000000E+00
 1.3225001E-01  0.0000000E+00
 1.4375001E-01  0.0000000E+00
 1.5525001E-01  0.0000000E+00
 1.6675001E-01  0.0000000E+00
 1.7825001E-01  0.0000000E+00
 1.8975002E-01  0.0000000E+00
 2.0125002E-01  0.0000000E+00
 2.1275002E-01  0.0000000E+00
 2.2425000E-01  0.0000000E+00
 2.3575000E-01  0.0000000E+00
 2.4725001E-01  0.0000000E+00
 2.5875002E-01  0.0000000E+00
 2.7025002E-01  0.0000000E+00
 2.8175002E-01  0.0000000E+00
 2.9325002E-01  0.0000000E+00
 3.0475003E-01  0.0000000E+00
 3.1625003E-01  0.0000000E+00
 3.2775003E-01  0.0000000E+00
 3.3925003E-01  0.0000000E+00
 3.5075003E-01  0.0000000E+00
 3.6225003E-01  0.0000000E+00
 3.7375003E-01  0.0000000E+00
 3.8525003E-01  0.0000000E+00
 3.9675003E-01  0.0000000E+00
 4.0825003E-01  0.0000000E+00
 4.1975003E-01  0.0000000E+00
 4.3125004E-01  0.0000000E+00
 4.4275001E-01  0.0000000E+00
 4.5425001E-01  0.0000000E+00
 4.6575001E-01  0.0000000E+00
 4.7725001E-01  0.0000000E+00
 4.8875001E-01  0.0000000E+00
 5.0025004E-01  0.0000000E+00
 5.1175004E-01  0.0000000E+00
 5.2325004E-01  0.0000000E+00
 5.3475004E-01  0.0000000E+00
 5.4625005E-01  0.0000000E+00
 5.5775005E-01  0.0000000E+00
 5.6925005E-01  0.0000000E+00
 5.8075005E-01  0.0000000E+00
 5.9225005E-01  0.0000000E+00
 6.0375005E-01  0.0000000E+00
 6.1525005E-01  0.0000000E+00
 6.2675005E-01  0.0000000E+00
 6.3825005E-01  0.0000000E+00
 6.4975005E-01  0.0000000E+00
 6.6125005E-01  0.0000000E+00
 6.7275006E-01  0.0000000E+00
 6.8425006E-01  0.0000000E+00
 6.9575006E-01  0.0000000E+00
 7.0725006E-01  0.0000000E+00
 7.1875006E-01  0.0000000E+00
 7.3025006E-01  0.0000000E+00
 7.4175006E-01  0.0000000E+00
 7.5325006E-01  0.0000000E+00
 7.6475006E-01  0.0000000E+00
 7.7625006E-01  0.0000000E+00
 7.8775007E-01  0.0000000E+00
 7.9925007E-01  0.0000000E+00
 8.1075007E-01  0.0000000E+00
 8.2225007E-01  0.0000000E+00
 8.3375007E-01  0.0000000E+00
 8.4525007E-01  0.0000000E+00
 8.5675007E-01  0.0000000E+00
 8.6825007E-01  0.0000000E+00
 8.7975001E-01  0.0000000E+00
 8.9125001E-01  0.0000000E+00
 9.0275002E-01  0.0000000E+00
 9.1425002E-01  0.0000000E+00
 9.2575002E-01  0.0000000E+00
 9.3725002E-01  0.0000000E+00
 9.4875002E-01  0.0000000E+00
 9.6025002E-01  0.0000000E+00
 9.7175002E-01  0.0000000E+00
 9.8325002E-01  0.0000000E+00
 9.9475002E-01  0.0000000E+00
 1.0062500E+00  0.0000000E+00
 1.0177500E+00  0.0000000E+00
 1.0292500E+00  0.0000000E+00
 1.0407500E+00  0.0000000E+00
 1.0522500E+00  0.0000000E+00
 1.0637500E+00  0.0000000E+00
 1.0752500E+00  0.0000000E+00
 1.0867500E+00  0.0000000E+00
 1.0982500E+00  0.0000000E+00
 1.1097500E+00  0.0000000E+00
 1.1212500E+00  0.0000000E+00
 1.1327500E+00  0.0000000E+00
 1.1442500E+00  0.0000000E+00
 1.1557500E+00  0.0000000E+00
 1.1672500E+00  0.0000000E+00
 1.1787500E+00  0.0000000E+00
 1.1902500E+00  0.0000000E+00
 1.2017500E+00  0.0000000E+00
 1.2132500E+00  0.0000000E+00
 1.2247500E+00  0.0000000E+00
 1.2362500E+00  0.0000000E+00
 1.2477500E+00  0.0000000E+00
 1.2592500E+00  0.0000000E+00
 1.2707500E+00  0.0000000E+00
 1.2822500E+00  0.0000000E+00
 1.2937500E+00  0.0000000E+00
 1.3052500E+00  0.0000000E+00
 1.3167500E+00  0.0000000E+00
 1.3282501E+00  0.0000000E+00
 1.3397501E+00  0.0000000E+00
 1.3512501E+00  0.0000000E+00
 1.3627501E+00  0.0000000E+00
 1.3742501E+00  0.0000000E+00
 1.3857501E+00  0.0000000E+00
 1.3972501E+00  0.0000000E+00
 1.4087501E+00  0.0000000E+00
 1.4202501E+00  0.0000000E+00
 1.4317501E+00  0.0000000E+00
 1.4432501E+00  0.0000000E+00
 1.4547501E+00  0.0000000E+00
 1.4662501E+00  0.0000000E+00
 1.4777501E+00  0.0000000E+00
 1.4892501E+00  0.0000000E+00
 1.5007501E+00  0.0000000E+00
 1.5122501E+00  0.0000000E+00
 1.5237501E+00  0.0000000E+00
 1.5352501E+00  0.0000000E+00
 1.5467501E+00  0.0000000E+00
 1.5582501E+00  0.0000000E+00
 1.5697501E+00  0.0000000E+00
 1.5812501E+00  0.0000000E+00
 1.5927501E+00  0.0000000E+00
 1.6042501E+00  0.0000000E+00
 1.6157501E+00  0.0000000E+00
 1.6272501E+00  0.0000000E+00
 1.6387501E+00  0.0000000E+00
 1.6502501E+00  0.0000000E+00
 1.6617501E+00  0.0000000E+00
 1.6732501E+00  0.0000000E+00
 1.6847501E+00  0.0000000E+00
 1.6962501E+00  0.0000000E+00
 1.7077501E+00  0.0000000E+00
 1.7192501E+00  0.0000000E+00
 1.7307501E+00  0.0000000E+00
 1.7422501E+00  0.0000000E+00
 1.7537501E+00  0.0000000E+00
 1.7652501E+00  0.0000000E+00
 1.7767501E+00  0.0000000E+00
 1.7882501E+00  0.0000000E+00
 1.7997501E+00  0.0000000E+00
 1.8112501E+00  0.0000000E+00
 1.8227501E+00  0.0000000E+00
 1.8342501E+00  0.0000000E+00
 1.8457501E+00  0.0000000E+00
 1.8572501E+00  0.0000000E+00
 1.8687501E+00  0.0000000E+00
 1.8802501E+00  0.0000000E+00
 1.8917501E+00  0.0000000E+00
 1.9032501E+00  0.0000000E+00
 1.9147501E+00  0.0000000E+00
 1.9262501E+00  0.0000000E+00
 1.9377501E+00  0.0000000E+00
 1.9492501E+00  0.0000000E+00
 1.9607501E+00  0.0000000E+00
 1.9722501E+00  0.0000000E+00
 1.9837501E+00  0.0000000E+00
 1.9952501E+00  0.0000000E+00
 2.0067501E+00  0.0000000E+00
 2.0182500E+00  0.0000000E+00
 2.0297501E+00  0.0000000E+00
 2.0412500E+00  0.0000000E+00
 2.0527501E+00  0.0000000E+00
 2.0642500E+00  0.0000000E+00
 2.0757501E+00  0.0000000E+00
 2.0872500E+00  0.0000000E+00
 2.0987501E+00  0.0000000E+00
 2.1102500E+00  0.0000000E+00
 2.1217501E+00  0.0000000E+00
 2.1332500E+00  0.0000000E+00
 2.1447501E+00  0.0000000E+00
 2.1562500E+00  0.0000000E+00
 2.1677501E+00  0.0000000E+00
 2.1792500E+00  0.0000000E+00
 2.1907501E+00  0.0000000E+00
 2.2022500E+00  0.0000000E+00
 2.2137501E+00  0.0000000E+00
 2.2252500E+00  0.0000000E+00
 2.2367501E+00  0.0000000E+00
 2.2482500E+00  0.0000000E+00
 2.2597501E+00  0.0000000E+00
 2.2712500E+00  0.0000000E+00
 2.2827501E+00  0.0000000E+00
 2.2942500E+00  0.0000000E+00
 2.3057501E+00  0.0000000E+00
 2.3172500E+00  0.0000000E+00
 2.3287501E+00  0.0000000E+00
 2.3402500E+00  0.0000000E+00
 2.3517501E+00  0.0000000E+00
 2.3632500E+00  0.0000000E+00
 2.3747501E+00  0.0000000E+00
 2.3862500E+00  0.0000000E+00
 2.3977501E+00  0.0000000E+00
 2.4092500E+00  0.0000000E+00
 2.4207501E+00  0.0000000E+00
 2.4322500E+00  0.0000000E+00
 2.4437501E+00  0.0000000E+00
 2.4552500E+00  0.0000000E+00
 2.4667501E+00  0.0000000E+00
 2.4782500E+00  0.0000000E+00
 2.4897501E+00  0.0000000E+00
 2.5012500E+00  0.0000000E+00
 2.5127501E+00  0.0000000E+00
 2.5242500E+00  0.0000000E+00
 2.5357502E+00  0.0000000E+00
 2.5472500E+00  0.0000000E+00
 2.5587502E+00  0.0000000E+00
 2.5702500E+00  0.0000000E+00
 2.5817502E+00  0.0000000E+00
 2.5932500E+00  0.0000000E+00
 2.6047502E+00  0.0000000E+00
 2.6162500E+00  0.0000000E+00
 2.6277502E+00  0.0000000E+00
 2.6392500E+00  0.0000000E+00
 2.6507502E+00  0.0000000E+00
 2.6622500E+00  0.0000000E+00
 2.6737502E+00  0.0000000E+00
 2.6852500E+00  0.0000000E+00
 2.6967502E+00  0.0000000E+00
 2.7082500E+00  0.0000000E+00
 2.7197502E+00  0.0000000E+00
 2.7312500E+00  0.0000000E+00
 2.7427502E+00  0.0000000E+00
 2.7542500E+00  0.0000000E+00
 2.7657502E+00  0.0000000E+00
 2.7772501E+00  0.0000000E+00
 2.7887502E+00  0.0000000E+00
 2.8002501E+00  0.0000000E+00
 2.8117502E+00  0.0000000E+00
 2.8232501E+00  3.5101185E+01
 2.8347502E+00  3.5979843E+01
 2.8462501E+00  3.5935081E+01
 2.8577502E+00  3.5359112E+01
 2.8692501E+00  3.4821541E+01
 2.8807502E+00  3.4277199E+01
 2.8922501E+00  3.4267311E+01
 2.9037502E+00  3.4557861E+01
 2.9152501E+00  3.5278320E+01
 2.9267502E+00  3.6018169E+01
 2.9382501E+00  3.6595955E+01
 2.9497502E+00  3.6657539E+01
 2.9612501E+00  3.6593891E+01
 2.9727502E+00  3.6177979E+01
 2.9842501E+00  3.5717430E+01
 2.9957502E+00  3.5530289E+01
 3.0072501E+00  3.5697746E+01
 3.0187502E+00  3.6129257E+01
 3.0302501E+00  3.6033802E+01
 3.0417502E+00  3.6247021E+01
 3.0532501E+00  3.5882542E+01
 3.0647502E+00  3.5935608E+01
 3.0762501E+00  3.5458107E+01
 3.0877502E+00  3.5540356E+01
 3.0992501E+00  3.5633839E+01
 3.1107502E+00  3.5201630E+01
 3.1222501E+00  3.5328888E+01
 3.1337502E+00  3.5079926E+01
 3.1452501E+00  3.5357616E+01
 3.1567502E+00  3.5451935E+01
 3.1682501E+00  3.5267395E+01
 3.1797502E+00  3.5453949E+01
 3.1912501E+00  3.5156441E+01
 3.2027502E+00  3.5316975E+01
 3.2142501E+00  3.5261112E+01
 3.2257502E+00  3.5283131E+01
 3.2372501E+00  3.5113670E+01
 3.2487502E+00  3.4723763E+01
 3.2602501E+00  3.4620800E+01
 3.2717502E+00  3.4273174E+01
 3.2832501E+00  3.4075581E+01
 3.2947502E+00  3.4018444E+01
 3.3062501E+00  3.3895668E+01
 3.3177502E+00  3.3979591E+01
 3.3292501E+00  3.3870270E+01
 3.3407502E+00  3.3987530E+01
 3.3522501E+00  3.3941925E+01
 3.3637502E+00  3.4089390E+01
 3.3752501E+00  3.4165733E+01
 3.3867502E+00  3.4506023E+01
 3.3982501E+00  3.4633251E+01
 3.4097502E+00  3.4587391E+01
 3.4212501E+00  3.4432392E+01
 3.4327502E+00  3.4385098E+01
 3.4442501E+00  3.4432976E+01
 3.4557502E+00  3.4499611E+01
 3.4672501E+00  3.4739723E+01
 3.4787502E+00  3.4688591E+01
 3.4902501E+00  3.4945145E+01
 3.5017502E+00  3.4528725E+01
 3.5132501E+00  3.4251709E+01
 3.5247502E+00  3.3832245E+01
 3.5362501E+00  3.3689632E+01
 3.5477502E+00  3.3611660E+01
 3.5592501E+00  3.3722084E+01
 3.5707502E+00  3.3663750E+01
 3.5822501E+00  3.3658199E+01
 3.5937502E+00  3.3704147E+01
 3.6052501E+00  3.3652527E+01
 3.6167502E+00  3.3761856E+01
 3.6282501E+00  3.3774815E+01
 3.6397502E+00  3.3587540E+01
 3.6512501E+00  3.3640339E+01
 3.6627502E+00  3.3448997E+01
 3.6742501E+00  3.3355236E+01
 3.6857502E+00  3.3216724E+01
 3.6972501E+00  3.3035023E+01
 3.7087502E+00  3.3212967E+01
 3.7202501E+00  3.3116051E+01
 3.7317502E+00  3.3108109E+01
 3.7432501E+00  3.2961395E+01
 3.7547503E+00  3.3060104E+01
 3.7662501E+00  3.2845707E+01
 3.7777503E+00  3.2728458E+01
 3.7892501E+00  3.2403896E+01
 3.8007503E+00  3.2367500E+01
 3.8122501E+00  3.2502384E+01
 3.8237503E+00  3.2760002E+01
 3.8352501E+00  3.3055374E+01
 3.8467503E+00  3.3186440E+01
 3.8582501E+00  3.3038273E+01
 3.8697503E+00  3.2979073E+01
 3.8812501E+00  3.3036488E+01
 3.8927503E+00  3.2881824E+01
 3.9042501E+00  3.2865097E+01
 3.9157503E+00  3.2554523E+01
 3.9272501E+00  3.2480572E+01
 3.9387503E+00  3.2326191E+01
 3.9502501E+00  3.2264587E+01
 3.9617503E+00  3.2429073E+01
 3.9732502E+00  3.2629753E+01
 3.9847503E+00  3.2649639E+01
 3.9962502E+00  3.2644588E+01
 4.0077500E+00  3.2479286E+01
 4.0192504E+00  3.2521893E+01
 4.0307503E+00  3.2580299E+01
 4.0422502E+00  3.2700779E+01
 4.0537500E+00  3.2801575E+01
 4.0652504E+00  3.2642891E+01
 4.0767503E+00  3.2519611E+01
 4.0882502E+00  3.2511978E+01
 4.0997500E+00  3.2714802E+01
 4.1112504E+00  3.2811359E+01
 4.1227503E+00  3.2737953E+01
 4.1342502E+00  3.2634350E+01
 4.1457500E+00  3.2454853E+01
 4.1572504E+00  3.2315392E+01
 4.1687503E+00  3.2182800E+01
 4.1802502E+00  3.2101334E+01
 4.1917500E+00  3.2098728E+01
 4.2032504E+00  3.2102692E+01
 4.2147503E+00  3.2185349E+01
 4.2262502E+00  3.2267319E+01
 4.2377501E+00  3.2427265E+01
 4.2492504E+00  3.2499924E+01
 4.2607503E+00  3.2628101E+01
 4.2722502E+00  3.2654572E+01
 4.2837501E+00  3.2814480E+01
 4.2952504E+00  3.2928364E+01
 4.3067503E+00  3.2878361E+01
 4.3182502E+00  3.2858570E+01
 4.3297501E+00  3.2749313E+01
 4.3412504E+00  3.2741268E+01
 4.3527503E+00  3.2750813E+01
 4.3642502E+00  3.2784206E+01
 4.3757501E+00  3.2775402E+01
 4.3872504E+00  3.2744282E+01
 4.3987503E+00  3.2645508E+01
 4.4102502E+00  3.2658619E+01
 4.4217501E+00  3.2568745E+01
 4.4332504E+00  3.2669998E+01
 4.4447503E+00  3.2809647E+01
 4.4562502E+00  3.2869579E+01
 4.4677501E+00  3.2934418E+01
 4.4792504E+00  3.2969414E+01
 4.4907503E+00  3.3022690E+01
 4.5022502E+00  3.3033638E+01
 4.5137501E+00  3.2951462E+01
 4.5252504E+00  3.2869484E+01
 4.5367503E+00  3.2906437E+01
 4.5482502E+00  3.2683174E+01
 4.5597501E+00  3.2629044E+01
 4.5712504E+00  3.2443771E+01
 4.5827503E+00  3.2440521E+01
 4.5942502E+00  3.2483311E+01
 4.6057501E+00  3.2559238E+01
 4.6172504E+00  3.2510387E+01
 4.6287503E+00  3.2415619E+01
 4.6402502E+00  3.2339886E+01
 4.6517501E+00  3.2470009E+01
 4.6632504E+00  3.2593155E+01
 4.6747503E+00  3.2646000E+01
 4.6862502E+00  3.2672188E+01
 4.6977501E+00  3.2772430E+01
 4.7092505E+00  3.2726448E+01
 4.7207503E+00  3.2634407E+01
 4.7322502E+00  3.2527988E+01
 4.7437501E+00  3.2478554E+01
 4.7552505E+00  3.2486115E+01
 4.7667503E+00  3.2498352E+01
 4.7782502E+00  3.2566368E+01
 4.7897501E+00  3.2599617E+01
 4.8012505E+00  3.2538139E+01
 4.8127503E+00  3.2573982E+01
 4.8242502E+00  3.2620533E+01
 4.8357501E+00  3.2746830E+01
 4.8472505E+00  3.2736950E+01
 4.8587503E+00  3.2838470E+01
 4.8702502E+00  3.2818211E+01
 4.8817501E+00  3.2783981E+01
 4.8932505E+00  3.2690876E+01
 4.9047503E+00  3.2564259E+01
 4.9162502E+00  3.2644238E+01
 4.9277501E+00  3.2518703E+01
 4.9392505E+00  3.2595490E+01
 4.9507504E+00  3.2411175E+01
 4.9622502E+00  3.2440765E+01
 4.9737501E+00  3.2405258E+01
 4.9852505E+00  3.2635345E+01
 4.9967504E+00  3.2741013E+01
 5.0082502E+00  3.3028599E+01
 5.0197501E+00  3.3063007E+01
 5.0312505E+00  3.3247536E+01
 5.0427504E+00  3.3262543E+01
 5.0542502E+00  3.3244232E+01
 5.0657501E+00  3.3259731E+01
 5.0772505E+00  3.3334030E+01
 5.0887504E+00  3.3467541E+01
 5.1002502E+00  3.3504948E+01
 5.1117501E+00  3.3474091E+01
 5.1232505E+00  3.3436745E+01
 5.1347504E+00  3.3625763E+01
 5.1462502E+00  3.3643810E+01
 5.1577501E+00  3.3699997E+01
 5.1692505E+00  3.3701309E+01
 5.1807504E+00  3.3884003E+01
 5.1922503E+00  3.4022999E+01
 5.2037501E+00  3.4068756E+01
 5.2152505E+00  3.4040543E+01
 5.2267504E+00  3.4111347E+01
 5.2382503E+00  3.4277348E+01
 5.2497501E+00  3.4327557E+01
 5.2612505E+00  3.4397499E+01
 5.2727504E+00  3.4333546E+01
 5.2842503E+00  3.4424511E+01
 5.2957501E+00  3.4517029E+01
 5.3072500E+00  3.4648518E+01
 5.3187504E+00  3.4644176E+01
 5.3302503E+00  3.4579067E+01
 5.3417501E+00  3.4417118E+01
 5.3532500E+00  3.4323021E+01
 5.3647504E+00  3.4211826E+01
 5.3762503E+00  3.4264481E+01
 5.3877501E+00  3.4411648E+01
 5.3992500E+00  3.4553394E+01
 5.4107504E+00  3.4600639E+01
 5.4222503E+00  3.4625114E+01
 5.4337502E+00  3.4586067E+01
 5.4452500E+00  3.4668167E+01
 5.4567504E+00  3.4795731E+01
 5.4682503E+00  3.4849068E+01
 5.4797502E+00  3.4899555E+01
 5.4912500E+00  3.4783710E+01
 5.5027504E+00  3.4738075E+01
 5.5142503E+00  3.4803650E+01
 5.5257502E+00  3.4776844E+01
 5.5372500E+00  3.4777084E+01
 5.5487504E+00  3.4776844E+01
 5.5602503E+00  3.4765369E+01
 5.5717502E+00  3.4870609E+01
 5.5832500E+00  3.4895695E+01
 5.5947504E+00  3.5035770E+01
 5.6062503E+00  3.5113003E+01
 5.6177502E+00  3.5176365E+01
 5.6292500E+00  3.5056770E+01
 5.6407504E+00  3.5109348E+01
 5.6522503E+00  3.5075096E+01
 5.6637502E+00  3.5162842E+01
 5.6752501E+00  3.5345551E+01
 5.6867504E+00  3.5493347E+01
 5.6982503E+00  3.5647820E+01
 5.7097502E+00  3.5688255E+01
 5.7212501E+00  3.5661011E+01
 5.7327504E+00  3.5731510E+01
 5.7442503E+00  3.5771267E+01
 5.7557502E+00  3.5881840E+01
 5.7672501E+00  3.5893143E+01
 5.7787504E+00  3.5940353E+01
 5.7902503E+00  3.6069710E+01
 5.8017502E+00  3.6115929E+01
 5.8132501E+00  3.6118084E+01
 5.8247504E+00  3.5989037E+01
 5.8362503E+00  3.6014050E+01
 5.8477502E+00  3.6029114E+01
 5.8592501E+00  3.6051109E+01
 5.8707504E+00  3.6211502E+01
 5.8822503E+00  3.6322433E+01
 5.8937502E+00  3.6608562E+01
 5.9052501E+00  3.6791172E+01
 5.9167504E+00  3.7065048E+01
 5.9282503E+00  3.7980499E+01
 5.9397502E+00  3.8522526E+01
 5.9512501E+00  4.0142494E+01
 5.9627504E+00  4.2361198E+01
 5.9742503E+00  4.3278828E+01
 5.9857502E+00  4.5316311E+01
 5.9972501E+00  4.5671669E+01
 6.0087504E+00  4.5175400E+01
 6.0202503E+00  4.3412731E+01
 6.0317502E+00  4.0362431E+01
 6.0432501E+00  3.9472912E+01
 6.0547504E+00  3.8203629E+01
 6.0662503E+00  3.7519249E+01
 6.0777502E+00  3.7308079E+01
 6.0892501E+00  3.7195549E+01
 6.1007504E+00  3.6955067E+01
 6.1122503E+00  3.6962429E+01
 6.1237502E+00  3.6810825E+01
 6.1352501E+00  3.6741634E+01
 6.1467505E+00  3.6723606E+01
 6.1582503E+00  3.6895134E+01
 6.1697502E+00  3.7045982E+01
 6.1812501E+00  3.7166222E+01
 6.1927505E+00  3.7109886E+01
 6.2042503E+00  3.7128807E+01
 6.2157502E+00  3.7171684E+01
 6.2272501E+00  3.7168159E+01
 6.2387505E+00  3.7221245E+01
 6.2502503E+00  3.7292942E+01
 6.2617502E+00  3.7470123E+01
 6.2732501E+00  3.7670868E+01
 6.2847505E+00  3.7835823E+01
 6.2962503E+00  3.7949005E+01
 6.3077502E+00  3.7989918E+01
 6.3192501E+00  3.7943226E+01
 6.3307505E+00  3.8041931E+01
 6.3422503E+00  3.8052845E+01
 6.3537502E+00  3.8106472E+01
 6.3652501E+00  3.8093452E+01
 6.3767505E+00  3.8135868E+01
 6.3882504E+00  3.8326439E+01
 6.3997502E+00  3.8420040E+01
 6.4112501E+00  3.8447147E+01
 6.4227505E+00  3.8464729E+01
 6.4342504E+00  3.8477203E+01
 6.4457502E+00  3.8657921E+01
 6.4572501E+00  3.8701473E+01
 6.4687505E+00  3.8789925E+01
 6.4802504E+00  3.8847912E+01
 6.4917502E+00  3.9000706E+01
 6.5032501E+00  3.9121929E+01
 6.5147505E+00  3.9224285E+01
 6.5262504E+00  3.9198322E+01
 6.5377502E+00  3.9267437E+01
 6.5492501E+00  3.9273613E+01
 6.5607505E+00  3.9501560E+01
 6.5722504E+00  3.9539928E+01
 6.5837502E+00  3.9724220E+01
 6.5952501E+00  3.9657753E+01
 6.6067505E+00  3.9682743E+01
 6.6182504E+00  3.9670353E+01
 6.6297503E+00  3.9724297E+01
 6.6412501E+00  3.9846966E+01
 6.6527505E+00  3.9948452E+01
 6.6642504E+00  4.0114632E+01
 6.6757503E+00  4.0206192E+01
 6.6872501E+00  4.0291798E+01
 6.6987505E+00  4.0296268E+01
 6.7102504E+00  4.0443115E+01
 6.7217503E+00  4.0522030E+01
 6.7332501E+00  4.0625111E+01
 6.7447505E+00  4.0635517E+01
 6.7562504E+00  4.0671394E+01
 6.7677503E+00  4.0781269E+01
 6.7792501E+00  4.0871872E+01
 6.7907505E+00  4.0989292E+01
 6.8022504E+00  4.1061993E+01
 6.8137503E+00  4.1282593E+01
 6.8252501E+00  4.1467968E+01
 6.8367505E+00  4.1686852E+01
 6.8482504E+00  4.1775627E+01
 6.8597503E+00  4.1758808E+01
 6.8712502E+00  4.1711853E+01
 6.8827505E+00  4.1751930E+01
 6.8942504E+00  4.1827507E+01
 6.9057503E+00  4.1901386E+01
 6.9172502E+00  4.1909805E+01
 6.9287505E+00  4.1852600E+01
 6.9402504E+00  4.1937035E+01
 6.9517503E+00  4.1879032E+01
 6.9632502E+00  4.1901566E+01
 6.9747505E+00  4.1969444E+01
 6.9862504E+00  4.2084496E+01
 6.9977503E+00  4.2215530E+01
 7.0092502E+00  4.2287029E+01
 7.0207505E+00  4.2366520E+01
 7.0322504E+00  4.2548302E+01
 7.0437503E+00  4.2618885E+01
 7.0552502E+00  4.2628864E+01
 7.0667505E+00  4.2699409E+01
 7.0782504E+00  4.2741974E+01
 7.0897503E+00  4.2803661E+01
 7.1012502E+00  4.2820557E+01
 7.1127505E+00  4.2913048E+01
 7.1242504E+00  4.3092289E+01
 7.1357503E+00  4.3193722E+01
 7.1472502E+00  4.3257599E+01
 7.1587505E+00  4.3336784E+01
 7.1702504E+00  4.3430187E+01
 7.1817503E+00  4.3574234E+01
 7.1932502E+00  4.3621281E+01
 7.2047505E+00  4.3674232E+01
 7.2162504E+00  4.3595623E+01
 7.2277503E+00  4.3611755E+01
 7.2392502E+00  4.3592308E+01
 7.2507505E+00  4.3651192E+01
 7.2622504E+00  4.3693035E+01
 7.2737503E+00  4.3817139E+01
 7.2852502E+00  4.3903233E+01
 7.2967505E+00  4.3981804E+01
 7.3082504E+00  4.3938202E+01
 7.3197503E+00  4.3867611E+01
 7.3312502E+00  4.3968342E+01
 7.3427505E+00  4.3996101E+01
 7.3542504E+00  4.4083374E+01
 7.3657503E+00  4.4111511E+01
 7.3772502E+00  4.4253666E+01
 7.3887506E+00  4.4319881E+01
 7.4002504E+00  4.4347458E+01
 7.4117503E+00  4.4330559E+01
 7.4232502E+00  4.4323879E+01
 7.4347506E+00  4.4377342E+01
 7.4462504E+00  4.4436806E+01
 7.4577503E+00  4.4469219E+01
 7.4692502E+00  4.4343212E+01
 7.4807506E+00  4.4191517E+01
 7.4922504E+00  4.4164497E+01
 7.5037503E+00  4.4115700E+01
 7.5152502E+00  4.4112698E+01
 7.5267506E+00  4.4093048E+01
 7.5382504E+00  4.4196190E+01
 7.5497503E+00  4.4211666E+01
 7.5612502E+00  4.4295025E+01
 7.5727506E+00  4.4291988E+01
 7.5842505E+00  4.4349285E+01
 7.5957503E+00  4.4286133E+01
 7.6072502E+00  4.4283623E+01
 7.6187506E+00  4.4306881E+01
 7.6302505E+00  4.4354866E+01
 7.6417503E+00  4.4346798E+01
 7.6532502E+00  4.4317097E+01
 7.6647506E+00  4.4389793E+01
 7.6762505E+00  4.4430195E+01
 7.6877503E+00  4.4533188E+01
 7.6992502E+00  4.4490330E+01
 7.7107506E+00  4.4493401E+01
 7.7222505E+00  4.4484219E+01
 7.7337503E+00  4.4467594E+01
 7.7452502E+00  4.4508297E+01
 7.7567506E+00  4.4503551E+01
 7.7682505E+00  4.4403969E+01
 7.7797503E+00  4.4299244E+01
 7.7912502E+00  4.4108051E+01
 7.8027506E+00  4.3995277E+01
 7.8142505E+00  4.3897667E+01
 7.8257504E+00  4.3952358E+01
 7.8372502E+00  4.4031712E+01
 7.8487506E+00  4.4193481E+01
 7.8602505E+00  4.4184341E+01
 7.8717504E+00  4.4194756E+01
 7.8832502E+00  4.4162960E+01
 7.8947506E+00  4.4108250E+01
 7.9062505E+00  4.4165768E+01
 7.9177504E+00  4.4187229E+01
 7.9292502E+00  4.4194031E+01
 7.9407506E+00  4.4055538E+01
 7.9522505E+00  4.3880917E+01
 7.9637504E+00  4.3739632E+01
 7.9752502E+00  4.3614422E+01
 7.9867506E+00  4.3588673E+01
 7.9982505E+00  4.3572014E+01
 8.0097504E+00  4.3528217E+01
 8.0212507E+00  4.3383537E+01
 8.0327501E+00  4.3302528E+01
 8.0442505E+00  4.3312904E+01
 8.0557508E+00  4.3186317E+01
 8.0672503E+00  4.2920025E+01
 8.0787506E+00  4.2693825E+01
 8.0902500E+00  4.2582317E+01
 8.1017504E+00  4.2619366E+01
 8.1132507E+00  4.2676800E+01
 8.1247501E+00  4.2720245E+01
 8.1362505E+00  4.2712044E+01
 8.1477509E+00  4.2707874E+01
 8.1592503E+00  4.2593731E+01
 8.1707506E+00  4.2457367E+01
 8.1822500E+00  4.2212284E+01
 8.1937504E+00  4.2097092E+01
 8.2052507E+00  4.1946354E+01
 8.2167501E+00  4.1756454E+01
 8.2282505E+00  4.1603882E+01
 8.2397509E+00  4.1403961E+01
 8.2512503E+00  4.1260803E+01
 8.2627506E+00  4.1140965E+01
 8.2742500E+00  4.1061565E+01
 8.2857504E+00  4.0924278E+01
 8.2972507E+00  4.0845436E+01
 8.3087502E+00  4.0743031E+01
 8.3202505E+00  4.0752781E+01
 8.3317509E+00  4.0540298E+01
 8.3432503E+00  4.0425373E+01
 8.3547506E+00  4.0182941E+01
 8.3662500E+00  4.0063042E+01
 8.3777504E+00  3.9822979E+01
 8.3892508E+00  3.9802845E+01
 8.4007502E+00  3.9675854E+01
 8.4122505E+00  3.9620533E+01
 8.4237509E+00  3.9493755E+01
 8.4352503E+00  3.9358448E+01
 8.4467506E+00  3.9194221E+01
 8.4582500E+00  3.9037376E+01
 8.4697504E+00  3.8812889E+01
 8.4812508E+00  3.8556847E+01
 8.4927502E+00  3.8247559E+01
 8.5042505E+00  3.7977535E+01
 8.5157509E+00  3.7845329E+01
 8.5272503E+00  3.7645321E+01
 8.5387506E+00  3.7547062E+01
 8.5502501E+00  3.7384075E+01
 8.5617504E+00  3.7296722E+01
 8.5732508E+00  3.7145500E+01
 8.5847502E+00  3.6961487E+01
 8.5962505E+00  3.6608109E+01
 8.6077509E+00  3.6297028E+01
 8.6192503E+00  3.6035355E+01
 8.6307507E+00  3.5847851E+01
 8.6422501E+00  3.5739731E+01
 8.6537504E+00  3.5586807E+01
 8.6652508E+00  3.5460075E+01
 8.6767502E+00  3.5299969E+01
 8.6882505E+00  3.5103294E+01
 8.6997509E+00  3.4961483E+01
 8.7112503E+00  3.4778873E+01
 8.7227507E+00  3.4604511E+01
 8.7342501E+00  3.4380589E+01
 8.7457504E+00  3.4172344E+01
 8.7572508E+00  3.4025364E+01
 8.7687502E+00  3.3942482E+01
 8.7802505E+00  3.3887177E+01
 8.7917500E+00  3.3725822E+01
 8.8032503E+00  3.3550541E+01
 8.8147507E+00  3.3317501E+01
 8.8262501E+00  3.3111923E+01
 8.8377504E+00  3.2922478E+01
 8.8492508E+00  3.2733494E+01
 8.8607502E+00  3.2611168E+01
 8.8722506E+00  3.2492626E+01
 8.8837500E+00  3.2363968E+01
 8.8952503E+00  3.2239258E+01
 8.9067507E+00  3.2052029E+01
 8.9182501E+00  3.1954941E+01
 8.9297504E+00  3.1832884E+01
 8.9412508E+00  3.1731783E+01
 8.9527502E+00  3.1559177E+01
 8.9642506E+00  3.1320616E+01
 8.9757500E+00  3.1084583E+01
 8.9872503E+00  3.0909798E+01
 8.9987507E+00  3.0704178E+01
 9.0102501E+00  3.0559954E+01
 9.0217505E+00  3.0368717E+01
 9.0332508E+00  3.0251614E+01
 9.0447502E+00  3.0150049E+01
 9.0562506E+00  2.9958372E+01
 9.0677500E+00  2.9853796E+01
 9.0792503E+00  2.9712891E+01
 9.0907507E+00  2.9677156E+01
 9.1022501E+00  2.9599266E+01
 9.1137505E+00  2.9464262E+01
 9.1252508E+00  2.9346619E+01
 9.1367502E+00  2.9176895E+01
 9.1482506E+00  2.9105986E+01
 9.1597500E+00  2.9002941E+01
 9.1712503E+00  2.8909222E+01
 9.1827507E+00  2.8756397E+01
 9.1942501E+00  2.8619678E+01
 9.2057505E+00  2.8498699E+01
 9.2172508E+00  2.8396173E+01
 9.2287502E+00  2.8245010E+01
 9.2402506E+00  2.8192474E+01
 9.2517500E+00  2.8176208E+01
 9.2632504E+00  2.8143524E+01
 9.2747507E+00  2.7984400E+01
 9.2862501E+00  2.7816599E+01
 9.2977505E+00  2.7707710E+01
 9.3092508E+00  2.7591717E+01
 9.3207502E+00  2.7474432E+01
 9.3322506E+00  2.7334318E+01
 9.3437500E+00  2.7246880E+01
 9.3552504E+00  2.7187449E+01
 9.3667507E+00  2.7116364E+01
 9.3782501E+00  2.7089949E+01
 9.3897505E+00  2.6988691E+01
 9.4012508E+00  2.6921511E+01
 9.4127502E+00  2.6799995E+01
 9.4242506E+00  2.6659885E+01
 9.4357500E+00  2.6549150E+01
 9.4472504E+00  2.6471548E+01
 9.4587507E+00  2.6500792E+01
 9.4702501E+00  2.6498121E+01
 9.4817505E+00  2.6476198E+01
 9.4932508E+00  2.6419888E+01
 9.5047503E+00  2.6390474E+01
 9.5162506E+00  2.6306141E+01
 9.5277500E+00  2.6220526E+01
 9.5392504E+00  2.6156748E+01
 9.5507507E+00  2.6145508E+01
 9.5622501E+00  2.6221533E+01
 9.5737505E+00  2.6159477E+01
 9.5852509E+00  2.6084694E+01
 9.5967503E+00  2.6023836E+01
 9.6082506E+00  2.5994974E+01
 9.6197500E+00  2.5983536E+01
 9.6312504E+00  2.5804649E+01
 9.6427507E+00  2.5617958E+01
 9.6542501E+00  2.5437756E+01
 9.6657505E+00  2.5322412E+01
 9.6772509E+00  2.5233423E+01
 9.6887503E+00  2.5181347E+01
 9.7002506E+00  2.5154535E+01
 9.7117500E+00  2.5161818E+01
 9.7232504E+00  2.5181097E+01
 9.7347507E+00  2.5154886E+01
 9.7462502E+00  2.5208000E+01
 9.7577505E+00  2.5135525E+01
 9.7692509E+00  2.5127701E+01
 9.7807503E+00  2.5012459E+01
 9.7922506E+00  2.4950724E+01
 9.8037500E+00  2.4865040E+01
 9.8152504E+00  2.4856068E+01
 9.8267508E+00  2.4923651E+01
 9.8382502E+00  2.4924706E+01
 9.8497505E+00  2.4870140E+01
 9.8612509E+00  2.4766207E+01
 9.8727503E+00  2.4730974E+01
 9.8842506E+00  2.4661432E+01
 9.8957500E+00  2.4621925E+01
 9.9072504E+00  2.4579180E+01
 9.9187508E+00  2.4583820E+01
 9.9302502E+00  2.4571945E+01
 9.9417505E+00  2.4516975E+01
 9.9532509E+00  2.4442493E+01
 9.9647503E+00  2.4380163E+01
 9.9762506E+00  2.4376427E+01
 9.9877501E+00  2.4323242E+01
 9.9992504E+00  2.4276798E+01
 1.0010751E+01  2.4248472E+01
 1.0022250E+01  2.4301229E+01
 1.0033751E+01  2.4300316E+01
 1.0045251E+01  2.4279371E+01
 1.0056750E+01  2.4271086E+01
 1.0068251E+01  2.4235630E+01
 1.0079750E+01  2.4210032E+01
 1.0091250E+01  2.4124254E+01
 1.0102751E+01  2.4109877E+01
 1.0114250E+01  2.4068897E+01
 1.0125751E+01  2.4046642E+01
 1.0137251E+01  2.4000902E+01
 1.0148750E+01  2.4017708E+01
 1.0160251E+01  2.3976318E+01
 1.0171750E+01  2.3968611E+01
 1.0183250E+01  2.3926704E+01
 1.0194751E+01  2.3894484E+01
 1.0206250E+01  2.3901625E+01
 1.0217751E+01  2.3922222E+01
 1.0229251E+01  2.3908247E+01
 1.0240750E+01  2.3828808E+01
 1.0252251E+01  2.3748974E+01
 1.0263750E+01  2.3694857E+01
 1.0275250E+01  2.3653408E+01
 1.0286751E+01  2.3622419E+01
 1.0298250E+01  2.3662148E+01
 1.0309751E+01  2.3699780E+01
 1.0321251E+01  2.3696281E+01
 1.0332750E+01  2.3694237E+01
 1.0344251E+01  2.3687366E+01
 1.0355750E+01  2.3695539E+01
 1.0367250E+01  2.3651735E+01
 1.0378751E+01  2.3636227E+01
 1.0390250E+01  2.3619360E+01
 1.0401751E+01  2.3563562E+01
 1.0413251E+01  2.3554810E+01
 1.0424750E+01  2.3467907E+01
 1.0436251E+01  2.3419222E+01
 1.0447750E+01  2.3296518E+01
 1.0459250E+01  2.3237839E+01
 1.0470751E+01  2.3223934E+01
 1.0482250E+01  2.3297203E+01
 1.0493751E+01  2.3352333E+01
 1.0505251E+01  2.3312639E+01
 1.0516750E+01  2.3265930E+01
 1.0528251E+01  2.3145336E+01
 1.0539750E+01  2.3095430E+01
 1.0551250E+01  2.3014395E+01
 1.0562751E+01  2.2981085E+01
 1.0574250E+01  2.2934898E+01
 1.0585751E+01  2.2880713E+01
 1.0597251E+01  2.2890930E+01
 1.0608750E+01  2.2943602E+01
 1.0620251E+01  2.3002268E+01
 1.0631750E+01  2.3076710E+01
 1.0643250E+01  2.3132576E+01
 1.0654751E+01  2.3167873E+01
 1.0666250E+01  2.3091478E+01
 1.0677751E+01  2.3019894E+01
 1.0689251E+01  2.2931870E+01
 1.0700750E+01  2.2904316E+01
 1.0712251E+01  2.2874588E+01
 1.0723750E+01  2.2832365E+01
 1.0735250E+01  2.2832762E+01
 1.0746751E+01  2.2819424E+01
 1.0758250E+01  2.2810839E+01
 1.0769751E+01  2.2801600E+01
 1.0781251E+01  2.2763208E+01
 1.0792750E+01  2.2765862E+01
 1.0804251E+01  2.2702356E+01
 1.0815750E+01  2.2681704E+01
 1.0827250E+01  2.2685444E+01
 1.0838751E+01  2.2671135E+01
 1.0850250E+01  2.2677418E+01
 1.0861751E+01  2.2654987E+01
 1.0873251E+01  2.2669359E+01
 1.0884750E+01  2.2621103E+01
 1.0896251E+01  2.2551025E+01
 1.0907750E+01  2.2541563E+01
 1.0919250E+01  2.2573162E+01
 1.0930751E+01  2.2633255E+01
 1.0942250E+01  2.2588703E+01
 1.0953751E+01  2.2586746E+01
 1.0965251E+01  2.2586760E+01
 1.0976750E+01  2.2659353E+01
 1.0988251E+01  2.2619032E+01
 1.0999750E+01  2.2556116E+01
 1.1011250E+01  2.2469452E+01
 1.1022751E+01  2.2487986E+01
 1.1034250E+01  2.2492496E+01
 1.1045751E+01  2.2481108E+01
 1.1057251E+01  2.2475086E+01
 1.1068750E+01  2.2472864E+01
 1.1080251E+01  2.2489620E+01
 1.1091750E+01  2.2492689E+01
 1.1103251E+01  2.2454988E+01
 1.1114751E+01  2.2454678E+01
 1.1126250E+01  2.2489550E+01
 1.1137751E+01  2.2524048E+01
 1.1149251E+01  2.2584454E+01
 1.1160750E+01  2.2597881E+01
 1.1172251E+01  2.2590532E+01
 1.1183750E+01  2.2541128E+01
 1.1195251E+01  2.2455025E+01
 1.1206751E+01  2.2421679E+01
 1.1218250E+01  2.2436737E+01
 1.1229751E+01  2.2405037E+01
 1.1241251E+01  2.2428976E+01
 1.1252750E+01  2.2450869E+01
 1.1264251E+01  2.2501453E+01
 1.1275750E+01  2.2498672E+01
 1.1287251E+01  2.2415051E+01
 1.1298751E+01  2.2342201E+01
 1.1310250E+01  2.2366413E+01
 1.1321751E+01  2.2380287E+01
 1.1333251E+01  2.2414984E+01
 1.1344750E+01  2.2421425E+01
 1.1356251E+01  2.2447899E+01
 1.1367750E+01  2.2511209E+01
 1.1379251E+01  2.2545090E+01
 1.1390751E+01  2.2573711E+01
 1.1402250E+01  2.2728781E+01
 1.1413751E+01  2.2721075E+01
 1.1425251E+01  2.2746046E+01
 1.1436750E+01  2.2698620E+01
 1.1448251E+01  2.2710722E+01
 1.1459750E+01  2.2708389E+01
 1.1471251E+01  2.2680660E+01
 1.1482751E+01  2.2699179E+01
 1.1494250E+01  2.2715359E+01
 1.1505751E+01  2.2712132E+01
 1.1517251E+01  2.2832083E+01
 1.1528750E+01  2.3076439E+01
 1.1540251E+01  2.3389322E+01
 1.1551750E+01  2.3883089E+01
 1.1563251E+01  2.4715324E+01
 1.1574751E+01  2.5486320E+01
 1.1586250E+01  2.6507778E+01
 1.1597751E+01  2.8753571E+01
 1.1609251E+01  2.9071627E+01
 1.1620750E+01  2.9796507E+01
 1.1632251E+01  2.8526619E+01
 1.1643750E+01  2.7588167E+01
 1.1655251E+01  2.6194050E+01
 1.1666751E+01  2.4463444E+01
 1.1678250E+01  2.4094028E+01
 1.1689751E+01  2.3256348E+01
 1.1701251E+01  2.2978016E+01
 1.1712750E+01  2.2842644E+01
 1.1724251E+01  2.2668140E+01
 1.1735750E+01  2.2616789E+01
 1.1747251E+01  2.2578886E+01
 1.1758751E+01  2.2512218E+01
 1.1770250E+01  2.2400501E+01
 1.1781751E+01  2.2378908E+01
 1.1793251E+01  2.2396618E+01
 1.1804750E+01  2.2481949E+01
 1.1816251E+01  2.2493065E+01
 1.1827750E+01  2.2480528E+01
 1.1839251E+01  2.2463799E+01
 1.1850751E+01  2.2410892E+01
 1.1862250E+01  2.2395851E+01
 1.1873751E+01  2.2397266E+01
 1.1885251E+01  2.2432838E+01
 1.1896750E+01  2.2452507E+01
 1.1908251E+01  2.2494411E+01
 1.1919750E+01  2.2579580E+01
 1.1931251E+01  2.2732103E+01
 1.1942751E+01  2.2902699E+01
 1.1954250E+01  2.3114862E+01
 1.1965751E+01  2.3334644E+01
 1.1977251E+01  2.3444613E+01
 1.1988750E+01  2.3530851E+01
 1.2000251E+01  2.3428410E+01
 1.2011750E+01  2.3368036E+01
 1.2023251E+01  2.3233990E+01
 1.2034751E+01  2.3221291E+01
 1.2046250E+01  2.3238092E+01
 1.2057751E+01  2.3441181E+01
 1.2069251E+01  2.3785868E+01
 1.2080750E+01  2.4229452E+01
 1.2092251E+01  2.4677593E+01
 1.2103750E+01  2.5127621E+01
 1.2115251E+01  2.5154997E+01
 1.2126751E+01  2.5034306E+01
 1.2138250E+01  2.4486124E+01
 1.2149751E+01  2.4101795E+01
 1.2161251E+01  2.3554831E+01
 1.2172750E+01  2.3196428E+01
 1.2184251E+01  2.2928812E+01
 1.2195750E+01  2.2807098E+01
 1.2207251E+01  2.2739079E+01
 1.2218751E+01  2.2634501E+01
 1.2230250E+01  2.2581745E+01
 1.2241751E+01  2.2535976E+01
 1.2253251E+01  2.2518320E+01
 1.2264750E+01  2.2477728E+01
 1.2276251E+01  2.2454218E+01
 1.2287750E+01  2.2477545E+01
 1.2299251E+01  2.2455948E+01
 1.2310751E+01  2.2458000E+01
 1.2322250E+01  2.2477980E+01
 1.2333751E+01  2.2472240E+01
 1.2345250E+01  2.2814093E+01
 1.2356750E+01  2.2963667E+01
 1.2368251E+01  2.3010891E+01
 1.2379750E+01  2.3114525E+01
 1.2391251E+01  2.3019258E+01
 1.2402751E+01  2.3036055E+01
 1.2414250E+01  2.2663094E+01
 1.2425751E+01  2.2634352E+01
 1.2437250E+01  2.2644115E+01
 1.2448750E+01  2.2636106E+01
 1.2460251E+01  2.2663094E+01
 1.2471750E+01  2.2694519E+01
 1.2483251E+01  2.2732084E+01
 1.2494751E+01  2.2712513E+01
 1.2506250E+01  2.2679195E+01
 1.2517751E+01  2.2617126E+01
 1.2529250E+01  2.2640471E+01
 1.2540751E+01  2.2689232E+01
 1.2552251E+01  2.2641174E+01
 1.2563750E+01  2.2591089E+01
 1.2575251E+01  2.2554480E+01
 1.2586751E+01  2.2617662E+01
 1.2598250E+01  2.2669168E+01
 1.2609751E+01  2.2711081E+01
 1.2621250E+01  2.2757635E+01
 1.2632751E+01  2.2797623E+01
 1.2644251E+01  2.2786671E+01
 1.2655750E+01  2.2836159E+01
 1.2667251E+01  2.2849228E+01
 1.2678751E+01  2.2873129E+01
 1.2690250E+01  2.2853741E+01
 1.2701751E+01  2.2863075E+01
 1.2713250E+01  2.2921026E+01
 1.2724751E+01  2.2975340E+01
 1.2736251E+01  2.3002460E+01
 1.2747750E+01  2.3017954E+01
 1.2759251E+01  2.2998659E+01
 1.2770751E+01  2.2987492E+01
 1.2782250E+01  2.2976044E+01
 1.2793751E+01  2.2973042E+01
 1.2805250E+01  2.3052883E+01
 1.2816751E+01  2.3092463E+01
 1.2828251E+01  2.3146683E+01
 1.2839750E+01  2.3189342E+01
 1.2851251E+01  2.3262802E+01
 1.2862751E+01  2.3367783E+01
 1.2874250E+01  2.3406635E+01
 1.2885751E+01  2.3433649E+01
 1.2897250E+01  2.3355087E+01
 1.2908751E+01  2.3348524E+01
 1.2920251E+01  2.3340754E+01
 1.2931750E+01  2.3475945E+01
 1.2943251E+01  2.3541416E+01
 1.2954751E+01  2.3654966E+01
 1.2966250E+01  2.3711988E+01
 1.2977751E+01  2.3829496E+01
 1.2989250E+01  2.3868645E+01
 1.3000751E+01  2.3946421E+01
 1.3012251E+01  2.3998079E+01
 1.3023750E+01  2.4051702E+01
 1.3035251E+01  2.4132053E+01
 1.3046751E+01  2.4159586E+01
 1.3058250E+01  2.4295040E+01
 1.3069751E+01  2.4323061E+01
 1.3081250E+01  2.4432693E+01
 1.3092751E+01  2.4516546E+01
 1.3104251E+01  2.4709553E+01
 1.3115750E+01  2.4905046E+01
 1.3127251E+01  2.5038679E+01
 1.3138751E+01  2.5131742E+01
 1.3150250E+01  2.5186754E+01
 1.3161751E+01  2.5214666E+01
 1.3173250E+01  2.5295889E+01
 1.3184751E+01  2.5427731E+01
 1.3196251E+01  2.5573347E+01
 1.3207750E+01  2.5734655E+01
 1.3219251E+01  2.5817976E+01
 1.3230751E+01  2.5998833E+01
 1.3242250E+01  2.6112499E+01
 1.3253751E+01  2.6273998E+01
 1.3265250E+01  2.6433872E+01
 1.3276751E+01  2.6578609E+01
 1.3288251E+01  2.6780745E+01
 1.3299750E+01  2.6935976E+01
 1.3311251E+01  2.7054031E+01
 1.3322751E+01  2.7160255E+01
 1.3334250E+01  2.7290552E+01
 1.3345751E+01  2.7433157E+01
 1.3357250E+01  2.7598156E+01
 1.3368751E+01  2.7688873E+01
 1.3380251E+01  2.7848087E+01
 1.3391750E+01  2.7934542E+01
 1.3403251E+01  2.8049618E+01
 1.3414751E+01  2.8197683E+01
 1.3426250E+01  2.8286638E+01
 1.3437751E+01  2.8537565E+01
 1.3449250E+01  2.8663874E+01
 1.3460751E+01  2.8900269E+01
 1.3472251E+01  2.9006510E+01
 1.3483750E+01  2.9162613E+01
 1.3495251E+01  2.9180670E+01
 1.3506751E+01  2.9244434E+01
 1.3518250E+01  2.9318110E+01
 1.3529751E+01  2.9444134E+01
 1.3541250E+01  2.9532452E+01
 1.3552751E+01  2.9594040E+01
 1.3564251E+01  2.9609606E+01
 1.3575750E+01  2.9673065E+01
 1.3587251E+01  2.9727150E+01
 1.3598751E+01  2.9849155E+01
 1.3610250E+01  2.9818430E+01
 1.3621751E+01  2.9881144E+01
 1.3633250E+01  2.9807035E+01
 1.3644751E+01  2.9787731E+01
 1.3656251E+01  2.9727671E+01
 1.3667750E+01  2.9764132E+01
 1.3679251E+01  2.9691822E+01
 1.3690751E+01  2.9615244E+01
 1.3702250E+01  2.9507593E+01
 1.3713751E+01  2.9529282E+01
 1.3725250E+01  2.9509361E+01
 1.3736751E+01  2.9465137E+01
 1.3748251E+01  2.9330299E+01
 1.3759750E+01  2.9215641E+01
 1.3771251E+01  2.9132299E+01
 1.3782751E+01  2.9069071E+01
 1.3794250E+01  2.8936813E+01
 1.3805751E+01  2.8852634E+01
 1.3817250E+01  2.8772900E+01
 1.3828751E+01  2.8762823E+01
 1.3840251E+01  2.8738127E+01
 1.3851750E+01  2.8764929E+01
 1.3863251E+01  2.8822224E+01
 1.3874751E+01  2.8887379E+01
 1.3886250E+01  2.8997105E+01
 1.3897751E+01  2.9117514E+01
 1.3909250E+01  2.9305851E+01
 1.3920751E+01  2.9615446E+01
 1.3932251E+01  2.9844973E+01
 1.3943750E+01  2.9941631E+01
 1.3955251E+01  2.9832834E+01
 1.3966751E+01  2.9686638E+01
 1.3978251E+01  2.9405479E+01
 1.3989751E+01  2.9074051E+01
 1.4001250E+01  2.8751854E+01
 1.4012751E+01  2.8457388E+01
 1.4024251E+01  2.8106901E+01
 1.4035750E+01  2.7837023E+01
 1.4047251E+01  2.7645542E+01
 1.4058751E+01  2.7576311E+01
 1.4070251E+01  2.7487568E+01
 1.4081751E+01  2.7412161E+01
 1.4093250E+01  2.7338167E+01
 1.4104751E+01  2.7325850E+01
 1.4116251E+01  2.7286989E+01
 1.4127750E+01  2.7252205E+01
 1.4139251E+01  2.7122480E+01
 1.4150751E+01  2.7019917E+01
 1.4162251E+01  2.6900511E+01
 1.4173751E+01  2.6779049E+01
 1.4185250E+01  2.6663500E+01
 1.4196751E+01  2.6606993E+01
 1.4208251E+01  2.6643656E+01
 1.4219750E+01  2.6601147E+01
 1.4231251E+01  2.6517576E+01
 1.4242751E+01  2.6369684E+01
 1.4254251E+01  2.6340225E+01
 1.4265751E+01  2.6311447E+01
 1.4277250E+01  2.6309553E+01
 1.4288751E+01  2.6276072E+01
 1.4300251E+01  2.6240732E+01
 1.4311750E+01  2.6219887E+01
 1.4323251E+01  2.6115276E+01
 1.4334751E+01  2.6063316E+01
 1.4346251E+01  2.5948494E+01
 1.4357751E+01  2.5954021E+01
 1.4369250E+01  2.5937061E+01
 1.4380751E+01  2.5964020E+01
 1.4392251E+01  2.5972351E+01
 1.4403750E+01  2.5962852E+01
 1.4415251E+01  2.5971001E+01
 1.4426751E+01  2.5912537E+01
 1.4438251E+01  2.5875530E+01
 1.4449751E+01  2.5799303E+01
 1.4461250E+01  2.5755869E+01
 1.4472751E+01  2.5687111E+01
 1.4484251E+01  2.5662424E+01
 1.4495750E+01  2.5615759E+01
 1.4507251E+01  2.5549742E+01
 1.4518751E+01  2.5500814E+01
 1.4530251E+01  2.5472462E+01
 1.4541751E+01  2.5454380E+01
 1.4553250E+01  2.5457409E+01
 1.4564751E+01  2.5492041E+01
 1.4576251E+01  2.5492937E+01
 1.4587750E+01  2.5492472E+01
 1.4599251E+01  2.5426712E+01
 1.4610751E+01  2.5421349E+01
 1.4622251E+01  2.5406748E+01
 1.4633751E+01  2.5434845E+01
 1.4645250E+01  2.5411062E+01
 1.4656751E+01  2.5350088E+01
 1.4668251E+01  2.5280695E+01
 1.4679750E+01  2.5236076E+01
 1.4691251E+01  2.5239479E+01
 1.4702751E+01  2.5231825E+01
 1.4714251E+01  2.5257757E+01
 1.4725751E+01  2.5230328E+01
 1.4737250E+01  2.5208895E+01
 1.4748751E+01  2.5183903E+01
 1.4760251E+01  2.5125551E+01
 1.4771750E+01  2.5142179E+01
 1.4783251E+01  2.5115574E+01
 1.4794751E+01  2.5141956E+01
 1.4806251E+01  2.5077978E+01
 1.4817751E+01  2.5022655E+01
 1.4829250E+01  2.4962345E+01
 1.4840751E+01  2.4928892E+01
 1.4852251E+01  2.4905777E+01
 1.4863750E+01  2.4852657E+01
 1.4875251E+01  2.4828466E+01
 1.4886751E+01  2.4855694E+01
 1.4898251E+01  2.4935572E+01
 1.4909751E+01  2.4940807E+01
 1.4921250E+01  2.4893263E+01
 1.4932751E+01  2.4822044E+01
 1.4944251E+01  2.4824219E+01
 1.4955750E+01  2.4811596E+01
 1.4967251E+01  2.4843384E+01
 1.4978751E+01  2.4851978E+01
 1.4990251E+01  2.4897360E+01
 1.5001751E+01  2.4931295E+01
 1.5013250E+01  2.4970396E+01
 1.5024751E+01  2.4995138E+01
 1.5036251E+01  2.4967112E+01
 1.5047750E+01  2.4996069E+01
 1.5059251E+01  2.4980906E+01
 1.5070751E+01  2.5015736E+01
 1.5082251E+01  2.5066818E+01
 1.5093751E+01  2.5123178E+01
 1.5105250E+01  2.5323101E+01
 1.5116751E+01  2.5478300E+01
 1.5128251E+01  2.5635361E+01
 1.5139750E+01  2.7012104E+01
 1.5151251E+01  2.7429560E+01
 1.5162751E+01  3.0271223E+01
 1.5174251E+01  3.4631523E+01
 1.5185751E+01  3.4832611E+01
 1.5197250E+01  3.6996960E+01
 1.5208751E+01  3.4023205E+01
 1.5220251E+01  3.4127033E+01
 1.5231750E+01  2.9639072E+01
 1.5243251E+01  2.7944777E+01
 1.5254751E+01  2.7183428E+01
 1.5266251E+01  2.5471596E+01
 1.5277751E+01  2.5361755E+01
 1.5289250E+01  2.5133579E+01
 1.5300751E+01  2.5056072E+01
 1.5312251E+01  2.5062721E+01
 1.5323750E+01  2.4952290E+01
 1.5335251E+01  2.4898430E+01
 1.5346751E+01  2.4793093E+01
 1.5358251E+01  2.4732924E+01
 1.5369751E+01  2.4690174E+01
 1.5381250E+01  2.4654688E+01
 1.5392751E+01  2.4639063E+01
 1.5404251E+01  2.4603201E+01
 1.5415751E+01  2.4569118E+01
 1.5427251E+01  2.4490183E+01
 1.5438751E+01  2.4444117E+01
 1.5450251E+01  2.4454815E+01
 1.5461751E+01  2.4507906E+01
 1.5473250E+01  2.4589300E+01
 1.5484751E+01  2.4649788E+01
 1.5496251E+01  2.4717337E+01
 1.5507751E+01  2.4725214E+01
 1.5519251E+01  2.4682362E+01
 1.5530751E+01  2.4593618E+01
 1.5542251E+01  2.4542576E+01
 1.5553751E+01  2.4503580E+01
 1.5565250E+01  2.4448786E+01
 1.5576751E+01  2.4411926E+01
 1.5588251E+01  2.4426603E+01
 1.5599751E+01  2.4457069E+01
 1.5611251E+01  2.4460537E+01
 1.5622751E+01  2.4444628E+01
 1.5634251E+01  2.4432648E+01
 1.5645751E+01  2.4449041E+01
 1.5657250E+01  2.4480019E+01
 1.5668751E+01  2.4529808E+01
 1.5680251E+01  2.4522499E+01
 1.5691751E+01  2.4507616E+01
 1.5703251E+01  2.4491949E+01
 1.5714751E+01  2.4501669E+01
 1.5726251E+01  2.4517050E+01
 1.5737751E+01  2.4488434E+01
 1.5749250E+01  2.4469011E+01
 1.5760751E+01  2.4465164E+01
 1.5772251E+01  2.4507782E+01
 1.5783751E+01  2.4518255E+01
 1.5795251E+01  2.4558649E+01
 1.5806751E+01  2.4579626E+01
 1.5818251E+01  2.4592625E+01
 1.5829751E+01  2.4526031E+01
 1.5841250E+01  2.4517988E+01
 1.5852751E+01  2.4576218E+01
 1.5864251E+01  2.4609728E+01
 1.5875751E+01  2.4666889E+01
 1.5887251E+01  2.4651068E+01
 1.5898750E+01  2.4625256E+01
 1.5910251E+01  2.4608080E+01
 1.5921751E+01  2.4579573E+01
 1.5933250E+01  2.4605738E+01
 1.5944751E+01  2.4513163E+01
 1.5956251E+01  2.4504124E+01
 1.5967751E+01  2.4489342E+01
 1.5979251E+01  2.4480444E+01
 1.5990750E+01  2.4489767E+01
 1.6002251E+01  2.4465221E+01
 1.6013750E+01  2.4503464E+01
 1.6025251E+01  2.4516176E+01
 1.6036751E+01  2.4569881E+01
 1.6048250E+01  2.4621143E+01
 1.6059752E+01  2.4703484E+01
 1.6071251E+01  2.4755653E+01
 1.6082750E+01  2.4818087E+01
 1.6094252E+01  2.4791813E+01
 1.6105751E+01  2.4795609E+01
 1.6117250E+01  2.4754242E+01
 1.6128750E+01  2.4677540E+01
 1.6140251E+01  2.4657398E+01
 1.6151751E+01  2.4632576E+01
 1.6163250E+01  2.4730610E+01
 1.6174751E+01  2.4727848E+01
 1.6186251E+01  2.4856869E+01
 1.6197750E+01  2.4795944E+01
 1.6209251E+01  2.5006746E+01
 1.6220751E+01  2.4994585E+01
 1.6232250E+01  2.5172850E+01
 1.6243752E+01  2.5134802E+01
 1.6255251E+01  2.5193844E+01
 1.6266750E+01  2.5305601E+01
 1.6278252E+01  2.5163498E+01
 1.6289751E+01  2.5255480E+01
 1.6301250E+01  2.4925238E+01
 1.6312750E+01  2.5072618E+01
 1.6324251E+01  2.4848263E+01
 1.6335751E+01  2.4928574E+01
 1.6347250E+01  2.4764130E+01
 1.6358751E+01  2.4681856E+01
 1.6370251E+01  2.4559355E+01
 1.6381750E+01  2.4466532E+01
 1.6393251E+01  2.4481613E+01
 1.6404751E+01  2.4487793E+01
 1.6416250E+01  2.4559206E+01
 1.6427752E+01  2.4560156E+01
 1.6439251E+01  2.4581123E+01
 1.6450750E+01  2.4595190E+01
 1.6462252E+01  2.4618652E+01
 1.6473751E+01  2.4639904E+01
 1.6485250E+01  2.4680962E+01
 1.6496750E+01  2.4675802E+01
 1.6508251E+01  2.4640129E+01
 1.6519751E+01  2.4551350E+01
 1.6531250E+01  2.4462553E+01
 1.6542751E+01  2.4435299E+01
 1.6554251E+01  2.4401943E+01
 1.6565750E+01  2.4447414E+01
 1.6577251E+01  2.4483620E+01
 1.6588751E+01  2.4551218E+01
 1.6600250E+01  2.4576458E+01
 1.6611752E+01  2.4583294E+01
 1.6623251E+01  2.4518373E+01
 1.6634750E+01  2.4464605E+01
 1.6646252E+01  2.4453754E+01
 1.6657751E+01  2.4455593E+01
 1.6669250E+01  2.4455614E+01
 1.6680750E+01  2.4423494E+01
 1.6692251E+01  2.4436983E+01
 1.6703751E+01  2.4389402E+01
 1.6715250E+01  2.4388895E+01
 1.6726751E+01  2.4331339E+01
 1.6738251E+01  2.4318422E+01
 1.6749750E+01  2.4288485E+01
 1.6761251E+01  2.4262781E+01
 1.6772751E+01  2.4290503E+01
 1.6784250E+01  2.4269361E+01
 1.6795752E+01  2.4339264E+01
 1.6807251E+01  2.4299334E+01
 1.6818750E+01  2.4306776E+01
 1.6830252E+01  2.4230032E+01
 1.6841751E+01  2.4183941E+01
 1.6853251E+01  2.4161703E+01
 1.6864750E+01  2.4184338E+01
 1.6876251E+01  2.4269543E+01
 1.6887751E+01  2.4256447E+01
 1.6899250E+01  2.4221121E+01
 1.6910751E+01  2.4172129E+01
 1.6922251E+01  2.4160578E+01
 1.6933750E+01  2.4141790E+01
 1.6945251E+01  2.4133921E+01
 1.6956751E+01  2.4162249E+01
 1.6968250E+01  2.4234203E+01
 1.6979752E+01  2.4288620E+01
 1.6991251E+01  2.4311537E+01
 1.7002750E+01  2.4294985E+01
 1.7014252E+01  2.4252321E+01
 1.7025751E+01  2.4209124E+01
 1.7037251E+01  2.4133274E+01
 1.7048750E+01  2.4064186E+01
 1.7060251E+01  2.4054455E+01
 1.7071751E+01  2.4069769E+01
 1.7083250E+01  2.4090702E+01
 1.7094751E+01  2.4088869E+01
 1.7106251E+01  2.4093952E+01
 1.7117750E+01  2.4078262E+01
 1.7129251E+01  2.4093061E+01
 1.7140751E+01  2.4082869E+01
 1.7152250E+01  2.4052492E+01
 1.7163752E+01  2.4004269E+01
 1.7175251E+01  2.4015924E+01
 1.7186750E+01  2.4007549E+01
 1.7198252E+01  2.4022995E+01
 1.7209751E+01  2.4040606E+01
 1.7221251E+01  2.4036814E+01
 1.7232750E+01  2.4028975E+01
 1.7244251E+01  2.4015270E+01
 1.7255751E+01  2.3950161E+01
 1.7267250E+01  2.3899776E+01
 1.7278751E+01  2.3850214E+01
 1.7290251E+01  2.3905661E+01
 1.7301750E+01  2.3945995E+01
 1.7313251E+01  2.3991922E+01
 1.7324751E+01  2.4043316E+01
 1.7336250E+01  2.4068275E+01
 1.7347752E+01  2.4010555E+01
 1.7359251E+01  2.4015749E+01
 1.7370750E+01  2.4000313E+01
 1.7382252E+01  2.4039165E+01
 1.7393751E+01  2.3979572E+01
 1.7405251E+01  2.3964251E+01
 1.7416750E+01  2.3911308E+01
 1.7428251E+01  2.3901808E+01
 1.7439751E+01  2.3907267E+01
 1.7451250E+01  2.3911963E+01
 1.7462751E+01  2.3905840E+01
 1.7474251E+01  2.3906456E+01
 1.7485750E+01  2.3921387E+01
 1.7497252E+01  2.3939833E+01
 1.7508751E+01  2.3942575E+01
 1.7520250E+01  2.3925285E+01
 1.7531752E+01  2.3865471E+01
 1.7543251E+01  2.3849901E+01
 1.7554750E+01  2.3792952E+01
 1.7566252E+01  2.3751204E+01
 1.7577751E+01  2.3690636E+01
 1.7589251E+01  2.3653774E+01
 1.7600750E+01  2.3659456E+01
 1.7612251E+01  2.3646214E+01
 1.7623751E+01  2.3675556E+01
 1.7635250E+01  2.3688641E+01
 1.7646751E+01  2.3735926E+01
 1.7658251E+01  2.3732098E+01
 1.7669750E+01  2.3777288E+01
 1.7681252E+01  2.3828138E+01
 1.7692751E+01  2.3842276E+01
 1.7704250E+01  2.3791227E+01
 1.7715752E+01  2.3728485E+01
 1.7727251E+01  2.3685097E+01
 1.7738750E+01  2.3698059E+01
 1.7750252E+01  2.3767265E+01
 1.7761751E+01  2.3829914E+01
 1.7773251E+01  2.3841738E+01
 1.7784750E+01  2.3823948E+01
 1.7796251E+01  2.3808329E+01
 1.7807751E+01  2.3776806E+01
 1.7819250E+01  2.3747381E+01
 1.7830751E+01  2.3704735E+01
 1.7842251E+01  2.3616249E+01
 1.7853750E+01  2.3570423E+01
 1.7865252E+01  2.3578445E+01
 1.7876751E+01  2.3628057E+01
 1.7888250E+01  2.3625860E+01
 1.7899752E+01  2.3641912E+01
 1.7911251E+01  2.3689627E+01
 1.7922750E+01  2.3729536E+01
 1.7934252E+01  2.3768070E+01
 1.7945751E+01  2.3757837E+01
 1.7957251E+01  2.3740532E+01
 1.7968750E+01  2.3699003E+01
 1.7980251E+01  2.3724510E+01
 1.7991751E+01  2.3746737E+01
 1.8003250E+01  2.3763290E+01
 1.8014751E+01  2.3807158E+01
 1.8026251E+01  2.3944874E+01
 1.8037750E+01  2.4155075E+01
 1.8049252E+01  2.4318768E+01
 1.8060751E+01  2.4619444E+01
 1.8072250E+01  2.4845375E+01
 1.8083752E+01  2.5066504E+01
 1.8095251E+01  2.5080904E+01
 1.8106750E+01  2.5056692E+01
 1.8118252E+01  2.4942854E+01
 1.8129751E+01  2.4724104E+01
 1.8141251E+01  2.4502424E+01
 1.8152750E+01  2.4289415E+01
 1.8164251E+01  2.4089211E+01
 1.8175751E+01  2.3905308E+01
 1.8187250E+01  2.3717718E+01
 1.8198751E+01  2.3583567E+01
 1.8210251E+01  2.3558516E+01
 1.8221750E+01  2.3544912E+01
 1.8233252E+01  2.3568769E+01
 1.8244751E+01  2.3591009E+01
 1.8256250E+01  2.3605692E+01
 1.8267752E+01  2.3558605E+01
 1.8279251E+01  2.3531799E+01
 1.8290751E+01  2.3560680E+01
 1.8302252E+01  2.3552612E+01
 1.8313751E+01  2.3497608E+01
 1.8325251E+01  2.3435463E+01
 1.8336750E+01  2.3484030E+01
 1.8348251E+01  2.3519627E+01
 1.8359751E+01  2.3575926E+01
 1.8371250E+01  2.3540918E+01
 1.8382751E+01  2.3490253E+01
 1.8394251E+01  2.3458593E+01
 1.8405750E+01  2.3426079E+01
 1.8417252E+01  2.3415123E+01
 1.8428751E+01  2.3382235E+01
 1.8440250E+01  2.3410036E+01
 1.8451752E+01  2.3426493E+01
 1.8463251E+01  2.3428196E+01
 1.8474751E+01  2.3444414E+01
 1.8486252E+01  2.3440315E+01
 1.8497751E+01  2.3425163E+01
 1.8509251E+01  2.3460171E+01
 1.8520750E+01  2.3489508E+01
 1.8532251E+01  2.3571037E+01
 1.8543751E+01  2.3529369E+01
 1.8555250E+01  2.3506838E+01
 1.8566751E+01  2.3451935E+01
 1.8578251E+01  2.3431599E+01
 1.8589750E+01  2.3434206E+01
 1.8601252E+01  2.3442873E+01
 1.8612751E+01  2.3475317E+01
 1.8624250E+01  2.3426407E+01
 1.8635752E+01  2.3378061E+01
 1.8647251E+01  2.3334169E+01
 1.8658751E+01  2.3318829E+01
 1.8670252E+01  2.3330450E+01
 1.8681751E+01  2.3359011E+01
 1.8693251E+01  2.3369301E+01
 1.8704750E+01  2.3418335E+01
 1.8716251E+01  2.3460320E+01
 1.8727751E+01  2.3479849E+01
 1.8739250E+01  2.3468233E+01
 1.8750751E+01  2.3458935E+01
 1.8762251E+01  2.3457787E+01
 1.8773750E+01  2.3417292E+01
 1.8785252E+01  2.3409220E+01
 1.8796751E+01  2.3420208E+01
 1.8808250E+01  2.3419971E+01
 1.8819752E+01  2.3410492E+01
 1.8831251E+01  2.3400906E+01
 1.8842751E+01  2.3409710E+01
 1.8854252E+01  2.3422628E+01
 1.8865751E+01  2.3417421E+01
 1.8877251E+01  2.3425377E+01
 1.8888750E+01  2.3427895E+01
 1.8900251E+01  2.3416948E+01
 1.8911751E+01  2.3392105E+01
 1.8923250E+01  2.3394810E+01
 1.8934752E+01  2.3432421E+01
 1.8946251E+01  2.3485588E+01
 1.8957750E+01  2.3475023E+01
 1.8969252E+01  2.3410099E+01
 1.8980751E+01  2.3287991E+01
 1.8992250E+01  2.3205305E+01
 1.9003752E+01  2.3169577E+01
 1.9015251E+01  2.3215250E+01
 1.9026751E+01  2.3313503E+01
 1.9038252E+01  2.3381268E+01
 1.9049751E+01  2.3391129E+01
 1.9061251E+01  2.3402699E+01
 1.9072750E+01  2.3408028E+01
 1.9084251E+01  2.3388359E+01
 1.9095751E+01  2.3350962E+01
 1.9107250E+01  2.3329510E+01
 1.9118752E+01  2.3307100E+01
 1.9130251E+01  2.3340773E+01
 1.9141750E+01  2.3341339E+01
 1.9153252E+01  2.3394537E+01
 1.9164751E+01  2.3420755E+01
 1.9176250E+01  2.3433554E+01
 1.9187752E+01  2.3394798E+01
 1.9199251E+01  2.3336996E+01
 1.9210751E+01  2.3335596E+01
 1.9222252E+01  2.3293106E+01
 1.9233751E+01  2.3272419E+01
 1.9245251E+01  2.3301420E+01
 1.9256750E+01  2.3399807E+01
 1.9268251E+01  2.3464735E+01
 1.9279751E+01  2.3449263E+01
 1.9291250E+01  2.3464071E+01
 1.9302752E+01  2.3493155E+01
 1.9314251E+01  2.3479706E+01
 1.9325750E+01  2.3490677E+01
 1.9337252E+01  2.3488869E+01
 1.9348751E+01  2.3520962E+01
 1.9360250E+01  2.3523323E+01
 1.9371752E+01  2.3556568E+01
 1.9383251E+01  2.3563749E+01
 1.9394751E+01  2.3576521E+01
 1.9406250E+01  2.3564224E+01
 1.9417751E+01  2.3562477E+01
 1.9429251E+01  2.3532404E+01
 1.9440750E+01  2.3527796E+01
 1.9452251E+01  2.3524303E+01
 1.9463751E+01  2.3550951E+01
 1.9475250E+01  2.3556971E+01
 1.9486752E+01  2.3596586E+01
 1.9498251E+01  2.3565403E+01
 1.9509750E+01  2.3550930E+01
 1.9521252E+01  2.3527451E+01
 1.9532751E+01  2.3607683E+01
 1.9544250E+01  2.3668242E+01
 1.9555752E+01  2.3639826E+01
 1.9567251E+01  2.3549725E+01
 1.9578751E+01  2.3554976E+01
 1.9590250E+01  2.3548641E+01
 1.9601751E+01  2.3513536E+01
 1.9613251E+01  2.3465075E+01
 1.9624750E+01  2.3457541E+01
 1.9636251E+01  2.3542439E+01
 1.9647751E+01  2.3585207E+01
 1.9659250E+01  2.3739773E+01
 1.9670752E+01  2.3819822E+01
 1.9682251E+01  2.4062782E+01
 1.9693750E+01  2.4357069E+01
 1.9705252E+01  2.4507530E+01
 1.9716751E+01  2.4696985E+01
 1.9728251E+01  2.4606951E+01
 1.9739752E+01  2.4566423E+01
 1.9751251E+01  2.4345354E+01
 1.9762751E+01  2.4262026E+01
 1.9774250E+01  2.4130329E+01
 1.9785751E+01  2.4061537E+01
 1.9797251E+01  2.4062729E+01
 1.9808750E+01  2.4051046E+01
 1.9820251E+01  2.4108362E+01
 1.9831751E+01  2.4253899E+01
 1.9843250E+01  2.4341080E+01
 1.9854752E+01  2.4353680E+01
 1.9866251E+01  2.4339334E+01
 1.9877750E+01  2.4322840E+01
 1.9889252E+01  2.4271063E+01
 1.9900751E+01  2.4135416E+01
 1.9912251E+01  2.4029066E+01
 1.9923752E+01  2.3854589E+01
 1.9935251E+01  2.3691332E+01
 1.9946751E+01  2.3602484E+01
 1.9958250E+01  2.3599812E+01
 1.9969751E+01  2.3641029E+01
 1.9981251E+01  2.3648113E+01
 1.9992750E+01  2.3705048E+01
 2.0004251E+01  2.3706371E+01
 2.0015751E+01  2.3647173E+01
 2.0027250E+01  2.3593575E+01
 2.0038752E+01  2.3619507E+01
 2.0050251E+01  2.3645660E+01
 2.0061750E+01  2.3585524E+01
 2.0073252E+01  2.3490938E+01
 2.0084751E+01  2.3438288E+01
 2.0096251E+01  2.3465586E+01
 2.0107752E+01  2.3464327E+01
 2.0119251E+01  2.3446733E+01
 2.0130751E+01  2.3453194E+01
 2.0142250E+01  2.3494118E+01
 2.0153751E+01  2.3573067E+01
 2.0165251E+01  2.3610722E+01
 2.0176750E+01  2.3608871E+01
 2.0188251E+01  2.3575706E+01
 2.0199751E+01  2.3531284E+01
 2.0211250E+01  2.3494225E+01
 2.0222752E+01  2.3462847E+01
 2.0234251E+01  2.3466520E+01
 2.0245750E+01  2.3498728E+01
 2.0257252E+01  2.3524303E+01
 2.0268751E+01  2.3524475E+01
 2.0280251E+01  2.3564676E+01
 2.0291752E+01  2.3547300E+01
 2.0303251E+01  2.3493486E+01
 2.0314751E+01  2.3420416E+01
 2.0326250E+01  2.3391300E+01
 2.0337751E+01  2.3397411E+01
 2.0349251E+01  2.3398502E+01
 2.0360750E+01  2.3452272E+01
 2.0372252E+01  2.3477127E+01
 2.0383751E+01  2.3497623E+01
 2.0395250E+01  2.3542219E+01
 2.0406752E+01  2.3597860E+01
 2.0418251E+01  2.3628935E+01
 2.0429750E+01  2.3612577E+01
 2.0441252E+01  2.3584408E+01
 2.0452751E+01  2.3605276E+01
 2.0464251E+01  2.3591064E+01
 2.0475752E+01  2.3646158E+01
 2.0487251E+01  2.3618427E+01
 2.0498751E+01  2.3676071E+01
 2.0510250E+01  2.3595537E+01
 2.0521751E+01  2.3610960E+01
 2.0533251E+01  2.3573727E+01
 2.0544750E+01  2.3616852E+01
 2.0556252E+01  2.3636393E+01
 2.0567751E+01  2.3642878E+01
 2.0579250E+01  2.3661570E+01
 2.0590752E+01  2.3716431E+01
 2.0602251E+01  2.3760183E+01
 2.0613750E+01  2.3819506E+01
 2.0625252E+01  2.3851406E+01
 2.0636751E+01  2.3873796E+01
 2.0648251E+01  2.3838648E+01
 2.0659752E+01  2.3837156E+01
 2.0671251E+01  2.3855259E+01
 2.0682751E+01  2.3906179E+01
 2.0694250E+01  2.3992357E+01
 2.0705751E+01  2.4124086E+01
 2.0717251E+01  2.4318054E+01
 2.0728750E+01  2.4443663E+01
 2.0740252E+01  2.4585035E+01
 2.0751751E+01  2.4702372E+01
 2.0763250E+01  2.4878584E+01
 2.0774752E+01  2.4992794E+01
 2.0786251E+01  2.5004158E+01
 2.0797750E+01  2.4960135E+01
 2.0809252E+01  2.4717009E+01
 2.0820751E+01  2.4513971E+01
 2.0832251E+01  2.4226196E+01
 2.0843752E+01  2.4116613E+01
 2.0855251E+01  2.3986761E+01
 2.0866751E+01  2.3882132E+01
 2.0878250E+01  2.3853264E+01
 2.0889751E+01  2.3868792E+01
 2.0901251E+01  2.3886841E+01
 2.0912750E+01  2.3876642E+01
 2.0924252E+01  2.3850763E+01
 2.0935751E+01  2.3818089E+01
 2.0947250E+01  2.3750765E+01
 2.0958752E+01  2.3714935E+01
 2.0970251E+01  2.3669233E+01
 2.0981750E+01  2.3696308E+01
 2.0993252E+01  2.3717138E+01
 2.1004751E+01  2.3711653E+01
 2.1016251E+01  2.3668167E+01
 2.1027752E+01  2.3658453E+01
 2.1039251E+01  2.3644556E+01
 2.1050751E+01  2.3649529E+01
 2.1062250E+01  2.3718225E+01
 2.1073751E+01  2.3773470E+01
 2.1085251E+01  2.3761892E+01
 2.1096750E+01  2.3734510E+01
 2.1108252E+01  2.3752522E+01
 2.1119751E+01  2.3803762E+01
 2.1131250E+01  2.3853172E+01
 2.1142752E+01  2.3867599E+01
 2.1154251E+01  2.3804493E+01
 2.1165751E+01  2.3775972E+01
 2.1177252E+01  2.3763987E+01
 2.1188751E+01  2.3768158E+01
 2.1200251E+01  2.3775801E+01
 2.1211752E+01  2.3780060E+01
 2.1223251E+01  2.3727354E+01
 2.1234751E+01  2.3701780E+01
 2.1246250E+01  2.3694635E+01
 2.1257751E+01  2.3715738E+01
 2.1269251E+01  2.3692699E+01
 2.1280750E+01  2.3703266E+01
 2.1292252E+01  2.3711510E+01
 2.1303751E+01  2.3732159E+01
 2.1315250E+01  2.3719961E+01
 2.1326752E+01  2.3704336E+01
 2.1338251E+01  2.3691053E+01
 2.1349751E+01  2.3744755E+01
 2.1361252E+01  2.3770533E+01
 2.1372751E+01  2.3816772E+01
 2.1384251E+01  2.3768433E+01
 2.1395752E+01  2.3772943E+01
 2.1407251E+01  2.3741619E+01
 2.1418751E+01  2.3791374E+01
 2.1430250E+01  2.3793558E+01
 2.1441751E+01  2.3805485E+01
 2.1453251E+01  2.3783091E+01
 2.1464750E+01  2.3792435E+01
 2.1476252E+01  2.3752291E+01
 2.1487751E+01  2.3799097E+01
 2.1499250E+01  2.3851368E+01
 2.1510752E+01  2.3869417E+01
 2.1522251E+01  2.3849586E+01
 2.1533751E+01  2.3834942E+01
 2.1545252E+01  2.3849960E+01
 2.1556751E+01  2.3828035E+01
 2.1568251E+01  2.3835659E+01
 2.1579752E+01  2.3878038E+01
 2.1591251E+01  2.3909744E+01
 2.1602751E+01  2.3893967E+01
 2.1614250E+01  2.3865803E+01
 2.1625751E+01  2.3840643E+01
 2.1637251E+01  2.3899113E+01
 2.1648750E+01  2.3947535E+01
 2.1660252E+01  2.4006695E+01
 2.1671751E+01  2.4036625E+01
 2.1683250E+01  2.4052477E+01
 2.1694752E+01  2.4015501E+01
 2.1706251E+01  2.3985121E+01
 2.1717751E+01  2.3971720E+01
 2.1729252E+01  2.4031151E+01
 2.1740751E+01  2.4092779E+01
 2.1752251E+01  2.4083895E+01
 2.1763752E+01  2.4015993E+01
 2.1775251E+01  2.3970457E+01
 2.1786751E+01  2.3967203E+01
 2.1798250E+01  2.4034462E+01
 2.1809752E+01  2.4090471E+01
 2.1821251E+01  2.4133598E+01
 2.1832750E+01  2.4113583E+01
 2.1844252E+01  2.4091877E+01
 2.1855751E+01  2.4075043E+01
 2.1867250E+01  2.4065598E+01
 2.1878752E+01  2.4068499E+01
 2.1890251E+01  2.4045847E+01
 2.1901751E+01  2.4068138E+01
 2.1913252E+01  2.4041754E+01
 2.1924751E+01  2.4035910E+01
 2.1936251E+01  2.4044859E+01
 2.1947752E+01  2.4046021E+01
 2.1959251E+01  2.4071535E+01
 2.1970751E+01  2.4109165E+01
 2.1982250E+01  2.4175871E+01
 2.1993752E+01  2.4207317E+01
 2.2005251E+01  2.4214064E+01
 2.2016750E+01  2.4205492E+01
 2.2028252E+01  2.4200333E+01
 2.2039751E+01  2.4199057E+01
 2.2051250E+01  2.4221838E+01
 2.2062752E+01  2.4195925E+01
 2.2074251E+01  2.4215096E+01
 2.2085751E+01  2.4177441E+01
 2.2097252E+01  2.4175777E+01
 2.2108751E+01  2.4159563E+01
 2.2120251E+01  2.4181564E+01
 2.2131752E+01  2.4151300E+01
 2.2143251E+01  2.4136719E+01
 2.2154751E+01  2.4160278E+01
 2.2166250E+01  2.4207207E+01
 2.2177752E+01  2.4242254E+01
 2.2189251E+01  2.4247202E+01
 2.2200750E+01  2.4239578E+01
 2.2212252E+01  2.4243010E+01
 2.2223751E+01  2.4241911E+01
 2.2235250E+01  2.4292978E+01
 2.2246752E+01  2.4287539E+01
 2.2258251E+01  2.4255341E+01
 2.2269751E+01  2.4241692E+01
 2.2281252E+01  2.4278214E+01
 2.2292751E+01  2.4296106E+01
 2.2304251E+01  2.4325367E+01
 2.2315752E+01  2.4339329E+01
 2.2327251E+01  2.4331009E+01
 2.2338751E+01  2.4327452E+01
 2.2350250E+01  2.4381115E+01
 2.2361752E+01  2.4386614E+01
 2.2373251E+01  2.4398613E+01
 2.2384750E+01  2.4326572E+01
 2.2396252E+01  2.4288792E+01
 2.2407751E+01  2.4226639E+01
 2.2419250E+01  2.4216652E+01
 2.2430752E+01  2.4294071E+01
 2.2442251E+01  2.4399895E+01
 2.2453751E+01  2.4472101E+01
 2.2465252E+01  2.4491211E+01
 2.2476751E+01  2.4456757E+01
 2.2488251E+01  2.4488171E+01
 2.2499752E+01  2.4540478E+01
 2.2511251E+01  2.4587753E+01
 2.2522751E+01  2.4637941E+01
 2.2534250E+01  2.4668158E+01
 2.2545752E+01  2.4708052E+01
 2.2557251E+01  2.4683863E+01
 2.2568750E+01  2.4652174E+01
 2.2580252E+01  2.4649696E+01
 2.2591751E+01  2.4673334E+01
 2.2603251E+01  2.4728003E+01
 2.2614752E+01  2.4748672E+01
 2.2626251E+01  2.4822704E+01
 2.2637751E+01  2.4872801E+01
 2.2649252E+01  2.4927197E+01
 2.2660751E+01  2.4908104E+01
 2.2672251E+01  2.4931185E+01
 2.2683752E+01  2.4961624E+01
 2.2695251E+01  2.5027569E+01
 2.2706751E+01  2.5052942E+01
 2.2718250E+01  2.5133747E+01
 2.2729752E+01  2.5172838E+01
 2.2741251E+01  2.5175760E+01
 2.2752750E+01  2.5146404E+01
 2.2764252E+01  2.5152719E+01
 2.2775751E+01  2.5203676E+01
 2.2787251E+01  2.5176735E+01
 2.2798752E+01  2.5186466E+01
 2.2810251E+01  2.5191175E+01
 2.2821751E+01  2.5211805E+01
 2.2833252E+01  2.5255854E+01
 2.2844751E+01  2.5272013E+01
 2.2856251E+01  2.5289877E+01
 2.2867750E+01  2.5317671E+01
 2.2879251E+01  2.5376478E+01
 2.2890751E+01  2.5483282E+01
 2.2902250E+01  2.5534389E+01
 2.2913752E+01  2.5637331E+01
 2.2925251E+01  2.5756279E+01
 2.2936750E+01  2.5849247E+01
 2.2948252E+01  2.5919882E+01
 2.2959751E+01  2.5933649E+01
 2.2971251E+01  2.6020592E+01
 2.2982752E+01  2.6043505E+01
 2.2994251E+01  2.6094744E+01
