F:\20151113_APS_34IDE\\Brian\Particle1\OCV\Data_0109.tif
2-Theta Angle (Degrees)
Intensity
       2000
 5.7500005E-03  0.0000000E+00
 1.7250001E-02  0.0000000E+00
 2.8750001E-02  0.0000000E+00
 4.0250003E-02  0.0000000E+00
 5.1750004E-02  0.0000000E+00
 6.3250005E-02  0.0000000E+00
 7.4750006E-02  0.0000000E+00
 8.6250007E-02  0.0000000E+00
 9.7750008E-02  0.0000000E+00
 1.0925001E-01  0.0000000E+00
 1.2075000E-01  0.0000000E+00
 1.3225001E-01  0.0000000E+00
 1.4375001E-01  0.0000000E+00
 1.5525001E-01  0.0000000E+00
 1.6675001E-01  0.0000000E+00
 1.7825001E-01  0.0000000E+00
 1.8975002E-01  0.0000000E+00
 2.0125002E-01  0.0000000E+00
 2.1275002E-01  0.0000000E+00
 2.2425000E-01  0.0000000E+00
 2.3575000E-01  0.0000000E+00
 2.4725001E-01  0.0000000E+00
 2.5875002E-01  0.0000000E+00
 2.7025002E-01  0.0000000E+00
 2.8175002E-01  0.0000000E+00
 2.9325002E-01  0.0000000E+00
 3.0475003E-01  0.0000000E+00
 3.1625003E-01  0.0000000E+00
 3.2775003E-01  0.0000000E+00
 3.3925003E-01  0.0000000E+00
 3.5075003E-01  0.0000000E+00
 3.6225003E-01  0.0000000E+00
 3.7375003E-01  0.0000000E+00
 3.8525003E-01  0.0000000E+00
 3.9675003E-01  0.0000000E+00
 4.0825003E-01  0.0000000E+00
 4.1975003E-01  0.0000000E+00
 4.3125004E-01  0.0000000E+00
 4.4275001E-01  0.0000000E+00
 4.5425001E-01  0.0000000E+00
 4.6575001E-01  0.0000000E+00
 4.7725001E-01  0.0000000E+00
 4.8875001E-01  0.0000000E+00
 5.0025004E-01  0.0000000E+00
 5.1175004E-01  0.0000000E+00
 5.2325004E-01  0.0000000E+00
 5.3475004E-01  0.0000000E+00
 5.4625005E-01  0.0000000E+00
 5.5775005E-01  0.0000000E+00
 5.6925005E-01  0.0000000E+00
 5.8075005E-01  0.0000000E+00
 5.9225005E-01  0.0000000E+00
 6.0375005E-01  0.0000000E+00
 6.1525005E-01  0.0000000E+00
 6.2675005E-01  0.0000000E+00
 6.3825005E-01  0.0000000E+00
 6.4975005E-01  0.0000000E+00
 6.6125005E-01  0.0000000E+00
 6.7275006E-01  0.0000000E+00
 6.8425006E-01  0.0000000E+00
 6.9575006E-01  0.0000000E+00
 7.0725006E-01  0.0000000E+00
 7.1875006E-01  0.0000000E+00
 7.3025006E-01  0.0000000E+00
 7.4175006E-01  0.0000000E+00
 7.5325006E-01  0.0000000E+00
 7.6475006E-01  0.0000000E+00
 7.7625006E-01  0.0000000E+00
 7.8775007E-01  0.0000000E+00
 7.9925007E-01  0.0000000E+00
 8.1075007E-01  0.0000000E+00
 8.2225007E-01  0.0000000E+00
 8.3375007E-01  0.0000000E+00
 8.4525007E-01  0.0000000E+00
 8.5675007E-01  0.0000000E+00
 8.6825007E-01  0.0000000E+00
 8.7975001E-01  0.0000000E+00
 8.9125001E-01  0.0000000E+00
 9.0275002E-01  0.0000000E+00
 9.1425002E-01  0.0000000E+00
 9.2575002E-01  0.0000000E+00
 9.3725002E-01  0.0000000E+00
 9.4875002E-01  0.0000000E+00
 9.6025002E-01  0.0000000E+00
 9.7175002E-01  0.0000000E+00
 9.8325002E-01  0.0000000E+00
 9.9475002E-01  0.0000000E+00
 1.0062500E+00  0.0000000E+00
 1.0177500E+00  0.0000000E+00
 1.0292500E+00  0.0000000E+00
 1.0407500E+00  0.0000000E+00
 1.0522500E+00  0.0000000E+00
 1.0637500E+00  0.0000000E+00
 1.0752500E+00  0.0000000E+00
 1.0867500E+00  0.0000000E+00
 1.0982500E+00  0.0000000E+00
 1.1097500E+00  0.0000000E+00
 1.1212500E+00  0.0000000E+00
 1.1327500E+00  0.0000000E+00
 1.1442500E+00  0.0000000E+00
 1.1557500E+00  0.0000000E+00
 1.1672500E+00  0.0000000E+00
 1.1787500E+00  0.0000000E+00
 1.1902500E+00  0.0000000E+00
 1.2017500E+00  0.0000000E+00
 1.2132500E+00  0.0000000E+00
 1.2247500E+00  0.0000000E+00
 1.2362500E+00  0.0000000E+00
 1.2477500E+00  0.0000000E+00
 1.2592500E+00  0.0000000E+00
 1.2707500E+00  0.0000000E+00
 1.2822500E+00  0.0000000E+00
 1.2937500E+00  0.0000000E+00
 1.3052500E+00  0.0000000E+00
 1.3167500E+00  0.0000000E+00
 1.3282501E+00  0.0000000E+00
 1.3397501E+00  0.0000000E+00
 1.3512501E+00  0.0000000E+00
 1.3627501E+00  0.0000000E+00
 1.3742501E+00  0.0000000E+00
 1.3857501E+00  0.0000000E+00
 1.3972501E+00  0.0000000E+00
 1.4087501E+00  0.0000000E+00
 1.4202501E+00  0.0000000E+00
 1.4317501E+00  0.0000000E+00
 1.4432501E+00  0.0000000E+00
 1.4547501E+00  0.0000000E+00
 1.4662501E+00  0.0000000E+00
 1.4777501E+00  0.0000000E+00
 1.4892501E+00  0.0000000E+00
 1.5007501E+00  0.0000000E+00
 1.5122501E+00  0.0000000E+00
 1.5237501E+00  0.0000000E+00
 1.5352501E+00  0.0000000E+00
 1.5467501E+00  0.0000000E+00
 1.5582501E+00  0.0000000E+00
 1.5697501E+00  0.0000000E+00
 1.5812501E+00  0.0000000E+00
 1.5927501E+00  0.0000000E+00
 1.6042501E+00  0.0000000E+00
 1.6157501E+00  0.0000000E+00
 1.6272501E+00  0.0000000E+00
 1.6387501E+00  0.0000000E+00
 1.6502501E+00  0.0000000E+00
 1.6617501E+00  0.0000000E+00
 1.6732501E+00  0.0000000E+00
 1.6847501E+00  0.0000000E+00
 1.6962501E+00  0.0000000E+00
 1.7077501E+00  0.0000000E+00
 1.7192501E+00  0.0000000E+00
 1.7307501E+00  0.0000000E+00
 1.7422501E+00  0.0000000E+00
 1.7537501E+00  0.0000000E+00
 1.7652501E+00  0.0000000E+00
 1.7767501E+00  0.0000000E+00
 1.7882501E+00  0.0000000E+00
 1.7997501E+00  0.0000000E+00
 1.8112501E+00  0.0000000E+00
 1.8227501E+00  0.0000000E+00
 1.8342501E+00  0.0000000E+00
 1.8457501E+00  0.0000000E+00
 1.8572501E+00  0.0000000E+00
 1.8687501E+00  0.0000000E+00
 1.8802501E+00  0.0000000E+00
 1.8917501E+00  0.0000000E+00
 1.9032501E+00  0.0000000E+00
 1.9147501E+00  0.0000000E+00
 1.9262501E+00  0.0000000E+00
 1.9377501E+00  0.0000000E+00
 1.9492501E+00  0.0000000E+00
 1.9607501E+00  0.0000000E+00
 1.9722501E+00  0.0000000E+00
 1.9837501E+00  0.0000000E+00
 1.9952501E+00  0.0000000E+00
 2.0067501E+00  0.0000000E+00
 2.0182500E+00  0.0000000E+00
 2.0297501E+00  0.0000000E+00
 2.0412500E+00  0.0000000E+00
 2.0527501E+00  0.0000000E+00
 2.0642500E+00  0.0000000E+00
 2.0757501E+00  0.0000000E+00
 2.0872500E+00  0.0000000E+00
 2.0987501E+00  0.0000000E+00
 2.1102500E+00  0.0000000E+00
 2.1217501E+00  0.0000000E+00
 2.1332500E+00  0.0000000E+00
 2.1447501E+00  0.0000000E+00
 2.1562500E+00  0.0000000E+00
 2.1677501E+00  0.0000000E+00
 2.1792500E+00  0.0000000E+00
 2.1907501E+00  0.0000000E+00
 2.2022500E+00  0.0000000E+00
 2.2137501E+00  0.0000000E+00
 2.2252500E+00  0.0000000E+00
 2.2367501E+00  0.0000000E+00
 2.2482500E+00  0.0000000E+00
 2.2597501E+00  0.0000000E+00
 2.2712500E+00  0.0000000E+00
 2.2827501E+00  0.0000000E+00
 2.2942500E+00  0.0000000E+00
 2.3057501E+00  0.0000000E+00
 2.3172500E+00  0.0000000E+00
 2.3287501E+00  0.0000000E+00
 2.3402500E+00  0.0000000E+00
 2.3517501E+00  0.0000000E+00
 2.3632500E+00  0.0000000E+00
 2.3747501E+00  0.0000000E+00
 2.3862500E+00  0.0000000E+00
 2.3977501E+00  0.0000000E+00
 2.4092500E+00  0.0000000E+00
 2.4207501E+00  0.0000000E+00
 2.4322500E+00  0.0000000E+00
 2.4437501E+00  0.0000000E+00
 2.4552500E+00  0.0000000E+00
 2.4667501E+00  0.0000000E+00
 2.4782500E+00  0.0000000E+00
 2.4897501E+00  0.0000000E+00
 2.5012500E+00  0.0000000E+00
 2.5127501E+00  0.0000000E+00
 2.5242500E+00  0.0000000E+00
 2.5357502E+00  0.0000000E+00
 2.5472500E+00  0.0000000E+00
 2.5587502E+00  0.0000000E+00
 2.5702500E+00  0.0000000E+00
 2.5817502E+00  0.0000000E+00
 2.5932500E+00  0.0000000E+00
 2.6047502E+00  0.0000000E+00
 2.6162500E+00  0.0000000E+00
 2.6277502E+00  0.0000000E+00
 2.6392500E+00  0.0000000E+00
 2.6507502E+00  0.0000000E+00
 2.6622500E+00  0.0000000E+00
 2.6737502E+00  0.0000000E+00
 2.6852500E+00  0.0000000E+00
 2.6967502E+00  0.0000000E+00
 2.7082500E+00  0.0000000E+00
 2.7197502E+00  0.0000000E+00
 2.7312500E+00  0.0000000E+00
 2.7427502E+00  0.0000000E+00
 2.7542500E+00  0.0000000E+00
 2.7657502E+00  0.0000000E+00
 2.7772501E+00  0.0000000E+00
 2.7887502E+00  0.0000000E+00
 2.8002501E+00  0.0000000E+00
 2.8117502E+00  0.0000000E+00
 2.8232501E+00  3.7292187E+01
 2.8347502E+00  3.7164616E+01
 2.8462501E+00  3.6041775E+01
 2.8577502E+00  3.5374428E+01
 2.8692501E+00  3.4362080E+01
 2.8807502E+00  3.4721912E+01
 2.8922501E+00  3.5014393E+01
 2.9037502E+00  3.5901348E+01
 2.9152501E+00  3.6098732E+01
 2.9267502E+00  3.6087833E+01
 2.9382501E+00  3.5719658E+01
 2.9497502E+00  3.5347740E+01
 2.9612501E+00  3.5483532E+01
 2.9727502E+00  3.5695938E+01
 2.9842501E+00  3.5895309E+01
 2.9957502E+00  3.6370579E+01
 3.0072501E+00  3.6511448E+01
 3.0187502E+00  3.6836670E+01
 3.0302501E+00  3.6716434E+01
 3.0417502E+00  3.6536301E+01
 3.0532501E+00  3.6188847E+01
 3.0647502E+00  3.6015938E+01
 3.0762501E+00  3.6019077E+01
 3.0877502E+00  3.6160267E+01
 3.0992501E+00  3.5976707E+01
 3.1107502E+00  3.5631966E+01
 3.1222501E+00  3.5424992E+01
 3.1337502E+00  3.5283417E+01
 3.1452501E+00  3.5174789E+01
 3.1567502E+00  3.5126900E+01
 3.1682501E+00  3.5247665E+01
 3.1797502E+00  3.5500015E+01
 3.1912501E+00  3.5427719E+01
 3.2027502E+00  3.5173038E+01
 3.2142501E+00  3.5040386E+01
 3.2257502E+00  3.5054310E+01
 3.2372501E+00  3.5031998E+01
 3.2487502E+00  3.5192097E+01
 3.2602501E+00  3.5066494E+01
 3.2717502E+00  3.5073513E+01
 3.2832501E+00  3.4760357E+01
 3.2947502E+00  3.4816689E+01
 3.3062501E+00  3.4934711E+01
 3.3177502E+00  3.4994331E+01
 3.3292501E+00  3.4631569E+01
 3.3407502E+00  3.4402554E+01
 3.3522501E+00  3.4083611E+01
 3.3637502E+00  3.4154392E+01
 3.3752501E+00  3.4150852E+01
 3.3867502E+00  3.4112518E+01
 3.3982501E+00  3.4281197E+01
 3.4097502E+00  3.4185474E+01
 3.4212501E+00  3.4411598E+01
 3.4327502E+00  3.4845924E+01
 3.4442501E+00  3.5111256E+01
 3.4557502E+00  3.5339340E+01
 3.4672501E+00  3.5459492E+01
 3.4787502E+00  3.5431156E+01
 3.4902501E+00  3.5297421E+01
 3.5017502E+00  3.4853741E+01
 3.5132501E+00  3.4666981E+01
 3.5247502E+00  3.4142330E+01
 3.5362501E+00  3.3929573E+01
 3.5477502E+00  3.3574284E+01
 3.5592501E+00  3.3539482E+01
 3.5707502E+00  3.3243843E+01
 3.5822501E+00  3.3282597E+01
 3.5937502E+00  3.3312557E+01
 3.6052501E+00  3.3275368E+01
 3.6167502E+00  3.3276146E+01
 3.6282501E+00  3.3214085E+01
 3.6397502E+00  3.3255432E+01
 3.6512501E+00  3.3442402E+01
 3.6627502E+00  3.3531387E+01
 3.6742501E+00  3.3603367E+01
 3.6857502E+00  3.3538692E+01
 3.6972501E+00  3.3463394E+01
 3.7087502E+00  3.3461140E+01
 3.7202501E+00  3.3167629E+01
 3.7317502E+00  3.3077908E+01
 3.7432501E+00  3.2912571E+01
 3.7547503E+00  3.2946407E+01
 3.7662501E+00  3.2882584E+01
 3.7777503E+00  3.2828217E+01
 3.7892501E+00  3.2645813E+01
 3.8007503E+00  3.2579010E+01
 3.8122501E+00  3.2534050E+01
 3.8237503E+00  3.2420780E+01
 3.8352501E+00  3.2450996E+01
 3.8467503E+00  3.2328411E+01
 3.8582501E+00  3.2555904E+01
 3.8697503E+00  3.2629494E+01
 3.8812501E+00  3.2876106E+01
 3.8927503E+00  3.2891411E+01
 3.9042501E+00  3.2981613E+01
 3.9157503E+00  3.2897297E+01
 3.9272501E+00  3.2854710E+01
 3.9387503E+00  3.2740067E+01
 3.9502501E+00  3.2694080E+01
 3.9617503E+00  3.2873775E+01
 3.9732502E+00  3.2992142E+01
 3.9847503E+00  3.3140045E+01
 3.9962502E+00  3.3131603E+01
 4.0077500E+00  3.3030190E+01
 4.0192504E+00  3.2748825E+01
 4.0307503E+00  3.2415344E+01
 4.0422502E+00  3.2175938E+01
 4.0537500E+00  3.2183067E+01
 4.0652504E+00  3.2031670E+01
 4.0767503E+00  3.2002087E+01
 4.0882502E+00  3.1989122E+01
 4.0997500E+00  3.2284775E+01
 4.1112504E+00  3.2356071E+01
 4.1227503E+00  3.2281593E+01
 4.1342502E+00  3.2326736E+01
 4.1457500E+00  3.2347473E+01
 4.1572504E+00  3.2256672E+01
 4.1687503E+00  3.2054943E+01
 4.1802502E+00  3.1747589E+01
 4.1917500E+00  3.1814379E+01
 4.2032504E+00  3.1661434E+01
 4.2147503E+00  3.1794672E+01
 4.2262502E+00  3.1689386E+01
 4.2377501E+00  3.1770437E+01
 4.2492504E+00  3.1797747E+01
 4.2607503E+00  3.1847198E+01
 4.2722502E+00  3.1876863E+01
 4.2837501E+00  3.1913540E+01
 4.2952504E+00  3.2001877E+01
 4.3067503E+00  3.2006577E+01
 4.3182502E+00  3.1966093E+01
 4.3297501E+00  3.1980618E+01
 4.3412504E+00  3.1926455E+01
 4.3527503E+00  3.1929153E+01
 4.3642502E+00  3.1815964E+01
 4.3757501E+00  3.1994869E+01
 4.3872504E+00  3.2075436E+01
 4.3987503E+00  3.2247677E+01
 4.4102502E+00  3.2258266E+01
 4.4217501E+00  3.2248203E+01
 4.4332504E+00  3.2206448E+01
 4.4447503E+00  3.2102798E+01
 4.4562502E+00  3.2106430E+01
 4.4677501E+00  3.2224876E+01
 4.4792504E+00  3.2240345E+01
 4.4907503E+00  3.2346416E+01
 4.5022502E+00  3.2422161E+01
 4.5137501E+00  3.2530071E+01
 4.5252504E+00  3.2678070E+01
 4.5367503E+00  3.2688046E+01
 4.5482502E+00  3.2637829E+01
 4.5597501E+00  3.2482136E+01
 4.5712504E+00  3.2522320E+01
 4.5827503E+00  3.2387131E+01
 4.5942502E+00  3.2614124E+01
 4.6057501E+00  3.2508465E+01
 4.6172504E+00  3.2677261E+01
 4.6287503E+00  3.2473553E+01
 4.6402502E+00  3.2445007E+01
 4.6517501E+00  3.2326347E+01
 4.6632504E+00  3.2399693E+01
 4.6747503E+00  3.2405148E+01
 4.6862502E+00  3.2397686E+01
 4.6977501E+00  3.2583115E+01
 4.7092505E+00  3.2607311E+01
 4.7207503E+00  3.2766197E+01
 4.7322502E+00  3.2698307E+01
 4.7437501E+00  3.2814404E+01
 4.7552505E+00  3.2743069E+01
 4.7667503E+00  3.2837818E+01
 4.7782502E+00  3.2744431E+01
 4.7897501E+00  3.2717751E+01
 4.8012505E+00  3.2683235E+01
 4.8127503E+00  3.2616001E+01
 4.8242502E+00  3.2599133E+01
 4.8357501E+00  3.2631653E+01
 4.8472505E+00  3.2643242E+01
 4.8587503E+00  3.2886799E+01
 4.8702502E+00  3.2849705E+01
 4.8817501E+00  3.2911633E+01
 4.8932505E+00  3.2814514E+01
 4.9047503E+00  3.2776974E+01
 4.9162502E+00  3.2801231E+01
 4.9277501E+00  3.2738663E+01
 4.9392505E+00  3.2764820E+01
 4.9507504E+00  3.2720318E+01
 4.9622502E+00  3.2681652E+01
 4.9737501E+00  3.2702179E+01
 4.9852505E+00  3.2694946E+01
 4.9967504E+00  3.2838272E+01
 5.0082502E+00  3.2906685E+01
 5.0197501E+00  3.2989292E+01
 5.0312505E+00  3.3051300E+01
 5.0427504E+00  3.3081169E+01
 5.0542502E+00  3.3215828E+01
 5.0657501E+00  3.3354107E+01
 5.0772505E+00  3.3529079E+01
 5.0887504E+00  3.3617233E+01
 5.1002502E+00  3.3759876E+01
 5.1117501E+00  3.3734035E+01
 5.1232505E+00  3.3647835E+01
 5.1347504E+00  3.3610619E+01
 5.1462502E+00  3.3706345E+01
 5.1577501E+00  3.3818699E+01
 5.1692505E+00  3.3737541E+01
 5.1807504E+00  3.3665707E+01
 5.1922503E+00  3.3588436E+01
 5.2037501E+00  3.3638916E+01
 5.2152505E+00  3.3709320E+01
 5.2267504E+00  3.3809219E+01
 5.2382503E+00  3.3860317E+01
 5.2497501E+00  3.3790752E+01
 5.2612505E+00  3.3647923E+01
 5.2727504E+00  3.3519936E+01
 5.2842503E+00  3.3495598E+01
 5.2957501E+00  3.3698288E+01
 5.3072500E+00  3.3784977E+01
 5.3187504E+00  3.3968685E+01
 5.3302503E+00  3.3982224E+01
 5.3417501E+00  3.4041119E+01
 5.3532500E+00  3.4062729E+01
 5.3647504E+00  3.4090111E+01
 5.3762503E+00  3.4268974E+01
 5.3877501E+00  3.4463837E+01
 5.3992500E+00  3.4495243E+01
 5.4107504E+00  3.4496292E+01
 5.4222503E+00  3.4416645E+01
 5.4337502E+00  3.4374054E+01
 5.4452500E+00  3.4355038E+01
 5.4567504E+00  3.4335068E+01
 5.4682503E+00  3.4360718E+01
 5.4797502E+00  3.4335518E+01
 5.4912500E+00  3.4354542E+01
 5.5027504E+00  3.4473812E+01
 5.5142503E+00  3.4556068E+01
 5.5257502E+00  3.4743088E+01
 5.5372500E+00  3.4828217E+01
 5.5487504E+00  3.4983311E+01
 5.5602503E+00  3.4954361E+01
 5.5717502E+00  3.4875870E+01
 5.5832500E+00  3.4844231E+01
 5.5947504E+00  3.5014839E+01
 5.6062503E+00  3.5060188E+01
 5.6177502E+00  3.5090607E+01
 5.6292500E+00  3.4968685E+01
 5.6407504E+00  3.5006817E+01
 5.6522503E+00  3.4953785E+01
 5.6637502E+00  3.5069885E+01
 5.6752501E+00  3.5052044E+01
 5.6867504E+00  3.5111889E+01
 5.6982503E+00  3.5046318E+01
 5.7097502E+00  3.5042774E+01
 5.7212501E+00  3.5115162E+01
 5.7327504E+00  3.5192242E+01
 5.7442503E+00  3.5291851E+01
 5.7557502E+00  3.5279892E+01
 5.7672501E+00  3.5185719E+01
 5.7787504E+00  3.5166431E+01
 5.7902503E+00  3.5259827E+01
 5.8017502E+00  3.5253235E+01
 5.8132501E+00  3.5222775E+01
 5.8247504E+00  3.5119839E+01
 5.8362503E+00  3.5255001E+01
 5.8477502E+00  3.5367764E+01
 5.8592501E+00  3.5482494E+01
 5.8707504E+00  3.5659416E+01
 5.8822503E+00  3.5811172E+01
 5.8937502E+00  3.5953243E+01
 5.9052501E+00  3.6023312E+01
 5.9167504E+00  3.6034286E+01
 5.9282503E+00  3.6198433E+01
 5.9397502E+00  3.6474724E+01
 5.9512501E+00  3.6980495E+01
 5.9627504E+00  3.7476196E+01
 5.9742503E+00  3.7927174E+01
 5.9857502E+00  3.8072678E+01
 5.9972501E+00  3.8091850E+01
 6.0087504E+00  3.7740231E+01
 6.0202503E+00  3.7363968E+01
 6.0317502E+00  3.7017818E+01
 6.0432501E+00  3.6737644E+01
 6.0547504E+00  3.6567215E+01
 6.0662503E+00  3.6516655E+01
 6.0777502E+00  3.6406425E+01
 6.0892501E+00  3.6488560E+01
 6.1007504E+00  3.6491409E+01
 6.1122503E+00  3.6606499E+01
 6.1237502E+00  3.6625359E+01
 6.1352501E+00  3.6615974E+01
 6.1467505E+00  3.6566242E+01
 6.1582503E+00  3.6560211E+01
 6.1697502E+00  3.6506207E+01
 6.1812501E+00  3.6674397E+01
 6.1927505E+00  3.6751545E+01
 6.2042503E+00  3.6824066E+01
 6.2157502E+00  3.6926392E+01
 6.2272501E+00  3.7070549E+01
 6.2387505E+00  3.7147465E+01
 6.2502503E+00  3.7188927E+01
 6.2617502E+00  3.7201569E+01
 6.2732501E+00  3.7339924E+01
 6.2847505E+00  3.7409107E+01
 6.2962503E+00  3.7434013E+01
 6.3077502E+00  3.7484051E+01
 6.3192501E+00  3.7530945E+01
 6.3307505E+00  3.7719749E+01
 6.3422503E+00  3.7847763E+01
 6.3537502E+00  3.7883465E+01
 6.3652501E+00  3.7942142E+01
 6.3767505E+00  3.7946407E+01
 6.3882504E+00  3.8022259E+01
 6.3997502E+00  3.8020016E+01
 6.4112501E+00  3.8047626E+01
 6.4227505E+00  3.8178848E+01
 6.4342504E+00  3.8293125E+01
 6.4457502E+00  3.8383373E+01
 6.4572501E+00  3.8504230E+01
 6.4687505E+00  3.8599323E+01
 6.4802504E+00  3.8624577E+01
 6.4917502E+00  3.8690086E+01
 6.5032501E+00  3.8730606E+01
 6.5147505E+00  3.8882969E+01
 6.5262504E+00  3.8887085E+01
 6.5377502E+00  3.8980026E+01
 6.5492501E+00  3.9098335E+01
 6.5607505E+00  3.9256165E+01
 6.5722504E+00  3.9237278E+01
 6.5837502E+00  3.9264034E+01
 6.5952501E+00  3.9226120E+01
 6.6067505E+00  3.9253189E+01
 6.6182504E+00  3.9312359E+01
 6.6297503E+00  3.9480713E+01
 6.6412501E+00  3.9634544E+01
 6.6527505E+00  3.9819550E+01
 6.6642504E+00  3.9922546E+01
 6.6757503E+00  4.0003525E+01
 6.6872501E+00  3.9971939E+01
 6.6987505E+00  3.9968849E+01
 6.7102504E+00  3.9979069E+01
 6.7217503E+00  4.0076981E+01
 6.7332501E+00  4.0057713E+01
 6.7447505E+00  4.0224075E+01
 6.7562504E+00  4.0339432E+01
 6.7677503E+00  4.0515083E+01
 6.7792501E+00  4.0657429E+01
 6.7907505E+00  4.0788765E+01
 6.8022504E+00  4.0962151E+01
 6.8137503E+00  4.1094040E+01
 6.8252501E+00  4.1174957E+01
 6.8367505E+00  4.1341648E+01
 6.8482504E+00  4.1378731E+01
 6.8597503E+00  4.1452393E+01
 6.8712502E+00  4.1384754E+01
 6.8827505E+00  4.1433758E+01
 6.8942504E+00  4.1478058E+01
 6.9057503E+00  4.1604458E+01
 6.9172502E+00  4.1722965E+01
 6.9287505E+00  4.1810223E+01
 6.9402504E+00  4.1877819E+01
 6.9517503E+00  4.1835857E+01
 6.9632502E+00  4.1828342E+01
 6.9747505E+00  4.1890919E+01
 6.9862504E+00  4.1970116E+01
 6.9977503E+00  4.2104961E+01
 7.0092502E+00  4.2245255E+01
 7.0207505E+00  4.2423946E+01
 7.0322504E+00  4.2502327E+01
 7.0437503E+00  4.2474854E+01
 7.0552502E+00  4.2399796E+01
 7.0667505E+00  4.2386520E+01
 7.0782504E+00  4.2351391E+01
 7.0897503E+00  4.2342728E+01
 7.1012502E+00  4.2401566E+01
 7.1127505E+00  4.2476315E+01
 7.1242504E+00  4.2576302E+01
 7.1357503E+00  4.2683830E+01
 7.1472502E+00  4.2768143E+01
 7.1587505E+00  4.2834473E+01
 7.1702504E+00  4.2786175E+01
 7.1817503E+00  4.2827324E+01
 7.1932502E+00  4.2881058E+01
 7.2047505E+00  4.2974670E+01
 7.2162504E+00  4.3003540E+01
 7.2277503E+00  4.3129288E+01
 7.2392502E+00  4.3197094E+01
 7.2507505E+00  4.3302402E+01
 7.2622504E+00  4.3390015E+01
 7.2737503E+00  4.3494621E+01
 7.2852502E+00  4.3603912E+01
 7.2967505E+00  4.3623055E+01
 7.3082504E+00  4.3687557E+01
 7.3197503E+00  4.3576931E+01
 7.3312502E+00  4.3475681E+01
 7.3427505E+00  4.3444687E+01
 7.3542504E+00  4.3487358E+01
 7.3657503E+00  4.3609913E+01
 7.3772502E+00  4.3657013E+01
 7.3887506E+00  4.3843254E+01
 7.4002504E+00  4.3910446E+01
 7.4117503E+00  4.3985832E+01
 7.4232502E+00  4.4013615E+01
 7.4347506E+00  4.4166286E+01
 7.4462504E+00  4.4176208E+01
 7.4577503E+00  4.4226227E+01
 7.4692502E+00  4.4240349E+01
 7.4807506E+00  4.4294674E+01
 7.4922504E+00  4.4309639E+01
 7.5037503E+00  4.4282669E+01
 7.5152502E+00  4.4226131E+01
 7.5267506E+00  4.4119602E+01
 7.5382504E+00  4.4031029E+01
 7.5497503E+00  4.4012180E+01
 7.5612502E+00  4.4055748E+01
 7.5727506E+00  4.4098579E+01
 7.5842505E+00  4.4033012E+01
 7.5957503E+00  4.4001213E+01
 7.6072502E+00  4.3915646E+01
 7.6187506E+00  4.3885143E+01
 7.6302505E+00  4.3962841E+01
 7.6417503E+00  4.4018604E+01
 7.6532502E+00  4.4109615E+01
 7.6647506E+00  4.4004654E+01
 7.6762505E+00  4.4002254E+01
 7.6877503E+00  4.3923985E+01
 7.6992502E+00  4.3968895E+01
 7.7107506E+00  4.4040012E+01
 7.7222505E+00  4.4099804E+01
 7.7337503E+00  4.4184723E+01
 7.7452502E+00  4.4066097E+01
 7.7567506E+00  4.4158119E+01
 7.7682505E+00  4.4117943E+01
 7.7797503E+00  4.4128731E+01
 7.7912502E+00  4.4095631E+01
 7.8027506E+00  4.4049309E+01
 7.8142505E+00  4.4020069E+01
 7.8257504E+00  4.3860989E+01
 7.8372502E+00  4.3783344E+01
 7.8487506E+00  4.3707123E+01
 7.8602505E+00  4.3681156E+01
 7.8717504E+00  4.3627522E+01
 7.8832502E+00  4.3641773E+01
 7.8947506E+00  4.3631287E+01
 7.9062505E+00  4.3659702E+01
 7.9177504E+00  4.3672150E+01
 7.9292502E+00  4.3609367E+01
 7.9407506E+00  4.3624641E+01
 7.9522505E+00  4.3598625E+01
 7.9637504E+00  4.3613068E+01
 7.9752502E+00  4.3582546E+01
 7.9867506E+00  4.3616550E+01
 7.9982505E+00  4.3573456E+01
 8.0097504E+00  4.3405540E+01
 8.0212507E+00  4.3218105E+01
 8.0327501E+00  4.3019669E+01
 8.0442505E+00  4.2944225E+01
 8.0557508E+00  4.2828995E+01
 8.0672503E+00  4.2754436E+01
 8.0787506E+00  4.2676682E+01
 8.0902500E+00  4.2605515E+01
 8.1017504E+00  4.2576637E+01
 8.1132507E+00  4.2622303E+01
 8.1247501E+00  4.2553875E+01
 8.1362505E+00  4.2431511E+01
 8.1477509E+00  4.2295380E+01
 8.1592503E+00  4.2183411E+01
 8.1707506E+00  4.2165386E+01
 8.1822500E+00  4.1985870E+01
 8.1937504E+00  4.1921803E+01
 8.2052507E+00  4.1819199E+01
 8.2167501E+00  4.1716442E+01
 8.2282505E+00  4.1587646E+01
 8.2397509E+00  4.1479408E+01
 8.2512503E+00  4.1380402E+01
 8.2627506E+00  4.1173534E+01
 8.2742500E+00  4.0961567E+01
 8.2857504E+00  4.0756321E+01
 8.2972507E+00  4.0651516E+01
 8.3087502E+00  4.0470894E+01
 8.3202505E+00  4.0401302E+01
 8.3317509E+00  4.0168255E+01
 8.3432503E+00  4.0081532E+01
 8.3547506E+00  3.9932362E+01
 8.3662500E+00  3.9857327E+01
 8.3777504E+00  3.9711380E+01
 8.3892508E+00  3.9622639E+01
 8.4007502E+00  3.9417061E+01
 8.4122505E+00  3.9340080E+01
 8.4237509E+00  3.9128464E+01
 8.4352503E+00  3.9033882E+01
 8.4467506E+00  3.8884380E+01
 8.4582500E+00  3.8589298E+01
 8.4697504E+00  3.8419521E+01
 8.4812508E+00  3.8068665E+01
 8.4927502E+00  3.7904526E+01
 8.5042505E+00  3.7614437E+01
 8.5157509E+00  3.7475750E+01
 8.5272503E+00  3.7334263E+01
 8.5387506E+00  3.7166763E+01
 8.5502501E+00  3.6981781E+01
 8.5617504E+00  3.6763233E+01
 8.5732508E+00  3.6592571E+01
 8.5847502E+00  3.6358032E+01
 8.5962505E+00  3.6210014E+01
 8.6077509E+00  3.6086731E+01
 8.6192503E+00  3.6060265E+01
 8.6307507E+00  3.5982368E+01
 8.6422501E+00  3.5821480E+01
 8.6537504E+00  3.5629143E+01
 8.6652508E+00  3.5421238E+01
 8.6767502E+00  3.5257534E+01
 8.6882505E+00  3.5124660E+01
 8.6997509E+00  3.4977669E+01
 8.7112503E+00  3.4769581E+01
 8.7227507E+00  3.4587814E+01
 8.7342501E+00  3.4328659E+01
 8.7457504E+00  3.4118965E+01
 8.7572508E+00  3.3906929E+01
 8.7687502E+00  3.3740009E+01
 8.7802505E+00  3.3570412E+01
 8.7917500E+00  3.3469933E+01
 8.8032503E+00  3.3312843E+01
 8.8147507E+00  3.3221825E+01
 8.8262501E+00  3.3015976E+01
 8.8377504E+00  3.2926445E+01
 8.8492508E+00  3.2692226E+01
 8.8607502E+00  3.2523781E+01
 8.8722506E+00  3.2310177E+01
 8.8837500E+00  3.2147671E+01
 8.8952503E+00  3.1953922E+01
 8.9067507E+00  3.1755877E+01
 8.9182501E+00  3.1543776E+01
 8.9297504E+00  3.1408367E+01
 8.9412508E+00  3.1322443E+01
 8.9527502E+00  3.1292873E+01
 8.9642506E+00  3.1161812E+01
 8.9757500E+00  3.0965603E+01
 8.9872503E+00  3.0828999E+01
 8.9987507E+00  3.0615084E+01
 9.0102501E+00  3.0408669E+01
 9.0217505E+00  3.0128489E+01
 9.0332508E+00  3.0005133E+01
 9.0447502E+00  2.9830072E+01
 9.0562506E+00  2.9717123E+01
 9.0677500E+00  2.9540117E+01
 9.0792503E+00  2.9487486E+01
 9.0907507E+00  2.9426003E+01
 9.1022501E+00  2.9344790E+01
 9.1137505E+00  2.9364071E+01
 9.1252508E+00  2.9252651E+01
 9.1367502E+00  2.9171467E+01
 9.1482506E+00  2.9035484E+01
 9.1597500E+00  2.8915821E+01
 9.1712503E+00  2.8765375E+01
 9.1827507E+00  2.8564960E+01
 9.1942501E+00  2.8469255E+01
 9.2057505E+00  2.8375332E+01
 9.2172508E+00  2.8354551E+01
 9.2287502E+00  2.8185350E+01
 9.2402506E+00  2.8179819E+01
 9.2517500E+00  2.8069384E+01
 9.2632504E+00  2.8012768E+01
 9.2747507E+00  2.7863394E+01
 9.2862501E+00  2.7678223E+01
 9.2977505E+00  2.7579504E+01
 9.3092508E+00  2.7439669E+01
 9.3207502E+00  2.7415865E+01
 9.3322506E+00  2.7350611E+01
 9.3437500E+00  2.7251654E+01
 9.3552504E+00  2.7075802E+01
 9.3667507E+00  2.6912565E+01
 9.3782501E+00  2.6808573E+01
 9.3897505E+00  2.6743092E+01
 9.4012508E+00  2.6748661E+01
 9.4127502E+00  2.6765158E+01
 9.4242506E+00  2.6699181E+01
 9.4357500E+00  2.6589315E+01
 9.4472504E+00  2.6421141E+01
 9.4587507E+00  2.6292677E+01
 9.4702501E+00  2.6200052E+01
 9.4817505E+00  2.6197607E+01
 9.4932508E+00  2.6136959E+01
 9.5047503E+00  2.6066412E+01
 9.5162506E+00  2.5987381E+01
 9.5277500E+00  2.5958202E+01
 9.5392504E+00  2.5984247E+01
 9.5507507E+00  2.5879570E+01
 9.5622501E+00  2.5831209E+01
 9.5737505E+00  2.5696943E+01
 9.5852509E+00  2.5612741E+01
 9.5967503E+00  2.5591616E+01
 9.6082506E+00  2.5476528E+01
 9.6197500E+00  2.5450983E+01
 9.6312504E+00  2.5312782E+01
 9.6427507E+00  2.5254002E+01
 9.6542501E+00  2.5144543E+01
 9.6657505E+00  2.5057611E+01
 9.6772509E+00  2.4983337E+01
 9.6887503E+00  2.4955929E+01
 9.7002506E+00  2.4969118E+01
 9.7117500E+00  2.4991604E+01
 9.7232504E+00  2.5007380E+01
 9.7347507E+00  2.4986122E+01
 9.7462502E+00  2.4963305E+01
 9.7577505E+00  2.4885141E+01
 9.7692509E+00  2.4847128E+01
 9.7807503E+00  2.4792690E+01
 9.7922506E+00  2.4765991E+01
 9.8037500E+00  2.4763283E+01
 9.8152504E+00  2.4727976E+01
 9.8267508E+00  2.4687443E+01
 9.8382502E+00  2.4635284E+01
 9.8497505E+00  2.4597250E+01
 9.8612509E+00  2.4474495E+01
 9.8727503E+00  2.4439302E+01
 9.8842506E+00  2.4376486E+01
 9.8957500E+00  2.4392391E+01
 9.9072504E+00  2.4311005E+01
 9.9187508E+00  2.4265093E+01
 9.9302502E+00  2.4185942E+01
 9.9417505E+00  2.4110052E+01
 9.9532509E+00  2.4045143E+01
 9.9647503E+00  2.4065786E+01
 9.9762506E+00  2.4041689E+01
 9.9877501E+00  2.3999924E+01
 9.9992504E+00  2.3937677E+01
 1.0010751E+01  2.3911585E+01
 1.0022250E+01  2.3901690E+01
 1.0033751E+01  2.3846489E+01
 1.0045251E+01  2.3747818E+01
 1.0056750E+01  2.3695580E+01
 1.0068251E+01  2.3620508E+01
 1.0079750E+01  2.3636879E+01
 1.0091250E+01  2.3573467E+01
 1.0102751E+01  2.3570387E+01
 1.0114250E+01  2.3519073E+01
 1.0125751E+01  2.3493643E+01
 1.0137251E+01  2.3509167E+01
 1.0148750E+01  2.3499189E+01
 1.0160251E+01  2.3510181E+01
 1.0171750E+01  2.3484072E+01
 1.0183250E+01  2.3523516E+01
 1.0194751E+01  2.3491079E+01
 1.0206250E+01  2.3510489E+01
 1.0217751E+01  2.3484657E+01
 1.0229251E+01  2.3439209E+01
 1.0240750E+01  2.3421444E+01
 1.0252251E+01  2.3366655E+01
 1.0263750E+01  2.3379349E+01
 1.0275250E+01  2.3296286E+01
 1.0286751E+01  2.3318821E+01
 1.0298250E+01  2.3342157E+01
 1.0309751E+01  2.3344654E+01
 1.0321251E+01  2.3250090E+01
 1.0332750E+01  2.3201948E+01
 1.0344251E+01  2.3165926E+01
 1.0355750E+01  2.3149124E+01
 1.0367250E+01  2.3063066E+01
 1.0378751E+01  2.3054689E+01
 1.0390250E+01  2.3028479E+01
 1.0401751E+01  2.3035202E+01
 1.0413251E+01  2.2991425E+01
 1.0424750E+01  2.2988560E+01
 1.0436251E+01  2.2953539E+01
 1.0447750E+01  2.2960529E+01
 1.0459250E+01  2.2933460E+01
 1.0470751E+01  2.2932135E+01
 1.0482250E+01  2.2903357E+01
 1.0493751E+01  2.2902824E+01
 1.0505251E+01  2.2889811E+01
 1.0516750E+01  2.2885876E+01
 1.0528251E+01  2.2853558E+01
 1.0539750E+01  2.2882721E+01
 1.0551250E+01  2.2871586E+01
 1.0562751E+01  2.2902237E+01
 1.0574250E+01  2.2830679E+01
 1.0585751E+01  2.2781998E+01
 1.0597251E+01  2.2743874E+01
 1.0608750E+01  2.2725420E+01
 1.0620251E+01  2.2761971E+01
 1.0631750E+01  2.2772512E+01
 1.0643250E+01  2.2816069E+01
 1.0654751E+01  2.2847839E+01
 1.0666250E+01  2.2812296E+01
 1.0677751E+01  2.2786345E+01
 1.0689251E+01  2.2666117E+01
 1.0700750E+01  2.2660810E+01
 1.0712251E+01  2.2640217E+01
 1.0723750E+01  2.2715065E+01
 1.0735250E+01  2.2715549E+01
 1.0746751E+01  2.2732201E+01
 1.0758250E+01  2.2701067E+01
 1.0769751E+01  2.2641895E+01
 1.0781251E+01  2.2587770E+01
 1.0792750E+01  2.2521914E+01
 1.0804251E+01  2.2520937E+01
 1.0815750E+01  2.2504688E+01
 1.0827250E+01  2.2515354E+01
 1.0838751E+01  2.2502020E+01
 1.0850250E+01  2.2487122E+01
 1.0861751E+01  2.2469933E+01
 1.0873251E+01  2.2484755E+01
 1.0884750E+01  2.2452948E+01
 1.0896251E+01  2.2427139E+01
 1.0907750E+01  2.2375616E+01
 1.0919250E+01  2.2359156E+01
 1.0930751E+01  2.2323307E+01
 1.0942250E+01  2.2332130E+01
 1.0953751E+01  2.2357254E+01
 1.0965251E+01  2.2381546E+01
 1.0976750E+01  2.2393343E+01
 1.0988251E+01  2.2370438E+01
 1.0999750E+01  2.2361744E+01
 1.1011250E+01  2.2297483E+01
 1.1022751E+01  2.2323845E+01
 1.1034250E+01  2.2326078E+01
 1.1045751E+01  2.2326258E+01
 1.1057251E+01  2.2267838E+01
 1.1068750E+01  2.2254797E+01
 1.1080251E+01  2.2268005E+01
 1.1091750E+01  2.2266392E+01
 1.1103251E+01  2.2286062E+01
 1.1114751E+01  2.2304266E+01
 1.1126250E+01  2.2305220E+01
 1.1137751E+01  2.2283587E+01
 1.1149251E+01  2.2266174E+01
 1.1160750E+01  2.2279030E+01
 1.1172251E+01  2.2210035E+01
 1.1183750E+01  2.2124304E+01
 1.1195251E+01  2.2072685E+01
 1.1206751E+01  2.2063932E+01
 1.1218250E+01  2.2080828E+01
 1.1229751E+01  2.2039070E+01
 1.1241251E+01  2.2053150E+01
 1.1252750E+01  2.2068481E+01
 1.1264251E+01  2.2100637E+01
 1.1275750E+01  2.2096418E+01
 1.1287251E+01  2.2122007E+01
 1.1298751E+01  2.2186653E+01
 1.1310250E+01  2.2205921E+01
 1.1321751E+01  2.2188236E+01
 1.1333251E+01  2.2093191E+01
 1.1344750E+01  2.2116703E+01
 1.1356251E+01  2.2053757E+01
 1.1367750E+01  2.2104719E+01
 1.1379251E+01  2.2114098E+01
 1.1390751E+01  2.2226143E+01
 1.1402250E+01  2.2341833E+01
 1.1413751E+01  2.2325283E+01
 1.1425251E+01  2.2314121E+01
 1.1436750E+01  2.2245291E+01
 1.1448251E+01  2.2324106E+01
 1.1459750E+01  2.2318451E+01
 1.1471251E+01  2.2286810E+01
 1.1482751E+01  2.2157938E+01
 1.1494250E+01  2.2084953E+01
 1.1505751E+01  2.2021181E+01
 1.1517251E+01  2.2017979E+01
 1.1528750E+01  2.2122099E+01
 1.1540251E+01  2.2301664E+01
 1.1551750E+01  2.2521837E+01
 1.1563251E+01  2.2796137E+01
 1.1574751E+01  2.3015377E+01
 1.1586250E+01  2.3201899E+01
 1.1597751E+01  2.3102129E+01
 1.1609251E+01  2.3033022E+01
 1.1620750E+01  2.2724367E+01
 1.1632251E+01  2.2542362E+01
 1.1643750E+01  2.2265215E+01
 1.1655251E+01  2.2241920E+01
 1.1666751E+01  2.2169758E+01
 1.1678250E+01  2.2162014E+01
 1.1689751E+01  2.2086859E+01
 1.1701251E+01  2.2070669E+01
 1.1712750E+01  2.1967505E+01
 1.1724251E+01  2.1970583E+01
 1.1735750E+01  2.1936472E+01
 1.1747251E+01  2.2023708E+01
 1.1758751E+01  2.2030478E+01
 1.1770250E+01  2.2042892E+01
 1.1781751E+01  2.2036747E+01
 1.1793251E+01  2.1995289E+01
 1.1804750E+01  2.1999237E+01
 1.1816251E+01  2.2019924E+01
 1.1827750E+01  2.2018129E+01
 1.1839251E+01  2.2030088E+01
 1.1850751E+01  2.1985542E+01
 1.1862250E+01  2.2013121E+01
 1.1873751E+01  2.1998531E+01
 1.1885251E+01  2.1966618E+01
 1.1896750E+01  2.1957811E+01
 1.1908251E+01  2.2010883E+01
 1.1919750E+01  2.2080822E+01
 1.1931251E+01  2.2107807E+01
 1.1942751E+01  2.2106310E+01
 1.1954250E+01  2.2109610E+01
 1.1965751E+01  2.2159111E+01
 1.1977251E+01  2.2172146E+01
 1.1988750E+01  2.2249615E+01
 1.2000251E+01  2.2252758E+01
 1.2011750E+01  2.2271673E+01
 1.2023251E+01  2.2237770E+01
 1.2034751E+01  2.2270748E+01
 1.2046250E+01  2.2270384E+01
 1.2057751E+01  2.2341187E+01
 1.2069251E+01  2.2399139E+01
 1.2080750E+01  2.2440609E+01
 1.2092251E+01  2.2471889E+01
 1.2103750E+01  2.2511993E+01
 1.2115251E+01  2.2477459E+01
 1.2126751E+01  2.2407627E+01
 1.2138250E+01  2.2309824E+01
 1.2149751E+01  2.2268459E+01
 1.2161251E+01  2.2214437E+01
 1.2172750E+01  2.2151262E+01
 1.2184251E+01  2.2156361E+01
 1.2195750E+01  2.2168921E+01
 1.2207251E+01  2.2159204E+01
 1.2218751E+01  2.2110245E+01
 1.2230250E+01  2.2050358E+01
 1.2241751E+01  2.2028402E+01
 1.2253251E+01  2.1986393E+01
 1.2264750E+01  2.1935848E+01
 1.2276251E+01  2.1927423E+01
 1.2287750E+01  2.1965670E+01
 1.2299251E+01  2.1998999E+01
 1.2310751E+01  2.2030361E+01
 1.2322250E+01  2.2018345E+01
 1.2333751E+01  2.2060602E+01
 1.2345250E+01  2.2043644E+01
 1.2356750E+01  2.2099867E+01
 1.2368251E+01  2.2115669E+01
 1.2379750E+01  2.2163511E+01
 1.2391251E+01  2.2188206E+01
 1.2402751E+01  2.2221895E+01
 1.2414250E+01  2.2241863E+01
 1.2425751E+01  2.2231121E+01
 1.2437250E+01  2.2231222E+01
 1.2448750E+01  2.2179754E+01
 1.2460251E+01  2.2279392E+01
 1.2471750E+01  2.2391640E+01
 1.2483251E+01  2.2463171E+01
 1.2494751E+01  2.2381866E+01
 1.2506250E+01  2.2256929E+01
 1.2517751E+01  2.2286867E+01
 1.2529250E+01  2.2340359E+01
 1.2540751E+01  2.2340691E+01
 1.2552251E+01  2.2343546E+01
 1.2563750E+01  2.2285641E+01
 1.2575251E+01  2.2315325E+01
 1.2586751E+01  2.2288963E+01
 1.2598250E+01  2.2372929E+01
 1.2609751E+01  2.2458298E+01
 1.2621250E+01  2.2545399E+01
 1.2632751E+01  2.2595152E+01
 1.2644251E+01  2.2534597E+01
 1.2655750E+01  2.2498072E+01
 1.2667251E+01  2.2492565E+01
 1.2678751E+01  2.2560022E+01
 1.2690250E+01  2.2606577E+01
 1.2701751E+01  2.2652100E+01
 1.2713250E+01  2.2753429E+01
 1.2724751E+01  2.2741747E+01
 1.2736251E+01  2.2735926E+01
 1.2747750E+01  2.2688593E+01
 1.2759251E+01  2.2729527E+01
 1.2770751E+01  2.2710340E+01
 1.2782250E+01  2.2724344E+01
 1.2793751E+01  2.2718653E+01
 1.2805250E+01  2.2775227E+01
 1.2816751E+01  2.2838305E+01
 1.2828251E+01  2.2933050E+01
 1.2839750E+01  2.3021954E+01
 1.2851251E+01  2.3057302E+01
 1.2862751E+01  2.3064611E+01
 1.2874250E+01  2.3033600E+01
 1.2885751E+01  2.3040846E+01
 1.2897250E+01  2.3051319E+01
 1.2908751E+01  2.3129766E+01
 1.2920251E+01  2.3177073E+01
 1.2931750E+01  2.3280258E+01
 1.2943251E+01  2.3295158E+01
 1.2954751E+01  2.3348139E+01
 1.2966250E+01  2.3408854E+01
 1.2977751E+01  2.3527693E+01
 1.2989250E+01  2.3603661E+01
 1.3000751E+01  2.3651207E+01
 1.3012251E+01  2.3660116E+01
 1.3023750E+01  2.3687538E+01
 1.3035251E+01  2.3725698E+01
 1.3046751E+01  2.3763418E+01
 1.3058250E+01  2.3879562E+01
 1.3069751E+01  2.3990347E+01
 1.3081250E+01  2.4134626E+01
 1.3092751E+01  2.4276409E+01
 1.3104251E+01  2.4425261E+01
 1.3115750E+01  2.4577103E+01
 1.3127251E+01  2.4633041E+01
 1.3138751E+01  2.4710863E+01
 1.3150250E+01  2.4860277E+01
 1.3161751E+01  2.4985178E+01
 1.3173250E+01  2.5105299E+01
 1.3184751E+01  2.5205566E+01
 1.3196251E+01  2.5291124E+01
 1.3207750E+01  2.5422070E+01
 1.3219251E+01  2.5524992E+01
 1.3230751E+01  2.5717070E+01
 1.3242250E+01  2.5900209E+01
 1.3253751E+01  2.5994410E+01
 1.3265250E+01  2.6161318E+01
 1.3276751E+01  2.6235914E+01
 1.3288251E+01  2.6414944E+01
 1.3299750E+01  2.6550617E+01
 1.3311251E+01  2.6641451E+01
 1.3322751E+01  2.6774759E+01
 1.3334250E+01  2.6925226E+01
 1.3345751E+01  2.7117229E+01
 1.3357250E+01  2.7251139E+01
 1.3368751E+01  2.7318878E+01
 1.3380251E+01  2.7429096E+01
 1.3391750E+01  2.7562061E+01
 1.3403251E+01  2.7764996E+01
 1.3414751E+01  2.7983898E+01
 1.3426250E+01  2.8129494E+01
 1.3437751E+01  2.8296705E+01
 1.3449250E+01  2.8448200E+01
 1.3460751E+01  2.8636068E+01
 1.3472251E+01  2.8734234E+01
 1.3483750E+01  2.8833717E+01
 1.3495251E+01  2.8867651E+01
 1.3506751E+01  2.8917709E+01
 1.3518250E+01  2.8975029E+01
 1.3529751E+01  2.9022175E+01
 1.3541250E+01  2.9106474E+01
 1.3552751E+01  2.9148540E+01
 1.3564251E+01  2.9233021E+01
 1.3575750E+01  2.9313213E+01
 1.3587251E+01  2.9333397E+01
 1.3598751E+01  2.9370897E+01
 1.3610250E+01  2.9372663E+01
 1.3621751E+01  2.9446909E+01
 1.3633250E+01  2.9474194E+01
 1.3644751E+01  2.9401323E+01
 1.3656251E+01  2.9348333E+01
 1.3667750E+01  2.9297510E+01
 1.3679251E+01  2.9266682E+01
 1.3690751E+01  2.9214670E+01
 1.3702250E+01  2.9124800E+01
 1.3713751E+01  2.9079655E+01
 1.3725250E+01  2.9027172E+01
 1.3736751E+01  2.9030838E+01
 1.3748251E+01  2.8995947E+01
 1.3759750E+01  2.8956644E+01
 1.3771251E+01  2.8964621E+01
 1.3782751E+01  2.8928894E+01
 1.3794250E+01  2.8857182E+01
 1.3805751E+01  2.8720198E+01
 1.3817250E+01  2.8618528E+01
 1.3828751E+01  2.8566935E+01
 1.3840251E+01  2.8499971E+01
 1.3851750E+01  2.8446985E+01
 1.3863251E+01  2.8404352E+01
 1.3874751E+01  2.8351488E+01
 1.3886250E+01  2.8370272E+01
 1.3897751E+01  2.8465784E+01
 1.3909250E+01  2.8676611E+01
 1.3920751E+01  2.8902977E+01
 1.3932251E+01  2.9110374E+01
 1.3943750E+01  2.9220694E+01
 1.3955251E+01  2.9296696E+01
 1.3966751E+01  2.9158110E+01
 1.3978251E+01  2.8905132E+01
 1.3989751E+01  2.8583290E+01
 1.4001250E+01  2.8279259E+01
 1.4012751E+01  2.8047222E+01
 1.4024251E+01  2.7737638E+01
 1.4035750E+01  2.7548227E+01
 1.4047251E+01  2.7389412E+01
 1.4058751E+01  2.7293505E+01
 1.4070251E+01  2.7182890E+01
 1.4081751E+01  2.7070089E+01
 1.4093250E+01  2.6990034E+01
 1.4104751E+01  2.6907473E+01
 1.4116251E+01  2.6860237E+01
 1.4127750E+01  2.6795328E+01
 1.4139251E+01  2.6725492E+01
 1.4150751E+01  2.6615540E+01
 1.4162251E+01  2.6572765E+01
 1.4173751E+01  2.6466572E+01
 1.4185250E+01  2.6400547E+01
 1.4196751E+01  2.6282532E+01
 1.4208251E+01  2.6265139E+01
 1.4219750E+01  2.6219240E+01
 1.4231251E+01  2.6137669E+01
 1.4242751E+01  2.6049866E+01
 1.4254251E+01  2.5978622E+01
 1.4265751E+01  2.5962626E+01
 1.4277250E+01  2.5899946E+01
 1.4288751E+01  2.5852793E+01
 1.4300251E+01  2.5794832E+01
 1.4311750E+01  2.5722576E+01
 1.4323251E+01  2.5615200E+01
 1.4334751E+01  2.5544584E+01
 1.4346251E+01  2.5541744E+01
 1.4357751E+01  2.5600924E+01
 1.4369250E+01  2.5628553E+01
 1.4380751E+01  2.5608755E+01
 1.4392251E+01  2.5537092E+01
 1.4403750E+01  2.5478579E+01
 1.4415251E+01  2.5487223E+01
 1.4426751E+01  2.5461926E+01
 1.4438251E+01  2.5441622E+01
 1.4449751E+01  2.5362387E+01
 1.4461250E+01  2.5300833E+01
 1.4472751E+01  2.5206612E+01
 1.4484251E+01  2.5169321E+01
 1.4495750E+01  2.5198153E+01
 1.4507251E+01  2.5247244E+01
 1.4518751E+01  2.5276289E+01
 1.4530251E+01  2.5295967E+01
 1.4541751E+01  2.5306692E+01
 1.4553250E+01  2.5310482E+01
 1.4564751E+01  2.5294048E+01
 1.4576251E+01  2.5240276E+01
 1.4587750E+01  2.5271261E+01
 1.4599251E+01  2.5207901E+01
 1.4610751E+01  2.5175831E+01
 1.4622251E+01  2.5073925E+01
 1.4633751E+01  2.5043552E+01
 1.4645250E+01  2.4981766E+01
 1.4656751E+01  2.4919857E+01
 1.4668251E+01  2.4899212E+01
 1.4679750E+01  2.4888380E+01
 1.4691251E+01  2.4851385E+01
 1.4702751E+01  2.4847536E+01
 1.4714251E+01  2.4789822E+01
 1.4725751E+01  2.4784027E+01
 1.4737250E+01  2.4709913E+01
 1.4748751E+01  2.4736403E+01
 1.4760251E+01  2.4742044E+01
 1.4771750E+01  2.4770172E+01
 1.4783251E+01  2.4776657E+01
 1.4794751E+01  2.4716208E+01
 1.4806251E+01  2.4638023E+01
 1.4817751E+01  2.4557644E+01
 1.4829250E+01  2.4543194E+01
 1.4840751E+01  2.4545547E+01
 1.4852251E+01  2.4517836E+01
 1.4863750E+01  2.4465782E+01
 1.4875251E+01  2.4402447E+01
 1.4886751E+01  2.4415302E+01
 1.4898251E+01  2.4464216E+01
 1.4909751E+01  2.4478916E+01
 1.4921250E+01  2.4422848E+01
 1.4932751E+01  2.4368832E+01
 1.4944251E+01  2.4336002E+01
 1.4955750E+01  2.4308443E+01
 1.4967251E+01  2.4290640E+01
 1.4978751E+01  2.4369654E+01
 1.4990251E+01  2.4450018E+01
 1.5001751E+01  2.4511599E+01
 1.5013250E+01  2.4523457E+01
 1.5024751E+01  2.4556042E+01
 1.5036251E+01  2.4535255E+01
 1.5047750E+01  2.4465496E+01
 1.5059251E+01  2.4379580E+01
 1.5070751E+01  2.4327906E+01
 1.5082251E+01  2.4293465E+01
 1.5093751E+01  2.4302450E+01
 1.5105250E+01  2.4299259E+01
 1.5116751E+01  2.4312252E+01
 1.5128251E+01  2.4299517E+01
 1.5139750E+01  2.4366982E+01
 1.5151251E+01  2.4418770E+01
 1.5162751E+01  2.4453512E+01
 1.5174251E+01  2.4504669E+01
 1.5185751E+01  2.4543509E+01
 1.5197250E+01  2.4581720E+01
 1.5208751E+01  2.4561110E+01
 1.5220251E+01  2.4518957E+01
 1.5231750E+01  2.4483217E+01
 1.5243251E+01  2.4367113E+01
 1.5254751E+01  2.4323082E+01
 1.5266251E+01  2.4209204E+01
 1.5277751E+01  2.4163790E+01
 1.5289250E+01  2.4160376E+01
 1.5300751E+01  2.4172489E+01
 1.5312251E+01  2.4222094E+01
 1.5323750E+01  2.4155132E+01
 1.5335251E+01  2.4189119E+01
 1.5346751E+01  2.4174646E+01
 1.5358251E+01  2.4270851E+01
 1.5369751E+01  2.4277508E+01
 1.5381250E+01  2.4299601E+01
 1.5392751E+01  2.4263165E+01
 1.5404251E+01  2.4215219E+01
 1.5415751E+01  2.4153145E+01
 1.5427251E+01  2.4076416E+01
 1.5438751E+01  2.4104618E+01
 1.5450251E+01  2.4130194E+01
 1.5461751E+01  2.4220520E+01
 1.5473250E+01  2.4181810E+01
 1.5484751E+01  2.4213278E+01
 1.5496251E+01  2.4158106E+01
 1.5507751E+01  2.4107800E+01
 1.5519251E+01  2.4071545E+01
 1.5530751E+01  2.4061480E+01
 1.5542251E+01  2.4088013E+01
 1.5553751E+01  2.4086456E+01
 1.5565250E+01  2.4163717E+01
 1.5576751E+01  2.4197397E+01
 1.5588251E+01  2.4200039E+01
 1.5599751E+01  2.4151144E+01
 1.5611251E+01  2.4167019E+01
 1.5622751E+01  2.4152349E+01
 1.5634251E+01  2.4154591E+01
 1.5645751E+01  2.4132082E+01
 1.5657250E+01  2.4148897E+01
 1.5668751E+01  2.4131828E+01
 1.5680251E+01  2.4117550E+01
 1.5691751E+01  2.4156897E+01
 1.5703251E+01  2.4193790E+01
 1.5714751E+01  2.4223782E+01
 1.5726251E+01  2.4306248E+01
 1.5737751E+01  2.4332846E+01
 1.5749250E+01  2.4318300E+01
 1.5760751E+01  2.4248957E+01
 1.5772251E+01  2.4242487E+01
 1.5783751E+01  2.4228132E+01
 1.5795251E+01  2.4232414E+01
 1.5806751E+01  2.4290941E+01
 1.5818251E+01  2.4358839E+01
 1.5829751E+01  2.4368027E+01
 1.5841250E+01  2.4375883E+01
 1.5852751E+01  2.4322577E+01
 1.5864251E+01  2.4261745E+01
 1.5875751E+01  2.4215931E+01
 1.5887251E+01  2.4201153E+01
 1.5898750E+01  2.4205057E+01
 1.5910251E+01  2.4228039E+01
 1.5921751E+01  2.4247400E+01
 1.5933250E+01  2.4297302E+01
 1.5944751E+01  2.4292210E+01
 1.5956251E+01  2.4290920E+01
 1.5967751E+01  2.4253460E+01
 1.5979251E+01  2.4261190E+01
 1.5990750E+01  2.4280828E+01
 1.6002251E+01  2.4252502E+01
 1.6013750E+01  2.4248312E+01
 1.6025251E+01  2.4200035E+01
 1.6036751E+01  2.4227268E+01
 1.6048250E+01  2.4252573E+01
 1.6059752E+01  2.4331348E+01
 1.6071251E+01  2.4370562E+01
 1.6082750E+01  2.4425964E+01
 1.6094252E+01  2.4449589E+01
 1.6105751E+01  2.4483566E+01
 1.6117250E+01  2.4492117E+01
 1.6128750E+01  2.4514154E+01
 1.6140251E+01  2.4525646E+01
 1.6151751E+01  2.4498587E+01
 1.6163250E+01  2.4557373E+01
 1.6174751E+01  2.4542173E+01
 1.6186251E+01  2.4630062E+01
 1.6197750E+01  2.4549532E+01
 1.6209251E+01  2.4677549E+01
 1.6220751E+01  2.4652857E+01
 1.6232250E+01  2.4752569E+01
 1.6243752E+01  2.4788256E+01
 1.6255251E+01  2.4864027E+01
 1.6266750E+01  2.4990738E+01
 1.6278252E+01  2.4908115E+01
 1.6289751E+01  2.5048931E+01
 1.6301250E+01  2.4758217E+01
 1.6312750E+01  2.4860445E+01
 1.6324251E+01  2.4596651E+01
 1.6335751E+01  2.4645578E+01
 1.6347250E+01  2.4448950E+01
 1.6358751E+01  2.4356562E+01
 1.6370251E+01  2.4218857E+01
 1.6381750E+01  2.4200386E+01
 1.6393251E+01  2.4173828E+01
 1.6404751E+01  2.4164242E+01
 1.6416250E+01  2.4156197E+01
 1.6427752E+01  2.4196352E+01
 1.6439251E+01  2.4220074E+01
 1.6450750E+01  2.4269241E+01
 1.6462252E+01  2.4300432E+01
 1.6473751E+01  2.4293068E+01
 1.6485250E+01  2.4292021E+01
 1.6496750E+01  2.4312807E+01
 1.6508251E+01  2.4338335E+01
 1.6519751E+01  2.4342039E+01
 1.6531250E+01  2.4353722E+01
 1.6542751E+01  2.4380339E+01
 1.6554251E+01  2.4315548E+01
 1.6565750E+01  2.4272528E+01
 1.6577251E+01  2.4226656E+01
 1.6588751E+01  2.4220152E+01
 1.6600250E+01  2.4233246E+01
 1.6611752E+01  2.4236891E+01
 1.6623251E+01  2.4190207E+01
 1.6634750E+01  2.4185656E+01
 1.6646252E+01  2.4185072E+01
 1.6657751E+01  2.4219629E+01
 1.6669250E+01  2.4224489E+01
 1.6680750E+01  2.4242445E+01
 1.6692251E+01  2.4224432E+01
 1.6703751E+01  2.4164059E+01
 1.6715250E+01  2.4162397E+01
 1.6726751E+01  2.4177107E+01
 1.6738251E+01  2.4193787E+01
 1.6749750E+01  2.4215223E+01
 1.6761251E+01  2.4191118E+01
 1.6772751E+01  2.4153080E+01
 1.6784250E+01  2.4067640E+01
 1.6795752E+01  2.4035988E+01
 1.6807251E+01  2.4025192E+01
 1.6818750E+01  2.3980131E+01
 1.6830252E+01  2.3998787E+01
 1.6841751E+01  2.4026258E+01
 1.6853251E+01  2.4057468E+01
 1.6864750E+01  2.4041973E+01
 1.6876251E+01  2.4004841E+01
 1.6887751E+01  2.4001114E+01
 1.6899250E+01  2.3947319E+01
 1.6910751E+01  2.3933416E+01
 1.6922251E+01  2.3937586E+01
 1.6933750E+01  2.3945902E+01
 1.6945251E+01  2.3984886E+01
 1.6956751E+01  2.4007292E+01
 1.6968250E+01  2.4006584E+01
 1.6979752E+01  2.3981138E+01
 1.6991251E+01  2.3891766E+01
 1.7002750E+01  2.3849592E+01
 1.7014252E+01  2.3877804E+01
 1.7025751E+01  2.3907372E+01
 1.7037251E+01  2.3910080E+01
 1.7048750E+01  2.3907694E+01
 1.7060251E+01  2.3953041E+01
 1.7071751E+01  2.3971272E+01
 1.7083250E+01  2.3975370E+01
 1.7094751E+01  2.3980360E+01
 1.7106251E+01  2.3917261E+01
 1.7117750E+01  2.3843826E+01
 1.7129251E+01  2.3786860E+01
 1.7140751E+01  2.3778591E+01
 1.7152250E+01  2.3783730E+01
 1.7163752E+01  2.3803404E+01
 1.7175251E+01  2.3815960E+01
 1.7186750E+01  2.3787649E+01
 1.7198252E+01  2.3724749E+01
 1.7209751E+01  2.3710388E+01
 1.7221251E+01  2.3719986E+01
 1.7232750E+01  2.3774727E+01
 1.7244251E+01  2.3778107E+01
 1.7255751E+01  2.3697918E+01
 1.7267250E+01  2.3598774E+01
 1.7278751E+01  2.3606607E+01
 1.7290251E+01  2.3645411E+01
 1.7301750E+01  2.3715504E+01
 1.7313251E+01  2.3716030E+01
 1.7324751E+01  2.3742971E+01
 1.7336250E+01  2.3732140E+01
 1.7347752E+01  2.3716064E+01
 1.7359251E+01  2.3726252E+01
 1.7370750E+01  2.3705185E+01
 1.7382252E+01  2.3660423E+01
 1.7393751E+01  2.3607969E+01
 1.7405251E+01  2.3634945E+01
 1.7416750E+01  2.3661215E+01
 1.7428251E+01  2.3686205E+01
 1.7439751E+01  2.3674627E+01
 1.7451250E+01  2.3685688E+01
 1.7462751E+01  2.3693789E+01
 1.7474251E+01  2.3666012E+01
 1.7485750E+01  2.3677505E+01
 1.7497252E+01  2.3661652E+01
 1.7508751E+01  2.3610706E+01
 1.7520250E+01  2.3544241E+01
 1.7531752E+01  2.3498598E+01
 1.7543251E+01  2.3531809E+01
 1.7554750E+01  2.3487051E+01
 1.7566252E+01  2.3516937E+01
 1.7577751E+01  2.3487139E+01
 1.7589251E+01  2.3487608E+01
 1.7600750E+01  2.3491570E+01
 1.7612251E+01  2.3518900E+01
 1.7623751E+01  2.3582720E+01
 1.7635250E+01  2.3523230E+01
 1.7646751E+01  2.3471279E+01
 1.7658251E+01  2.3343239E+01
 1.7669750E+01  2.3352657E+01
 1.7681252E+01  2.3371592E+01
 1.7692751E+01  2.3465631E+01
 1.7704250E+01  2.3492384E+01
 1.7715752E+01  2.3508680E+01
 1.7727251E+01  2.3488522E+01
 1.7738750E+01  2.3454039E+01
 1.7750252E+01  2.3460970E+01
 1.7761751E+01  2.3467072E+01
 1.7773251E+01  2.3500204E+01
 1.7784750E+01  2.3523142E+01
 1.7796251E+01  2.3536671E+01
 1.7807751E+01  2.3479721E+01
 1.7819250E+01  2.3426563E+01
 1.7830751E+01  2.3369078E+01
 1.7842251E+01  2.3393002E+01
 1.7853750E+01  2.3375858E+01
 1.7865252E+01  2.3382887E+01
 1.7876751E+01  2.3355402E+01
 1.7888250E+01  2.3329481E+01
 1.7899752E+01  2.3281830E+01
 1.7911251E+01  2.3290899E+01
 1.7922750E+01  2.3308689E+01
 1.7934252E+01  2.3347445E+01
 1.7945751E+01  2.3294882E+01
 1.7957251E+01  2.3228333E+01
 1.7968750E+01  2.3206661E+01
 1.7980251E+01  2.3238813E+01
 1.7991751E+01  2.3280312E+01
 1.8003250E+01  2.3321629E+01
 1.8014751E+01  2.3350887E+01
 1.8026251E+01  2.3366264E+01
 1.8037750E+01  2.3381151E+01
 1.8049252E+01  2.3346539E+01
 1.8060751E+01  2.3330589E+01
 1.8072250E+01  2.3288712E+01
 1.8083752E+01  2.3323967E+01
 1.8095251E+01  2.3329531E+01
 1.8106750E+01  2.3336466E+01
 1.8118252E+01  2.3349899E+01
 1.8129751E+01  2.3378050E+01
 1.8141251E+01  2.3318310E+01
 1.8152750E+01  2.3266029E+01
 1.8164251E+01  2.3254019E+01
 1.8175751E+01  2.3226583E+01
 1.8187250E+01  2.3186005E+01
 1.8198751E+01  2.3137011E+01
 1.8210251E+01  2.3157686E+01
 1.8221750E+01  2.3183558E+01
 1.8233252E+01  2.3207352E+01
 1.8244751E+01  2.3205494E+01
 1.8256250E+01  2.3163925E+01
 1.8267752E+01  2.3120935E+01
 1.8279251E+01  2.3121651E+01
 1.8290751E+01  2.3114042E+01
 1.8302252E+01  2.3071407E+01
 1.8313751E+01  2.3030319E+01
 1.8325251E+01  2.3030161E+01
 1.8336750E+01  2.3057474E+01
 1.8348251E+01  2.3079832E+01
 1.8359751E+01  2.3123857E+01
 1.8371250E+01  2.3155565E+01
 1.8382751E+01  2.3190918E+01
 1.8394251E+01  2.3232290E+01
 1.8405750E+01  2.3236725E+01
 1.8417252E+01  2.3253748E+01
 1.8428751E+01  2.3203060E+01
 1.8440250E+01  2.3201746E+01
 1.8451752E+01  2.3169645E+01
 1.8463251E+01  2.3189022E+01
 1.8474751E+01  2.3180706E+01
 1.8486252E+01  2.3166668E+01
 1.8497751E+01  2.3167057E+01
 1.8509251E+01  2.3159103E+01
 1.8520750E+01  2.3185875E+01
 1.8532251E+01  2.3137281E+01
 1.8543751E+01  2.3051970E+01
 1.8555250E+01  2.3046911E+01
 1.8566751E+01  2.3078609E+01
 1.8578251E+01  2.3119568E+01
 1.8589750E+01  2.3131184E+01
 1.8601252E+01  2.3152241E+01
 1.8612751E+01  2.3154127E+01
 1.8624250E+01  2.3092573E+01
 1.8635752E+01  2.3082909E+01
 1.8647251E+01  2.3045576E+01
 1.8658751E+01  2.3044483E+01
 1.8670252E+01  2.3039686E+01
 1.8681751E+01  2.3064863E+01
 1.8693251E+01  2.3097254E+01
 1.8704750E+01  2.3104637E+01
 1.8716251E+01  2.3081993E+01
 1.8727751E+01  2.3054441E+01
 1.8739250E+01  2.3008045E+01
 1.8750751E+01  2.2987579E+01
 1.8762251E+01  2.2975485E+01
 1.8773750E+01  2.3019445E+01
 1.8785252E+01  2.3106371E+01
 1.8796751E+01  2.3185020E+01
 1.8808250E+01  2.3174955E+01
 1.8819752E+01  2.3163231E+01
 1.8831251E+01  2.3116064E+01
 1.8842751E+01  2.3155619E+01
 1.8854252E+01  2.3136017E+01
 1.8865751E+01  2.3128742E+01
 1.8877251E+01  2.3111980E+01
 1.8888750E+01  2.3133665E+01
 1.8900251E+01  2.3181847E+01
 1.8911751E+01  2.3248915E+01
 1.8923250E+01  2.3337242E+01
 1.8934752E+01  2.3364681E+01
 1.8946251E+01  2.3352476E+01
 1.8957750E+01  2.3275803E+01
 1.8969252E+01  2.3137951E+01
 1.8980751E+01  2.3031595E+01
 1.8992250E+01  2.2974964E+01
 1.9003752E+01  2.2938190E+01
 1.9015251E+01  2.2992382E+01
 1.9026751E+01  2.3032434E+01
 1.9038252E+01  2.3077538E+01
 1.9049751E+01  2.3089804E+01
 1.9061251E+01  2.3102030E+01
 1.9072750E+01  2.3148947E+01
 1.9084251E+01  2.3152292E+01
 1.9095751E+01  2.3166031E+01
 1.9107250E+01  2.3155859E+01
 1.9118752E+01  2.3136671E+01
 1.9130251E+01  2.3168718E+01
 1.9141750E+01  2.3141912E+01
 1.9153252E+01  2.3165651E+01
 1.9164751E+01  2.3093599E+01
 1.9176250E+01  2.3063246E+01
 1.9187752E+01  2.3081017E+01
 1.9199251E+01  2.3127491E+01
 1.9210751E+01  2.3203259E+01
 1.9222252E+01  2.3192171E+01
 1.9233751E+01  2.3213669E+01
 1.9245251E+01  2.3211657E+01
 1.9256750E+01  2.3250431E+01
 1.9268251E+01  2.3244257E+01
 1.9279751E+01  2.3218786E+01
 1.9291250E+01  2.3161354E+01
 1.9302752E+01  2.3142284E+01
 1.9314251E+01  2.3130095E+01
 1.9325750E+01  2.3141966E+01
 1.9337252E+01  2.3138777E+01
 1.9348751E+01  2.3180775E+01
 1.9360250E+01  2.3153267E+01
 1.9371752E+01  2.3182253E+01
 1.9383251E+01  2.3169975E+01
 1.9394751E+01  2.3197386E+01
 1.9406250E+01  2.3161503E+01
 1.9417751E+01  2.3183399E+01
 1.9429251E+01  2.3236893E+01
 1.9440750E+01  2.3255966E+01
 1.9452251E+01  2.3227343E+01
 1.9463751E+01  2.3184555E+01
 1.9475250E+01  2.3190342E+01
 1.9486752E+01  2.3203321E+01
 1.9498251E+01  2.3201174E+01
 1.9509750E+01  2.3208157E+01
 1.9521252E+01  2.3248798E+01
 1.9532751E+01  2.3294245E+01
 1.9544250E+01  2.3329899E+01
 1.9555752E+01  2.3267073E+01
 1.9567251E+01  2.3239904E+01
 1.9578751E+01  2.3192186E+01
 1.9590250E+01  2.3176006E+01
 1.9601751E+01  2.3156139E+01
 1.9613251E+01  2.3201536E+01
 1.9624750E+01  2.3245703E+01
 1.9636251E+01  2.3253986E+01
 1.9647751E+01  2.3231327E+01
 1.9659250E+01  2.3258514E+01
 1.9670752E+01  2.3347017E+01
 1.9682251E+01  2.3458832E+01
 1.9693750E+01  2.3553877E+01
 1.9705252E+01  2.3641037E+01
 1.9716751E+01  2.3658661E+01
 1.9728251E+01  2.3649389E+01
 1.9739752E+01  2.3625505E+01
 1.9751251E+01  2.3625519E+01
 1.9762751E+01  2.3592169E+01
 1.9774250E+01  2.3573519E+01
 1.9785751E+01  2.3526346E+01
 1.9797251E+01  2.3507740E+01
 1.9808750E+01  2.3491030E+01
 1.9820251E+01  2.3541643E+01
 1.9831751E+01  2.3633537E+01
 1.9843250E+01  2.3707462E+01
 1.9854752E+01  2.3749763E+01
 1.9866251E+01  2.3742483E+01
 1.9877750E+01  2.3723305E+01
 1.9889252E+01  2.3621321E+01
 1.9900751E+01  2.3594145E+01
 1.9912251E+01  2.3537046E+01
 1.9923752E+01  2.3461594E+01
 1.9935251E+01  2.3319389E+01
 1.9946751E+01  2.3279814E+01
 1.9958250E+01  2.3244482E+01
 1.9969751E+01  2.3295012E+01
 1.9981251E+01  2.3289734E+01
 1.9992750E+01  2.3352051E+01
 2.0004251E+01  2.3337669E+01
 2.0015751E+01  2.3340652E+01
 2.0027250E+01  2.3327608E+01
 2.0038752E+01  2.3344908E+01
 2.0050251E+01  2.3301664E+01
 2.0061750E+01  2.3272959E+01
 2.0073252E+01  2.3296360E+01
 2.0084751E+01  2.3290539E+01
 2.0096251E+01  2.3319077E+01
 2.0107752E+01  2.3334578E+01
 2.0119251E+01  2.3357630E+01
 2.0130751E+01  2.3301386E+01
 2.0142250E+01  2.3279194E+01
 2.0153751E+01  2.3295422E+01
 2.0165251E+01  2.3282520E+01
 2.0176750E+01  2.3279301E+01
 2.0188251E+01  2.3226204E+01
 2.0199751E+01  2.3197077E+01
 2.0211250E+01  2.3194187E+01
 2.0222752E+01  2.3245445E+01
 2.0234251E+01  2.3298325E+01
 2.0245750E+01  2.3313324E+01
 2.0257252E+01  2.3337151E+01
 2.0268751E+01  2.3312050E+01
 2.0280251E+01  2.3349741E+01
 2.0291752E+01  2.3370239E+01
 2.0303251E+01  2.3345499E+01
 2.0314751E+01  2.3276304E+01
 2.0326250E+01  2.3240177E+01
 2.0337751E+01  2.3244617E+01
 2.0349251E+01  2.3238070E+01
 2.0360750E+01  2.3257387E+01
 2.0372252E+01  2.3233540E+01
 2.0383751E+01  2.3270187E+01
 2.0395250E+01  2.3263639E+01
 2.0406752E+01  2.3328341E+01
 2.0418251E+01  2.3318031E+01
 2.0429750E+01  2.3362940E+01
 2.0441252E+01  2.3365849E+01
 2.0452751E+01  2.3350405E+01
 2.0464251E+01  2.3318773E+01
 2.0475752E+01  2.3315306E+01
 2.0487251E+01  2.3312513E+01
 2.0498751E+01  2.3300083E+01
 2.0510250E+01  2.3304634E+01
 2.0521751E+01  2.3253136E+01
 2.0533251E+01  2.3200666E+01
 2.0544750E+01  2.3196150E+01
 2.0556252E+01  2.3290371E+01
 2.0567751E+01  2.3335255E+01
 2.0579250E+01  2.3325886E+01
 2.0590752E+01  2.3327877E+01
 2.0602251E+01  2.3354145E+01
 2.0613750E+01  2.3370768E+01
 2.0625252E+01  2.3352709E+01
 2.0636751E+01  2.3349171E+01
 2.0648251E+01  2.3371815E+01
 2.0659752E+01  2.3399750E+01
 2.0671251E+01  2.3431677E+01
 2.0682751E+01  2.3526211E+01
 2.0694250E+01  2.3632538E+01
 2.0705751E+01  2.3707909E+01
 2.0717251E+01  2.3706821E+01
 2.0728750E+01  2.3659620E+01
 2.0740252E+01  2.3641672E+01
 2.0751751E+01  2.3674433E+01
 2.0763250E+01  2.3684031E+01
 2.0774752E+01  2.3680786E+01
 2.0786251E+01  2.3644510E+01
 2.0797750E+01  2.3612057E+01
 2.0809252E+01  2.3599367E+01
 2.0820751E+01  2.3508440E+01
 2.0832251E+01  2.3482372E+01
 2.0843752E+01  2.3460356E+01
 2.0855251E+01  2.3435575E+01
 2.0866751E+01  2.3372730E+01
 2.0878250E+01  2.3365152E+01
 2.0889751E+01  2.3341486E+01
 2.0901251E+01  2.3377640E+01
 2.0912750E+01  2.3381615E+01
 2.0924252E+01  2.3407425E+01
 2.0935751E+01  2.3435947E+01
 2.0947250E+01  2.3501795E+01
 2.0958752E+01  2.3550629E+01
 2.0970251E+01  2.3617350E+01
 2.0981750E+01  2.3588367E+01
 2.0993252E+01  2.3525301E+01
 2.1004751E+01  2.3438768E+01
 2.1016251E+01  2.3422520E+01
 2.1027752E+01  2.3411091E+01
 2.1039251E+01  2.3436888E+01
 2.1050751E+01  2.3464033E+01
 2.1062250E+01  2.3482128E+01
 2.1073751E+01  2.3489491E+01
 2.1085251E+01  2.3470287E+01
 2.1096750E+01  2.3411348E+01
 2.1108252E+01  2.3413429E+01
 2.1119751E+01  2.3454229E+01
 2.1131250E+01  2.3498827E+01
 2.1142752E+01  2.3499594E+01
 2.1154251E+01  2.3434948E+01
 2.1165751E+01  2.3436432E+01
 2.1177252E+01  2.3497002E+01
 2.1188751E+01  2.3549017E+01
 2.1200251E+01  2.3536381E+01
 2.1211752E+01  2.3498350E+01
 2.1223251E+01  2.3470526E+01
 2.1234751E+01  2.3499359E+01
 2.1246250E+01  2.3537258E+01
 2.1257751E+01  2.3585369E+01
 2.1269251E+01  2.3587704E+01
 2.1280750E+01  2.3577005E+01
 2.1292252E+01  2.3537310E+01
 2.1303751E+01  2.3533062E+01
 2.1315250E+01  2.3484343E+01
 2.1326752E+01  2.3473711E+01
 2.1338251E+01  2.3444242E+01
 2.1349751E+01  2.3434418E+01
 2.1361252E+01  2.3423647E+01
 2.1372751E+01  2.3429344E+01
 2.1384251E+01  2.3421059E+01
 2.1395752E+01  2.3432869E+01
 2.1407251E+01  2.3442970E+01
 2.1418751E+01  2.3484407E+01
 2.1430250E+01  2.3521286E+01
 2.1441751E+01  2.3500620E+01
 2.1453251E+01  2.3471975E+01
 2.1464750E+01  2.3483557E+01
 2.1476252E+01  2.3505116E+01
 2.1487751E+01  2.3589890E+01
 2.1499250E+01  2.3607548E+01
 2.1510752E+01  2.3642164E+01
 2.1522251E+01  2.3648300E+01
 2.1533751E+01  2.3655684E+01
 2.1545252E+01  2.3647354E+01
 2.1556751E+01  2.3602524E+01
 2.1568251E+01  2.3606970E+01
 2.1579752E+01  2.3632555E+01
 2.1591251E+01  2.3679739E+01
 2.1602751E+01  2.3658590E+01
 2.1614250E+01  2.3652584E+01
 2.1625751E+01  2.3648401E+01
 2.1637251E+01  2.3675613E+01
 2.1648750E+01  2.3726601E+01
 2.1660252E+01  2.3785414E+01
 2.1671751E+01  2.3824385E+01
 2.1683250E+01  2.3798264E+01
 2.1694752E+01  2.3763697E+01
 2.1706251E+01  2.3757536E+01
 2.1717751E+01  2.3738468E+01
 2.1729252E+01  2.3735067E+01
 2.1740751E+01  2.3714897E+01
 2.1752251E+01  2.3704414E+01
 2.1763752E+01  2.3667150E+01
 2.1775251E+01  2.3662039E+01
 2.1786751E+01  2.3675400E+01
 2.1798250E+01  2.3694128E+01
 2.1809752E+01  2.3698845E+01
 2.1821251E+01  2.3676783E+01
 2.1832750E+01  2.3638786E+01
 2.1844252E+01  2.3636635E+01
 2.1855751E+01  2.3724234E+01
 2.1867250E+01  2.3809559E+01
 2.1878752E+01  2.3888596E+01
 2.1890251E+01  2.3858284E+01
 2.1901751E+01  2.3844549E+01
 2.1913252E+01  2.3807676E+01
 2.1924751E+01  2.3753044E+01
 2.1936251E+01  2.3716570E+01
 2.1947752E+01  2.3728502E+01
 2.1959251E+01  2.3773903E+01
 2.1970751E+01  2.3819784E+01
 2.1982250E+01  2.3836357E+01
 2.1993752E+01  2.3867443E+01
 2.2005251E+01  2.3817707E+01
 2.2016750E+01  2.3822720E+01
 2.2028252E+01  2.3816475E+01
 2.2039751E+01  2.3820505E+01
 2.2051250E+01  2.3847797E+01
 2.2062752E+01  2.3868376E+01
 2.2074251E+01  2.3871317E+01
 2.2085751E+01  2.3836554E+01
 2.2097252E+01  2.3831686E+01
 2.2108751E+01  2.3853310E+01
 2.2120251E+01  2.3902798E+01
 2.2131752E+01  2.3937195E+01
 2.2143251E+01  2.3974936E+01
 2.2154751E+01  2.4014233E+01
 2.2166250E+01  2.3968424E+01
 2.2177752E+01  2.3964798E+01
 2.2189251E+01  2.3917734E+01
 2.2200750E+01  2.3915119E+01
 2.2212252E+01  2.3904160E+01
 2.2223751E+01  2.3949398E+01
 2.2235250E+01  2.3980049E+01
 2.2246752E+01  2.4010052E+01
 2.2258251E+01  2.4007378E+01
 2.2269751E+01  2.4028088E+01
 2.2281252E+01  2.4045053E+01
 2.2292751E+01  2.4028076E+01
 2.2304251E+01  2.4068817E+01
 2.2315752E+01  2.4114595E+01
 2.2327251E+01  2.4153833E+01
 2.2338751E+01  2.4156904E+01
 2.2350250E+01  2.4145966E+01
 2.2361752E+01  2.4133057E+01
 2.2373251E+01  2.4148861E+01
 2.2384750E+01  2.4124741E+01
 2.2396252E+01  2.4089888E+01
 2.2407751E+01  2.4030914E+01
 2.2419250E+01  2.4064331E+01
 2.2430752E+01  2.4097704E+01
 2.2442251E+01  2.4141506E+01
 2.2453751E+01  2.4167032E+01
 2.2465252E+01  2.4193830E+01
 2.2476751E+01  2.4186758E+01
 2.2488251E+01  2.4213320E+01
 2.2499752E+01  2.4245178E+01
 2.2511251E+01  2.4298796E+01
 2.2522751E+01  2.4347441E+01
 2.2534250E+01  2.4311424E+01
 2.2545752E+01  2.4300873E+01
 2.2557251E+01  2.4255028E+01
 2.2568750E+01  2.4300940E+01
 2.2580252E+01  2.4394634E+01
 2.2591751E+01  2.4473490E+01
 2.2603251E+01  2.4507898E+01
 2.2614752E+01  2.4517809E+01
 2.2626251E+01  2.4536798E+01
 2.2637751E+01  2.4523458E+01
 2.2649252E+01  2.4529634E+01
 2.2660751E+01  2.4512953E+01
 2.2672251E+01  2.4535646E+01
 2.2683752E+01  2.4596043E+01
 2.2695251E+01  2.4678610E+01
 2.2706751E+01  2.4692570E+01
 2.2718250E+01  2.4758026E+01
 2.2729752E+01  2.4769489E+01
 2.2741251E+01  2.4807423E+01
 2.2752750E+01  2.4797989E+01
 2.2764252E+01  2.4826424E+01
 2.2775751E+01  2.4839779E+01
 2.2787251E+01  2.4811811E+01
 2.2798752E+01  2.4853264E+01
 2.2810251E+01  2.4918089E+01
 2.2821751E+01  2.5061756E+01
 2.2833252E+01  2.5160757E+01
 2.2844751E+01  2.5188858E+01
 2.2856251E+01  2.5182722E+01
 2.2867750E+01  2.5232534E+01
 2.2879251E+01  2.5232286E+01
 2.2890751E+01  2.5273458E+01
 2.2902250E+01  2.5266844E+01
 2.2913752E+01  2.5364620E+01
 2.2925251E+01  2.5439724E+01
 2.2936750E+01  2.5493134E+01
 2.2948252E+01  2.5509722E+01
 2.2959751E+01  2.5478548E+01
 2.2971251E+01  2.5531944E+01
 2.2982752E+01  2.5575926E+01
 2.2994251E+01  2.5685497E+01
