F:\20151113_APS_34IDE\\Brian\Particle1\OCV\Data_0021.tif
2-Theta Angle (Degrees)
Intensity
       2000
 5.7500005E-03  0.0000000E+00
 1.7250001E-02  0.0000000E+00
 2.8750001E-02  0.0000000E+00
 4.0250003E-02  0.0000000E+00
 5.1750004E-02  0.0000000E+00
 6.3250005E-02  0.0000000E+00
 7.4750006E-02  0.0000000E+00
 8.6250007E-02  0.0000000E+00
 9.7750008E-02  0.0000000E+00
 1.0925001E-01  0.0000000E+00
 1.2075000E-01  0.0000000E+00
 1.3225001E-01  0.0000000E+00
 1.4375001E-01  0.0000000E+00
 1.5525001E-01  0.0000000E+00
 1.6675001E-01  0.0000000E+00
 1.7825001E-01  0.0000000E+00
 1.8975002E-01  0.0000000E+00
 2.0125002E-01  0.0000000E+00
 2.1275002E-01  0.0000000E+00
 2.2425000E-01  0.0000000E+00
 2.3575000E-01  0.0000000E+00
 2.4725001E-01  0.0000000E+00
 2.5875002E-01  0.0000000E+00
 2.7025002E-01  0.0000000E+00
 2.8175002E-01  0.0000000E+00
 2.9325002E-01  0.0000000E+00
 3.0475003E-01  0.0000000E+00
 3.1625003E-01  0.0000000E+00
 3.2775003E-01  0.0000000E+00
 3.3925003E-01  0.0000000E+00
 3.5075003E-01  0.0000000E+00
 3.6225003E-01  0.0000000E+00
 3.7375003E-01  0.0000000E+00
 3.8525003E-01  0.0000000E+00
 3.9675003E-01  0.0000000E+00
 4.0825003E-01  0.0000000E+00
 4.1975003E-01  0.0000000E+00
 4.3125004E-01  0.0000000E+00
 4.4275001E-01  0.0000000E+00
 4.5425001E-01  0.0000000E+00
 4.6575001E-01  0.0000000E+00
 4.7725001E-01  0.0000000E+00
 4.8875001E-01  0.0000000E+00
 5.0025004E-01  0.0000000E+00
 5.1175004E-01  0.0000000E+00
 5.2325004E-01  0.0000000E+00
 5.3475004E-01  0.0000000E+00
 5.4625005E-01  0.0000000E+00
 5.5775005E-01  0.0000000E+00
 5.6925005E-01  0.0000000E+00
 5.8075005E-01  0.0000000E+00
 5.9225005E-01  0.0000000E+00
 6.0375005E-01  0.0000000E+00
 6.1525005E-01  0.0000000E+00
 6.2675005E-01  0.0000000E+00
 6.3825005E-01  0.0000000E+00
 6.4975005E-01  0.0000000E+00
 6.6125005E-01  0.0000000E+00
 6.7275006E-01  0.0000000E+00
 6.8425006E-01  0.0000000E+00
 6.9575006E-01  0.0000000E+00
 7.0725006E-01  0.0000000E+00
 7.1875006E-01  0.0000000E+00
 7.3025006E-01  0.0000000E+00
 7.4175006E-01  0.0000000E+00
 7.5325006E-01  0.0000000E+00
 7.6475006E-01  0.0000000E+00
 7.7625006E-01  0.0000000E+00
 7.8775007E-01  0.0000000E+00
 7.9925007E-01  0.0000000E+00
 8.1075007E-01  0.0000000E+00
 8.2225007E-01  0.0000000E+00
 8.3375007E-01  0.0000000E+00
 8.4525007E-01  0.0000000E+00
 8.5675007E-01  0.0000000E+00
 8.6825007E-01  0.0000000E+00
 8.7975001E-01  0.0000000E+00
 8.9125001E-01  0.0000000E+00
 9.0275002E-01  0.0000000E+00
 9.1425002E-01  0.0000000E+00
 9.2575002E-01  0.0000000E+00
 9.3725002E-01  0.0000000E+00
 9.4875002E-01  0.0000000E+00
 9.6025002E-01  0.0000000E+00
 9.7175002E-01  0.0000000E+00
 9.8325002E-01  0.0000000E+00
 9.9475002E-01  0.0000000E+00
 1.0062500E+00  0.0000000E+00
 1.0177500E+00  0.0000000E+00
 1.0292500E+00  0.0000000E+00
 1.0407500E+00  0.0000000E+00
 1.0522500E+00  0.0000000E+00
 1.0637500E+00  0.0000000E+00
 1.0752500E+00  0.0000000E+00
 1.0867500E+00  0.0000000E+00
 1.0982500E+00  0.0000000E+00
 1.1097500E+00  0.0000000E+00
 1.1212500E+00  0.0000000E+00
 1.1327500E+00  0.0000000E+00
 1.1442500E+00  0.0000000E+00
 1.1557500E+00  0.0000000E+00
 1.1672500E+00  0.0000000E+00
 1.1787500E+00  0.0000000E+00
 1.1902500E+00  0.0000000E+00
 1.2017500E+00  0.0000000E+00
 1.2132500E+00  0.0000000E+00
 1.2247500E+00  0.0000000E+00
 1.2362500E+00  0.0000000E+00
 1.2477500E+00  0.0000000E+00
 1.2592500E+00  0.0000000E+00
 1.2707500E+00  0.0000000E+00
 1.2822500E+00  0.0000000E+00
 1.2937500E+00  0.0000000E+00
 1.3052500E+00  0.0000000E+00
 1.3167500E+00  0.0000000E+00
 1.3282501E+00  0.0000000E+00
 1.3397501E+00  0.0000000E+00
 1.3512501E+00  0.0000000E+00
 1.3627501E+00  0.0000000E+00
 1.3742501E+00  0.0000000E+00
 1.3857501E+00  0.0000000E+00
 1.3972501E+00  0.0000000E+00
 1.4087501E+00  0.0000000E+00
 1.4202501E+00  0.0000000E+00
 1.4317501E+00  0.0000000E+00
 1.4432501E+00  0.0000000E+00
 1.4547501E+00  0.0000000E+00
 1.4662501E+00  0.0000000E+00
 1.4777501E+00  0.0000000E+00
 1.4892501E+00  0.0000000E+00
 1.5007501E+00  0.0000000E+00
 1.5122501E+00  0.0000000E+00
 1.5237501E+00  0.0000000E+00
 1.5352501E+00  0.0000000E+00
 1.5467501E+00  0.0000000E+00
 1.5582501E+00  0.0000000E+00
 1.5697501E+00  0.0000000E+00
 1.5812501E+00  0.0000000E+00
 1.5927501E+00  0.0000000E+00
 1.6042501E+00  0.0000000E+00
 1.6157501E+00  0.0000000E+00
 1.6272501E+00  0.0000000E+00
 1.6387501E+00  0.0000000E+00
 1.6502501E+00  0.0000000E+00
 1.6617501E+00  0.0000000E+00
 1.6732501E+00  0.0000000E+00
 1.6847501E+00  0.0000000E+00
 1.6962501E+00  0.0000000E+00
 1.7077501E+00  0.0000000E+00
 1.7192501E+00  0.0000000E+00
 1.7307501E+00  0.0000000E+00
 1.7422501E+00  0.0000000E+00
 1.7537501E+00  0.0000000E+00
 1.7652501E+00  0.0000000E+00
 1.7767501E+00  0.0000000E+00
 1.7882501E+00  0.0000000E+00
 1.7997501E+00  0.0000000E+00
 1.8112501E+00  0.0000000E+00
 1.8227501E+00  0.0000000E+00
 1.8342501E+00  0.0000000E+00
 1.8457501E+00  0.0000000E+00
 1.8572501E+00  0.0000000E+00
 1.8687501E+00  0.0000000E+00
 1.8802501E+00  0.0000000E+00
 1.8917501E+00  0.0000000E+00
 1.9032501E+00  0.0000000E+00
 1.9147501E+00  0.0000000E+00
 1.9262501E+00  0.0000000E+00
 1.9377501E+00  0.0000000E+00
 1.9492501E+00  0.0000000E+00
 1.9607501E+00  0.0000000E+00
 1.9722501E+00  0.0000000E+00
 1.9837501E+00  0.0000000E+00
 1.9952501E+00  0.0000000E+00
 2.0067501E+00  0.0000000E+00
 2.0182500E+00  0.0000000E+00
 2.0297501E+00  0.0000000E+00
 2.0412500E+00  0.0000000E+00
 2.0527501E+00  0.0000000E+00
 2.0642500E+00  0.0000000E+00
 2.0757501E+00  0.0000000E+00
 2.0872500E+00  0.0000000E+00
 2.0987501E+00  0.0000000E+00
 2.1102500E+00  0.0000000E+00
 2.1217501E+00  0.0000000E+00
 2.1332500E+00  0.0000000E+00
 2.1447501E+00  0.0000000E+00
 2.1562500E+00  0.0000000E+00
 2.1677501E+00  0.0000000E+00
 2.1792500E+00  0.0000000E+00
 2.1907501E+00  0.0000000E+00
 2.2022500E+00  0.0000000E+00
 2.2137501E+00  0.0000000E+00
 2.2252500E+00  0.0000000E+00
 2.2367501E+00  0.0000000E+00
 2.2482500E+00  0.0000000E+00
 2.2597501E+00  0.0000000E+00
 2.2712500E+00  0.0000000E+00
 2.2827501E+00  0.0000000E+00
 2.2942500E+00  0.0000000E+00
 2.3057501E+00  0.0000000E+00
 2.3172500E+00  0.0000000E+00
 2.3287501E+00  0.0000000E+00
 2.3402500E+00  0.0000000E+00
 2.3517501E+00  0.0000000E+00
 2.3632500E+00  0.0000000E+00
 2.3747501E+00  0.0000000E+00
 2.3862500E+00  0.0000000E+00
 2.3977501E+00  0.0000000E+00
 2.4092500E+00  0.0000000E+00
 2.4207501E+00  0.0000000E+00
 2.4322500E+00  0.0000000E+00
 2.4437501E+00  0.0000000E+00
 2.4552500E+00  0.0000000E+00
 2.4667501E+00  0.0000000E+00
 2.4782500E+00  0.0000000E+00
 2.4897501E+00  0.0000000E+00
 2.5012500E+00  0.0000000E+00
 2.5127501E+00  0.0000000E+00
 2.5242500E+00  0.0000000E+00
 2.5357502E+00  0.0000000E+00
 2.5472500E+00  0.0000000E+00
 2.5587502E+00  0.0000000E+00
 2.5702500E+00  0.0000000E+00
 2.5817502E+00  0.0000000E+00
 2.5932500E+00  0.0000000E+00
 2.6047502E+00  0.0000000E+00
 2.6162500E+00  0.0000000E+00
 2.6277502E+00  0.0000000E+00
 2.6392500E+00  0.0000000E+00
 2.6507502E+00  0.0000000E+00
 2.6622500E+00  0.0000000E+00
 2.6737502E+00  0.0000000E+00
 2.6852500E+00  0.0000000E+00
 2.6967502E+00  0.0000000E+00
 2.7082500E+00  0.0000000E+00
 2.7197502E+00  0.0000000E+00
 2.7312500E+00  0.0000000E+00
 2.7427502E+00  0.0000000E+00
 2.7542500E+00  0.0000000E+00
 2.7657502E+00  0.0000000E+00
 2.7772501E+00  0.0000000E+00
 2.7887502E+00  0.0000000E+00
 2.8002501E+00  0.0000000E+00
 2.8117502E+00  0.0000000E+00
 2.8232501E+00  3.3445442E+01
 2.8347502E+00  3.2650665E+01
 2.8462501E+00  3.2750328E+01
 2.8577502E+00  3.2871342E+01
 2.8692501E+00  3.2980236E+01
 2.8807502E+00  3.4137127E+01
 2.8922501E+00  3.4488758E+01
 2.9037502E+00  3.5221638E+01
 2.9152501E+00  3.5451717E+01
 2.9267502E+00  3.5777824E+01
 2.9382501E+00  3.6049465E+01
 2.9497502E+00  3.6297279E+01
 2.9612501E+00  3.6529369E+01
 2.9727502E+00  3.6663788E+01
 2.9842501E+00  3.6583008E+01
 2.9957502E+00  3.6237640E+01
 3.0072501E+00  3.5921574E+01
 3.0187502E+00  3.5889580E+01
 3.0302501E+00  3.6298508E+01
 3.0417502E+00  3.6655273E+01
 3.0532501E+00  3.6486599E+01
 3.0647502E+00  3.6302528E+01
 3.0762501E+00  3.6161690E+01
 3.0877502E+00  3.6152370E+01
 3.0992501E+00  3.6214001E+01
 3.1107502E+00  3.5930244E+01
 3.1222501E+00  3.6087444E+01
 3.1337502E+00  3.5942219E+01
 3.1452501E+00  3.5973881E+01
 3.1567502E+00  3.6017570E+01
 3.1682501E+00  3.6043671E+01
 3.1797502E+00  3.6070396E+01
 3.1912501E+00  3.5890747E+01
 3.2027502E+00  3.5427341E+01
 3.2142501E+00  3.5270115E+01
 3.2257502E+00  3.5034920E+01
 3.2372501E+00  3.4719955E+01
 3.2487502E+00  3.4688877E+01
 3.2602501E+00  3.4569668E+01
 3.2717502E+00  3.4570221E+01
 3.2832501E+00  3.4864796E+01
 3.2947502E+00  3.4891556E+01
 3.3062501E+00  3.5564533E+01
 3.3177502E+00  3.5473125E+01
 3.3292501E+00  3.5554188E+01
 3.3407502E+00  3.5391659E+01
 3.3522501E+00  3.5513023E+01
 3.3637502E+00  3.5425480E+01
 3.3752501E+00  3.5535355E+01
 3.3867502E+00  3.5365501E+01
 3.3982501E+00  3.4990459E+01
 3.4097502E+00  3.4680725E+01
 3.4212501E+00  3.4426048E+01
 3.4327502E+00  3.4524910E+01
 3.4442501E+00  3.4580978E+01
 3.4557502E+00  3.4467674E+01
 3.4672501E+00  3.4625340E+01
 3.4787502E+00  3.4593437E+01
 3.4902501E+00  3.4791996E+01
 3.5017502E+00  3.4706612E+01
 3.5132501E+00  3.4223309E+01
 3.5247502E+00  3.3938007E+01
 3.5362501E+00  3.3388134E+01
 3.5477502E+00  3.3437763E+01
 3.5592501E+00  3.3249157E+01
 3.5707502E+00  3.3338696E+01
 3.5822501E+00  3.3271572E+01
 3.5937502E+00  3.3310520E+01
 3.6052501E+00  3.3391171E+01
 3.6167502E+00  3.3413078E+01
 3.6282501E+00  3.3417896E+01
 3.6397502E+00  3.3331066E+01
 3.6512501E+00  3.3438786E+01
 3.6627502E+00  3.3461082E+01
 3.6742501E+00  3.3282272E+01
 3.6857502E+00  3.3238560E+01
 3.6972501E+00  3.3105667E+01
 3.7087502E+00  3.2913754E+01
 3.7202501E+00  3.2840988E+01
 3.7317502E+00  3.2653248E+01
 3.7432501E+00  3.2873165E+01
 3.7547503E+00  3.3036381E+01
 3.7662501E+00  3.3236893E+01
 3.7777503E+00  3.3344975E+01
 3.7892501E+00  3.3179146E+01
 3.8007503E+00  3.2897629E+01
 3.8122501E+00  3.2890987E+01
 3.8237503E+00  3.2822357E+01
 3.8352501E+00  3.2800098E+01
 3.8467503E+00  3.2760532E+01
 3.8582501E+00  3.2589493E+01
 3.8697503E+00  3.2695568E+01
 3.8812501E+00  3.2725643E+01
 3.8927503E+00  3.2672108E+01
 3.9042501E+00  3.2749832E+01
 3.9157503E+00  3.2697201E+01
 3.9272501E+00  3.2916553E+01
 3.9387503E+00  3.2985088E+01
 3.9502501E+00  3.3115990E+01
 3.9617503E+00  3.3137962E+01
 3.9732502E+00  3.3178768E+01
 3.9847503E+00  3.3112965E+01
 3.9962502E+00  3.3002834E+01
 4.0077500E+00  3.2902599E+01
 4.0192504E+00  3.2732845E+01
 4.0307503E+00  3.2524242E+01
 4.0422502E+00  3.2481842E+01
 4.0537500E+00  3.2591248E+01
 4.0652504E+00  3.2703896E+01
 4.0767503E+00  3.2759636E+01
 4.0882502E+00  3.2669971E+01
 4.0997500E+00  3.2676716E+01
 4.1112504E+00  3.2454208E+01
 4.1227503E+00  3.2437096E+01
 4.1342502E+00  3.2498116E+01
 4.1457500E+00  3.2612324E+01
 4.1572504E+00  3.2609016E+01
 4.1687503E+00  3.2402855E+01
 4.1802502E+00  3.2297890E+01
 4.1917500E+00  3.2301716E+01
 4.2032504E+00  3.2441479E+01
 4.2147503E+00  3.2584347E+01
 4.2262502E+00  3.2756378E+01
 4.2377501E+00  3.2769115E+01
 4.2492504E+00  3.2793644E+01
 4.2607503E+00  3.2836502E+01
 4.2722502E+00  3.2817284E+01
 4.2837501E+00  3.2934635E+01
 4.2952504E+00  3.2918533E+01
 4.3067503E+00  3.2879963E+01
 4.3182502E+00  3.2716366E+01
 4.3297501E+00  3.2624283E+01
 4.3412504E+00  3.2620434E+01
 4.3527503E+00  3.2681675E+01
 4.3642502E+00  3.2590508E+01
 4.3757501E+00  3.2494160E+01
 4.3872504E+00  3.2411259E+01
 4.3987503E+00  3.2472675E+01
 4.4102502E+00  3.2618725E+01
 4.4217501E+00  3.2723133E+01
 4.4332504E+00  3.2724274E+01
 4.4447503E+00  3.2689625E+01
 4.4562502E+00  3.2723507E+01
 4.4677501E+00  3.2800354E+01
 4.4792504E+00  3.2868053E+01
 4.4907503E+00  3.2890579E+01
 4.5022502E+00  3.2782883E+01
 4.5137501E+00  3.2770626E+01
 4.5252504E+00  3.2722454E+01
 4.5367503E+00  3.2807373E+01
 4.5482502E+00  3.2773991E+01
 4.5597501E+00  3.2809494E+01
 4.5712504E+00  3.2785736E+01
 4.5827503E+00  3.2898060E+01
 4.5942502E+00  3.2885757E+01
 4.6057501E+00  3.2919445E+01
 4.6172504E+00  3.2799595E+01
 4.6287503E+00  3.2699657E+01
 4.6402502E+00  3.2790947E+01
 4.6517501E+00  3.2866169E+01
 4.6632504E+00  3.3063141E+01
 4.6747503E+00  3.3152599E+01
 4.6862502E+00  3.3365929E+01
 4.6977501E+00  3.3409428E+01
 4.7092505E+00  3.3374218E+01
 4.7207503E+00  3.3228203E+01
 4.7322502E+00  3.2944218E+01
 4.7437501E+00  3.2798916E+01
 4.7552505E+00  3.2509960E+01
 4.7667503E+00  3.2622452E+01
 4.7782502E+00  3.2552063E+01
 4.7897501E+00  3.2613621E+01
 4.8012505E+00  3.2481464E+01
 4.8127503E+00  3.2459305E+01
 4.8242502E+00  3.2517666E+01
 4.8357501E+00  3.2486195E+01
 4.8472505E+00  3.2582153E+01
 4.8587503E+00  3.2716076E+01
 4.8702502E+00  3.2777836E+01
 4.8817501E+00  3.2813999E+01
 4.8932505E+00  3.2706669E+01
 4.9047503E+00  3.2765270E+01
 4.9162502E+00  3.2837311E+01
 4.9277501E+00  3.2900211E+01
 4.9392505E+00  3.2881588E+01
 4.9507504E+00  3.2792030E+01
 4.9622502E+00  3.2758015E+01
 4.9737501E+00  3.2713264E+01
 4.9852505E+00  3.2829857E+01
 4.9967504E+00  3.2957523E+01
 5.0082502E+00  3.3095844E+01
 5.0197501E+00  3.3129978E+01
 5.0312505E+00  3.3180496E+01
 5.0427504E+00  3.3220688E+01
 5.0542502E+00  3.3252487E+01
 5.0657501E+00  3.3217209E+01
 5.0772505E+00  3.3304047E+01
 5.0887504E+00  3.3359924E+01
 5.1002502E+00  3.3445385E+01
 5.1117501E+00  3.3465965E+01
 5.1232505E+00  3.3483746E+01
 5.1347504E+00  3.3595898E+01
 5.1462502E+00  3.3775501E+01
 5.1577501E+00  3.4013561E+01
 5.1692505E+00  3.4115913E+01
 5.1807504E+00  3.4174362E+01
 5.1922503E+00  3.4080364E+01
 5.2037501E+00  3.4039543E+01
 5.2152505E+00  3.3917854E+01
 5.2267504E+00  3.3943699E+01
 5.2382503E+00  3.4032902E+01
 5.2497501E+00  3.4017536E+01
 5.2612505E+00  3.4161114E+01
 5.2727504E+00  3.4085850E+01
 5.2842503E+00  3.4137897E+01
 5.2957501E+00  3.4095242E+01
 5.3072500E+00  3.4044216E+01
 5.3187504E+00  3.4076828E+01
 5.3302503E+00  3.4058685E+01
 5.3417501E+00  3.4134315E+01
 5.3532500E+00  3.4189159E+01
 5.3647504E+00  3.4316578E+01
 5.3762503E+00  3.4512562E+01
 5.3877501E+00  3.4652084E+01
 5.3992500E+00  3.4795296E+01
 5.4107504E+00  3.4842438E+01
 5.4222503E+00  3.4736176E+01
 5.4337502E+00  3.4591526E+01
 5.4452500E+00  3.4484875E+01
 5.4567504E+00  3.4588058E+01
 5.4682503E+00  3.4576370E+01
 5.4797502E+00  3.4629345E+01
 5.4912500E+00  3.4603745E+01
 5.5027504E+00  3.4661446E+01
 5.5142503E+00  3.4832935E+01
 5.5257502E+00  3.4910297E+01
 5.5372500E+00  3.4951725E+01
 5.5487504E+00  3.4832726E+01
 5.5602503E+00  3.4822964E+01
 5.5717502E+00  3.4858482E+01
 5.5832500E+00  3.4912468E+01
 5.5947504E+00  3.5005276E+01
 5.6062503E+00  3.5199329E+01
 5.6177502E+00  3.5205856E+01
 5.6292500E+00  3.5129299E+01
 5.6407504E+00  3.5049858E+01
 5.6522503E+00  3.4992107E+01
 5.6637502E+00  3.5068264E+01
 5.6752501E+00  3.5153736E+01
 5.6867504E+00  3.5324104E+01
 5.6982503E+00  3.5405922E+01
 5.7097502E+00  3.5484097E+01
 5.7212501E+00  3.5528202E+01
 5.7327504E+00  3.5578896E+01
 5.7442503E+00  3.5555878E+01
 5.7557502E+00  3.5518688E+01
 5.7672501E+00  3.5490757E+01
 5.7787504E+00  3.5486420E+01
 5.7902503E+00  3.5510227E+01
 5.8017502E+00  3.5563282E+01
 5.8132501E+00  3.5648666E+01
 5.8247504E+00  3.5795330E+01
 5.8362503E+00  3.5974449E+01
 5.8477502E+00  3.6092514E+01
 5.8592501E+00  3.6142349E+01
 5.8707504E+00  3.6291004E+01
 5.8822503E+00  3.6461292E+01
 5.8937502E+00  3.6640289E+01
 5.9052501E+00  3.6760574E+01
 5.9167504E+00  3.6882771E+01
 5.9282503E+00  3.7191837E+01
 5.9397502E+00  3.7435009E+01
 5.9512501E+00  3.7848606E+01
 5.9627504E+00  3.8420311E+01
 5.9742503E+00  3.8731884E+01
 5.9857502E+00  3.9010761E+01
 5.9972501E+00  3.8892033E+01
 6.0087504E+00  3.8606377E+01
 6.0202503E+00  3.8076363E+01
 6.0317502E+00  3.7433636E+01
 6.0432501E+00  3.6961285E+01
 6.0547504E+00  3.6716988E+01
 6.0662503E+00  3.6478931E+01
 6.0777502E+00  3.6502937E+01
 6.0892501E+00  3.6481987E+01
 6.1007504E+00  3.6616245E+01
 6.1122503E+00  3.6681385E+01
 6.1237502E+00  3.6641922E+01
 6.1352501E+00  3.6696472E+01
 6.1467505E+00  3.6721142E+01
 6.1582503E+00  3.6852520E+01
 6.1697502E+00  3.6894112E+01
 6.1812501E+00  3.7033230E+01
 6.1927505E+00  3.7205677E+01
 6.2042503E+00  3.7242615E+01
 6.2157502E+00  3.7268547E+01
 6.2272501E+00  3.7312439E+01
 6.2387505E+00  3.7393372E+01
 6.2502503E+00  3.7523064E+01
 6.2617502E+00  3.7518326E+01
 6.2732501E+00  3.7557186E+01
 6.2847505E+00  3.7615131E+01
 6.2962503E+00  3.7659851E+01
 6.3077502E+00  3.7873386E+01
 6.3192501E+00  3.8012459E+01
 6.3307505E+00  3.8161255E+01
 6.3422503E+00  3.8314770E+01
 6.3537502E+00  3.8314465E+01
 6.3652501E+00  3.8433460E+01
 6.3767505E+00  3.8484264E+01
 6.3882504E+00  3.8559223E+01
 6.3997502E+00  3.8545780E+01
 6.4112501E+00  3.8556259E+01
 6.4227505E+00  3.8508896E+01
 6.4342504E+00  3.8552692E+01
 6.4457502E+00  3.8557961E+01
 6.4572501E+00  3.8459709E+01
 6.4687505E+00  3.8456890E+01
 6.4802504E+00  3.8354126E+01
 6.4917502E+00  3.8461044E+01
 6.5032501E+00  3.8668270E+01
 6.5147505E+00  3.8971878E+01
 6.5262504E+00  3.9195663E+01
 6.5377502E+00  3.9320652E+01
 6.5492501E+00  3.9341591E+01
 6.5607505E+00  3.9405296E+01
 6.5722504E+00  3.9515087E+01
 6.5837502E+00  3.9627346E+01
 6.5952501E+00  3.9749382E+01
 6.6067505E+00  3.9874763E+01
 6.6182504E+00  3.9927116E+01
 6.6297503E+00  3.9994602E+01
 6.6412501E+00  4.0005703E+01
 6.6527505E+00  4.0075439E+01
 6.6642504E+00  4.0119370E+01
 6.6757503E+00  4.0186665E+01
 6.6872501E+00  4.0288174E+01
 6.6987505E+00  4.0367691E+01
 6.7102504E+00  4.0586086E+01
 6.7217503E+00  4.0575764E+01
 6.7332501E+00  4.0739250E+01
 6.7447505E+00  4.0680935E+01
 6.7562504E+00  4.0837460E+01
 6.7677503E+00  4.0791512E+01
 6.7792501E+00  4.0944004E+01
 6.7907505E+00  4.1036491E+01
 6.8022504E+00  4.1282326E+01
 6.8137503E+00  4.1382748E+01
 6.8252501E+00  4.1483871E+01
 6.8367505E+00  4.1486237E+01
 6.8482504E+00  4.1597824E+01
 6.8597503E+00  4.1624466E+01
 6.8712502E+00  4.1725128E+01
 6.8827505E+00  4.1753330E+01
 6.8942504E+00  4.1847233E+01
 6.9057503E+00  4.1972965E+01
 6.9172502E+00  4.2058392E+01
 6.9287505E+00  4.2109589E+01
 6.9402504E+00  4.2145851E+01
 6.9517503E+00  4.2119125E+01
 6.9632502E+00  4.2129677E+01
 6.9747505E+00  4.2187920E+01
 6.9862504E+00  4.2300327E+01
 6.9977503E+00  4.2416721E+01
 7.0092502E+00  4.2492020E+01
 7.0207505E+00  4.2446163E+01
 7.0322504E+00  4.2443958E+01
 7.0437503E+00  4.2361374E+01
 7.0552502E+00  4.2461437E+01
 7.0667505E+00  4.2527412E+01
 7.0782504E+00  4.2631504E+01
 7.0897503E+00  4.2748043E+01
 7.1012502E+00  4.2849590E+01
 7.1127505E+00  4.2939960E+01
 7.1242504E+00  4.2929825E+01
 7.1357503E+00  4.2874680E+01
 7.1472502E+00  4.2928478E+01
 7.1587505E+00  4.2915981E+01
 7.1702504E+00  4.3049370E+01
 7.1817503E+00  4.3035114E+01
 7.1932502E+00  4.3235100E+01
 7.2047505E+00  4.3326275E+01
 7.2162504E+00  4.3504337E+01
 7.2277503E+00  4.3694347E+01
 7.2392502E+00  4.3737186E+01
 7.2507505E+00  4.3854469E+01
 7.2622504E+00  4.3782734E+01
 7.2737503E+00  4.3835430E+01
 7.2852502E+00  4.3887962E+01
 7.2967505E+00  4.3942230E+01
 7.3082504E+00  4.3989719E+01
 7.3197503E+00  4.3963905E+01
 7.3312502E+00  4.3995564E+01
 7.3427505E+00  4.3992104E+01
 7.3542504E+00  4.4002510E+01
 7.3657503E+00  4.4005024E+01
 7.3772502E+00  4.4124130E+01
 7.3887506E+00  4.4155094E+01
 7.4002504E+00  4.4260666E+01
 7.4117503E+00  4.4284939E+01
 7.4232502E+00  4.4368801E+01
 7.4347506E+00  4.4312538E+01
 7.4462504E+00  4.4235973E+01
 7.4577503E+00  4.4220062E+01
 7.4692502E+00  4.4271217E+01
 7.4807506E+00  4.4382389E+01
 7.4922504E+00  4.4435753E+01
 7.5037503E+00  4.4444389E+01
 7.5152502E+00  4.4364510E+01
 7.5267506E+00  4.4307045E+01
 7.5382504E+00  4.4254700E+01
 7.5497503E+00  4.4252316E+01
 7.5612502E+00  4.4325729E+01
 7.5727506E+00  4.4349991E+01
 7.5842505E+00  4.4340580E+01
 7.5957503E+00  4.4308613E+01
 7.6072502E+00  4.4286140E+01
 7.6187506E+00  4.4395634E+01
 7.6302505E+00  4.4390766E+01
 7.6417503E+00  4.4478096E+01
 7.6532502E+00  4.4499065E+01
 7.6647506E+00  4.4501335E+01
 7.6762505E+00  4.4458488E+01
 7.6877503E+00  4.4426643E+01
 7.6992502E+00  4.4439732E+01
 7.7107506E+00  4.4551987E+01
 7.7222505E+00  4.4530781E+01
 7.7337503E+00  4.4606911E+01
 7.7452502E+00  4.4502316E+01
 7.7567506E+00  4.4558773E+01
 7.7682505E+00  4.4542496E+01
 7.7797503E+00  4.4516655E+01
 7.7912502E+00  4.4487892E+01
 7.8027506E+00  4.4391567E+01
 7.8142505E+00  4.4272873E+01
 7.8257504E+00  4.4163170E+01
 7.8372502E+00  4.4093624E+01
 7.8487506E+00  4.4070095E+01
 7.8602505E+00  4.4020023E+01
 7.8717504E+00  4.3855854E+01
 7.8832502E+00  4.3869209E+01
 7.8947506E+00  4.3826458E+01
 7.9062505E+00  4.3928677E+01
 7.9177504E+00  4.3991047E+01
 7.9292502E+00  4.4014725E+01
 7.9407506E+00  4.4009491E+01
 7.9522505E+00  4.3910297E+01
 7.9637504E+00  4.3815804E+01
 7.9752502E+00  4.3786957E+01
 7.9867506E+00  4.3732994E+01
 7.9982505E+00  4.3730293E+01
 8.0097504E+00  4.3566368E+01
 8.0212507E+00  4.3563400E+01
 8.0327501E+00  4.3383503E+01
 8.0442505E+00  4.3364193E+01
 8.0557508E+00  4.3225052E+01
 8.0672503E+00  4.3188793E+01
 8.0787506E+00  4.3125076E+01
 8.0902500E+00  4.3057156E+01
 8.1017504E+00  4.3102749E+01
 8.1132507E+00  4.3035393E+01
 8.1247501E+00  4.2974625E+01
 8.1362505E+00  4.2871181E+01
 8.1477509E+00  4.2811420E+01
 8.1592503E+00  4.2757664E+01
 8.1707506E+00  4.2670822E+01
 8.1822500E+00  4.2575928E+01
 8.1937504E+00  4.2504223E+01
 8.2052507E+00  4.2374767E+01
 8.2167501E+00  4.2208252E+01
 8.2282505E+00  4.2040485E+01
 8.2397509E+00  4.1898487E+01
 8.2512503E+00  4.1756241E+01
 8.2627506E+00  4.1517010E+01
 8.2742500E+00  4.1329414E+01
 8.2857504E+00  4.1114174E+01
 8.2972507E+00  4.1036007E+01
 8.3087502E+00  4.0879490E+01
 8.3202505E+00  4.0760422E+01
 8.3317509E+00  4.0556103E+01
 8.3432503E+00  4.0307346E+01
 8.3547506E+00  4.0257725E+01
 8.3662500E+00  4.0144962E+01
 8.3777504E+00  4.0121643E+01
 8.3892508E+00  3.9955639E+01
 8.4007502E+00  3.9747276E+01
 8.4122505E+00  3.9599495E+01
 8.4237509E+00  3.9348976E+01
 8.4352503E+00  3.9168835E+01
 8.4467506E+00  3.8978828E+01
 8.4582500E+00  3.8765892E+01
 8.4697504E+00  3.8686287E+01
 8.4812508E+00  3.8496899E+01
 8.4927502E+00  3.8373459E+01
 8.5042505E+00  3.8277885E+01
 8.5157509E+00  3.8147331E+01
 8.5272503E+00  3.7988312E+01
 8.5387506E+00  3.7789715E+01
 8.5502501E+00  3.7559917E+01
 8.5617504E+00  3.7346134E+01
 8.5732508E+00  3.7155251E+01
 8.5847502E+00  3.6922894E+01
 8.5962505E+00  3.6777172E+01
 8.6077509E+00  3.6554543E+01
 8.6192503E+00  3.6377190E+01
 8.6307507E+00  3.6171036E+01
 8.6422501E+00  3.5948772E+01
 8.6537504E+00  3.5759541E+01
 8.6652508E+00  3.5612457E+01
 8.6767502E+00  3.5477787E+01
 8.6882505E+00  3.5413128E+01
 8.6997509E+00  3.5305477E+01
 8.7112503E+00  3.5113163E+01
 8.7227507E+00  3.4982937E+01
 8.7342501E+00  3.4781685E+01
 8.7457504E+00  3.4655922E+01
 8.7572508E+00  3.4485313E+01
 8.7687502E+00  3.4358166E+01
 8.7802505E+00  3.4146042E+01
 8.7917500E+00  3.3878521E+01
 8.8032503E+00  3.3617458E+01
 8.8147507E+00  3.3425926E+01
 8.8262501E+00  3.3175728E+01
 8.8377504E+00  3.2960068E+01
 8.8492508E+00  3.2742611E+01
 8.8607502E+00  3.2646698E+01
 8.8722506E+00  3.2564686E+01
 8.8837500E+00  3.2461903E+01
 8.8952503E+00  3.2334057E+01
 8.9067507E+00  3.2145634E+01
 8.9182501E+00  3.1951883E+01
 8.9297504E+00  3.1734350E+01
 8.9412508E+00  3.1518837E+01
 8.9527502E+00  3.1386507E+01
 8.9642506E+00  3.1292377E+01
 8.9757500E+00  3.1188076E+01
 8.9872503E+00  3.1116640E+01
 8.9987507E+00  3.0994137E+01
 9.0102501E+00  3.0930201E+01
 9.0217505E+00  3.0719696E+01
 9.0332508E+00  3.0632788E+01
 9.0447502E+00  3.0495247E+01
 9.0562506E+00  3.0434248E+01
 9.0677500E+00  3.0329863E+01
 9.0792503E+00  3.0222696E+01
 9.0907507E+00  3.0017538E+01
 9.1022501E+00  2.9852867E+01
 9.1137505E+00  2.9714983E+01
 9.1252508E+00  2.9719681E+01
 9.1367502E+00  2.9631395E+01
 9.1482506E+00  2.9571596E+01
 9.1597500E+00  2.9443199E+01
 9.1712503E+00  2.9259689E+01
 9.1827507E+00  2.9117109E+01
 9.1942501E+00  2.8932835E+01
 9.2057505E+00  2.8816332E+01
 9.2172508E+00  2.8673147E+01
 9.2287502E+00  2.8501450E+01
 9.2402506E+00  2.8465872E+01
 9.2517500E+00  2.8349737E+01
 9.2632504E+00  2.8335943E+01
 9.2747507E+00  2.8245678E+01
 9.2862501E+00  2.8080772E+01
 9.2977505E+00  2.7939232E+01
 9.3092508E+00  2.7728783E+01
 9.3207502E+00  2.7653236E+01
 9.3322506E+00  2.7563713E+01
 9.3437500E+00  2.7487555E+01
 9.3552504E+00  2.7485796E+01
 9.3667507E+00  2.7408932E+01
 9.3782501E+00  2.7365686E+01
 9.3897505E+00  2.7215628E+01
 9.4012508E+00  2.7136642E+01
 9.4127502E+00  2.7055817E+01
 9.4242506E+00  2.6979425E+01
 9.4357500E+00  2.6893888E+01
 9.4472504E+00  2.6876167E+01
 9.4587507E+00  2.6819199E+01
 9.4702501E+00  2.6791744E+01
 9.4817505E+00  2.6737038E+01
 9.4932508E+00  2.6652870E+01
 9.5047503E+00  2.6598864E+01
 9.5162506E+00  2.6440046E+01
 9.5277500E+00  2.6392548E+01
 9.5392504E+00  2.6321606E+01
 9.5507507E+00  2.6251179E+01
 9.5622501E+00  2.6235857E+01
 9.5737505E+00  2.6126650E+01
 9.5852509E+00  2.6028856E+01
 9.5967503E+00  2.5982433E+01
 9.6082506E+00  2.5949581E+01
 9.6197500E+00  2.5952845E+01
 9.6312504E+00  2.5834831E+01
 9.6427507E+00  2.5760344E+01
 9.6542501E+00  2.5661940E+01
 9.6657505E+00  2.5584885E+01
 9.6772509E+00  2.5466700E+01
 9.6887503E+00  2.5447590E+01
 9.7002506E+00  2.5429150E+01
 9.7117500E+00  2.5591425E+01
 9.7232504E+00  2.5602510E+01
 9.7347507E+00  2.5626589E+01
 9.7462502E+00  2.5482964E+01
 9.7577505E+00  2.5369663E+01
 9.7692509E+00  2.5256880E+01
 9.7807503E+00  2.5155962E+01
 9.7922506E+00  2.5146505E+01
 9.8037500E+00  2.5112190E+01
 9.8152504E+00  2.5114420E+01
 9.8267508E+00  2.5072206E+01
 9.8382502E+00  2.4985973E+01
 9.8497505E+00  2.4901096E+01
 9.8612509E+00  2.4861164E+01
 9.8727503E+00  2.4907133E+01
 9.8842506E+00  2.4885172E+01
 9.8957500E+00  2.4872097E+01
 9.9072504E+00  2.4817991E+01
 9.9187508E+00  2.4776247E+01
 9.9302502E+00  2.4655424E+01
 9.9417505E+00  2.4573824E+01
 9.9532509E+00  2.4475370E+01
 9.9647503E+00  2.4476753E+01
 9.9762506E+00  2.4451025E+01
 9.9877501E+00  2.4460329E+01
 9.9992504E+00  2.4443714E+01
 1.0010751E+01  2.4438107E+01
 1.0022250E+01  2.4422663E+01
 1.0033751E+01  2.4395910E+01
 1.0045251E+01  2.4390621E+01
 1.0056750E+01  2.4312447E+01
 1.0068251E+01  2.4203474E+01
 1.0079750E+01  2.4069908E+01
 1.0091250E+01  2.3959618E+01
 1.0102751E+01  2.3906223E+01
 1.0114250E+01  2.3889507E+01
 1.0125751E+01  2.3932232E+01
 1.0137251E+01  2.3934275E+01
 1.0148750E+01  2.3930986E+01
 1.0160251E+01  2.3906101E+01
 1.0171750E+01  2.3872185E+01
 1.0183250E+01  2.3807838E+01
 1.0194751E+01  2.3745836E+01
 1.0206250E+01  2.3725031E+01
 1.0217751E+01  2.3806749E+01
 1.0229251E+01  2.3831083E+01
 1.0240750E+01  2.3874088E+01
 1.0252251E+01  2.3746050E+01
 1.0263750E+01  2.3725094E+01
 1.0275250E+01  2.3699686E+01
 1.0286751E+01  2.3705431E+01
 1.0298250E+01  2.3681719E+01
 1.0309751E+01  2.3658995E+01
 1.0321251E+01  2.3635857E+01
 1.0332750E+01  2.3625973E+01
 1.0344251E+01  2.3624062E+01
 1.0355750E+01  2.3586721E+01
 1.0367250E+01  2.3555870E+01
 1.0378751E+01  2.3485329E+01
 1.0390250E+01  2.3478363E+01
 1.0401751E+01  2.3436649E+01
 1.0413251E+01  2.3381683E+01
 1.0424750E+01  2.3350008E+01
 1.0436251E+01  2.3349257E+01
 1.0447750E+01  2.3376957E+01
 1.0459250E+01  2.3430395E+01
 1.0470751E+01  2.3437321E+01
 1.0482250E+01  2.3482214E+01
 1.0493751E+01  2.3489117E+01
 1.0505251E+01  2.3543261E+01
 1.0516750E+01  2.3505495E+01
 1.0528251E+01  2.3475536E+01
 1.0539750E+01  2.3412762E+01
 1.0551250E+01  2.3461271E+01
 1.0562751E+01  2.3458769E+01
 1.0574250E+01  2.3426931E+01
 1.0585751E+01  2.3373810E+01
 1.0597251E+01  2.3284571E+01
 1.0608750E+01  2.3281176E+01
 1.0620251E+01  2.3241957E+01
 1.0631750E+01  2.3285442E+01
 1.0643250E+01  2.3294559E+01
 1.0654751E+01  2.3325977E+01
 1.0666250E+01  2.3321241E+01
 1.0677751E+01  2.3254101E+01
 1.0689251E+01  2.3162312E+01
 1.0700750E+01  2.3075470E+01
 1.0712251E+01  2.3035931E+01
 1.0723750E+01  2.3025263E+01
 1.0735250E+01  2.2987171E+01
 1.0746751E+01  2.2970888E+01
 1.0758250E+01  2.2924850E+01
 1.0769751E+01  2.2937069E+01
 1.0781251E+01  2.2974491E+01
 1.0792750E+01  2.2990644E+01
 1.0804251E+01  2.2985218E+01
 1.0815750E+01  2.2955969E+01
 1.0827250E+01  2.2960756E+01
 1.0838751E+01  2.2936821E+01
 1.0850250E+01  2.2900309E+01
 1.0861751E+01  2.2874231E+01
 1.0873251E+01  2.2882439E+01
 1.0884750E+01  2.2851273E+01
 1.0896251E+01  2.2798122E+01
 1.0907750E+01  2.2740194E+01
 1.0919250E+01  2.2728895E+01
 1.0930751E+01  2.2728090E+01
 1.0942250E+01  2.2718193E+01
 1.0953751E+01  2.2679066E+01
 1.0965251E+01  2.2688538E+01
 1.0976750E+01  2.2714973E+01
 1.0988251E+01  2.2691668E+01
 1.0999750E+01  2.2633404E+01
 1.1011250E+01  2.2535807E+01
 1.1022751E+01  2.2545980E+01
 1.1034250E+01  2.2586090E+01
 1.1045751E+01  2.2622110E+01
 1.1057251E+01  2.2595760E+01
 1.1068750E+01  2.2592768E+01
 1.1080251E+01  2.2588171E+01
 1.1091750E+01  2.2617645E+01
 1.1103251E+01  2.2576168E+01
 1.1114751E+01  2.2580923E+01
 1.1126250E+01  2.2546341E+01
 1.1137751E+01  2.2509920E+01
 1.1149251E+01  2.2526125E+01
 1.1160750E+01  2.2520231E+01
 1.1172251E+01  2.2533224E+01
 1.1183750E+01  2.2506691E+01
 1.1195251E+01  2.2448948E+01
 1.1206751E+01  2.2448997E+01
 1.1218250E+01  2.2368015E+01
 1.1229751E+01  2.2364950E+01
 1.1241251E+01  2.2350855E+01
 1.1252750E+01  2.2319803E+01
 1.1264251E+01  2.2357752E+01
 1.1275750E+01  2.2324112E+01
 1.1287251E+01  2.2337540E+01
 1.1298751E+01  2.2344910E+01
 1.1310250E+01  2.2387613E+01
 1.1321751E+01  2.2451334E+01
 1.1333251E+01  2.2479364E+01
 1.1344750E+01  2.2455824E+01
 1.1356251E+01  2.2486433E+01
 1.1367750E+01  2.2595829E+01
 1.1379251E+01  2.2661909E+01
 1.1390751E+01  2.2741434E+01
 1.1402250E+01  2.2843134E+01
 1.1413751E+01  2.2835400E+01
 1.1425251E+01  2.2835978E+01
 1.1436750E+01  2.2718849E+01
 1.1448251E+01  2.2720255E+01
 1.1459750E+01  2.2736374E+01
 1.1471251E+01  2.2733309E+01
 1.1482751E+01  2.2721027E+01
 1.1494250E+01  2.2754150E+01
 1.1505751E+01  2.2776157E+01
 1.1517251E+01  2.2926039E+01
 1.1528750E+01  2.3249537E+01
 1.1540251E+01  2.3493773E+01
 1.1551750E+01  2.3991722E+01
 1.1563251E+01  2.4831661E+01
 1.1574751E+01  2.5228138E+01
 1.1586250E+01  2.6172506E+01
 1.1597751E+01  2.8404501E+01
 1.1609251E+01  2.8822422E+01
 1.1620750E+01  2.8985504E+01
 1.1632251E+01  2.7955233E+01
 1.1643750E+01  2.7263084E+01
 1.1655251E+01  2.6323433E+01
 1.1666751E+01  2.4376986E+01
 1.1678250E+01  2.4056725E+01
 1.1689751E+01  2.3367321E+01
 1.1701251E+01  2.2894339E+01
 1.1712750E+01  2.2800173E+01
 1.1724251E+01  2.2637056E+01
 1.1735750E+01  2.2619192E+01
 1.1747251E+01  2.2590668E+01
 1.1758751E+01  2.2607672E+01
 1.1770250E+01  2.2569187E+01
 1.1781751E+01  2.2557138E+01
 1.1793251E+01  2.2556261E+01
 1.1804750E+01  2.2575537E+01
 1.1816251E+01  2.2600084E+01
 1.1827750E+01  2.2568546E+01
 1.1839251E+01  2.2552671E+01
 1.1850751E+01  2.2522003E+01
 1.1862250E+01  2.2560698E+01
 1.1873751E+01  2.2548609E+01
 1.1885251E+01  2.2501274E+01
 1.1896750E+01  2.2428654E+01
 1.1908251E+01  2.2373552E+01
 1.1919750E+01  2.2395458E+01
 1.1931251E+01  2.2397053E+01
 1.1942751E+01  2.2485769E+01
 1.1954250E+01  2.2600119E+01
 1.1965751E+01  2.2699076E+01
 1.1977251E+01  2.2805357E+01
 1.1988750E+01  2.2879770E+01
 1.2000251E+01  2.2911453E+01
 1.2011750E+01  2.2855843E+01
 1.2023251E+01  2.2722704E+01
 1.2034751E+01  2.2732050E+01
 1.2046250E+01  2.2722479E+01
 1.2057751E+01  2.2825117E+01
 1.2069251E+01  2.2946215E+01
 1.2080750E+01  2.3108074E+01
 1.2092251E+01  2.3271910E+01
 1.2103750E+01  2.3355459E+01
 1.2115251E+01  2.3301979E+01
 1.2126751E+01  2.3188705E+01
 1.2138250E+01  2.3017389E+01
 1.2149751E+01  2.2883425E+01
 1.2161251E+01  2.2728138E+01
 1.2172750E+01  2.2623249E+01
 1.2184251E+01  2.2590502E+01
 1.2195750E+01  2.2589571E+01
 1.2207251E+01  2.2568768E+01
 1.2218751E+01  2.2546743E+01
 1.2230250E+01  2.2529863E+01
 1.2241751E+01  2.2469423E+01
 1.2253251E+01  2.2381681E+01
 1.2264750E+01  2.2346836E+01
 1.2276251E+01  2.2332497E+01
 1.2287750E+01  2.2428953E+01
 1.2299251E+01  2.2437847E+01
 1.2310751E+01  2.2573704E+01
 1.2322250E+01  2.2600044E+01
 1.2333751E+01  2.2679634E+01
 1.2345250E+01  2.2657549E+01
 1.2356750E+01  2.2658920E+01
 1.2368251E+01  2.2635771E+01
 1.2379750E+01  2.2626287E+01
 1.2391251E+01  2.2593346E+01
 1.2402751E+01  2.2544409E+01
 1.2414250E+01  2.2497787E+01
 1.2425751E+01  2.2539755E+01
 1.2437250E+01  2.2555496E+01
 1.2448750E+01  2.2602972E+01
 1.2460251E+01  2.2592299E+01
 1.2471750E+01  2.2567907E+01
 1.2483251E+01  2.2558693E+01
 1.2494751E+01  2.2493641E+01
 1.2506250E+01  2.2479313E+01
 1.2517751E+01  2.2464190E+01
 1.2529250E+01  2.2527622E+01
 1.2540751E+01  2.2591377E+01
 1.2552251E+01  2.2565376E+01
 1.2563750E+01  2.2521233E+01
 1.2575251E+01  2.2511812E+01
 1.2586751E+01  2.2537683E+01
 1.2598250E+01  2.2600027E+01
 1.2609751E+01  2.2699158E+01
 1.2621250E+01  2.2798248E+01
 1.2632751E+01  2.2899855E+01
 1.2644251E+01  2.2902784E+01
 1.2655750E+01  2.2947615E+01
 1.2667251E+01  2.2916466E+01
 1.2678751E+01  2.2924805E+01
 1.2690250E+01  2.2888794E+01
 1.2701751E+01  2.2895725E+01
 1.2713250E+01  2.2942320E+01
 1.2724751E+01  2.2920319E+01
 1.2736251E+01  2.2940144E+01
 1.2747750E+01  2.2885790E+01
 1.2759251E+01  2.2979040E+01
 1.2770751E+01  2.3001726E+01
 1.2782250E+01  2.3102835E+01
 1.2793751E+01  2.3072618E+01
 1.2805250E+01  2.3146557E+01
 1.2816751E+01  2.3161488E+01
 1.2828251E+01  2.3253895E+01
 1.2839750E+01  2.3252380E+01
 1.2851251E+01  2.3265625E+01
 1.2862751E+01  2.3247704E+01
 1.2874250E+01  2.3323521E+01
 1.2885751E+01  2.3366920E+01
 1.2897250E+01  2.3425396E+01
 1.2908751E+01  2.3450798E+01
 1.2920251E+01  2.3541000E+01
 1.2931750E+01  2.3651741E+01
 1.2943251E+01  2.3729517E+01
 1.2954751E+01  2.3777527E+01
 1.2966250E+01  2.3803057E+01
 1.2977751E+01  2.3844713E+01
 1.2989250E+01  2.3863628E+01
 1.3000751E+01  2.3914013E+01
 1.3012251E+01  2.3968666E+01
 1.3023750E+01  2.4046392E+01
 1.3035251E+01  2.4128895E+01
 1.3046751E+01  2.4180826E+01
 1.3058250E+01  2.4291670E+01
 1.3069751E+01  2.4355061E+01
 1.3081250E+01  2.4460539E+01
 1.3092751E+01  2.4554056E+01
 1.3104251E+01  2.4692669E+01
 1.3115750E+01  2.4797504E+01
 1.3127251E+01  2.4879183E+01
 1.3138751E+01  2.5010645E+01
 1.3150250E+01  2.5187428E+01
 1.3161751E+01  2.5350458E+01
 1.3173250E+01  2.5506166E+01
 1.3184751E+01  2.5679096E+01
 1.3196251E+01  2.5856752E+01
 1.3207750E+01  2.5988148E+01
 1.3219251E+01  2.6087303E+01
 1.3230751E+01  2.6226400E+01
 1.3242250E+01  2.6350534E+01
 1.3253751E+01  2.6435726E+01
 1.3265250E+01  2.6520668E+01
 1.3276751E+01  2.6642405E+01
 1.3288251E+01  2.6798582E+01
 1.3299750E+01  2.6949339E+01
 1.3311251E+01  2.7050037E+01
 1.3322751E+01  2.7159073E+01
 1.3334250E+01  2.7278843E+01
 1.3345751E+01  2.7437372E+01
 1.3357250E+01  2.7572395E+01
 1.3368751E+01  2.7695217E+01
 1.3380251E+01  2.7789200E+01
 1.3391750E+01  2.7915823E+01
 1.3403251E+01  2.8005367E+01
 1.3414751E+01  2.8122780E+01
 1.3426250E+01  2.8264456E+01
 1.3437751E+01  2.8435202E+01
 1.3449250E+01  2.8626423E+01
 1.3460751E+01  2.8787977E+01
 1.3472251E+01  2.8952656E+01
 1.3483750E+01  2.9137182E+01
 1.3495251E+01  2.9239504E+01
 1.3506751E+01  2.9338787E+01
 1.3518250E+01  2.9388218E+01
 1.3529751E+01  2.9474598E+01
 1.3541250E+01  2.9536144E+01
 1.3552751E+01  2.9595856E+01
 1.3564251E+01  2.9650797E+01
 1.3575750E+01  2.9734741E+01
 1.3587251E+01  2.9767441E+01
 1.3598751E+01  2.9797592E+01
 1.3610250E+01  2.9708471E+01
 1.3621751E+01  2.9679773E+01
 1.3633250E+01  2.9626564E+01
 1.3644751E+01  2.9675074E+01
 1.3656251E+01  2.9679071E+01
 1.3667750E+01  2.9756550E+01
 1.3679251E+01  2.9737656E+01
 1.3690751E+01  2.9687515E+01
 1.3702250E+01  2.9559412E+01
 1.3713751E+01  2.9498671E+01
 1.3725250E+01  2.9425200E+01
 1.3736751E+01  2.9393341E+01
 1.3748251E+01  2.9326342E+01
 1.3759750E+01  2.9270912E+01
 1.3771251E+01  2.9236618E+01
 1.3782751E+01  2.9159813E+01
 1.3794250E+01  2.9143152E+01
 1.3805751E+01  2.9028690E+01
 1.3817250E+01  2.9009569E+01
 1.3828751E+01  2.8951612E+01
 1.3840251E+01  2.8951057E+01
 1.3851750E+01  2.8902439E+01
 1.3863251E+01  2.8825567E+01
 1.3874751E+01  2.8829231E+01
 1.3886250E+01  2.8842749E+01
 1.3897751E+01  2.9005762E+01
 1.3909250E+01  2.9046980E+01
 1.3920751E+01  2.9248938E+01
 1.3932251E+01  2.9556337E+01
 1.3943750E+01  2.9700563E+01
 1.3955251E+01  2.9858421E+01
 1.3966751E+01  2.9705748E+01
 1.3978251E+01  2.9470448E+01
 1.3989751E+01  2.9130718E+01
 1.4001250E+01  2.8704723E+01
 1.4012751E+01  2.8436922E+01
 1.4024251E+01  2.7980381E+01
 1.4035750E+01  2.7734053E+01
 1.4047251E+01  2.7564402E+01
 1.4058751E+01  2.7485395E+01
 1.4070251E+01  2.7471720E+01
 1.4081751E+01  2.7369471E+01
 1.4093250E+01  2.7333551E+01
 1.4104751E+01  2.7228861E+01
 1.4116251E+01  2.7271070E+01
 1.4127750E+01  2.7251993E+01
 1.4139251E+01  2.7215765E+01
 1.4150751E+01  2.7152544E+01
 1.4162251E+01  2.7045834E+01
 1.4173751E+01  2.6922678E+01
 1.4185250E+01  2.6818308E+01
 1.4196751E+01  2.6754784E+01
 1.4208251E+01  2.6698679E+01
 1.4219750E+01  2.6630087E+01
 1.4231251E+01  2.6543175E+01
 1.4242751E+01  2.6501619E+01
 1.4254251E+01  2.6476557E+01
 1.4265751E+01  2.6459106E+01
 1.4277250E+01  2.6401083E+01
 1.4288751E+01  2.6316250E+01
 1.4300251E+01  2.6295961E+01
 1.4311750E+01  2.6235609E+01
 1.4323251E+01  2.6189482E+01
 1.4334751E+01  2.6151350E+01
 1.4346251E+01  2.6158260E+01
 1.4357751E+01  2.6133137E+01
 1.4369250E+01  2.6074780E+01
 1.4380751E+01  2.6010437E+01
 1.4392251E+01  2.5983057E+01
 1.4403750E+01  2.5955084E+01
 1.4415251E+01  2.5904833E+01
 1.4426751E+01  2.5874193E+01
 1.4438251E+01  2.5828915E+01
 1.4449751E+01  2.5778784E+01
 1.4461250E+01  2.5715210E+01
 1.4472751E+01  2.5660753E+01
 1.4484251E+01  2.5601723E+01
 1.4495750E+01  2.5563213E+01
 1.4507251E+01  2.5547226E+01
 1.4518751E+01  2.5601419E+01
 1.4530251E+01  2.5627979E+01
 1.4541751E+01  2.5656282E+01
 1.4553250E+01  2.5654226E+01
 1.4564751E+01  2.5614853E+01
 1.4576251E+01  2.5582069E+01
 1.4587750E+01  2.5506557E+01
 1.4599251E+01  2.5462395E+01
 1.4610751E+01  2.5454884E+01
 1.4622251E+01  2.5455885E+01
 1.4633751E+01  2.5429228E+01
 1.4645250E+01  2.5347090E+01
 1.4656751E+01  2.5268110E+01
 1.4668251E+01  2.5187410E+01
 1.4679750E+01  2.5173172E+01
 1.4691251E+01  2.5176573E+01
 1.4702751E+01  2.5202856E+01
 1.4714251E+01  2.5166224E+01
 1.4725751E+01  2.5120543E+01
 1.4737250E+01  2.5068310E+01
 1.4748751E+01  2.5040190E+01
 1.4760251E+01  2.4965574E+01
 1.4771750E+01  2.4962870E+01
 1.4783251E+01  2.4908218E+01
 1.4794751E+01  2.4952412E+01
 1.4806251E+01  2.4916836E+01
 1.4817751E+01  2.4972363E+01
 1.4829250E+01  2.4984959E+01
 1.4840751E+01  2.4997547E+01
 1.4852251E+01  2.5017330E+01
 1.4863750E+01  2.4994745E+01
 1.4875251E+01  2.5003633E+01
 1.4886751E+01  2.4956127E+01
 1.4898251E+01  2.4951971E+01
 1.4909751E+01  2.4945679E+01
 1.4921250E+01  2.4920277E+01
 1.4932751E+01  2.4884523E+01
 1.4944251E+01  2.4829617E+01
 1.4955750E+01  2.4844955E+01
 1.4967251E+01  2.4832754E+01
 1.4978751E+01  2.4877613E+01
 1.4990251E+01  2.4930185E+01
 1.5001751E+01  2.4980862E+01
 1.5013250E+01  2.5014683E+01
 1.5024751E+01  2.5073469E+01
 1.5036251E+01  2.5098969E+01
 1.5047750E+01  2.5124386E+01
 1.5059251E+01  2.5097261E+01
 1.5070751E+01  2.5096931E+01
 1.5082251E+01  2.5072544E+01
 1.5093751E+01  2.5079498E+01
 1.5105250E+01  2.5178391E+01
 1.5116751E+01  2.5289803E+01
 1.5128251E+01  2.5402212E+01
 1.5139750E+01  2.5723179E+01
 1.5151251E+01  2.6140875E+01
 1.5162751E+01  2.7272310E+01
 1.5174251E+01  2.8812717E+01
 1.5185751E+01  3.1061043E+01
 1.5197250E+01  3.3125763E+01
 1.5208751E+01  3.5092976E+01
 1.5220251E+01  3.5556030E+01
 1.5231750E+01  3.5036335E+01
 1.5243251E+01  3.2432259E+01
 1.5254751E+01  2.9914370E+01
 1.5266251E+01  2.7302876E+01
 1.5277751E+01  2.6177275E+01
 1.5289250E+01  2.5537947E+01
 1.5300751E+01  2.5273466E+01
 1.5312251E+01  2.5127432E+01
 1.5323750E+01  2.4998781E+01
 1.5335251E+01  2.4928846E+01
 1.5346751E+01  2.4868813E+01
 1.5358251E+01  2.4840694E+01
 1.5369751E+01  2.4832842E+01
 1.5381250E+01  2.4807190E+01
 1.5392751E+01  2.4791243E+01
 1.5404251E+01  2.4748699E+01
 1.5415751E+01  2.4675467E+01
 1.5427251E+01  2.4590008E+01
 1.5438751E+01  2.4560436E+01
 1.5450251E+01  2.4570889E+01
 1.5461751E+01  2.4669321E+01
 1.5473250E+01  2.4718327E+01
 1.5484751E+01  2.4788862E+01
 1.5496251E+01  2.5068350E+01
 1.5507751E+01  2.5056265E+01
 1.5519251E+01  2.5013853E+01
 1.5530751E+01  2.4700932E+01
 1.5542251E+01  2.4618952E+01
 1.5553751E+01  2.4488947E+01
 1.5565250E+01  2.4484360E+01
 1.5576751E+01  2.4564718E+01
 1.5588251E+01  2.4573807E+01
 1.5599751E+01  2.4548925E+01
 1.5611251E+01  2.4491795E+01
 1.5622751E+01  2.4471302E+01
 1.5634251E+01  2.4453651E+01
 1.5645751E+01  2.4448608E+01
 1.5657250E+01  2.4453680E+01
 1.5668751E+01  2.4447851E+01
 1.5680251E+01  2.4508732E+01
 1.5691751E+01  2.4507420E+01
 1.5703251E+01  2.4487911E+01
 1.5714751E+01  2.4435947E+01
 1.5726251E+01  2.4412868E+01
 1.5737751E+01  2.4365973E+01
 1.5749250E+01  2.4330450E+01
 1.5760751E+01  2.4373051E+01
 1.5772251E+01  2.4447851E+01
 1.5783751E+01  2.4487015E+01
 1.5795251E+01  2.4510557E+01
 1.5806751E+01  2.4529615E+01
 1.5818251E+01  2.4538095E+01
 1.5829751E+01  2.4550131E+01
 1.5841250E+01  2.4540346E+01
 1.5852751E+01  2.4609928E+01
 1.5864251E+01  2.4662558E+01
 1.5875751E+01  2.4735920E+01
 1.5887251E+01  2.4774591E+01
 1.5898750E+01  2.4782578E+01
 1.5910251E+01  2.4748930E+01
 1.5921751E+01  2.4690527E+01
 1.5933250E+01  2.4645590E+01
 1.5944751E+01  2.4630041E+01
 1.5956251E+01  2.4623383E+01
 1.5967751E+01  2.4592569E+01
 1.5979251E+01  2.4629530E+01
 1.5990750E+01  2.4602251E+01
 1.6002251E+01  2.4603252E+01
 1.6013750E+01  2.4548918E+01
 1.6025251E+01  2.4567472E+01
 1.6036751E+01  2.4659676E+01
 1.6048250E+01  2.4986427E+01
 1.6059752E+01  2.5059647E+01
 1.6071251E+01  2.5137480E+01
 1.6082750E+01  2.4968870E+01
 1.6094252E+01  2.4975334E+01
 1.6105751E+01  2.4826952E+01
 1.6117250E+01  2.4746424E+01
 1.6128750E+01  2.4778645E+01
 1.6140251E+01  2.4870750E+01
 1.6151751E+01  2.4911339E+01
 1.6163250E+01  2.4960987E+01
 1.6174751E+01  2.4841438E+01
 1.6186251E+01  2.4898718E+01
 1.6197750E+01  2.4730585E+01
 1.6209251E+01  2.4924068E+01
 1.6220751E+01  2.4860828E+01
 1.6232250E+01  2.5036886E+01
 1.6243752E+01  2.5035799E+01
 1.6255251E+01  2.5161430E+01
 1.6266750E+01  2.5250643E+01
 1.6278252E+01  2.5150608E+01
 1.6289751E+01  2.5275343E+01
 1.6301250E+01  2.5006760E+01
 1.6312750E+01  2.5106480E+01
 1.6324251E+01  2.4845535E+01
 1.6335751E+01  2.4854919E+01
 1.6347250E+01  2.4660250E+01
 1.6358751E+01  2.4619654E+01
 1.6370251E+01  2.4562889E+01
 1.6381750E+01  2.4553139E+01
 1.6393251E+01  2.4595585E+01
 1.6404751E+01  2.4609324E+01
 1.6416250E+01  2.4659630E+01
 1.6427752E+01  2.4627607E+01
 1.6439251E+01  2.4673761E+01
 1.6450750E+01  2.4657341E+01
 1.6462252E+01  2.4689917E+01
 1.6473751E+01  2.4632828E+01
 1.6485250E+01  2.4586060E+01
 1.6496750E+01  2.4538088E+01
 1.6508251E+01  2.4531296E+01
 1.6519751E+01  2.4541811E+01
 1.6531250E+01  2.4524126E+01
 1.6542751E+01  2.4545412E+01
 1.6554251E+01  2.4495815E+01
 1.6565750E+01  2.4510778E+01
 1.6577251E+01  2.4496420E+01
 1.6588751E+01  2.4556732E+01
 1.6600250E+01  2.4530642E+01
 1.6611752E+01  2.4557751E+01
 1.6623251E+01  2.4475794E+01
 1.6634750E+01  2.4457748E+01
 1.6646252E+01  2.4433727E+01
 1.6657751E+01  2.4447346E+01
 1.6669250E+01  2.4446310E+01
 1.6680750E+01  2.4373030E+01
 1.6692251E+01  2.4416098E+01
 1.6703751E+01  2.4413109E+01
 1.6715250E+01  2.4477562E+01
 1.6726751E+01  2.4434595E+01
 1.6738251E+01  2.4436867E+01
 1.6749750E+01  2.4439203E+01
 1.6761251E+01  2.4375994E+01
 1.6772751E+01  2.4355818E+01
 1.6784250E+01  2.4302410E+01
 1.6795752E+01  2.4334492E+01
 1.6807251E+01  2.4343981E+01
 1.6818750E+01  2.4369694E+01
 1.6830252E+01  2.4347820E+01
 1.6841751E+01  2.4321112E+01
 1.6853251E+01  2.4255751E+01
 1.6864750E+01  2.4238678E+01
 1.6876251E+01  2.4204065E+01
 1.6887751E+01  2.4209839E+01
 1.6899250E+01  2.4170822E+01
 1.6910751E+01  2.4157791E+01
 1.6922251E+01  2.4171480E+01
 1.6933750E+01  2.4193148E+01
 1.6945251E+01  2.4224764E+01
 1.6956751E+01  2.4198227E+01
 1.6968250E+01  2.4172153E+01
 1.6979752E+01  2.4141212E+01
 1.6991251E+01  2.4112457E+01
 1.7002750E+01  2.4087883E+01
 1.7014252E+01  2.4138615E+01
 1.7025751E+01  2.4164394E+01
 1.7037251E+01  2.4169525E+01
 1.7048750E+01  2.4110657E+01
 1.7060251E+01  2.4089613E+01
 1.7071751E+01  2.4064529E+01
 1.7083250E+01  2.4091438E+01
 1.7094751E+01  2.4126944E+01
 1.7106251E+01  2.4139811E+01
 1.7117750E+01  2.4138430E+01
 1.7129251E+01  2.4164419E+01
 1.7140751E+01  2.4174696E+01
 1.7152250E+01  2.4166794E+01
 1.7163752E+01  2.4172647E+01
 1.7175251E+01  2.4182203E+01
 1.7186750E+01  2.4225822E+01
 1.7198252E+01  2.4262152E+01
 1.7209751E+01  2.4300507E+01
 1.7221251E+01  2.4268631E+01
 1.7232750E+01  2.4214062E+01
 1.7244251E+01  2.4118006E+01
 1.7255751E+01  2.4014969E+01
 1.7267250E+01  2.3988060E+01
 1.7278751E+01  2.3990103E+01
 1.7290251E+01  2.4003960E+01
 1.7301750E+01  2.3994106E+01
 1.7313251E+01  2.4002596E+01
 1.7324751E+01  2.4010681E+01
 1.7336250E+01  2.4055349E+01
 1.7347752E+01  2.4053871E+01
 1.7359251E+01  2.4042660E+01
 1.7370750E+01  2.4013031E+01
 1.7382252E+01  2.3992626E+01
 1.7393751E+01  2.3984003E+01
 1.7405251E+01  2.3961388E+01
 1.7416750E+01  2.3944542E+01
 1.7428251E+01  2.3906118E+01
 1.7439751E+01  2.3934868E+01
 1.7451250E+01  2.3952726E+01
 1.7462751E+01  2.3950006E+01
 1.7474251E+01  2.3945982E+01
 1.7485750E+01  2.3998219E+01
 1.7497252E+01  2.3976213E+01
 1.7508751E+01  2.3932055E+01
 1.7520250E+01  2.3850685E+01
 1.7531752E+01  2.3782322E+01
 1.7543251E+01  2.3748802E+01
 1.7554750E+01  2.3739206E+01
 1.7566252E+01  2.3753708E+01
 1.7577751E+01  2.3728378E+01
 1.7589251E+01  2.3753359E+01
 1.7600750E+01  2.3818829E+01
 1.7612251E+01  2.3864670E+01
 1.7623751E+01  2.3858932E+01
 1.7635250E+01  2.3787848E+01
 1.7646751E+01  2.3744226E+01
 1.7658251E+01  2.3761703E+01
 1.7669750E+01  2.3842798E+01
 1.7681252E+01  2.3880655E+01
 1.7692751E+01  2.3859673E+01
 1.7704250E+01  2.3771914E+01
 1.7715752E+01  2.3726780E+01
 1.7727251E+01  2.3677097E+01
 1.7738750E+01  2.3659988E+01
 1.7750252E+01  2.3620359E+01
 1.7761751E+01  2.3634857E+01
 1.7773251E+01  2.3677601E+01
 1.7784750E+01  2.3724880E+01
 1.7796251E+01  2.3742710E+01
 1.7807751E+01  2.3698250E+01
 1.7819250E+01  2.3660273E+01
 1.7830751E+01  2.3620178E+01
 1.7842251E+01  2.3662956E+01
 1.7853750E+01  2.3640060E+01
 1.7865252E+01  2.3673710E+01
 1.7876751E+01  2.3660252E+01
 1.7888250E+01  2.3674971E+01
 1.7899752E+01  2.3674517E+01
 1.7911251E+01  2.3679180E+01
 1.7922750E+01  2.3698359E+01
 1.7934252E+01  2.3652246E+01
 1.7945751E+01  2.3634695E+01
 1.7957251E+01  2.3588608E+01
 1.7968750E+01  2.3589674E+01
 1.7980251E+01  2.3626244E+01
 1.7991751E+01  2.3728601E+01
 1.8003250E+01  2.3847240E+01
 1.8014751E+01  2.3924822E+01
 1.8026251E+01  2.3918318E+01
 1.8037750E+01  2.3967764E+01
 1.8049252E+01  2.3933128E+01
 1.8060751E+01  2.3990719E+01
 1.8072250E+01  2.4054482E+01
 1.8083752E+01  2.4077658E+01
 1.8095251E+01  2.4116901E+01
 1.8106750E+01  2.4066959E+01
 1.8118252E+01  2.4106871E+01
 1.8129751E+01  2.4031254E+01
 1.8141251E+01  2.4010540E+01
 1.8152750E+01  2.3971348E+01
 1.8164251E+01  2.3947758E+01
 1.8175751E+01  2.3907682E+01
 1.8187250E+01  2.3838758E+01
 1.8198751E+01  2.3750872E+01
 1.8210251E+01  2.3699671E+01
 1.8221750E+01  2.3612621E+01
 1.8233252E+01  2.3559687E+01
 1.8244751E+01  2.3523882E+01
 1.8256250E+01  2.3522198E+01
 1.8267752E+01  2.3505686E+01
 1.8279251E+01  2.3529200E+01
 1.8290751E+01  2.3563036E+01
 1.8302252E+01  2.3570202E+01
 1.8313751E+01  2.3549170E+01
 1.8325251E+01  2.3557234E+01
 1.8336750E+01  2.3625324E+01
 1.8348251E+01  2.3618156E+01
 1.8359751E+01  2.3661457E+01
 1.8371250E+01  2.3671570E+01
 1.8382751E+01  2.3757658E+01
 1.8394251E+01  2.3729790E+01
 1.8405750E+01  2.3694448E+01
 1.8417252E+01  2.3598787E+01
 1.8428751E+01  2.3522099E+01
 1.8440250E+01  2.3474365E+01
 1.8451752E+01  2.3468210E+01
 1.8463251E+01  2.3492735E+01
 1.8474751E+01  2.3503168E+01
 1.8486252E+01  2.3477272E+01
 1.8497751E+01  2.3472986E+01
 1.8509251E+01  2.3461916E+01
 1.8520750E+01  2.3491995E+01
 1.8532251E+01  2.3515005E+01
 1.8543751E+01  2.3548925E+01
 1.8555250E+01  2.3569202E+01
 1.8566751E+01  2.3584459E+01
 1.8578251E+01  2.3581959E+01
 1.8589750E+01  2.3571207E+01
 1.8601252E+01  2.3560017E+01
 1.8612751E+01  2.3504980E+01
 1.8624250E+01  2.3443882E+01
 1.8635752E+01  2.3420959E+01
 1.8647251E+01  2.3418783E+01
 1.8658751E+01  2.3419744E+01
 1.8670252E+01  2.3405802E+01
 1.8681751E+01  2.3410114E+01
 1.8693251E+01  2.3436865E+01
 1.8704750E+01  2.3447281E+01
 1.8716251E+01  2.3470730E+01
 1.8727751E+01  2.3469976E+01
 1.8739250E+01  2.3447006E+01
 1.8750751E+01  2.3446255E+01
 1.8762251E+01  2.3421665E+01
 1.8773750E+01  2.3437649E+01
 1.8785252E+01  2.3467812E+01
 1.8796751E+01  2.3524570E+01
 1.8808250E+01  2.3472437E+01
 1.8819752E+01  2.3447939E+01
 1.8831251E+01  2.3429001E+01
 1.8842751E+01  2.3442421E+01
 1.8854252E+01  2.3420671E+01
 1.8865751E+01  2.3385361E+01
 1.8877251E+01  2.3404627E+01
 1.8888750E+01  2.3387680E+01
 1.8900251E+01  2.3443390E+01
 1.8911751E+01  2.3433607E+01
 1.8923250E+01  2.3472071E+01
 1.8934752E+01  2.3460838E+01
 1.8946251E+01  2.3486042E+01
 1.8957750E+01  2.3433487E+01
 1.8969252E+01  2.3372068E+01
 1.8980751E+01  2.3290062E+01
 1.8992250E+01  2.3282782E+01
 1.9003752E+01  2.3325243E+01
 1.9015251E+01  2.3420923E+01
 1.9026751E+01  2.3486494E+01
 1.9038252E+01  2.3516867E+01
 1.9049751E+01  2.3515127E+01
 1.9061251E+01  2.3517473E+01
 1.9072750E+01  2.3520182E+01
 1.9084251E+01  2.3542824E+01
 1.9095751E+01  2.3535009E+01
 1.9107250E+01  2.3500725E+01
 1.9118752E+01  2.3430351E+01
 1.9130251E+01  2.3447279E+01
 1.9141750E+01  2.3458807E+01
 1.9153252E+01  2.3502331E+01
 1.9164751E+01  2.3445971E+01
 1.9176250E+01  2.3424314E+01
 1.9187752E+01  2.3432083E+01
 1.9199251E+01  2.3456770E+01
 1.9210751E+01  2.3482191E+01
 1.9222252E+01  2.3476139E+01
 1.9233751E+01  2.3469458E+01
 1.9245251E+01  2.3535858E+01
 1.9256750E+01  2.3640228E+01
 1.9268251E+01  2.3638800E+01
 1.9279751E+01  2.3548117E+01
 1.9291250E+01  2.3489857E+01
 1.9302752E+01  2.3493633E+01
 1.9314251E+01  2.3500307E+01
 1.9325750E+01  2.3484682E+01
 1.9337252E+01  2.3532825E+01
 1.9348751E+01  2.3530779E+01
 1.9360250E+01  2.3586378E+01
 1.9371752E+01  2.3556217E+01
 1.9383251E+01  2.3565401E+01
 1.9394751E+01  2.3560261E+01
 1.9406250E+01  2.3560198E+01
 1.9417751E+01  2.3562471E+01
 1.9429251E+01  2.3573673E+01
 1.9440750E+01  2.3612484E+01
 1.9452251E+01  2.3581867E+01
 1.9463751E+01  2.3554266E+01
 1.9475250E+01  2.3539347E+01
 1.9486752E+01  2.3539085E+01
 1.9498251E+01  2.3532469E+01
 1.9509750E+01  2.3506126E+01
 1.9521252E+01  2.3493853E+01
 1.9532751E+01  2.3525194E+01
 1.9544250E+01  2.3564507E+01
 1.9555752E+01  2.3556715E+01
 1.9567251E+01  2.3550449E+01
 1.9578751E+01  2.3566093E+01
 1.9590250E+01  2.3621399E+01
 1.9601751E+01  2.3663696E+01
 1.9613251E+01  2.3687037E+01
 1.9624750E+01  2.3659388E+01
 1.9636251E+01  2.3664494E+01
 1.9647751E+01  2.3678827E+01
 1.9659250E+01  2.3746258E+01
 1.9670752E+01  2.3803562E+01
 1.9682251E+01  2.3909245E+01
 1.9693750E+01  2.4022215E+01
 1.9705252E+01  2.4131542E+01
 1.9716751E+01  2.4240038E+01
 1.9728251E+01  2.4265760E+01
 1.9739752E+01  2.4259615E+01
 1.9751251E+01  2.4195158E+01
 1.9762751E+01  2.4140135E+01
 1.9774250E+01  2.4082834E+01
 1.9785751E+01  2.4033567E+01
 1.9797251E+01  2.4018156E+01
 1.9808750E+01  2.4038210E+01
 1.9820251E+01  2.4104677E+01
 1.9831751E+01  2.4258265E+01
 1.9843250E+01  2.4334763E+01
 1.9854752E+01  2.4339201E+01
 1.9866251E+01  2.4292307E+01
 1.9877750E+01  2.4271309E+01
 1.9889252E+01  2.4215313E+01
 1.9900751E+01  2.4267899E+01
 1.9912251E+01  2.4251308E+01
 1.9923752E+01  2.4193224E+01
 1.9935251E+01  2.3914265E+01
 1.9946751E+01  2.3842728E+01
 1.9958250E+01  2.3778030E+01
 1.9969751E+01  2.3728247E+01
 1.9981251E+01  2.3618320E+01
 1.9992750E+01  2.3564215E+01
 2.0004251E+01  2.3544342E+01
 2.0015751E+01  2.3560087E+01
 2.0027250E+01  2.3576849E+01
 2.0038752E+01  2.3617517E+01
 2.0050251E+01  2.3642200E+01
 2.0061750E+01  2.3587538E+01
 2.0073252E+01  2.3562378E+01
 2.0084751E+01  2.3567528E+01
 2.0096251E+01  2.3562611E+01
 2.0107752E+01  2.3555954E+01
 2.0119251E+01  2.3534103E+01
 2.0130751E+01  2.3549763E+01
 2.0142250E+01  2.3575039E+01
 2.0153751E+01  2.3617443E+01
 2.0165251E+01  2.3608067E+01
 2.0176750E+01  2.3570208E+01
 2.0188251E+01  2.3526920E+01
 2.0199751E+01  2.3512712E+01
 2.0211250E+01  2.3511959E+01
 2.0222752E+01  2.3581608E+01
 2.0234251E+01  2.3650587E+01
 2.0245750E+01  2.3681421E+01
 2.0257252E+01  2.3674076E+01
 2.0268751E+01  2.3661079E+01
 2.0280251E+01  2.3660442E+01
 2.0291752E+01  2.3647993E+01
 2.0303251E+01  2.3590405E+01
 2.0314751E+01  2.3559475E+01
 2.0326250E+01  2.3539286E+01
 2.0337751E+01  2.3586800E+01
 2.0349251E+01  2.3613344E+01
 2.0360750E+01  2.3636511E+01
 2.0372252E+01  2.3652657E+01
 2.0383751E+01  2.3624268E+01
 2.0395250E+01  2.3636618E+01
 2.0406752E+01  2.3640364E+01
 2.0418251E+01  2.3682835E+01
 2.0429750E+01  2.3728342E+01
 2.0441252E+01  2.3743944E+01
 2.0452751E+01  2.3714014E+01
 2.0464251E+01  2.3650194E+01
 2.0475752E+01  2.3605560E+01
 2.0487251E+01  2.3566362E+01
 2.0498751E+01  2.3578691E+01
 2.0510250E+01  2.3576933E+01
 2.0521751E+01  2.3581831E+01
 2.0533251E+01  2.3593872E+01
 2.0544750E+01  2.3661709E+01
 2.0556252E+01  2.3714027E+01
 2.0567751E+01  2.3738352E+01
 2.0579250E+01  2.3713514E+01
 2.0590752E+01  2.3749966E+01
 2.0602251E+01  2.3767494E+01
 2.0613750E+01  2.3742247E+01
 2.0625252E+01  2.3685583E+01
 2.0636751E+01  2.3667202E+01
 2.0648251E+01  2.3686462E+01
 2.0659752E+01  2.3727221E+01
 2.0671251E+01  2.3774885E+01
 2.0682751E+01  2.3867258E+01
 2.0694250E+01  2.3943726E+01
 2.0705751E+01  2.4042498E+01
 2.0717251E+01  2.4349632E+01
 2.0728750E+01  2.4455647E+01
 2.0740252E+01  2.4830269E+01
 2.0751751E+01  2.5029379E+01
 2.0763250E+01  2.5192684E+01
 2.0774752E+01  2.5252943E+01
 2.0786251E+01  2.5068384E+01
 2.0797750E+01  2.4951706E+01
 2.0809252E+01  2.4471233E+01
 2.0820751E+01  2.4404600E+01
 2.0832251E+01  2.4066002E+01
 2.0843752E+01  2.3956455E+01
 2.0855251E+01  2.3827385E+01
 2.0866751E+01  2.3763166E+01
 2.0878250E+01  2.3733772E+01
 2.0889751E+01  2.3731951E+01
 2.0901251E+01  2.3749538E+01
 2.0912750E+01  2.3770672E+01
 2.0924252E+01  2.3788273E+01
 2.0935751E+01  2.3829546E+01
 2.0947250E+01  2.3841419E+01
 2.0958752E+01  2.3801237E+01
 2.0970251E+01  2.3807056E+01
 2.0981750E+01  2.3817129E+01
 2.0993252E+01  2.3884966E+01
 2.1004751E+01  2.3910597E+01
 2.1016251E+01  2.3933044E+01
 2.1027752E+01  2.3896955E+01
 2.1039251E+01  2.3837526E+01
 2.1050751E+01  2.3795759E+01
 2.1062250E+01  2.3766010E+01
 2.1073751E+01  2.3749828E+01
 2.1085251E+01  2.3708509E+01
 2.1096750E+01  2.3688295E+01
 2.1108252E+01  2.3712654E+01
 2.1119751E+01  2.3722387E+01
 2.1131250E+01  2.3727510E+01
 2.1142752E+01  2.3664463E+01
 2.1154251E+01  2.3658243E+01
 2.1165751E+01  2.3685339E+01
 2.1177252E+01  2.3766726E+01
 2.1188751E+01  2.3789307E+01
 2.1200251E+01  2.3803871E+01
 2.1211752E+01  2.3792017E+01
 2.1223251E+01  2.3813665E+01
 2.1234751E+01  2.3798895E+01
 2.1246250E+01  2.3850637E+01
 2.1257751E+01  2.3892002E+01
 2.1269251E+01  2.3920179E+01
 2.1280750E+01  2.3870081E+01
 2.1292252E+01  2.3823750E+01
 2.1303751E+01  2.3793535E+01
 2.1315250E+01  2.3767672E+01
 2.1326752E+01  2.3796511E+01
 2.1338251E+01  2.3851013E+01
 2.1349751E+01  2.3889034E+01
 2.1361252E+01  2.3908588E+01
 2.1372751E+01  2.3864939E+01
 2.1384251E+01  2.3807625E+01
 2.1395752E+01  2.3769009E+01
 2.1407251E+01  2.3745926E+01
 2.1418751E+01  2.3742369E+01
 2.1430250E+01  2.3774384E+01
 2.1441751E+01  2.3750175E+01
 2.1453251E+01  2.3745371E+01
 2.1464750E+01  2.3730505E+01
 2.1476252E+01  2.3752613E+01
 2.1487751E+01  2.3777054E+01
 2.1499250E+01  2.3847202E+01
 2.1510752E+01  2.3863548E+01
 2.1522251E+01  2.3879881E+01
 2.1533751E+01  2.3864452E+01
 2.1545252E+01  2.3917921E+01
 2.1556751E+01  2.3940067E+01
 2.1568251E+01  2.3970634E+01
 2.1579752E+01  2.3982052E+01
 2.1591251E+01  2.4041389E+01
 2.1602751E+01  2.4058594E+01
 2.1614250E+01  2.4075951E+01
 2.1625751E+01  2.4058605E+01
 2.1637251E+01  2.4091736E+01
 2.1648750E+01  2.4083359E+01
 2.1660252E+01  2.4083757E+01
 2.1671751E+01  2.4022161E+01
 2.1683250E+01  2.4021751E+01
 2.1694752E+01  2.4015776E+01
 2.1706251E+01  2.4034670E+01
 2.1717751E+01  2.4033960E+01
 2.1729252E+01  2.4047583E+01
 2.1740751E+01  2.4100067E+01
 2.1752251E+01  2.4101719E+01
 2.1763752E+01  2.4109028E+01
 2.1775251E+01  2.4090237E+01
 2.1786751E+01  2.4087534E+01
 2.1798250E+01  2.4064409E+01
 2.1809752E+01  2.4068693E+01
 2.1821251E+01  2.4111509E+01
 2.1832750E+01  2.4066648E+01
 2.1844252E+01  2.4104246E+01
 2.1855751E+01  2.4130119E+01
 2.1867250E+01  2.4148870E+01
 2.1878752E+01  2.4133686E+01
 2.1890251E+01  2.4118761E+01
 2.1901751E+01  2.4131790E+01
 2.1913252E+01  2.4125687E+01
 2.1924751E+01  2.4144178E+01
 2.1936251E+01  2.4154968E+01
 2.1947752E+01  2.4163757E+01
 2.1959251E+01  2.4120398E+01
 2.1970751E+01  2.4082052E+01
 2.1982250E+01  2.4012222E+01
 2.1993752E+01  2.4047832E+01
 2.2005251E+01  2.4088692E+01
 2.2016750E+01  2.4161379E+01
 2.2028252E+01  2.4179632E+01
 2.2039751E+01  2.4196320E+01
 2.2051250E+01  2.4150284E+01
 2.2062752E+01  2.4114450E+01
 2.2074251E+01  2.4121912E+01
 2.2085751E+01  2.4168346E+01
 2.2097252E+01  2.4191168E+01
 2.2108751E+01  2.4201195E+01
 2.2120251E+01  2.4267799E+01
 2.2131752E+01  2.4260044E+01
 2.2143251E+01  2.4278763E+01
 2.2154751E+01  2.4240784E+01
 2.2166250E+01  2.4255615E+01
 2.2177752E+01  2.4209217E+01
 2.2189251E+01  2.4236128E+01
 2.2200750E+01  2.4274565E+01
 2.2212252E+01  2.4307762E+01
 2.2223751E+01  2.4319134E+01
 2.2235250E+01  2.4323732E+01
 2.2246752E+01  2.4366779E+01
 2.2258251E+01  2.4357317E+01
 2.2269751E+01  2.4380827E+01
 2.2281252E+01  2.4353769E+01
 2.2292751E+01  2.4356588E+01
 2.2304251E+01  2.4356424E+01
 2.2315752E+01  2.4389359E+01
 2.2327251E+01  2.4389313E+01
 2.2338751E+01  2.4388136E+01
 2.2350250E+01  2.4410048E+01
 2.2361752E+01  2.4432451E+01
 2.2373251E+01  2.4479883E+01
 2.2384750E+01  2.4477428E+01
 2.2396252E+01  2.4473692E+01
 2.2407751E+01  2.4415426E+01
 2.2419250E+01  2.4434862E+01
 2.2430752E+01  2.4478409E+01
 2.2442251E+01  2.4553528E+01
 2.2453751E+01  2.4571566E+01
 2.2465252E+01  2.4538807E+01
 2.2476751E+01  2.4484037E+01
 2.2488251E+01  2.4490608E+01
 2.2499752E+01  2.4528307E+01
 2.2511251E+01  2.4561438E+01
 2.2522751E+01  2.4567682E+01
 2.2534250E+01  2.4560505E+01
 2.2545752E+01  2.4623398E+01
 2.2557251E+01  2.4637058E+01
 2.2568750E+01  2.4635637E+01
 2.2580252E+01  2.4660940E+01
 2.2591751E+01  2.4725084E+01
 2.2603251E+01  2.4778429E+01
 2.2614752E+01  2.4888727E+01
 2.2626251E+01  2.4981979E+01
 2.2637751E+01  2.4973230E+01
 2.2649252E+01  2.4892673E+01
 2.2660751E+01  2.4867207E+01
 2.2672251E+01  2.4913054E+01
 2.2683752E+01  2.4993616E+01
 2.2695251E+01  2.5114670E+01
 2.2706751E+01  2.5116297E+01
 2.2718250E+01  2.5157118E+01
 2.2729752E+01  2.5138828E+01
 2.2741251E+01  2.5121660E+01
 2.2752750E+01  2.5112020E+01
 2.2764252E+01  2.5137579E+01
 2.2775751E+01  2.5183088E+01
 2.2787251E+01  2.5194510E+01
 2.2798752E+01  2.5227093E+01
 2.2810251E+01  2.5252378E+01
 2.2821751E+01  2.5306360E+01
 2.2833252E+01  2.5346184E+01
 2.2844751E+01  2.5390463E+01
 2.2856251E+01  2.5419083E+01
 2.2867750E+01  2.5464581E+01
 2.2879251E+01  2.5532503E+01
 2.2890751E+01  2.5609072E+01
 2.2902250E+01  2.5656437E+01
 2.2913752E+01  2.5749638E+01
 2.2925251E+01  2.5838778E+01
 2.2936750E+01  2.5826250E+01
 2.2948252E+01  2.5839256E+01
 2.2959751E+01  2.5811829E+01
 2.2971251E+01  2.5902658E+01
 2.2982752E+01  2.5976456E+01
 2.2994251E+01  2.6098516E+01
