F:\20151113_APS_34IDE\\Brian\Particle1\OCV\Data_0064.tif
2-Theta Angle (Degrees)
Intensity
       2000
 5.7500005E-03  0.0000000E+00
 1.7250001E-02  0.0000000E+00
 2.8750001E-02  0.0000000E+00
 4.0250003E-02  0.0000000E+00
 5.1750004E-02  0.0000000E+00
 6.3250005E-02  0.0000000E+00
 7.4750006E-02  0.0000000E+00
 8.6250007E-02  0.0000000E+00
 9.7750008E-02  0.0000000E+00
 1.0925001E-01  0.0000000E+00
 1.2075000E-01  0.0000000E+00
 1.3225001E-01  0.0000000E+00
 1.4375001E-01  0.0000000E+00
 1.5525001E-01  0.0000000E+00
 1.6675001E-01  0.0000000E+00
 1.7825001E-01  0.0000000E+00
 1.8975002E-01  0.0000000E+00
 2.0125002E-01  0.0000000E+00
 2.1275002E-01  0.0000000E+00
 2.2425000E-01  0.0000000E+00
 2.3575000E-01  0.0000000E+00
 2.4725001E-01  0.0000000E+00
 2.5875002E-01  0.0000000E+00
 2.7025002E-01  0.0000000E+00
 2.8175002E-01  0.0000000E+00
 2.9325002E-01  0.0000000E+00
 3.0475003E-01  0.0000000E+00
 3.1625003E-01  0.0000000E+00
 3.2775003E-01  0.0000000E+00
 3.3925003E-01  0.0000000E+00
 3.5075003E-01  0.0000000E+00
 3.6225003E-01  0.0000000E+00
 3.7375003E-01  0.0000000E+00
 3.8525003E-01  0.0000000E+00
 3.9675003E-01  0.0000000E+00
 4.0825003E-01  0.0000000E+00
 4.1975003E-01  0.0000000E+00
 4.3125004E-01  0.0000000E+00
 4.4275001E-01  0.0000000E+00
 4.5425001E-01  0.0000000E+00
 4.6575001E-01  0.0000000E+00
 4.7725001E-01  0.0000000E+00
 4.8875001E-01  0.0000000E+00
 5.0025004E-01  0.0000000E+00
 5.1175004E-01  0.0000000E+00
 5.2325004E-01  0.0000000E+00
 5.3475004E-01  0.0000000E+00
 5.4625005E-01  0.0000000E+00
 5.5775005E-01  0.0000000E+00
 5.6925005E-01  0.0000000E+00
 5.8075005E-01  0.0000000E+00
 5.9225005E-01  0.0000000E+00
 6.0375005E-01  0.0000000E+00
 6.1525005E-01  0.0000000E+00
 6.2675005E-01  0.0000000E+00
 6.3825005E-01  0.0000000E+00
 6.4975005E-01  0.0000000E+00
 6.6125005E-01  0.0000000E+00
 6.7275006E-01  0.0000000E+00
 6.8425006E-01  0.0000000E+00
 6.9575006E-01  0.0000000E+00
 7.0725006E-01  0.0000000E+00
 7.1875006E-01  0.0000000E+00
 7.3025006E-01  0.0000000E+00
 7.4175006E-01  0.0000000E+00
 7.5325006E-01  0.0000000E+00
 7.6475006E-01  0.0000000E+00
 7.7625006E-01  0.0000000E+00
 7.8775007E-01  0.0000000E+00
 7.9925007E-01  0.0000000E+00
 8.1075007E-01  0.0000000E+00
 8.2225007E-01  0.0000000E+00
 8.3375007E-01  0.0000000E+00
 8.4525007E-01  0.0000000E+00
 8.5675007E-01  0.0000000E+00
 8.6825007E-01  0.0000000E+00
 8.7975001E-01  0.0000000E+00
 8.9125001E-01  0.0000000E+00
 9.0275002E-01  0.0000000E+00
 9.1425002E-01  0.0000000E+00
 9.2575002E-01  0.0000000E+00
 9.3725002E-01  0.0000000E+00
 9.4875002E-01  0.0000000E+00
 9.6025002E-01  0.0000000E+00
 9.7175002E-01  0.0000000E+00
 9.8325002E-01  0.0000000E+00
 9.9475002E-01  0.0000000E+00
 1.0062500E+00  0.0000000E+00
 1.0177500E+00  0.0000000E+00
 1.0292500E+00  0.0000000E+00
 1.0407500E+00  0.0000000E+00
 1.0522500E+00  0.0000000E+00
 1.0637500E+00  0.0000000E+00
 1.0752500E+00  0.0000000E+00
 1.0867500E+00  0.0000000E+00
 1.0982500E+00  0.0000000E+00
 1.1097500E+00  0.0000000E+00
 1.1212500E+00  0.0000000E+00
 1.1327500E+00  0.0000000E+00
 1.1442500E+00  0.0000000E+00
 1.1557500E+00  0.0000000E+00
 1.1672500E+00  0.0000000E+00
 1.1787500E+00  0.0000000E+00
 1.1902500E+00  0.0000000E+00
 1.2017500E+00  0.0000000E+00
 1.2132500E+00  0.0000000E+00
 1.2247500E+00  0.0000000E+00
 1.2362500E+00  0.0000000E+00
 1.2477500E+00  0.0000000E+00
 1.2592500E+00  0.0000000E+00
 1.2707500E+00  0.0000000E+00
 1.2822500E+00  0.0000000E+00
 1.2937500E+00  0.0000000E+00
 1.3052500E+00  0.0000000E+00
 1.3167500E+00  0.0000000E+00
 1.3282501E+00  0.0000000E+00
 1.3397501E+00  0.0000000E+00
 1.3512501E+00  0.0000000E+00
 1.3627501E+00  0.0000000E+00
 1.3742501E+00  0.0000000E+00
 1.3857501E+00  0.0000000E+00
 1.3972501E+00  0.0000000E+00
 1.4087501E+00  0.0000000E+00
 1.4202501E+00  0.0000000E+00
 1.4317501E+00  0.0000000E+00
 1.4432501E+00  0.0000000E+00
 1.4547501E+00  0.0000000E+00
 1.4662501E+00  0.0000000E+00
 1.4777501E+00  0.0000000E+00
 1.4892501E+00  0.0000000E+00
 1.5007501E+00  0.0000000E+00
 1.5122501E+00  0.0000000E+00
 1.5237501E+00  0.0000000E+00
 1.5352501E+00  0.0000000E+00
 1.5467501E+00  0.0000000E+00
 1.5582501E+00  0.0000000E+00
 1.5697501E+00  0.0000000E+00
 1.5812501E+00  0.0000000E+00
 1.5927501E+00  0.0000000E+00
 1.6042501E+00  0.0000000E+00
 1.6157501E+00  0.0000000E+00
 1.6272501E+00  0.0000000E+00
 1.6387501E+00  0.0000000E+00
 1.6502501E+00  0.0000000E+00
 1.6617501E+00  0.0000000E+00
 1.6732501E+00  0.0000000E+00
 1.6847501E+00  0.0000000E+00
 1.6962501E+00  0.0000000E+00
 1.7077501E+00  0.0000000E+00
 1.7192501E+00  0.0000000E+00
 1.7307501E+00  0.0000000E+00
 1.7422501E+00  0.0000000E+00
 1.7537501E+00  0.0000000E+00
 1.7652501E+00  0.0000000E+00
 1.7767501E+00  0.0000000E+00
 1.7882501E+00  0.0000000E+00
 1.7997501E+00  0.0000000E+00
 1.8112501E+00  0.0000000E+00
 1.8227501E+00  0.0000000E+00
 1.8342501E+00  0.0000000E+00
 1.8457501E+00  0.0000000E+00
 1.8572501E+00  0.0000000E+00
 1.8687501E+00  0.0000000E+00
 1.8802501E+00  0.0000000E+00
 1.8917501E+00  0.0000000E+00
 1.9032501E+00  0.0000000E+00
 1.9147501E+00  0.0000000E+00
 1.9262501E+00  0.0000000E+00
 1.9377501E+00  0.0000000E+00
 1.9492501E+00  0.0000000E+00
 1.9607501E+00  0.0000000E+00
 1.9722501E+00  0.0000000E+00
 1.9837501E+00  0.0000000E+00
 1.9952501E+00  0.0000000E+00
 2.0067501E+00  0.0000000E+00
 2.0182500E+00  0.0000000E+00
 2.0297501E+00  0.0000000E+00
 2.0412500E+00  0.0000000E+00
 2.0527501E+00  0.0000000E+00
 2.0642500E+00  0.0000000E+00
 2.0757501E+00  0.0000000E+00
 2.0872500E+00  0.0000000E+00
 2.0987501E+00  0.0000000E+00
 2.1102500E+00  0.0000000E+00
 2.1217501E+00  0.0000000E+00
 2.1332500E+00  0.0000000E+00
 2.1447501E+00  0.0000000E+00
 2.1562500E+00  0.0000000E+00
 2.1677501E+00  0.0000000E+00
 2.1792500E+00  0.0000000E+00
 2.1907501E+00  0.0000000E+00
 2.2022500E+00  0.0000000E+00
 2.2137501E+00  0.0000000E+00
 2.2252500E+00  0.0000000E+00
 2.2367501E+00  0.0000000E+00
 2.2482500E+00  0.0000000E+00
 2.2597501E+00  0.0000000E+00
 2.2712500E+00  0.0000000E+00
 2.2827501E+00  0.0000000E+00
 2.2942500E+00  0.0000000E+00
 2.3057501E+00  0.0000000E+00
 2.3172500E+00  0.0000000E+00
 2.3287501E+00  0.0000000E+00
 2.3402500E+00  0.0000000E+00
 2.3517501E+00  0.0000000E+00
 2.3632500E+00  0.0000000E+00
 2.3747501E+00  0.0000000E+00
 2.3862500E+00  0.0000000E+00
 2.3977501E+00  0.0000000E+00
 2.4092500E+00  0.0000000E+00
 2.4207501E+00  0.0000000E+00
 2.4322500E+00  0.0000000E+00
 2.4437501E+00  0.0000000E+00
 2.4552500E+00  0.0000000E+00
 2.4667501E+00  0.0000000E+00
 2.4782500E+00  0.0000000E+00
 2.4897501E+00  0.0000000E+00
 2.5012500E+00  0.0000000E+00
 2.5127501E+00  0.0000000E+00
 2.5242500E+00  0.0000000E+00
 2.5357502E+00  0.0000000E+00
 2.5472500E+00  0.0000000E+00
 2.5587502E+00  0.0000000E+00
 2.5702500E+00  0.0000000E+00
 2.5817502E+00  0.0000000E+00
 2.5932500E+00  0.0000000E+00
 2.6047502E+00  0.0000000E+00
 2.6162500E+00  0.0000000E+00
 2.6277502E+00  0.0000000E+00
 2.6392500E+00  0.0000000E+00
 2.6507502E+00  0.0000000E+00
 2.6622500E+00  0.0000000E+00
 2.6737502E+00  0.0000000E+00
 2.6852500E+00  0.0000000E+00
 2.6967502E+00  0.0000000E+00
 2.7082500E+00  0.0000000E+00
 2.7197502E+00  0.0000000E+00
 2.7312500E+00  0.0000000E+00
 2.7427502E+00  0.0000000E+00
 2.7542500E+00  0.0000000E+00
 2.7657502E+00  0.0000000E+00
 2.7772501E+00  0.0000000E+00
 2.7887502E+00  0.0000000E+00
 2.8002501E+00  0.0000000E+00
 2.8117502E+00  0.0000000E+00
 2.8232501E+00  3.4621773E+01
 2.8347502E+00  3.4655514E+01
 2.8462501E+00  3.4886204E+01
 2.8577502E+00  3.4986588E+01
 2.8692501E+00  3.5591923E+01
 2.8807502E+00  3.5760681E+01
 2.8922501E+00  3.6124062E+01
 2.9037502E+00  3.5823490E+01
 2.9152501E+00  3.5944771E+01
 2.9267502E+00  3.5697113E+01
 2.9382501E+00  3.5720146E+01
 2.9497502E+00  3.5450199E+01
 2.9612501E+00  3.5226002E+01
 2.9727502E+00  3.5170860E+01
 2.9842501E+00  3.5501411E+01
 2.9957502E+00  3.6251904E+01
 3.0072501E+00  3.6683571E+01
 3.0187502E+00  3.6956947E+01
 3.0302501E+00  3.6745346E+01
 3.0417502E+00  3.6648918E+01
 3.0532501E+00  3.6020683E+01
 3.0647502E+00  3.5174049E+01
 3.0762501E+00  3.4704689E+01
 3.0877502E+00  3.4180149E+01
 3.0992501E+00  3.4395020E+01
 3.1107502E+00  3.4561672E+01
 3.1222501E+00  3.4942604E+01
 3.1337502E+00  3.5296638E+01
 3.1452501E+00  3.5619148E+01
 3.1567502E+00  3.5734646E+01
 3.1682501E+00  3.5573620E+01
 3.1797502E+00  3.5236702E+01
 3.1912501E+00  3.4750900E+01
 3.2027502E+00  3.4682137E+01
 3.2142501E+00  3.4312794E+01
 3.2257502E+00  3.4362514E+01
 3.2372501E+00  3.4415016E+01
 3.2487502E+00  3.4532909E+01
 3.2602501E+00  3.4435703E+01
 3.2717502E+00  3.4276806E+01
 3.2832501E+00  3.3822334E+01
 3.2947502E+00  3.3768005E+01
 3.3062501E+00  3.3387764E+01
 3.3177502E+00  3.3381298E+01
 3.3292501E+00  3.3331223E+01
 3.3407502E+00  3.3679604E+01
 3.3522501E+00  3.3779686E+01
 3.3637502E+00  3.3585182E+01
 3.3752501E+00  3.3225132E+01
 3.3867502E+00  3.2622608E+01
 3.3982501E+00  3.2472824E+01
 3.4097502E+00  3.2417061E+01
 3.4212501E+00  3.2683567E+01
 3.4327502E+00  3.3001545E+01
 3.4442501E+00  3.3245720E+01
 3.4557502E+00  3.3569275E+01
 3.4672501E+00  3.3720165E+01
 3.4787502E+00  3.3873074E+01
 3.4902501E+00  3.3977116E+01
 3.5017502E+00  3.3842415E+01
 3.5132501E+00  3.3650051E+01
 3.5247502E+00  3.3295368E+01
 3.5362501E+00  3.3472378E+01
 3.5477502E+00  3.3412815E+01
 3.5592501E+00  3.3562885E+01
 3.5707502E+00  3.3472759E+01
 3.5822501E+00  3.3484207E+01
 3.5937502E+00  3.3471951E+01
 3.6052501E+00  3.3242580E+01
 3.6167502E+00  3.2977123E+01
 3.6282501E+00  3.2894398E+01
 3.6397502E+00  3.2792404E+01
 3.6512501E+00  3.2888733E+01
 3.6627502E+00  3.2748665E+01
 3.6742501E+00  3.2593395E+01
 3.6857502E+00  3.2650600E+01
 3.6972501E+00  3.2622341E+01
 3.7087502E+00  3.2625862E+01
 3.7202501E+00  3.2579517E+01
 3.7317502E+00  3.2568367E+01
 3.7432501E+00  3.2658566E+01
 3.7547503E+00  3.2765114E+01
 3.7662501E+00  3.2774918E+01
 3.7777503E+00  3.2908779E+01
 3.7892501E+00  3.2763741E+01
 3.8007503E+00  3.2613834E+01
 3.8122501E+00  3.2360149E+01
 3.8237503E+00  3.2088024E+01
 3.8352501E+00  3.1931332E+01
 3.8467503E+00  3.1731466E+01
 3.8582501E+00  3.1907291E+01
 3.8697503E+00  3.1952950E+01
 3.8812501E+00  3.2209347E+01
 3.8927503E+00  3.2156021E+01
 3.9042501E+00  3.2154457E+01
 3.9157503E+00  3.2013531E+01
 3.9272501E+00  3.1892925E+01
 3.9387503E+00  3.1860634E+01
 3.9502501E+00  3.1993769E+01
 3.9617503E+00  3.2174221E+01
 3.9732502E+00  3.2339813E+01
 3.9847503E+00  3.2314529E+01
 3.9962502E+00  3.2323307E+01
 4.0077500E+00  3.2283901E+01
 4.0192504E+00  3.2345737E+01
 4.0307503E+00  3.2264103E+01
 4.0422502E+00  3.2034599E+01
 4.0537500E+00  3.1868395E+01
 4.0652504E+00  3.1668962E+01
 4.0767503E+00  3.1552937E+01
 4.0882502E+00  3.1504076E+01
 4.0997500E+00  3.1487225E+01
 4.1112504E+00  3.1580753E+01
 4.1227503E+00  3.1664057E+01
 4.1342502E+00  3.1683128E+01
 4.1457500E+00  3.1768896E+01
 4.1572504E+00  3.1639828E+01
 4.1687503E+00  3.1664049E+01
 4.1802502E+00  3.1610952E+01
 4.1917500E+00  3.1632647E+01
 4.2032504E+00  3.1661976E+01
 4.2147503E+00  3.1621901E+01
 4.2262502E+00  3.1697491E+01
 4.2377501E+00  3.1707605E+01
 4.2492504E+00  3.1745609E+01
 4.2607503E+00  3.1823790E+01
 4.2722502E+00  3.1806561E+01
 4.2837501E+00  3.1969099E+01
 4.2952504E+00  3.1859791E+01
 4.3067503E+00  3.1867514E+01
 4.3182502E+00  3.1777843E+01
 4.3297501E+00  3.1867880E+01
 4.3412504E+00  3.1784258E+01
 4.3527503E+00  3.1804546E+01
 4.3642502E+00  3.1954483E+01
 4.3757501E+00  3.2236835E+01
 4.3872504E+00  3.2354877E+01
 4.3987503E+00  3.2434174E+01
 4.4102502E+00  3.2466866E+01
 4.4217501E+00  3.2526718E+01
 4.4332504E+00  3.2339691E+01
 4.4447503E+00  3.2230335E+01
 4.4562502E+00  3.2108181E+01
 4.4677501E+00  3.2151211E+01
 4.4792504E+00  3.2161324E+01
 4.4907503E+00  3.2106583E+01
 4.5022502E+00  3.2168224E+01
 4.5137501E+00  3.2213924E+01
 4.5252504E+00  3.2295616E+01
 4.5367503E+00  3.2224396E+01
 4.5482502E+00  3.2117813E+01
 4.5597501E+00  3.1927948E+01
 4.5712504E+00  3.1748158E+01
 4.5827503E+00  3.1543024E+01
 4.5942502E+00  3.1550056E+01
 4.6057501E+00  3.1719143E+01
 4.6172504E+00  3.1835257E+01
 4.6287503E+00  3.1995539E+01
 4.6402502E+00  3.2116833E+01
 4.6517501E+00  3.2183449E+01
 4.6632504E+00  3.2270359E+01
 4.6747503E+00  3.2077709E+01
 4.6862502E+00  3.1998154E+01
 4.6977501E+00  3.1761028E+01
 4.7092505E+00  3.1723278E+01
 4.7207503E+00  3.1763592E+01
 4.7322502E+00  3.1832354E+01
 4.7437501E+00  3.1854984E+01
 4.7552505E+00  3.1818962E+01
 4.7667503E+00  3.1977232E+01
 4.7782502E+00  3.1978397E+01
 4.7897501E+00  3.2142490E+01
 4.8012505E+00  3.2030945E+01
 4.8127503E+00  3.2055374E+01
 4.8242502E+00  3.2002735E+01
 4.8357501E+00  3.2082420E+01
 4.8472505E+00  3.2152756E+01
 4.8587503E+00  3.2254597E+01
 4.8702502E+00  3.2155579E+01
 4.8817501E+00  3.2174110E+01
 4.8932505E+00  3.2101089E+01
 4.9047503E+00  3.2211369E+01
 4.9162502E+00  3.2259914E+01
 4.9277501E+00  3.2255203E+01
 4.9392505E+00  3.2311020E+01
 4.9507504E+00  3.2284218E+01
 4.9622502E+00  3.2250076E+01
 4.9737501E+00  3.2310734E+01
 4.9852505E+00  3.2363659E+01
 4.9967504E+00  3.2494164E+01
 5.0082502E+00  3.2599670E+01
 5.0197501E+00  3.2664673E+01
 5.0312505E+00  3.2824757E+01
 5.0427504E+00  3.2729652E+01
 5.0542502E+00  3.2612450E+01
 5.0657501E+00  3.2472893E+01
 5.0772505E+00  3.2532169E+01
 5.0887504E+00  3.2688934E+01
 5.1002502E+00  3.2817692E+01
 5.1117501E+00  3.2870796E+01
 5.1232505E+00  3.2957802E+01
 5.1347504E+00  3.3098721E+01
 5.1462502E+00  3.3190712E+01
 5.1577501E+00  3.3208698E+01
 5.1692505E+00  3.3250729E+01
 5.1807504E+00  3.3288368E+01
 5.1922503E+00  3.3398987E+01
 5.2037501E+00  3.3443237E+01
 5.2152505E+00  3.3471905E+01
 5.2267504E+00  3.3446693E+01
 5.2382503E+00  3.3425606E+01
 5.2497501E+00  3.3398666E+01
 5.2612505E+00  3.3371704E+01
 5.2727504E+00  3.3276848E+01
 5.2842503E+00  3.3310341E+01
 5.2957501E+00  3.3420906E+01
 5.3072500E+00  3.3445477E+01
 5.3187504E+00  3.3499241E+01
 5.3302503E+00  3.3457588E+01
 5.3417501E+00  3.3525196E+01
 5.3532500E+00  3.3502155E+01
 5.3647504E+00  3.3487469E+01
 5.3762503E+00  3.3516689E+01
 5.3877501E+00  3.3696236E+01
 5.3992500E+00  3.3773563E+01
 5.4107504E+00  3.3839977E+01
 5.4222503E+00  3.3781391E+01
 5.4337502E+00  3.3672466E+01
 5.4452500E+00  3.3804470E+01
 5.4567504E+00  3.3881748E+01
 5.4682503E+00  3.4122334E+01
 5.4797502E+00  3.4251549E+01
 5.4912500E+00  3.4225830E+01
 5.5027504E+00  3.4176102E+01
 5.5142503E+00  3.4131657E+01
 5.5257502E+00  3.4133186E+01
 5.5372500E+00  3.4249912E+01
 5.5487504E+00  3.4255589E+01
 5.5602503E+00  3.4482426E+01
 5.5717502E+00  3.4582455E+01
 5.5832500E+00  3.4574154E+01
 5.5947504E+00  3.4514565E+01
 5.6062503E+00  3.4462685E+01
 5.6177502E+00  3.4419350E+01
 5.6292500E+00  3.4354847E+01
 5.6407504E+00  3.4381695E+01
 5.6522503E+00  3.4420158E+01
 5.6637502E+00  3.4651127E+01
 5.6752501E+00  3.4738926E+01
 5.6867504E+00  3.4783421E+01
 5.6982503E+00  3.4713917E+01
 5.7097502E+00  3.4667107E+01
 5.7212501E+00  3.4677776E+01
 5.7327504E+00  3.4656399E+01
 5.7442503E+00  3.4590935E+01
 5.7557502E+00  3.4655380E+01
 5.7672501E+00  3.4645088E+01
 5.7787504E+00  3.4697384E+01
 5.7902503E+00  3.4846054E+01
 5.8017502E+00  3.4961727E+01
 5.8132501E+00  3.5216061E+01
 5.8247504E+00  3.5239479E+01
 5.8362503E+00  3.5639919E+01
 5.8477502E+00  3.5735256E+01
 5.8592501E+00  3.5806454E+01
 5.8707504E+00  3.5689983E+01
 5.8822503E+00  3.5731335E+01
 5.8937502E+00  3.5967842E+01
 5.9052501E+00  3.6306110E+01
 5.9167504E+00  3.6541435E+01
 5.9282503E+00  3.7348427E+01
 5.9397502E+00  3.8542595E+01
 5.9512501E+00  4.0381039E+01
 5.9627504E+00  4.2570393E+01
 5.9742503E+00  4.4104424E+01
 5.9857502E+00  4.5682400E+01
 5.9972501E+00  4.5849373E+01
 6.0087504E+00  4.4808372E+01
 6.0202503E+00  4.2756306E+01
 6.0317502E+00  4.0697227E+01
 6.0432501E+00  3.9304356E+01
 6.0547504E+00  3.8052731E+01
 6.0662503E+00  3.7229870E+01
 6.0777502E+00  3.6788303E+01
 6.0892501E+00  3.6418900E+01
 6.1007504E+00  3.6197933E+01
 6.1122503E+00  3.6111092E+01
 6.1237502E+00  3.6132515E+01
 6.1352501E+00  3.6221661E+01
 6.1467505E+00  3.6160072E+01
 6.1582503E+00  3.6218616E+01
 6.1697502E+00  3.6280972E+01
 6.1812501E+00  3.6350742E+01
 6.1927505E+00  3.6429531E+01
 6.2042503E+00  3.6396584E+01
 6.2157502E+00  3.6564232E+01
 6.2272501E+00  3.6730949E+01
 6.2387505E+00  3.6781605E+01
 6.2502503E+00  3.6820522E+01
 6.2617502E+00  3.6803143E+01
 6.2732501E+00  3.6875439E+01
 6.2847505E+00  3.6991402E+01
 6.2962503E+00  3.6918888E+01
 6.3077502E+00  3.6941635E+01
 6.3192501E+00  3.6888039E+01
 6.3307505E+00  3.7014061E+01
 6.3422503E+00  3.7105553E+01
 6.3537502E+00  3.7210632E+01
 6.3652501E+00  3.7302830E+01
 6.3767505E+00  3.7524010E+01
 6.3882504E+00  3.7648010E+01
 6.3997502E+00  3.7697556E+01
 6.4112501E+00  3.7595909E+01
 6.4227505E+00  3.7526695E+01
 6.4342504E+00  3.7476055E+01
 6.4457502E+00  3.7549877E+01
 6.4572501E+00  3.7619804E+01
 6.4687505E+00  3.7794109E+01
 6.4802504E+00  3.7908253E+01
 6.4917502E+00  3.8055641E+01
 6.5032501E+00  3.8228168E+01
 6.5147505E+00  3.8288155E+01
 6.5262504E+00  3.8300213E+01
 6.5377502E+00  3.8341499E+01
 6.5492501E+00  3.8406120E+01
 6.5607505E+00  3.8593609E+01
 6.5722504E+00  3.8713299E+01
 6.5837502E+00  3.8938538E+01
 6.5952501E+00  3.9039333E+01
 6.6067505E+00  3.9111778E+01
 6.6182504E+00  3.9149796E+01
 6.6297503E+00  3.9351807E+01
 6.6412501E+00  3.9342804E+01
 6.6527505E+00  3.9461929E+01
 6.6642504E+00  3.9455528E+01
 6.6757503E+00  3.9543026E+01
 6.6872501E+00  3.9618343E+01
 6.6987505E+00  3.9603268E+01
 6.7102504E+00  3.9780727E+01
 6.7217503E+00  3.9877007E+01
 6.7332501E+00  3.9960976E+01
 6.7447505E+00  3.9939213E+01
 6.7562504E+00  3.9993942E+01
 6.7677503E+00  4.0030380E+01
 6.7792501E+00  4.0162739E+01
 6.7907505E+00  4.0150753E+01
 6.8022504E+00  4.0338043E+01
 6.8137503E+00  4.0356182E+01
 6.8252501E+00  4.0549473E+01
 6.8367505E+00  4.0582901E+01
 6.8482504E+00  4.0740379E+01
 6.8597503E+00  4.0766716E+01
 6.8712502E+00  4.0867508E+01
 6.8827505E+00  4.0832359E+01
 6.8942504E+00  4.0837498E+01
 6.9057503E+00  4.0859463E+01
 6.9172502E+00  4.0938774E+01
 6.9287505E+00  4.0994167E+01
 6.9402504E+00  4.1082287E+01
 6.9517503E+00  4.1120964E+01
 6.9632502E+00  4.1173054E+01
 6.9747505E+00  4.1186325E+01
 6.9862504E+00  4.1304024E+01
 6.9977503E+00  4.1333454E+01
 7.0092502E+00  4.1434280E+01
 7.0207505E+00  4.1485867E+01
 7.0322504E+00  4.1638966E+01
 7.0437503E+00  4.1757931E+01
 7.0552502E+00  4.1846958E+01
 7.0667505E+00  4.1872700E+01
 7.0782504E+00  4.1848118E+01
 7.0897503E+00  4.1928513E+01
 7.1012502E+00  4.2051624E+01
 7.1127505E+00  4.2182518E+01
 7.1242504E+00  4.2221264E+01
 7.1357503E+00  4.2156609E+01
 7.1472502E+00  4.2231079E+01
 7.1587505E+00  4.2248375E+01
 7.1702504E+00  4.2489712E+01
 7.1817503E+00  4.2579174E+01
 7.1932502E+00  4.2801769E+01
 7.2047505E+00  4.2846790E+01
 7.2162504E+00  4.2927967E+01
 7.2277503E+00  4.2940815E+01
 7.2392502E+00  4.3013988E+01
 7.2507505E+00  4.2996178E+01
 7.2622504E+00  4.3013371E+01
 7.2737503E+00  4.2964977E+01
 7.2852502E+00  4.2988583E+01
 7.2967505E+00  4.2949448E+01
 7.3082504E+00  4.2929615E+01
 7.3197503E+00  4.2945824E+01
 7.3312502E+00  4.3018410E+01
 7.3427505E+00  4.3056862E+01
 7.3542504E+00  4.3057251E+01
 7.3657503E+00  4.3126762E+01
 7.3772502E+00  4.3225761E+01
 7.3887506E+00  4.3341633E+01
 7.4002504E+00  4.3348366E+01
 7.4117503E+00  4.3472244E+01
 7.4232502E+00  4.3527008E+01
 7.4347506E+00  4.3601826E+01
 7.4462504E+00  4.3561134E+01
 7.4577503E+00  4.3617306E+01
 7.4692502E+00  4.3657398E+01
 7.4807506E+00  4.3667454E+01
 7.4922504E+00  4.3717827E+01
 7.5037503E+00  4.3651909E+01
 7.5152502E+00  4.3759090E+01
 7.5267506E+00  4.3749760E+01
 7.5382504E+00  4.3808216E+01
 7.5497503E+00  4.3719677E+01
 7.5612502E+00  4.3748920E+01
 7.5727506E+00  4.3736233E+01
 7.5842505E+00  4.3782276E+01
 7.5957503E+00  4.3724007E+01
 7.6072502E+00  4.3675274E+01
 7.6187506E+00  4.3606205E+01
 7.6302505E+00  4.3492107E+01
 7.6417503E+00  4.3398960E+01
 7.6532502E+00  4.3330116E+01
 7.6647506E+00  4.3303741E+01
 7.6762505E+00  4.3223438E+01
 7.6877503E+00  4.3181099E+01
 7.6992502E+00  4.3131638E+01
 7.7107506E+00  4.3242428E+01
 7.7222505E+00  4.3306717E+01
 7.7337503E+00  4.3405346E+01
 7.7452502E+00  4.3441425E+01
 7.7567506E+00  4.3517796E+01
 7.7682505E+00  4.3535427E+01
 7.7797503E+00  4.3567497E+01
 7.7912502E+00  4.3587559E+01
 7.8027506E+00  4.3551815E+01
 7.8142505E+00  4.3570339E+01
 7.8257504E+00  4.3509998E+01
 7.8372502E+00  4.3565403E+01
 7.8487506E+00  4.3551937E+01
 7.8602505E+00  4.3559910E+01
 7.8717504E+00  4.3322990E+01
 7.8832502E+00  4.3193584E+01
 7.8947506E+00  4.3047276E+01
 7.9062505E+00  4.3185120E+01
 7.9177504E+00  4.3202667E+01
 7.9292502E+00  4.3236485E+01
 7.9407506E+00  4.3266712E+01
 7.9522505E+00  4.3113873E+01
 7.9637504E+00  4.3060928E+01
 7.9752502E+00  4.2983509E+01
 7.9867506E+00  4.2916363E+01
 7.9982505E+00  4.2903446E+01
 8.0097504E+00  4.2745052E+01
 8.0212507E+00  4.2745110E+01
 8.0327501E+00  4.2621048E+01
 8.0442505E+00  4.2550175E+01
 8.0557508E+00  4.2443890E+01
 8.0672503E+00  4.2302891E+01
 8.0787506E+00  4.2158314E+01
 8.0902500E+00  4.2089760E+01
 8.1017504E+00  4.2061440E+01
 8.1132507E+00  4.2111904E+01
 8.1247501E+00  4.2004459E+01
 8.1362505E+00  4.1894707E+01
 8.1477509E+00  4.1747524E+01
 8.1592503E+00  4.1692108E+01
 8.1707506E+00  4.1662193E+01
 8.1822500E+00  4.1546677E+01
 8.1937504E+00  4.1454662E+01
 8.2052507E+00  4.1306404E+01
 8.2167501E+00  4.1175316E+01
 8.2282505E+00  4.0990238E+01
 8.2397509E+00  4.0819244E+01
 8.2512503E+00  4.0738914E+01
 8.2627506E+00  4.0619316E+01
 8.2742500E+00  4.0543549E+01
 8.2857504E+00  4.0436588E+01
 8.2972507E+00  4.0328747E+01
 8.3087502E+00  4.0146000E+01
 8.3202505E+00  3.9959534E+01
 8.3317509E+00  3.9771366E+01
 8.3432503E+00  3.9562279E+01
 8.3547506E+00  3.9444199E+01
 8.3662500E+00  3.9351120E+01
 8.3777504E+00  3.9303650E+01
 8.3892508E+00  3.9119888E+01
 8.4007502E+00  3.8965771E+01
 8.4122505E+00  3.8712532E+01
 8.4237509E+00  3.8482895E+01
 8.4352503E+00  3.8109547E+01
 8.4467506E+00  3.7936272E+01
 8.4582500E+00  3.7728672E+01
 8.4697504E+00  3.7647457E+01
 8.4812508E+00  3.7587315E+01
 8.4927502E+00  3.7488693E+01
 8.5042505E+00  3.7434261E+01
 8.5157509E+00  3.7291344E+01
 8.5272503E+00  3.7052891E+01
 8.5387506E+00  3.6800816E+01
 8.5502501E+00  3.6521702E+01
 8.5617504E+00  3.6349674E+01
 8.5732508E+00  3.6176712E+01
 8.5847502E+00  3.5937187E+01
 8.5962505E+00  3.5749352E+01
 8.6077509E+00  3.5530914E+01
 8.6192503E+00  3.5446404E+01
 8.6307507E+00  3.5300072E+01
 8.6422501E+00  3.5123802E+01
 8.6537504E+00  3.4891201E+01
 8.6652508E+00  3.4727757E+01
 8.6767502E+00  3.4546944E+01
 8.6882505E+00  3.4392056E+01
 8.6997509E+00  3.4207417E+01
 8.7112503E+00  3.4010559E+01
 8.7227507E+00  3.3812393E+01
 8.7342501E+00  3.3675003E+01
 8.7457504E+00  3.3551746E+01
 8.7572508E+00  3.3420101E+01
 8.7687502E+00  3.3275841E+01
 8.7802505E+00  3.3164871E+01
 8.7917500E+00  3.3018547E+01
 8.8032503E+00  3.2899403E+01
 8.8147507E+00  3.2771347E+01
 8.8262501E+00  3.2663605E+01
 8.8377504E+00  3.2540836E+01
 8.8492508E+00  3.2405956E+01
 8.8607502E+00  3.2281387E+01
 8.8722506E+00  3.2131107E+01
 8.8837500E+00  3.1976595E+01
 8.8952503E+00  3.1800110E+01
 8.9067507E+00  3.1615847E+01
 8.9182501E+00  3.1387627E+01
 8.9297504E+00  3.1212643E+01
 8.9412508E+00  3.0975788E+01
 8.9527502E+00  3.0846603E+01
 8.9642506E+00  3.0672758E+01
 8.9757500E+00  3.0582884E+01
 8.9872503E+00  3.0457886E+01
 8.9987507E+00  3.0378986E+01
 9.0102501E+00  3.0298506E+01
 9.0217505E+00  3.0167105E+01
 9.0332508E+00  3.0091465E+01
 9.0447502E+00  2.9876125E+01
 9.0562506E+00  2.9731386E+01
 9.0677500E+00  2.9592390E+01
 9.0792503E+00  2.9467394E+01
 9.0907507E+00  2.9305117E+01
 9.1022501E+00  2.9089712E+01
 9.1137505E+00  2.8958538E+01
 9.1252508E+00  2.8904343E+01
 9.1367502E+00  2.8843391E+01
 9.1482506E+00  2.8807961E+01
 9.1597500E+00  2.8704521E+01
 9.1712503E+00  2.8542530E+01
 9.1827507E+00  2.8379784E+01
 9.1942501E+00  2.8238880E+01
 9.2057505E+00  2.8207176E+01
 9.2172508E+00  2.8184408E+01
 9.2287502E+00  2.8109461E+01
 9.2402506E+00  2.8008072E+01
 9.2517500E+00  2.7849449E+01
 9.2632504E+00  2.7687433E+01
 9.2747507E+00  2.7560843E+01
 9.2862501E+00  2.7443275E+01
 9.2977505E+00  2.7335846E+01
 9.3092508E+00  2.7226391E+01
 9.3207502E+00  2.7131186E+01
 9.3322506E+00  2.7089687E+01
 9.3437500E+00  2.6991194E+01
 9.3552504E+00  2.6873749E+01
 9.3667507E+00  2.6837231E+01
 9.3782501E+00  2.6787537E+01
 9.3897505E+00  2.6782164E+01
 9.4012508E+00  2.6679611E+01
 9.4127502E+00  2.6614902E+01
 9.4242506E+00  2.6492584E+01
 9.4357500E+00  2.6317453E+01
 9.4472504E+00  2.6217878E+01
 9.4587507E+00  2.6133512E+01
 9.4702501E+00  2.6124060E+01
 9.4817505E+00  2.6103893E+01
 9.4932508E+00  2.6011063E+01
 9.5047503E+00  2.5943174E+01
 9.5162506E+00  2.5859060E+01
 9.5277500E+00  2.5816666E+01
 9.5392504E+00  2.5735870E+01
 9.5507507E+00  2.5601337E+01
 9.5622501E+00  2.5554922E+01
 9.5737505E+00  2.5471289E+01
 9.5852509E+00  2.5438698E+01
 9.5967503E+00  2.5408388E+01
 9.6082506E+00  2.5401978E+01
 9.6197500E+00  2.5427999E+01
 9.6312504E+00  2.5391134E+01
 9.6427507E+00  2.5393614E+01
 9.6542501E+00  2.5277504E+01
 9.6657505E+00  2.5144705E+01
 9.6772509E+00  2.5015388E+01
 9.6887503E+00  2.4936052E+01
 9.7002506E+00  2.4871534E+01
 9.7117500E+00  2.4882177E+01
 9.7232504E+00  2.4868168E+01
 9.7347507E+00  2.4820387E+01
 9.7462502E+00  2.4768841E+01
 9.7577505E+00  2.4707129E+01
 9.7692509E+00  2.4696947E+01
 9.7807503E+00  2.4657078E+01
 9.7922506E+00  2.4590044E+01
 9.8037500E+00  2.4534447E+01
 9.8152504E+00  2.4438274E+01
 9.8267508E+00  2.4438848E+01
 9.8382502E+00  2.4440845E+01
 9.8497505E+00  2.4414885E+01
 9.8612509E+00  2.4355743E+01
 9.8727503E+00  2.4335293E+01
 9.8842506E+00  2.4247742E+01
 9.8957500E+00  2.4216148E+01
 9.9072504E+00  2.4144949E+01
 9.9187508E+00  2.4194778E+01
 9.9302502E+00  2.4154804E+01
 9.9417505E+00  2.4097540E+01
 9.9532509E+00  2.4046709E+01
 9.9647503E+00  2.4018410E+01
 9.9762506E+00  2.4011862E+01
 9.9877501E+00  2.3985556E+01
 9.9992504E+00  2.3977669E+01
 1.0010751E+01  2.3977772E+01
 1.0022250E+01  2.3917816E+01
 1.0033751E+01  2.3832619E+01
 1.0045251E+01  2.3745258E+01
 1.0056750E+01  2.3685179E+01
 1.0068251E+01  2.3638659E+01
 1.0079750E+01  2.3600630E+01
 1.0091250E+01  2.3628902E+01
 1.0102751E+01  2.3695648E+01
 1.0114250E+01  2.3730711E+01
 1.0125751E+01  2.3811722E+01
 1.0137251E+01  2.3790695E+01
 1.0148750E+01  2.3834433E+01
 1.0160251E+01  2.3775703E+01
 1.0171750E+01  2.3673292E+01
 1.0183250E+01  2.3572741E+01
 1.0194751E+01  2.3408495E+01
 1.0206250E+01  2.3374214E+01
 1.0217751E+01  2.3301535E+01
 1.0229251E+01  2.3325764E+01
 1.0240750E+01  2.3288137E+01
 1.0252251E+01  2.3208500E+01
 1.0263750E+01  2.3130566E+01
 1.0275250E+01  2.3135153E+01
 1.0286751E+01  2.3205238E+01
 1.0298250E+01  2.3306978E+01
 1.0309751E+01  2.3306061E+01
 1.0321251E+01  2.3334629E+01
 1.0332750E+01  2.3318436E+01
 1.0344251E+01  2.3327927E+01
 1.0355750E+01  2.3273039E+01
 1.0367250E+01  2.3169443E+01
 1.0378751E+01  2.3127674E+01
 1.0390250E+01  2.3137058E+01
 1.0401751E+01  2.3121206E+01
 1.0413251E+01  2.3124214E+01
 1.0424750E+01  2.3068127E+01
 1.0436251E+01  2.3043169E+01
 1.0447750E+01  2.2998112E+01
 1.0459250E+01  2.2979675E+01
 1.0470751E+01  2.3000889E+01
 1.0482250E+01  2.3056057E+01
 1.0493751E+01  2.3015150E+01
 1.0505251E+01  2.3076998E+01
 1.0516750E+01  2.3043074E+01
 1.0528251E+01  2.3090748E+01
 1.0539750E+01  2.3077465E+01
 1.0551250E+01  2.2991344E+01
 1.0562751E+01  2.2910000E+01
 1.0574250E+01  2.2748400E+01
 1.0585751E+01  2.2713892E+01
 1.0597251E+01  2.2694143E+01
 1.0608750E+01  2.2717304E+01
 1.0620251E+01  2.2711779E+01
 1.0631750E+01  2.2676815E+01
 1.0643250E+01  2.2623667E+01
 1.0654751E+01  2.2632351E+01
 1.0666250E+01  2.2651003E+01
 1.0677751E+01  2.2652044E+01
 1.0689251E+01  2.2594429E+01
 1.0700750E+01  2.2550922E+01
 1.0712251E+01  2.2483961E+01
 1.0723750E+01  2.2473688E+01
 1.0735250E+01  2.2408535E+01
 1.0746751E+01  2.2411999E+01
 1.0758250E+01  2.2383095E+01
 1.0769751E+01  2.2441988E+01
 1.0781251E+01  2.2442331E+01
 1.0792750E+01  2.2469564E+01
 1.0804251E+01  2.2451649E+01
 1.0815750E+01  2.2496847E+01
 1.0827250E+01  2.2479010E+01
 1.0838751E+01  2.2507273E+01
 1.0850250E+01  2.2476196E+01
 1.0861751E+01  2.2470993E+01
 1.0873251E+01  2.2396349E+01
 1.0884750E+01  2.2344933E+01
 1.0896251E+01  2.2324322E+01
 1.0907750E+01  2.2341610E+01
 1.0919250E+01  2.2419701E+01
 1.0930751E+01  2.2444769E+01
 1.0942250E+01  2.2470106E+01
 1.0953751E+01  2.2476839E+01
 1.0965251E+01  2.2508049E+01
 1.0976750E+01  2.2568897E+01
 1.0988251E+01  2.2524063E+01
 1.0999750E+01  2.2522194E+01
 1.1011250E+01  2.2451288E+01
 1.1022751E+01  2.2440403E+01
 1.1034250E+01  2.2401419E+01
 1.1045751E+01  2.2367739E+01
 1.1057251E+01  2.2329439E+01
 1.1068750E+01  2.2400438E+01
 1.1080251E+01  2.2486340E+01
 1.1091750E+01  2.2605574E+01
 1.1103251E+01  2.2575981E+01
 1.1114751E+01  2.2533983E+01
 1.1126250E+01  2.2471912E+01
 1.1137751E+01  2.2390343E+01
 1.1149251E+01  2.2338745E+01
 1.1160750E+01  2.2320332E+01
 1.1172251E+01  2.2272362E+01
 1.1183750E+01  2.2283958E+01
 1.1195251E+01  2.2215885E+01
 1.1206751E+01  2.2248045E+01
 1.1218250E+01  2.2225336E+01
 1.1229751E+01  2.2221760E+01
 1.1241251E+01  2.2212393E+01
 1.1252750E+01  2.2187443E+01
 1.1264251E+01  2.2158686E+01
 1.1275750E+01  2.2151926E+01
 1.1287251E+01  2.2129004E+01
 1.1298751E+01  2.2165850E+01
 1.1310250E+01  2.2196215E+01
 1.1321751E+01  2.2245274E+01
 1.1333251E+01  2.2291901E+01
 1.1344750E+01  2.2320662E+01
 1.1356251E+01  2.2349672E+01
 1.1367750E+01  2.2411730E+01
 1.1379251E+01  2.2429928E+01
 1.1390751E+01  2.2445915E+01
 1.1402250E+01  2.2597202E+01
 1.1413751E+01  2.2602221E+01
 1.1425251E+01  2.2572355E+01
 1.1436750E+01  2.2442894E+01
 1.1448251E+01  2.2409386E+01
 1.1459750E+01  2.2488304E+01
 1.1471251E+01  2.2534498E+01
 1.1482751E+01  2.2664986E+01
 1.1494250E+01  2.2854786E+01
 1.1505751E+01  2.3011854E+01
 1.1517251E+01  2.3452345E+01
 1.1528750E+01  2.4012505E+01
 1.1540251E+01  2.4715771E+01
 1.1551750E+01  2.6352217E+01
 1.1563251E+01  2.7536228E+01
 1.1574751E+01  2.9058796E+01
 1.1586250E+01  3.0479725E+01
 1.1597751E+01  3.0722776E+01
 1.1609251E+01  3.0781729E+01
 1.1620750E+01  2.9138474E+01
 1.1632251E+01  2.8063396E+01
 1.1643750E+01  2.6442375E+01
 1.1655251E+01  2.4965263E+01
 1.1666751E+01  2.4168205E+01
 1.1678250E+01  2.3411158E+01
 1.1689751E+01  2.2989128E+01
 1.1701251E+01  2.2696632E+01
 1.1712750E+01  2.2503641E+01
 1.1724251E+01  2.2410383E+01
 1.1735750E+01  2.2333370E+01
 1.1747251E+01  2.2296406E+01
 1.1758751E+01  2.2301567E+01
 1.1770250E+01  2.2227819E+01
 1.1781751E+01  2.2234877E+01
 1.1793251E+01  2.2227604E+01
 1.1804750E+01  2.2264669E+01
 1.1816251E+01  2.2218229E+01
 1.1827750E+01  2.2252138E+01
 1.1839251E+01  2.2219620E+01
 1.1850751E+01  2.2201687E+01
 1.1862250E+01  2.2168482E+01
 1.1873751E+01  2.2235554E+01
 1.1885251E+01  2.2309010E+01
 1.1896750E+01  2.2381613E+01
 1.1908251E+01  2.2386909E+01
 1.1919750E+01  2.2446650E+01
 1.1931251E+01  2.2552589E+01
 1.1942751E+01  2.2743734E+01
 1.1954250E+01  2.3074327E+01
 1.1965751E+01  2.3385336E+01
 1.1977251E+01  2.3770573E+01
 1.1988750E+01  2.4019106E+01
 1.2000251E+01  2.4081898E+01
 1.2011750E+01  2.3974203E+01
 1.2023251E+01  2.3664104E+01
 1.2034751E+01  2.3421301E+01
 1.2046250E+01  2.3199877E+01
 1.2057751E+01  2.3155436E+01
 1.2069251E+01  2.3323605E+01
 1.2080750E+01  2.3501972E+01
 1.2092251E+01  2.3729963E+01
 1.2103750E+01  2.3891420E+01
 1.2115251E+01  2.3882137E+01
 1.2126751E+01  2.3764935E+01
 1.2138250E+01  2.3443825E+01
 1.2149751E+01  2.3114336E+01
 1.2161251E+01  2.2812531E+01
 1.2172750E+01  2.2545734E+01
 1.2184251E+01  2.2442162E+01
 1.2195750E+01  2.2360382E+01
 1.2207251E+01  2.2325981E+01
 1.2218751E+01  2.2321232E+01
 1.2230250E+01  2.2287891E+01
 1.2241751E+01  2.2264801E+01
 1.2253251E+01  2.2208387E+01
 1.2264750E+01  2.2175951E+01
 1.2276251E+01  2.2138447E+01
 1.2287750E+01  2.2159706E+01
 1.2299251E+01  2.2147156E+01
 1.2310751E+01  2.2207458E+01
 1.2322250E+01  2.2155973E+01
 1.2333751E+01  2.2169271E+01
 1.2345250E+01  2.2119865E+01
 1.2356750E+01  2.2135487E+01
 1.2368251E+01  2.2128056E+01
 1.2379750E+01  2.2139797E+01
 1.2391251E+01  2.2179012E+01
 1.2402751E+01  2.2201412E+01
 1.2414250E+01  2.2178869E+01
 1.2425751E+01  2.2203642E+01
 1.2437250E+01  2.2255457E+01
 1.2448750E+01  2.2358210E+01
 1.2460251E+01  2.2502178E+01
 1.2471750E+01  2.2528219E+01
 1.2483251E+01  2.2588577E+01
 1.2494751E+01  2.2478916E+01
 1.2506250E+01  2.2419216E+01
 1.2517751E+01  2.2353094E+01
 1.2529250E+01  2.2361023E+01
 1.2540751E+01  2.2386829E+01
 1.2552251E+01  2.2355555E+01
 1.2563750E+01  2.2310654E+01
 1.2575251E+01  2.2326906E+01
 1.2586751E+01  2.2355734E+01
 1.2598250E+01  2.2420975E+01
 1.2609751E+01  2.2423326E+01
 1.2621250E+01  2.2479931E+01
 1.2632751E+01  2.2496704E+01
 1.2644251E+01  2.2495033E+01
 1.2655750E+01  2.2478954E+01
 1.2667251E+01  2.2469360E+01
 1.2678751E+01  2.2529482E+01
 1.2690250E+01  2.2557579E+01
 1.2701751E+01  2.2597881E+01
 1.2713250E+01  2.2638947E+01
 1.2724751E+01  2.2684645E+01
 1.2736251E+01  2.2750214E+01
 1.2747750E+01  2.2808025E+01
 1.2759251E+01  2.2797705E+01
 1.2770751E+01  2.2753994E+01
 1.2782250E+01  2.2758387E+01
 1.2793751E+01  2.2739201E+01
 1.2805250E+01  2.2745741E+01
 1.2816751E+01  2.2749781E+01
 1.2828251E+01  2.2805407E+01
 1.2839750E+01  2.2888521E+01
 1.2851251E+01  2.2959490E+01
 1.2862751E+01  2.3036634E+01
 1.2874250E+01  2.3090353E+01
 1.2885751E+01  2.3090265E+01
 1.2897250E+01  2.3158449E+01
 1.2908751E+01  2.3205952E+01
 1.2920251E+01  2.3270842E+01
 1.2931750E+01  2.3340441E+01
 1.2943251E+01  2.3367847E+01
 1.2954751E+01  2.3439255E+01
 1.2966250E+01  2.3481123E+01
 1.2977751E+01  2.3599173E+01
 1.2989250E+01  2.3648199E+01
 1.3000751E+01  2.3717211E+01
 1.3012251E+01  2.3801561E+01
 1.3023750E+01  2.3903059E+01
 1.3035251E+01  2.3981525E+01
 1.3046751E+01  2.4050354E+01
 1.3058250E+01  2.4121311E+01
 1.3069751E+01  2.4125826E+01
 1.3081250E+01  2.4178814E+01
 1.3092751E+01  2.4245949E+01
 1.3104251E+01  2.4381023E+01
 1.3115750E+01  2.4437218E+01
 1.3127251E+01  2.4540632E+01
 1.3138751E+01  2.4655270E+01
 1.3150250E+01  2.4803980E+01
 1.3161751E+01  2.4914841E+01
 1.3173250E+01  2.5048090E+01
 1.3184751E+01  2.5110313E+01
 1.3196251E+01  2.5181429E+01
 1.3207750E+01  2.5288027E+01
 1.3219251E+01  2.5451893E+01
 1.3230751E+01  2.5662886E+01
 1.3242250E+01  2.5869158E+01
 1.3253751E+01  2.6088469E+01
 1.3265250E+01  2.6276615E+01
 1.3276751E+01  2.6465870E+01
 1.3288251E+01  2.6563629E+01
 1.3299750E+01  2.6681398E+01
 1.3311251E+01  2.6735029E+01
 1.3322751E+01  2.6853567E+01
 1.3334250E+01  2.6975986E+01
 1.3345751E+01  2.7131166E+01
 1.3357250E+01  2.7350910E+01
 1.3368751E+01  2.7462542E+01
 1.3380251E+01  2.7611904E+01
 1.3391750E+01  2.7680027E+01
 1.3403251E+01  2.7788004E+01
 1.3414751E+01  2.7834253E+01
 1.3426250E+01  2.7934692E+01
 1.3437751E+01  2.8105005E+01
 1.3449250E+01  2.8273382E+01
 1.3460751E+01  2.8454950E+01
 1.3472251E+01  2.8603674E+01
 1.3483750E+01  2.8777792E+01
 1.3495251E+01  2.8823032E+01
 1.3506751E+01  2.8867315E+01
 1.3518250E+01  2.8882034E+01
 1.3529751E+01  2.8961086E+01
 1.3541250E+01  2.9000278E+01
 1.3552751E+01  2.9059732E+01
 1.3564251E+01  2.9055189E+01
 1.3575750E+01  2.9143822E+01
 1.3587251E+01  2.9193933E+01
 1.3598751E+01  2.9304817E+01
 1.3610250E+01  2.9303450E+01
 1.3621751E+01  2.9296612E+01
 1.3633250E+01  2.9258024E+01
 1.3644751E+01  2.9185205E+01
 1.3656251E+01  2.9230751E+01
 1.3667750E+01  2.9292856E+01
 1.3679251E+01  2.9342272E+01
 1.3690751E+01  2.9300379E+01
 1.3702250E+01  2.9215786E+01
 1.3713751E+01  2.9207397E+01
 1.3725250E+01  2.9163034E+01
 1.3736751E+01  2.9157784E+01
 1.3748251E+01  2.9087540E+01
 1.3759750E+01  2.9079563E+01
 1.3771251E+01  2.8994865E+01
 1.3782751E+01  2.8968731E+01
 1.3794250E+01  2.8869020E+01
 1.3805751E+01  2.8823868E+01
 1.3817250E+01  2.8751308E+01
 1.3828751E+01  2.8774118E+01
 1.3840251E+01  2.8788260E+01
 1.3851750E+01  2.8957636E+01
 1.3863251E+01  2.9288540E+01
 1.3874751E+01  2.9603418E+01
 1.3886250E+01  3.0361799E+01
 1.3897751E+01  3.1045538E+01
 1.3909250E+01  3.1878916E+01
 1.3920751E+01  3.2969986E+01
 1.3932251E+01  3.3513603E+01
 1.3943750E+01  3.3973240E+01
 1.3955251E+01  3.3629841E+01
 1.3966751E+01  3.3327904E+01
 1.3978251E+01  3.2441212E+01
 1.3989751E+01  3.1270531E+01
 1.4001250E+01  3.0295704E+01
 1.4012751E+01  2.9404617E+01
 1.4024251E+01  2.8658960E+01
 1.4035750E+01  2.8162052E+01
 1.4047251E+01  2.7815556E+01
 1.4058751E+01  2.7657940E+01
 1.4070251E+01  2.7560297E+01
 1.4081751E+01  2.7405579E+01
 1.4093250E+01  2.7292892E+01
 1.4104751E+01  2.7159037E+01
 1.4116251E+01  2.7058577E+01
 1.4127750E+01  2.6963634E+01
 1.4139251E+01  2.6864727E+01
 1.4150751E+01  2.6806936E+01
 1.4162251E+01  2.6769665E+01
 1.4173751E+01  2.6724066E+01
 1.4185250E+01  2.6661739E+01
 1.4196751E+01  2.6543461E+01
 1.4208251E+01  2.6431360E+01
 1.4219750E+01  2.6337332E+01
 1.4231251E+01  2.6187126E+01
 1.4242751E+01  2.6112354E+01
 1.4254251E+01  2.6011267E+01
 1.4265751E+01  2.5997255E+01
 1.4277250E+01  2.5971468E+01
 1.4288751E+01  2.5977083E+01
 1.4300251E+01  2.6009697E+01
 1.4311750E+01  2.5958878E+01
 1.4323251E+01  2.5939167E+01
 1.4334751E+01  2.5948534E+01
 1.4346251E+01  2.5896152E+01
 1.4357751E+01  2.5911877E+01
 1.4369250E+01  2.5796614E+01
 1.4380751E+01  2.5805422E+01
 1.4392251E+01  2.5725393E+01
 1.4403750E+01  2.5701090E+01
 1.4415251E+01  2.5690876E+01
 1.4426751E+01  2.5668894E+01
 1.4438251E+01  2.5607828E+01
 1.4449751E+01  2.5486843E+01
 1.4461250E+01  2.5378302E+01
 1.4472751E+01  2.5276623E+01
 1.4484251E+01  2.5187538E+01
 1.4495750E+01  2.5123457E+01
 1.4507251E+01  2.5150898E+01
 1.4518751E+01  2.5177864E+01
 1.4530251E+01  2.5210739E+01
 1.4541751E+01  2.5203590E+01
 1.4553250E+01  2.5206512E+01
 1.4564751E+01  2.5224667E+01
 1.4576251E+01  2.5196384E+01
 1.4587750E+01  2.5151333E+01
 1.4599251E+01  2.5025301E+01
 1.4610751E+01  2.5040323E+01
 1.4622251E+01  2.5041006E+01
 1.4633751E+01  2.5052498E+01
 1.4645250E+01  2.5029594E+01
 1.4656751E+01  2.5015490E+01
 1.4668251E+01  2.4995510E+01
 1.4679750E+01  2.4980968E+01
 1.4691251E+01  2.4983990E+01
 1.4702751E+01  2.5012968E+01
 1.4714251E+01  2.5046297E+01
 1.4725751E+01  2.5014004E+01
 1.4737250E+01  2.5001966E+01
 1.4748751E+01  2.4951670E+01
 1.4760251E+01  2.4964153E+01
 1.4771750E+01  2.4939535E+01
 1.4783251E+01  2.4894484E+01
 1.4794751E+01  2.4911568E+01
 1.4806251E+01  2.4883860E+01
 1.4817751E+01  2.4851767E+01
 1.4829250E+01  2.4748575E+01
 1.4840751E+01  2.4710583E+01
 1.4852251E+01  2.4650419E+01
 1.4863750E+01  2.4599390E+01
 1.4875251E+01  2.4589846E+01
 1.4886751E+01  2.4617207E+01
 1.4898251E+01  2.4660131E+01
 1.4909751E+01  2.4667101E+01
 1.4921250E+01  2.4683403E+01
 1.4932751E+01  2.4655636E+01
 1.4944251E+01  2.4571846E+01
 1.4955750E+01  2.4493101E+01
 1.4967251E+01  2.4475798E+01
 1.4978751E+01  2.4512344E+01
 1.4990251E+01  2.4570860E+01
 1.5001751E+01  2.4587685E+01
 1.5013250E+01  2.4642067E+01
 1.5024751E+01  2.4625446E+01
 1.5036251E+01  2.4599464E+01
 1.5047750E+01  2.4536749E+01
 1.5059251E+01  2.4568987E+01
 1.5070751E+01  2.4627436E+01
 1.5082251E+01  2.4661556E+01
 1.5093751E+01  2.4654392E+01
 1.5105250E+01  2.4705070E+01
 1.5116751E+01  2.4789967E+01
 1.5128251E+01  2.4886168E+01
 1.5139750E+01  2.5060843E+01
 1.5151251E+01  2.5378864E+01
 1.5162751E+01  2.5970221E+01
 1.5174251E+01  2.6538666E+01
 1.5185751E+01  2.7122972E+01
 1.5197250E+01  2.7217831E+01
 1.5208751E+01  2.7228083E+01
 1.5220251E+01  2.6783548E+01
 1.5231750E+01  2.6276114E+01
 1.5243251E+01  2.5646324E+01
 1.5254751E+01  2.5221390E+01
 1.5266251E+01  2.4849636E+01
 1.5277751E+01  2.4672924E+01
 1.5289250E+01  2.4565277E+01
 1.5300751E+01  2.4475027E+01
 1.5312251E+01  2.4390898E+01
 1.5323750E+01  2.4352444E+01
 1.5335251E+01  2.4414936E+01
 1.5346751E+01  2.4429857E+01
 1.5358251E+01  2.4459728E+01
 1.5369751E+01  2.4423201E+01
 1.5381250E+01  2.4354694E+01
 1.5392751E+01  2.4228809E+01
 1.5404251E+01  2.4167368E+01
 1.5415751E+01  2.4137459E+01
 1.5427251E+01  2.4163918E+01
 1.5438751E+01  2.4191511E+01
 1.5450251E+01  2.4201405E+01
 1.5461751E+01  2.4202644E+01
 1.5473250E+01  2.4180799E+01
 1.5484751E+01  2.4218229E+01
 1.5496251E+01  2.4202427E+01
 1.5507751E+01  2.4219629E+01
 1.5519251E+01  2.4184446E+01
 1.5530751E+01  2.4166746E+01
 1.5542251E+01  2.4090832E+01
 1.5553751E+01  2.4081154E+01
 1.5565250E+01  2.4103943E+01
 1.5576751E+01  2.4153112E+01
 1.5588251E+01  2.4141497E+01
 1.5599751E+01  2.4133528E+01
 1.5611251E+01  2.4146338E+01
 1.5622751E+01  2.4171215E+01
 1.5634251E+01  2.4210876E+01
 1.5645751E+01  2.4272650E+01
 1.5657250E+01  2.4350683E+01
 1.5668751E+01  2.4363764E+01
 1.5680251E+01  2.4320086E+01
 1.5691751E+01  2.4240000E+01
 1.5703251E+01  2.4200245E+01
 1.5714751E+01  2.4162569E+01
 1.5726251E+01  2.4187710E+01
 1.5737751E+01  2.4167053E+01
 1.5749250E+01  2.4191435E+01
 1.5760751E+01  2.4221281E+01
 1.5772251E+01  2.4223663E+01
 1.5783751E+01  2.4228178E+01
 1.5795251E+01  2.4206463E+01
 1.5806751E+01  2.4285919E+01
 1.5818251E+01  2.4276966E+01
 1.5829751E+01  2.4289185E+01
 1.5841250E+01  2.4233747E+01
 1.5852751E+01  2.4224428E+01
 1.5864251E+01  2.4159325E+01
 1.5875751E+01  2.4202677E+01
 1.5887251E+01  2.4238422E+01
 1.5898750E+01  2.4274029E+01
 1.5910251E+01  2.4309299E+01
 1.5921751E+01  2.4290655E+01
 1.5933250E+01  2.4257181E+01
 1.5944751E+01  2.4143908E+01
 1.5956251E+01  2.4162647E+01
 1.5967751E+01  2.4216377E+01
 1.5979251E+01  2.4289486E+01
 1.5990750E+01  2.4367887E+01
 1.6002251E+01  2.4408194E+01
 1.6013750E+01  2.4442644E+01
 1.6025251E+01  2.4418526E+01
 1.6036751E+01  2.4462444E+01
 1.6048250E+01  2.4477966E+01
 1.6059752E+01  2.4521334E+01
 1.6071251E+01  2.4487196E+01
 1.6082750E+01  2.4516706E+01
 1.6094252E+01  2.4478443E+01
 1.6105751E+01  2.4495781E+01
 1.6117250E+01  2.4469687E+01
 1.6128750E+01  2.4442516E+01
 1.6140251E+01  2.4471628E+01
 1.6151751E+01  2.4462391E+01
 1.6163250E+01  2.4521370E+01
 1.6174751E+01  2.4484188E+01
 1.6186251E+01  2.4594236E+01
 1.6197750E+01  2.4538054E+01
 1.6209251E+01  2.4674381E+01
 1.6220751E+01  2.4648197E+01
 1.6232250E+01  2.4816896E+01
 1.6243752E+01  2.4855450E+01
 1.6255251E+01  2.4957985E+01
 1.6266750E+01  2.5067671E+01
 1.6278252E+01  2.4955273E+01
 1.6289751E+01  2.5065315E+01
 1.6301250E+01  2.4708479E+01
 1.6312750E+01  2.4753960E+01
 1.6324251E+01  2.4428581E+01
 1.6335751E+01  2.4462315E+01
 1.6347250E+01  2.4252028E+01
 1.6358751E+01  2.4223198E+01
 1.6370251E+01  2.4194771E+01
 1.6381750E+01  2.4239231E+01
 1.6393251E+01  2.4309866E+01
 1.6404751E+01  2.4319740E+01
 1.6416250E+01  2.4385246E+01
 1.6427752E+01  2.4320475E+01
 1.6439251E+01  2.4336975E+01
 1.6450750E+01  2.4305210E+01
 1.6462252E+01  2.4328466E+01
 1.6473751E+01  2.4313023E+01
 1.6485250E+01  2.4335342E+01
 1.6496750E+01  2.4349110E+01
 1.6508251E+01  2.4331905E+01
 1.6519751E+01  2.4258421E+01
 1.6531250E+01  2.4236912E+01
 1.6542751E+01  2.4242825E+01
 1.6554251E+01  2.4252758E+01
 1.6565750E+01  2.4261490E+01
 1.6577251E+01  2.4242083E+01
 1.6588751E+01  2.4252916E+01
 1.6600250E+01  2.4230671E+01
 1.6611752E+01  2.4234146E+01
 1.6623251E+01  2.4201820E+01
 1.6634750E+01  2.4116720E+01
 1.6646252E+01  2.4094975E+01
 1.6657751E+01  2.4100279E+01
 1.6669250E+01  2.4141642E+01
 1.6680750E+01  2.4149538E+01
 1.6692251E+01  2.4157934E+01
 1.6703751E+01  2.4155603E+01
 1.6715250E+01  2.4156300E+01
 1.6726751E+01  2.4160267E+01
 1.6738251E+01  2.4198267E+01
 1.6749750E+01  2.4214989E+01
 1.6761251E+01  2.4257710E+01
 1.6772751E+01  2.4199488E+01
 1.6784250E+01  2.4173777E+01
 1.6795752E+01  2.4153795E+01
 1.6807251E+01  2.4156858E+01
 1.6818750E+01  2.4117668E+01
 1.6830252E+01  2.4116499E+01
 1.6841751E+01  2.4117208E+01
 1.6853251E+01  2.4107681E+01
 1.6864750E+01  2.4109709E+01
 1.6876251E+01  2.4163378E+01
 1.6887751E+01  2.4175734E+01
 1.6899250E+01  2.4146536E+01
 1.6910751E+01  2.4084440E+01
 1.6922251E+01  2.4064709E+01
 1.6933750E+01  2.3990957E+01
 1.6945251E+01  2.3977961E+01
 1.6956751E+01  2.3912580E+01
 1.6968250E+01  2.3893103E+01
 1.6979752E+01  2.3885702E+01
 1.6991251E+01  2.3880911E+01
 1.7002750E+01  2.3892574E+01
 1.7014252E+01  2.3919867E+01
 1.7025751E+01  2.3982294E+01
 1.7037251E+01  2.3987171E+01
 1.7048750E+01  2.4001232E+01
 1.7060251E+01  2.4018406E+01
 1.7071751E+01  2.4034220E+01
 1.7083250E+01  2.4054306E+01
 1.7094751E+01  2.4029346E+01
 1.7106251E+01  2.4027309E+01
 1.7117750E+01  2.3940119E+01
 1.7129251E+01  2.3956278E+01
 1.7140751E+01  2.3943382E+01
 1.7152250E+01  2.3947672E+01
 1.7163752E+01  2.3919088E+01
 1.7175251E+01  2.3924156E+01
 1.7186750E+01  2.3930132E+01
 1.7198252E+01  2.3962194E+01
 1.7209751E+01  2.3971661E+01
 1.7221251E+01  2.3970749E+01
 1.7232750E+01  2.3881224E+01
 1.7244251E+01  2.3841339E+01
 1.7255751E+01  2.3793571E+01
 1.7267250E+01  2.3785246E+01
 1.7278751E+01  2.3805254E+01
 1.7290251E+01  2.3877047E+01
 1.7301750E+01  2.3876543E+01
 1.7313251E+01  2.3859226E+01
 1.7324751E+01  2.3868082E+01
 1.7336250E+01  2.3907707E+01
 1.7347752E+01  2.3914114E+01
 1.7359251E+01  2.3895275E+01
 1.7370750E+01  2.3858173E+01
 1.7382252E+01  2.3851362E+01
 1.7393751E+01  2.3856045E+01
 1.7405251E+01  2.3831984E+01
 1.7416750E+01  2.3841881E+01
 1.7428251E+01  2.3829960E+01
 1.7439751E+01  2.3809187E+01
 1.7451250E+01  2.3702692E+01
 1.7462751E+01  2.3632950E+01
 1.7474251E+01  2.3591351E+01
 1.7485750E+01  2.3638546E+01
 1.7497252E+01  2.3643482E+01
 1.7508751E+01  2.3664274E+01
 1.7520250E+01  2.3605024E+01
 1.7531752E+01  2.3617514E+01
 1.7543251E+01  2.3621580E+01
 1.7554750E+01  2.3640589E+01
 1.7566252E+01  2.3652269E+01
 1.7577751E+01  2.3661993E+01
 1.7589251E+01  2.3651571E+01
 1.7600750E+01  2.3639963E+01
 1.7612251E+01  2.3612534E+01
 1.7623751E+01  2.3602516E+01
 1.7635250E+01  2.3540133E+01
 1.7646751E+01  2.3457731E+01
 1.7658251E+01  2.3408335E+01
 1.7669750E+01  2.3393576E+01
 1.7681252E+01  2.3441219E+01
 1.7692751E+01  2.3463617E+01
 1.7704250E+01  2.3507826E+01
 1.7715752E+01  2.3474468E+01
 1.7727251E+01  2.3450180E+01
 1.7738750E+01  2.3419464E+01
 1.7750252E+01  2.3423798E+01
 1.7761751E+01  2.3457357E+01
 1.7773251E+01  2.3501442E+01
 1.7784750E+01  2.3572466E+01
 1.7796251E+01  2.3615101E+01
 1.7807751E+01  2.3621563E+01
 1.7819250E+01  2.3606514E+01
 1.7830751E+01  2.3566015E+01
 1.7842251E+01  2.3533066E+01
 1.7853750E+01  2.3516945E+01
 1.7865252E+01  2.3514599E+01
 1.7876751E+01  2.3553026E+01
 1.7888250E+01  2.3520466E+01
 1.7899752E+01  2.3493492E+01
 1.7911251E+01  2.3527431E+01
 1.7922750E+01  2.3573380E+01
 1.7934252E+01  2.3581696E+01
 1.7945751E+01  2.3598705E+01
 1.7957251E+01  2.3597357E+01
 1.7968750E+01  2.3633722E+01
 1.7980251E+01  2.3666759E+01
 1.7991751E+01  2.3779327E+01
 1.8003250E+01  2.3881899E+01
 1.8014751E+01  2.4018148E+01
 1.8026251E+01  2.4205256E+01
 1.8037750E+01  2.4453686E+01
 1.8049252E+01  2.4795977E+01
 1.8060751E+01  2.5019150E+01
 1.8072250E+01  2.5315203E+01
 1.8083752E+01  2.5456596E+01
 1.8095251E+01  2.5685345E+01
 1.8106750E+01  2.5647079E+01
 1.8118252E+01  2.5573362E+01
 1.8129751E+01  2.5373114E+01
 1.8141251E+01  2.5089029E+01
 1.8152750E+01  2.4782696E+01
 1.8164251E+01  2.4480791E+01
 1.8175751E+01  2.4254284E+01
 1.8187250E+01  2.4017195E+01
 1.8198751E+01  2.3790157E+01
 1.8210251E+01  2.3663225E+01
 1.8221750E+01  2.3589630E+01
 1.8233252E+01  2.3541342E+01
 1.8244751E+01  2.3496815E+01
 1.8256250E+01  2.3477283E+01
 1.8267752E+01  2.3448683E+01
 1.8279251E+01  2.3453978E+01
 1.8290751E+01  2.3453100E+01
 1.8302252E+01  2.3437134E+01
 1.8313751E+01  2.3410313E+01
 1.8325251E+01  2.3423939E+01
 1.8336750E+01  2.3439287E+01
 1.8348251E+01  2.3449350E+01
 1.8359751E+01  2.3428888E+01
 1.8371250E+01  2.3394258E+01
 1.8382751E+01  2.3372566E+01
 1.8394251E+01  2.3361471E+01
 1.8405750E+01  2.3398720E+01
 1.8417252E+01  2.3406147E+01
 1.8428751E+01  2.3383490E+01
 1.8440250E+01  2.3299990E+01
 1.8451752E+01  2.3179985E+01
 1.8463251E+01  2.3112860E+01
 1.8474751E+01  2.3088686E+01
 1.8486252E+01  2.3083405E+01
 1.8497751E+01  2.3123869E+01
 1.8509251E+01  2.3144482E+01
 1.8520750E+01  2.3210121E+01
 1.8532251E+01  2.3232698E+01
 1.8543751E+01  2.3290251E+01
 1.8555250E+01  2.3344440E+01
 1.8566751E+01  2.3349525E+01
 1.8578251E+01  2.3339479E+01
 1.8589750E+01  2.3296247E+01
 1.8601252E+01  2.3222824E+01
 1.8612751E+01  2.3159754E+01
 1.8624250E+01  2.3103584E+01
 1.8635752E+01  2.3133957E+01
 1.8647251E+01  2.3093300E+01
 1.8658751E+01  2.3125940E+01
 1.8670252E+01  2.3154127E+01
 1.8681751E+01  2.3198050E+01
 1.8693251E+01  2.3206299E+01
 1.8704750E+01  2.3203011E+01
 1.8716251E+01  2.3201256E+01
 1.8727751E+01  2.3142900E+01
 1.8739250E+01  2.3127033E+01
 1.8750751E+01  2.3091156E+01
 1.8762251E+01  2.3110403E+01
 1.8773750E+01  2.3118290E+01
 1.8785252E+01  2.3181549E+01
 1.8796751E+01  2.3197655E+01
 1.8808250E+01  2.3173790E+01
 1.8819752E+01  2.3183203E+01
 1.8831251E+01  2.3187775E+01
 1.8842751E+01  2.3182749E+01
 1.8854252E+01  2.3161917E+01
 1.8865751E+01  2.3137478E+01
 1.8877251E+01  2.3193951E+01
 1.8888750E+01  2.3204826E+01
 1.8900251E+01  2.3216623E+01
 1.8911751E+01  2.3197418E+01
 1.8923250E+01  2.3209473E+01
 1.8934752E+01  2.3235001E+01
 1.8946251E+01  2.3255611E+01
 1.8957750E+01  2.3237728E+01
 1.8969252E+01  2.3154043E+01
 1.8980751E+01  2.3122135E+01
 1.8992250E+01  2.3091793E+01
 1.9003752E+01  2.3118660E+01
 1.9015251E+01  2.3162132E+01
 1.9026751E+01  2.3188784E+01
 1.9038252E+01  2.3214502E+01
 1.9049751E+01  2.3212328E+01
 1.9061251E+01  2.3274666E+01
 1.9072750E+01  2.3338280E+01
 1.9084251E+01  2.3364931E+01
 1.9095751E+01  2.3335823E+01
 1.9107250E+01  2.3270967E+01
 1.9118752E+01  2.3248541E+01
 1.9130251E+01  2.3234354E+01
 1.9141750E+01  2.3214203E+01
 1.9153252E+01  2.3216993E+01
 1.9164751E+01  2.3202837E+01
 1.9176250E+01  2.3198519E+01
 1.9187752E+01  2.3184101E+01
 1.9199251E+01  2.3221954E+01
 1.9210751E+01  2.3239815E+01
 1.9222252E+01  2.3219198E+01
 1.9233751E+01  2.3175793E+01
 1.9245251E+01  2.3191742E+01
 1.9256750E+01  2.3209118E+01
 1.9268251E+01  2.3228485E+01
 1.9279751E+01  2.3174244E+01
 1.9291250E+01  2.3166500E+01
 1.9302752E+01  2.3168457E+01
 1.9314251E+01  2.3204256E+01
 1.9325750E+01  2.3227247E+01
 1.9337252E+01  2.3238205E+01
 1.9348751E+01  2.3227953E+01
 1.9360250E+01  2.3256512E+01
 1.9371752E+01  2.3262342E+01
 1.9383251E+01  2.3271643E+01
 1.9394751E+01  2.3282539E+01
 1.9406250E+01  2.3305271E+01
 1.9417751E+01  2.3340916E+01
 1.9429251E+01  2.3348932E+01
 1.9440750E+01  2.3348404E+01
 1.9452251E+01  2.3312782E+01
 1.9463751E+01  2.3289129E+01
 1.9475250E+01  2.3339340E+01
 1.9486752E+01  2.3353197E+01
 1.9498251E+01  2.3391773E+01
 1.9509750E+01  2.3400068E+01
 1.9521252E+01  2.3464798E+01
 1.9532751E+01  2.3495571E+01
 1.9544250E+01  2.3535378E+01
 1.9555752E+01  2.3474695E+01
 1.9567251E+01  2.3452047E+01
 1.9578751E+01  2.3452866E+01
 1.9590250E+01  2.3508772E+01
 1.9601751E+01  2.3577095E+01
 1.9613251E+01  2.3688234E+01
 1.9624750E+01  2.3788515E+01
 1.9636251E+01  2.3936596E+01
 1.9647751E+01  2.4086710E+01
 1.9659250E+01  2.4358906E+01
 1.9670752E+01  2.4672440E+01
 1.9682251E+01  2.5116732E+01
 1.9693750E+01  2.5401182E+01
 1.9705252E+01  2.5664392E+01
 1.9716751E+01  2.5738632E+01
 1.9728251E+01  2.5758322E+01
 1.9739752E+01  2.5483391E+01
 1.9751251E+01  2.5362675E+01
 1.9762751E+01  2.5166422E+01
 1.9774250E+01  2.5051981E+01
 1.9785751E+01  2.4922417E+01
 1.9797251E+01  2.4999886E+01
 1.9808750E+01  2.5028572E+01
 1.9820251E+01  2.5204720E+01
 1.9831751E+01  2.5473570E+01
 1.9843250E+01  2.5661776E+01
 1.9854752E+01  2.5753761E+01
 1.9866251E+01  2.5593040E+01
 1.9877750E+01  2.5405176E+01
 1.9889252E+01  2.5047331E+01
 1.9900751E+01  2.4668880E+01
 1.9912251E+01  2.4364857E+01
 1.9923752E+01  2.4058861E+01
 1.9935251E+01  2.3885656E+01
 1.9946751E+01  2.3769302E+01
 1.9958250E+01  2.3732292E+01
 1.9969751E+01  2.3677595E+01
 1.9981251E+01  2.3629040E+01
 1.9992750E+01  2.3611162E+01
 2.0004251E+01  2.3619749E+01
 2.0015751E+01  2.3609940E+01
 2.0027250E+01  2.3583179E+01
 2.0038752E+01  2.3529221E+01
 2.0050251E+01  2.3525106E+01
 2.0061750E+01  2.3505215E+01
 2.0073252E+01  2.3519466E+01
 2.0084751E+01  2.3499989E+01
 2.0096251E+01  2.3493032E+01
 2.0107752E+01  2.3476007E+01
 2.0119251E+01  2.3437550E+01
 2.0130751E+01  2.3421045E+01
 2.0142250E+01  2.3379896E+01
 2.0153751E+01  2.3386538E+01
 2.0165251E+01  2.3407400E+01
 2.0176750E+01  2.3457603E+01
 2.0188251E+01  2.3486153E+01
 2.0199751E+01  2.3466337E+01
 2.0211250E+01  2.3476151E+01
 2.0222752E+01  2.3447826E+01
 2.0234251E+01  2.3488100E+01
 2.0245750E+01  2.3482563E+01
 2.0257252E+01  2.3454752E+01
 2.0268751E+01  2.3436382E+01
 2.0280251E+01  2.3478752E+01
 2.0291752E+01  2.3534357E+01
 2.0303251E+01  2.3507116E+01
 2.0314751E+01  2.3476524E+01
 2.0326250E+01  2.3436520E+01
 2.0337751E+01  2.3495281E+01
 2.0349251E+01  2.3583267E+01
 2.0360750E+01  2.3631166E+01
 2.0372252E+01  2.3594372E+01
 2.0383751E+01  2.3546448E+01
 2.0395250E+01  2.3501146E+01
 2.0406752E+01  2.3479109E+01
 2.0418251E+01  2.3545225E+01
 2.0429750E+01  2.3624191E+01
 2.0441252E+01  2.3626282E+01
 2.0452751E+01  2.3599478E+01
 2.0464251E+01  2.3571144E+01
 2.0475752E+01  2.3541838E+01
 2.0487251E+01  2.3491089E+01
 2.0498751E+01  2.3488008E+01
 2.0510250E+01  2.3492994E+01
 2.0521751E+01  2.3492065E+01
 2.0533251E+01  2.3478901E+01
 2.0544750E+01  2.3482901E+01
 2.0556252E+01  2.3572588E+01
 2.0567751E+01  2.3597769E+01
 2.0579250E+01  2.3624651E+01
 2.0590752E+01  2.3690111E+01
 2.0602251E+01  2.3749910E+01
 2.0613750E+01  2.3784721E+01
 2.0625252E+01  2.3775278E+01
 2.0636751E+01  2.3818409E+01
 2.0648251E+01  2.3829052E+01
 2.0659752E+01  2.3872288E+01
 2.0671251E+01  2.3968742E+01
 2.0682751E+01  2.4152248E+01
 2.0694250E+01  2.4417870E+01
 2.0705751E+01  2.4838375E+01
 2.0717251E+01  2.5319136E+01
 2.0728750E+01  2.6071861E+01
 2.0740252E+01  2.6320969E+01
 2.0751751E+01  2.6057783E+01
 2.0763250E+01  2.5885952E+01
 2.0774752E+01  2.5730452E+01
 2.0786251E+01  2.5541597E+01
 2.0797750E+01  2.5104296E+01
 2.0809252E+01  2.4733179E+01
 2.0820751E+01  2.4400686E+01
 2.0832251E+01  2.4165260E+01
 2.0843752E+01  2.3999229E+01
 2.0855251E+01  2.3843201E+01
 2.0866751E+01  2.3792671E+01
 2.0878250E+01  2.3771833E+01
 2.0889751E+01  2.3759554E+01
 2.0901251E+01  2.3731537E+01
 2.0912750E+01  2.3710970E+01
 2.0924252E+01  2.3715681E+01
 2.0935751E+01  2.3719561E+01
 2.0947250E+01  2.3720587E+01
 2.0958752E+01  2.3665472E+01
 2.0970251E+01  2.3620876E+01
 2.0981750E+01  2.3605742E+01
 2.0993252E+01  2.3587570E+01
 2.1004751E+01  2.3571854E+01
 2.1016251E+01  2.3570688E+01
 2.1027752E+01  2.3650452E+01
 2.1039251E+01  2.3694263E+01
 2.1050751E+01  2.3685715E+01
 2.1062250E+01  2.3630936E+01
 2.1073751E+01  2.3622332E+01
 2.1085251E+01  2.3609705E+01
 2.1096750E+01  2.3615269E+01
 2.1108252E+01  2.3661030E+01
 2.1119751E+01  2.3668657E+01
 2.1131250E+01  2.3653622E+01
 2.1142752E+01  2.3580854E+01
 2.1154251E+01  2.3572689E+01
 2.1165751E+01  2.3550846E+01
 2.1177252E+01  2.3603395E+01
 2.1188751E+01  2.3629374E+01
 2.1200251E+01  2.3656719E+01
 2.1211752E+01  2.3621798E+01
 2.1223251E+01  2.3621490E+01
 2.1234751E+01  2.3611181E+01
 2.1246250E+01  2.3662909E+01
 2.1257751E+01  2.3648024E+01
 2.1269251E+01  2.3633522E+01
 2.1280750E+01  2.3608458E+01
 2.1292252E+01  2.3654358E+01
 2.1303751E+01  2.3667435E+01
 2.1315250E+01  2.3649616E+01
 2.1326752E+01  2.3644503E+01
 2.1338251E+01  2.3645870E+01
 2.1349751E+01  2.3645531E+01
 2.1361252E+01  2.3657541E+01
 2.1372751E+01  2.3737349E+01
 2.1384251E+01  2.3726254E+01
 2.1395752E+01  2.3696779E+01
 2.1407251E+01  2.3641500E+01
 2.1418751E+01  2.3675465E+01
 2.1430250E+01  2.3664833E+01
 2.1441751E+01  2.3645283E+01
 2.1453251E+01  2.3640867E+01
 2.1464750E+01  2.3657629E+01
 2.1476252E+01  2.3656488E+01
 2.1487751E+01  2.3699495E+01
 2.1499250E+01  2.3738432E+01
 2.1510752E+01  2.3764225E+01
 2.1522251E+01  2.3765690E+01
 2.1533751E+01  2.3788546E+01
 2.1545252E+01  2.3805008E+01
 2.1556751E+01  2.3780947E+01
 2.1568251E+01  2.3747255E+01
 2.1579752E+01  2.3785730E+01
 2.1591251E+01  2.3794004E+01
 2.1602751E+01  2.3827969E+01
 2.1614250E+01  2.3831003E+01
 2.1625751E+01  2.3817572E+01
 2.1637251E+01  2.3775499E+01
 2.1648750E+01  2.3748663E+01
 2.1660252E+01  2.3741573E+01
 2.1671751E+01  2.3745161E+01
 2.1683250E+01  2.3726948E+01
 2.1694752E+01  2.3735470E+01
 2.1706251E+01  2.3791664E+01
 2.1717751E+01  2.3828947E+01
 2.1729252E+01  2.3803265E+01
 2.1740751E+01  2.3793987E+01
 2.1752251E+01  2.3732166E+01
 2.1763752E+01  2.3734678E+01
 2.1775251E+01  2.3752903E+01
 2.1786751E+01  2.3815571E+01
 2.1798250E+01  2.3837278E+01
 2.1809752E+01  2.3884459E+01
 2.1821251E+01  2.3881659E+01
 2.1832750E+01  2.3825651E+01
 2.1844252E+01  2.3781845E+01
 2.1855751E+01  2.3793505E+01
 2.1867250E+01  2.3853333E+01
 2.1878752E+01  2.3887764E+01
 2.1890251E+01  2.3891056E+01
 2.1901751E+01  2.3917549E+01
 2.1913252E+01  2.3950907E+01
 2.1924751E+01  2.3937658E+01
 2.1936251E+01  2.3897596E+01
 2.1947752E+01  2.3871847E+01
 2.1959251E+01  2.3891573E+01
 2.1970751E+01  2.3919352E+01
 2.1982250E+01  2.3905937E+01
 2.1993752E+01  2.3933691E+01
 2.2005251E+01  2.3956301E+01
 2.2016750E+01  2.4029123E+01
 2.2028252E+01  2.4049084E+01
 2.2039751E+01  2.4094536E+01
 2.2051250E+01  2.4103228E+01
 2.2062752E+01  2.4078213E+01
 2.2074251E+01  2.4030420E+01
 2.2085751E+01  2.4001240E+01
 2.2097252E+01  2.3992470E+01
 2.2108751E+01  2.3987766E+01
 2.2120251E+01  2.4031792E+01
 2.2131752E+01  2.4052608E+01
 2.2143251E+01  2.4079626E+01
 2.2154751E+01  2.4047113E+01
 2.2166250E+01  2.4068794E+01
 2.2177752E+01  2.4075743E+01
 2.2189251E+01  2.4116083E+01
 2.2200750E+01  2.4067715E+01
 2.2212252E+01  2.4067173E+01
 2.2223751E+01  2.4105085E+01
 2.2235250E+01  2.4153076E+01
 2.2246752E+01  2.4197464E+01
 2.2258251E+01  2.4186975E+01
 2.2269751E+01  2.4165146E+01
 2.2281252E+01  2.4149536E+01
 2.2292751E+01  2.4177149E+01
 2.2304251E+01  2.4220778E+01
 2.2315752E+01  2.4236200E+01
 2.2327251E+01  2.4202709E+01
 2.2338751E+01  2.4174196E+01
 2.2350250E+01  2.4160002E+01
 2.2361752E+01  2.4156996E+01
 2.2373251E+01  2.4158155E+01
 2.2384750E+01  2.4102524E+01
 2.2396252E+01  2.4092522E+01
 2.2407751E+01  2.4075710E+01
 2.2419250E+01  2.4123367E+01
 2.2430752E+01  2.4201075E+01
 2.2442251E+01  2.4352594E+01
 2.2453751E+01  2.4453945E+01
 2.2465252E+01  2.4461109E+01
 2.2476751E+01  2.4437441E+01
 2.2488251E+01  2.4424755E+01
 2.2499752E+01  2.4434341E+01
 2.2511251E+01  2.4458841E+01
 2.2522751E+01  2.4475409E+01
 2.2534250E+01  2.4507391E+01
 2.2545752E+01  2.4502663E+01
 2.2557251E+01  2.4503761E+01
 2.2568750E+01  2.4473282E+01
 2.2580252E+01  2.4450556E+01
 2.2591751E+01  2.4510984E+01
 2.2603251E+01  2.4570465E+01
 2.2614752E+01  2.4680199E+01
 2.2626251E+01  2.4735130E+01
 2.2637751E+01  2.4765909E+01
 2.2649252E+01  2.4722881E+01
 2.2660751E+01  2.4628368E+01
 2.2672251E+01  2.4597601E+01
 2.2683752E+01  2.4675743E+01
 2.2695251E+01  2.4778349E+01
 2.2706751E+01  2.4793936E+01
 2.2718250E+01  2.4803137E+01
 2.2729752E+01  2.4835539E+01
 2.2741251E+01  2.4879862E+01
 2.2752750E+01  2.4932610E+01
 2.2764252E+01  2.4986843E+01
 2.2775751E+01  2.5016619E+01
 2.2787251E+01  2.5019157E+01
 2.2798752E+01  2.5010635E+01
 2.2810251E+01  2.5044783E+01
 2.2821751E+01  2.5046972E+01
 2.2833252E+01  2.5137327E+01
 2.2844751E+01  2.5221472E+01
 2.2856251E+01  2.5294579E+01
 2.2867750E+01  2.5410370E+01
 2.2879251E+01  2.5457697E+01
 2.2890751E+01  2.5593624E+01
 2.2902250E+01  2.5601292E+01
 2.2913752E+01  2.5628477E+01
 2.2925251E+01  2.5582619E+01
 2.2936750E+01  2.5597755E+01
 2.2948252E+01  2.5648943E+01
 2.2959751E+01  2.5717463E+01
 2.2971251E+01  2.5846931E+01
 2.2982752E+01  2.5940042E+01
 2.2994251E+01  2.6020308E+01
