F:\20151113_APS_34IDE\\Brian\Particle1\OCV\Data_0034.tif
2-Theta Angle (Degrees)
Intensity
       2000
 5.7500005E-03  0.0000000E+00
 1.7250001E-02  0.0000000E+00
 2.8750001E-02  0.0000000E+00
 4.0250003E-02  0.0000000E+00
 5.1750004E-02  0.0000000E+00
 6.3250005E-02  0.0000000E+00
 7.4750006E-02  0.0000000E+00
 8.6250007E-02  0.0000000E+00
 9.7750008E-02  0.0000000E+00
 1.0925001E-01  0.0000000E+00
 1.2075000E-01  0.0000000E+00
 1.3225001E-01  0.0000000E+00
 1.4375001E-01  0.0000000E+00
 1.5525001E-01  0.0000000E+00
 1.6675001E-01  0.0000000E+00
 1.7825001E-01  0.0000000E+00
 1.8975002E-01  0.0000000E+00
 2.0125002E-01  0.0000000E+00
 2.1275002E-01  0.0000000E+00
 2.2425000E-01  0.0000000E+00
 2.3575000E-01  0.0000000E+00
 2.4725001E-01  0.0000000E+00
 2.5875002E-01  0.0000000E+00
 2.7025002E-01  0.0000000E+00
 2.8175002E-01  0.0000000E+00
 2.9325002E-01  0.0000000E+00
 3.0475003E-01  0.0000000E+00
 3.1625003E-01  0.0000000E+00
 3.2775003E-01  0.0000000E+00
 3.3925003E-01  0.0000000E+00
 3.5075003E-01  0.0000000E+00
 3.6225003E-01  0.0000000E+00
 3.7375003E-01  0.0000000E+00
 3.8525003E-01  0.0000000E+00
 3.9675003E-01  0.0000000E+00
 4.0825003E-01  0.0000000E+00
 4.1975003E-01  0.0000000E+00
 4.3125004E-01  0.0000000E+00
 4.4275001E-01  0.0000000E+00
 4.5425001E-01  0.0000000E+00
 4.6575001E-01  0.0000000E+00
 4.7725001E-01  0.0000000E+00
 4.8875001E-01  0.0000000E+00
 5.0025004E-01  0.0000000E+00
 5.1175004E-01  0.0000000E+00
 5.2325004E-01  0.0000000E+00
 5.3475004E-01  0.0000000E+00
 5.4625005E-01  0.0000000E+00
 5.5775005E-01  0.0000000E+00
 5.6925005E-01  0.0000000E+00
 5.8075005E-01  0.0000000E+00
 5.9225005E-01  0.0000000E+00
 6.0375005E-01  0.0000000E+00
 6.1525005E-01  0.0000000E+00
 6.2675005E-01  0.0000000E+00
 6.3825005E-01  0.0000000E+00
 6.4975005E-01  0.0000000E+00
 6.6125005E-01  0.0000000E+00
 6.7275006E-01  0.0000000E+00
 6.8425006E-01  0.0000000E+00
 6.9575006E-01  0.0000000E+00
 7.0725006E-01  0.0000000E+00
 7.1875006E-01  0.0000000E+00
 7.3025006E-01  0.0000000E+00
 7.4175006E-01  0.0000000E+00
 7.5325006E-01  0.0000000E+00
 7.6475006E-01  0.0000000E+00
 7.7625006E-01  0.0000000E+00
 7.8775007E-01  0.0000000E+00
 7.9925007E-01  0.0000000E+00
 8.1075007E-01  0.0000000E+00
 8.2225007E-01  0.0000000E+00
 8.3375007E-01  0.0000000E+00
 8.4525007E-01  0.0000000E+00
 8.5675007E-01  0.0000000E+00
 8.6825007E-01  0.0000000E+00
 8.7975001E-01  0.0000000E+00
 8.9125001E-01  0.0000000E+00
 9.0275002E-01  0.0000000E+00
 9.1425002E-01  0.0000000E+00
 9.2575002E-01  0.0000000E+00
 9.3725002E-01  0.0000000E+00
 9.4875002E-01  0.0000000E+00
 9.6025002E-01  0.0000000E+00
 9.7175002E-01  0.0000000E+00
 9.8325002E-01  0.0000000E+00
 9.9475002E-01  0.0000000E+00
 1.0062500E+00  0.0000000E+00
 1.0177500E+00  0.0000000E+00
 1.0292500E+00  0.0000000E+00
 1.0407500E+00  0.0000000E+00
 1.0522500E+00  0.0000000E+00
 1.0637500E+00  0.0000000E+00
 1.0752500E+00  0.0000000E+00
 1.0867500E+00  0.0000000E+00
 1.0982500E+00  0.0000000E+00
 1.1097500E+00  0.0000000E+00
 1.1212500E+00  0.0000000E+00
 1.1327500E+00  0.0000000E+00
 1.1442500E+00  0.0000000E+00
 1.1557500E+00  0.0000000E+00
 1.1672500E+00  0.0000000E+00
 1.1787500E+00  0.0000000E+00
 1.1902500E+00  0.0000000E+00
 1.2017500E+00  0.0000000E+00
 1.2132500E+00  0.0000000E+00
 1.2247500E+00  0.0000000E+00
 1.2362500E+00  0.0000000E+00
 1.2477500E+00  0.0000000E+00
 1.2592500E+00  0.0000000E+00
 1.2707500E+00  0.0000000E+00
 1.2822500E+00  0.0000000E+00
 1.2937500E+00  0.0000000E+00
 1.3052500E+00  0.0000000E+00
 1.3167500E+00  0.0000000E+00
 1.3282501E+00  0.0000000E+00
 1.3397501E+00  0.0000000E+00
 1.3512501E+00  0.0000000E+00
 1.3627501E+00  0.0000000E+00
 1.3742501E+00  0.0000000E+00
 1.3857501E+00  0.0000000E+00
 1.3972501E+00  0.0000000E+00
 1.4087501E+00  0.0000000E+00
 1.4202501E+00  0.0000000E+00
 1.4317501E+00  0.0000000E+00
 1.4432501E+00  0.0000000E+00
 1.4547501E+00  0.0000000E+00
 1.4662501E+00  0.0000000E+00
 1.4777501E+00  0.0000000E+00
 1.4892501E+00  0.0000000E+00
 1.5007501E+00  0.0000000E+00
 1.5122501E+00  0.0000000E+00
 1.5237501E+00  0.0000000E+00
 1.5352501E+00  0.0000000E+00
 1.5467501E+00  0.0000000E+00
 1.5582501E+00  0.0000000E+00
 1.5697501E+00  0.0000000E+00
 1.5812501E+00  0.0000000E+00
 1.5927501E+00  0.0000000E+00
 1.6042501E+00  0.0000000E+00
 1.6157501E+00  0.0000000E+00
 1.6272501E+00  0.0000000E+00
 1.6387501E+00  0.0000000E+00
 1.6502501E+00  0.0000000E+00
 1.6617501E+00  0.0000000E+00
 1.6732501E+00  0.0000000E+00
 1.6847501E+00  0.0000000E+00
 1.6962501E+00  0.0000000E+00
 1.7077501E+00  0.0000000E+00
 1.7192501E+00  0.0000000E+00
 1.7307501E+00  0.0000000E+00
 1.7422501E+00  0.0000000E+00
 1.7537501E+00  0.0000000E+00
 1.7652501E+00  0.0000000E+00
 1.7767501E+00  0.0000000E+00
 1.7882501E+00  0.0000000E+00
 1.7997501E+00  0.0000000E+00
 1.8112501E+00  0.0000000E+00
 1.8227501E+00  0.0000000E+00
 1.8342501E+00  0.0000000E+00
 1.8457501E+00  0.0000000E+00
 1.8572501E+00  0.0000000E+00
 1.8687501E+00  0.0000000E+00
 1.8802501E+00  0.0000000E+00
 1.8917501E+00  0.0000000E+00
 1.9032501E+00  0.0000000E+00
 1.9147501E+00  0.0000000E+00
 1.9262501E+00  0.0000000E+00
 1.9377501E+00  0.0000000E+00
 1.9492501E+00  0.0000000E+00
 1.9607501E+00  0.0000000E+00
 1.9722501E+00  0.0000000E+00
 1.9837501E+00  0.0000000E+00
 1.9952501E+00  0.0000000E+00
 2.0067501E+00  0.0000000E+00
 2.0182500E+00  0.0000000E+00
 2.0297501E+00  0.0000000E+00
 2.0412500E+00  0.0000000E+00
 2.0527501E+00  0.0000000E+00
 2.0642500E+00  0.0000000E+00
 2.0757501E+00  0.0000000E+00
 2.0872500E+00  0.0000000E+00
 2.0987501E+00  0.0000000E+00
 2.1102500E+00  0.0000000E+00
 2.1217501E+00  0.0000000E+00
 2.1332500E+00  0.0000000E+00
 2.1447501E+00  0.0000000E+00
 2.1562500E+00  0.0000000E+00
 2.1677501E+00  0.0000000E+00
 2.1792500E+00  0.0000000E+00
 2.1907501E+00  0.0000000E+00
 2.2022500E+00  0.0000000E+00
 2.2137501E+00  0.0000000E+00
 2.2252500E+00  0.0000000E+00
 2.2367501E+00  0.0000000E+00
 2.2482500E+00  0.0000000E+00
 2.2597501E+00  0.0000000E+00
 2.2712500E+00  0.0000000E+00
 2.2827501E+00  0.0000000E+00
 2.2942500E+00  0.0000000E+00
 2.3057501E+00  0.0000000E+00
 2.3172500E+00  0.0000000E+00
 2.3287501E+00  0.0000000E+00
 2.3402500E+00  0.0000000E+00
 2.3517501E+00  0.0000000E+00
 2.3632500E+00  0.0000000E+00
 2.3747501E+00  0.0000000E+00
 2.3862500E+00  0.0000000E+00
 2.3977501E+00  0.0000000E+00
 2.4092500E+00  0.0000000E+00
 2.4207501E+00  0.0000000E+00
 2.4322500E+00  0.0000000E+00
 2.4437501E+00  0.0000000E+00
 2.4552500E+00  0.0000000E+00
 2.4667501E+00  0.0000000E+00
 2.4782500E+00  0.0000000E+00
 2.4897501E+00  0.0000000E+00
 2.5012500E+00  0.0000000E+00
 2.5127501E+00  0.0000000E+00
 2.5242500E+00  0.0000000E+00
 2.5357502E+00  0.0000000E+00
 2.5472500E+00  0.0000000E+00
 2.5587502E+00  0.0000000E+00
 2.5702500E+00  0.0000000E+00
 2.5817502E+00  0.0000000E+00
 2.5932500E+00  0.0000000E+00
 2.6047502E+00  0.0000000E+00
 2.6162500E+00  0.0000000E+00
 2.6277502E+00  0.0000000E+00
 2.6392500E+00  0.0000000E+00
 2.6507502E+00  0.0000000E+00
 2.6622500E+00  0.0000000E+00
 2.6737502E+00  0.0000000E+00
 2.6852500E+00  0.0000000E+00
 2.6967502E+00  0.0000000E+00
 2.7082500E+00  0.0000000E+00
 2.7197502E+00  0.0000000E+00
 2.7312500E+00  0.0000000E+00
 2.7427502E+00  0.0000000E+00
 2.7542500E+00  0.0000000E+00
 2.7657502E+00  0.0000000E+00
 2.7772501E+00  0.0000000E+00
 2.7887502E+00  0.0000000E+00
 2.8002501E+00  0.0000000E+00
 2.8117502E+00  0.0000000E+00
 2.8232501E+00  3.1653147E+01
 2.8347502E+00  3.2420185E+01
 2.8462501E+00  3.3335373E+01
 2.8577502E+00  3.3782482E+01
 2.8692501E+00  3.4105465E+01
 2.8807502E+00  3.4325928E+01
 2.8922501E+00  3.4686497E+01
 2.9037502E+00  3.5609428E+01
 2.9152501E+00  3.6526699E+01
 2.9267502E+00  3.7234833E+01
 2.9382501E+00  3.7150093E+01
 2.9497502E+00  3.6964386E+01
 2.9612501E+00  3.6674137E+01
 2.9727502E+00  3.6321415E+01
 2.9842501E+00  3.6180641E+01
 2.9957502E+00  3.6018242E+01
 3.0072501E+00  3.6057800E+01
 3.0187502E+00  3.5998867E+01
 3.0302501E+00  3.5940556E+01
 3.0417502E+00  3.6262672E+01
 3.0532501E+00  3.6143333E+01
 3.0647502E+00  3.6306267E+01
 3.0762501E+00  3.6117073E+01
 3.0877502E+00  3.6051445E+01
 3.0992501E+00  3.5713596E+01
 3.1107502E+00  3.5374058E+01
 3.1222501E+00  3.5399242E+01
 3.1337502E+00  3.5301750E+01
 3.1452501E+00  3.5227291E+01
 3.1567502E+00  3.5144981E+01
 3.1682501E+00  3.5165199E+01
 3.1797502E+00  3.5589100E+01
 3.1912501E+00  3.5435459E+01
 3.2027502E+00  3.5703266E+01
 3.2142501E+00  3.5587696E+01
 3.2257502E+00  3.5552586E+01
 3.2372501E+00  3.5301785E+01
 3.2487502E+00  3.4865681E+01
 3.2602501E+00  3.5031464E+01
 3.2717502E+00  3.4838581E+01
 3.2832501E+00  3.4904797E+01
 3.2947502E+00  3.4897327E+01
 3.3062501E+00  3.5257164E+01
 3.3177502E+00  3.5455845E+01
 3.3292501E+00  3.5571400E+01
 3.3407502E+00  3.5469406E+01
 3.3522501E+00  3.5576481E+01
 3.3637502E+00  3.5742577E+01
 3.3752501E+00  3.5868694E+01
 3.3867502E+00  3.5729500E+01
 3.3982501E+00  3.5469650E+01
 3.4097502E+00  3.5292683E+01
 3.4212501E+00  3.5112427E+01
 3.4327502E+00  3.4769718E+01
 3.4442501E+00  3.4404392E+01
 3.4557502E+00  3.4380390E+01
 3.4672501E+00  3.4052185E+01
 3.4787502E+00  3.3858318E+01
 3.4902501E+00  3.3858543E+01
 3.5017502E+00  3.3668270E+01
 3.5132501E+00  3.3749443E+01
 3.5247502E+00  3.3589985E+01
 3.5362501E+00  3.3593636E+01
 3.5477502E+00  3.3778355E+01
 3.5592501E+00  3.3632420E+01
 3.5707502E+00  3.3563866E+01
 3.5822501E+00  3.3331585E+01
 3.5937502E+00  3.3307220E+01
 3.6052501E+00  3.3189495E+01
 3.6167502E+00  3.3242237E+01
 3.6282501E+00  3.3211433E+01
 3.6397502E+00  3.3253067E+01
 3.6512501E+00  3.3125328E+01
 3.6627502E+00  3.3230335E+01
 3.6742501E+00  3.3219875E+01
 3.6857502E+00  3.3300259E+01
 3.6972501E+00  3.3328018E+01
 3.7087502E+00  3.3242741E+01
 3.7202501E+00  3.3440655E+01
 3.7317502E+00  3.3249844E+01
 3.7432501E+00  3.3523609E+01
 3.7547503E+00  3.3563335E+01
 3.7662501E+00  3.3640720E+01
 3.7777503E+00  3.3617794E+01
 3.7892501E+00  3.3468719E+01
 3.8007503E+00  3.3318600E+01
 3.8122501E+00  3.3221546E+01
 3.8237503E+00  3.3226307E+01
 3.8352501E+00  3.3106724E+01
 3.8467503E+00  3.3208454E+01
 3.8582501E+00  3.2915279E+01
 3.8697503E+00  3.3020069E+01
 3.8812501E+00  3.3001163E+01
 3.8927503E+00  3.2994080E+01
 3.9042501E+00  3.2923428E+01
 3.9157503E+00  3.2895306E+01
 3.9272501E+00  3.2897087E+01
 3.9387503E+00  3.2997608E+01
 3.9502501E+00  3.2785751E+01
 3.9617503E+00  3.2737370E+01
 3.9732502E+00  3.2832829E+01
 3.9847503E+00  3.2900631E+01
 3.9962502E+00  3.3043041E+01
 4.0077500E+00  3.2945225E+01
 4.0192504E+00  3.2940472E+01
 4.0307503E+00  3.2763275E+01
 4.0422502E+00  3.2693958E+01
 4.0537500E+00  3.2589245E+01
 4.0652504E+00  3.2640770E+01
 4.0767503E+00  3.2605453E+01
 4.0882502E+00  3.2635742E+01
 4.0997500E+00  3.2447456E+01
 4.1112504E+00  3.2352486E+01
 4.1227503E+00  3.2213902E+01
 4.1342502E+00  3.2211468E+01
 4.1457500E+00  3.2321228E+01
 4.1572504E+00  3.2310894E+01
 4.1687503E+00  3.2306767E+01
 4.1802502E+00  3.2213139E+01
 4.1917500E+00  3.2351170E+01
 4.2032504E+00  3.2639629E+01
 4.2147503E+00  3.2898705E+01
 4.2262502E+00  3.3005081E+01
 4.2377501E+00  3.3069492E+01
 4.2492504E+00  3.2820328E+01
 4.2607503E+00  3.2738522E+01
 4.2722502E+00  3.2512016E+01
 4.2837501E+00  3.2546921E+01
 4.2952504E+00  3.2526295E+01
 4.3067503E+00  3.2478855E+01
 4.3182502E+00  3.2581066E+01
 4.3297501E+00  3.2530037E+01
 4.3412504E+00  3.2585732E+01
 4.3527503E+00  3.2543934E+01
 4.3642502E+00  3.2468781E+01
 4.3757501E+00  3.2517338E+01
 4.3872504E+00  3.2517834E+01
 4.3987503E+00  3.2662674E+01
 4.4102502E+00  3.2766270E+01
 4.4217501E+00  3.2795746E+01
 4.4332504E+00  3.2753529E+01
 4.4447503E+00  3.2752525E+01
 4.4562502E+00  3.2646919E+01
 4.4677501E+00  3.2657852E+01
 4.4792504E+00  3.2633144E+01
 4.4907503E+00  3.2592896E+01
 4.5022502E+00  3.2569130E+01
 4.5137501E+00  3.2518993E+01
 4.5252504E+00  3.2583378E+01
 4.5367503E+00  3.2748150E+01
 4.5482502E+00  3.2680511E+01
 4.5597501E+00  3.2705376E+01
 4.5712504E+00  3.2718533E+01
 4.5827503E+00  3.2707355E+01
 4.5942502E+00  3.2802071E+01
 4.6057501E+00  3.2831745E+01
 4.6172504E+00  3.2896305E+01
 4.6287503E+00  3.2866131E+01
 4.6402502E+00  3.2919453E+01
 4.6517501E+00  3.2901810E+01
 4.6632504E+00  3.3030571E+01
 4.6747503E+00  3.2888485E+01
 4.6862502E+00  3.3023884E+01
 4.6977501E+00  3.2897781E+01
 4.7092505E+00  3.2818523E+01
 4.7207503E+00  3.2716995E+01
 4.7322502E+00  3.2538574E+01
 4.7437501E+00  3.2502293E+01
 4.7552505E+00  3.2399071E+01
 4.7667503E+00  3.2427681E+01
 4.7782502E+00  3.2483208E+01
 4.7897501E+00  3.2538483E+01
 4.8012505E+00  3.2580959E+01
 4.8127503E+00  3.2605499E+01
 4.8242502E+00  3.2640301E+01
 4.8357501E+00  3.2745609E+01
 4.8472505E+00  3.2857407E+01
 4.8587503E+00  3.3062397E+01
 4.8702502E+00  3.3023525E+01
 4.8817501E+00  3.3069595E+01
 4.8932505E+00  3.3003963E+01
 4.9047503E+00  3.2868267E+01
 4.9162502E+00  3.2822052E+01
 4.9277501E+00  3.2644028E+01
 4.9392505E+00  3.2695244E+01
 4.9507504E+00  3.2681282E+01
 4.9622502E+00  3.2712826E+01
 4.9737501E+00  3.2930691E+01
 4.9852505E+00  3.3050896E+01
 4.9967504E+00  3.3244537E+01
 5.0082502E+00  3.3353600E+01
 5.0197501E+00  3.3308239E+01
 5.0312505E+00  3.3271126E+01
 5.0427504E+00  3.3195137E+01
 5.0542502E+00  3.3239323E+01
 5.0657501E+00  3.3276833E+01
 5.0772505E+00  3.3290249E+01
 5.0887504E+00  3.3441128E+01
 5.1002502E+00  3.3610023E+01
 5.1117501E+00  3.3716087E+01
 5.1232505E+00  3.3744347E+01
 5.1347504E+00  3.3754501E+01
 5.1462502E+00  3.3828979E+01
 5.1577501E+00  3.3898525E+01
 5.1692505E+00  3.3941170E+01
 5.1807504E+00  3.3964382E+01
 5.1922503E+00  3.4018158E+01
 5.2037501E+00  3.4040512E+01
 5.2152505E+00  3.4052265E+01
 5.2267504E+00  3.3986156E+01
 5.2382503E+00  3.3985065E+01
 5.2497501E+00  3.3905499E+01
 5.2612505E+00  3.3998283E+01
 5.2727504E+00  3.4019264E+01
 5.2842503E+00  3.4074562E+01
 5.2957501E+00  3.4138958E+01
 5.3072500E+00  3.4169510E+01
 5.3187504E+00  3.4303894E+01
 5.3302503E+00  3.4275051E+01
 5.3417501E+00  3.4317543E+01
 5.3532500E+00  3.4306305E+01
 5.3647504E+00  3.4323799E+01
 5.3762503E+00  3.4487934E+01
 5.3877501E+00  3.4530029E+01
 5.3992500E+00  3.4569500E+01
 5.4107504E+00  3.4524334E+01
 5.4222503E+00  3.4457893E+01
 5.4337502E+00  3.4387871E+01
 5.4452500E+00  3.4403301E+01
 5.4567504E+00  3.4433414E+01
 5.4682503E+00  3.4496037E+01
 5.4797502E+00  3.4548828E+01
 5.4912500E+00  3.4616745E+01
 5.5027504E+00  3.4745472E+01
 5.5142503E+00  3.4918224E+01
 5.5257502E+00  3.5005760E+01
 5.5372500E+00  3.5038109E+01
 5.5487504E+00  3.5013248E+01
 5.5602503E+00  3.5031815E+01
 5.5717502E+00  3.5134392E+01
 5.5832500E+00  3.5083431E+01
 5.5947504E+00  3.5174942E+01
 5.6062503E+00  3.5259434E+01
 5.6177502E+00  3.5379467E+01
 5.6292500E+00  3.5382252E+01
 5.6407504E+00  3.5305012E+01
 5.6522503E+00  3.5259140E+01
 5.6637502E+00  3.5203621E+01
 5.6752501E+00  3.5307739E+01
 5.6867504E+00  3.5319313E+01
 5.6982503E+00  3.5364475E+01
 5.7097502E+00  3.5324448E+01
 5.7212501E+00  3.5394833E+01
 5.7327504E+00  3.5446846E+01
 5.7442503E+00  3.5509190E+01
 5.7557502E+00  3.5599895E+01
 5.7672501E+00  3.5699368E+01
 5.7787504E+00  3.5862446E+01
 5.7902503E+00  3.5961712E+01
 5.8017502E+00  3.6064903E+01
 5.8132501E+00  3.6146736E+01
 5.8247504E+00  3.6229294E+01
 5.8362503E+00  3.6311092E+01
 5.8477502E+00  3.6426640E+01
 5.8592501E+00  3.6620808E+01
 5.8707504E+00  3.6900150E+01
 5.8822503E+00  3.7254166E+01
 5.8937502E+00  3.7798790E+01
 5.9052501E+00  3.8976017E+01
 5.9167504E+00  4.0368237E+01
 5.9282503E+00  4.3578861E+01
 5.9397502E+00  5.0889595E+01
 5.9512501E+00  5.7219738E+01
 5.9627504E+00  6.6214767E+01
 5.9742503E+00  7.4376549E+01
 5.9857502E+00  7.7645485E+01
 5.9972501E+00  7.9635590E+01
 6.0087504E+00  7.2858345E+01
 6.0202503E+00  6.4710632E+01
 6.0317502E+00  5.2596676E+01
 6.0432501E+00  4.4411404E+01
 6.0547504E+00  4.1946945E+01
 6.0662503E+00  4.0032097E+01
 6.0777502E+00  3.8857807E+01
 6.0892501E+00  3.8547771E+01
 6.1007504E+00  3.8236370E+01
 6.1122503E+00  3.8088135E+01
 6.1237502E+00  3.7930290E+01
 6.1352501E+00  3.7693913E+01
 6.1467505E+00  3.7546696E+01
 6.1582503E+00  3.7549835E+01
 6.1697502E+00  3.7508495E+01
 6.1812501E+00  3.7620399E+01
 6.1927505E+00  3.7563324E+01
 6.2042503E+00  3.7547596E+01
 6.2157502E+00  3.7471554E+01
 6.2272501E+00  3.7320454E+01
 6.2387505E+00  3.7256302E+01
 6.2502503E+00  3.7342361E+01
 6.2617502E+00  3.7475716E+01
 6.2732501E+00  3.7882435E+01
 6.2847505E+00  3.8300373E+01
 6.2962503E+00  3.8831261E+01
 6.3077502E+00  3.9401321E+01
 6.3192501E+00  3.9701824E+01
 6.3307505E+00  3.9755951E+01
 6.3422503E+00  3.9616341E+01
 6.3537502E+00  3.9359470E+01
 6.3652501E+00  3.9065792E+01
 6.3767505E+00  3.8797295E+01
 6.3882504E+00  3.8565758E+01
 6.3997502E+00  3.8492699E+01
 6.4112501E+00  3.8421818E+01
 6.4227505E+00  3.8452595E+01
 6.4342504E+00  3.8515678E+01
 6.4457502E+00  3.8548439E+01
 6.4572501E+00  3.8622234E+01
 6.4687505E+00  3.8737144E+01
 6.4802504E+00  3.8811096E+01
 6.4917502E+00  3.8976467E+01
 6.5032501E+00  3.9051579E+01
 6.5147505E+00  3.9276569E+01
 6.5262504E+00  3.9371922E+01
 6.5377502E+00  3.9542381E+01
 6.5492501E+00  3.9507267E+01
 6.5607505E+00  3.9499794E+01
 6.5722504E+00  3.9482449E+01
 6.5837502E+00  3.9587879E+01
 6.5952501E+00  3.9699108E+01
 6.6067505E+00  3.9869991E+01
 6.6182504E+00  3.9965904E+01
 6.6297503E+00  4.0143566E+01
 6.6412501E+00  4.0246212E+01
 6.6527505E+00  4.0312881E+01
 6.6642504E+00  4.0362125E+01
 6.6757503E+00  4.0287552E+01
 6.6872501E+00  4.0282890E+01
 6.6987505E+00  4.0216213E+01
 6.7102504E+00  4.0346298E+01
 6.7217503E+00  4.0320389E+01
 6.7332501E+00  4.0429016E+01
 6.7447505E+00  4.0552231E+01
 6.7562504E+00  4.0719948E+01
 6.7677503E+00  4.0936424E+01
 6.7792501E+00  4.1058163E+01
 6.7907505E+00  4.1239666E+01
 6.8022504E+00  4.1387794E+01
 6.8137503E+00  4.1503902E+01
 6.8252501E+00  4.1557747E+01
 6.8367505E+00  4.1530529E+01
 6.8482504E+00  4.1589626E+01
 6.8597503E+00  4.1706326E+01
 6.8712502E+00  4.1730461E+01
 6.8827505E+00  4.1841145E+01
 6.8942504E+00  4.1882618E+01
 6.9057503E+00  4.1987747E+01
 6.9172502E+00  4.1977955E+01
 6.9287505E+00  4.1971642E+01
 6.9402504E+00  4.2100624E+01
 6.9517503E+00  4.2083313E+01
 6.9632502E+00  4.2165676E+01
 6.9747505E+00  4.2252571E+01
 6.9862504E+00  4.2399628E+01
 6.9977503E+00  4.2489838E+01
 7.0092502E+00  4.2526409E+01
 7.0207505E+00  4.2571529E+01
 7.0322504E+00  4.2627666E+01
 7.0437503E+00  4.2627605E+01
 7.0552502E+00  4.2685879E+01
 7.0667505E+00  4.2741554E+01
 7.0782504E+00  4.2782249E+01
 7.0897503E+00  4.2824600E+01
 7.1012502E+00  4.2886189E+01
 7.1127505E+00  4.2985409E+01
 7.1242504E+00  4.3071194E+01
 7.1357503E+00  4.3179657E+01
 7.1472502E+00  4.3194897E+01
 7.1587505E+00  4.3248512E+01
 7.1702504E+00  4.3252811E+01
 7.1817503E+00  4.3275307E+01
 7.1932502E+00  4.3332829E+01
 7.2047505E+00  4.3358780E+01
 7.2162504E+00  4.3460293E+01
 7.2277503E+00  4.3547703E+01
 7.2392502E+00  4.3633823E+01
 7.2507505E+00  4.3687183E+01
 7.2622504E+00  4.3652828E+01
 7.2737503E+00  4.3755787E+01
 7.2852502E+00  4.3737186E+01
 7.2967505E+00  4.3765781E+01
 7.3082504E+00  4.3664154E+01
 7.3197503E+00  4.3765911E+01
 7.3312502E+00  4.3860008E+01
 7.3427505E+00  4.4040119E+01
 7.3542504E+00  4.4191490E+01
 7.3657503E+00  4.4375492E+01
 7.3772502E+00  4.4410976E+01
 7.3887506E+00  4.4430424E+01
 7.4002504E+00  4.4487614E+01
 7.4117503E+00  4.4587982E+01
 7.4232502E+00  4.4582935E+01
 7.4347506E+00  4.4534088E+01
 7.4462504E+00  4.4416847E+01
 7.4577503E+00  4.4364990E+01
 7.4692502E+00  4.4222458E+01
 7.4807506E+00  4.4195148E+01
 7.4922504E+00  4.4201721E+01
 7.5037503E+00  4.4185802E+01
 7.5152502E+00  4.4217422E+01
 7.5267506E+00  4.4125534E+01
 7.5382504E+00  4.4306946E+01
 7.5497503E+00  4.4395092E+01
 7.5612502E+00  4.4511528E+01
 7.5727506E+00  4.4463844E+01
 7.5842505E+00  4.4445984E+01
 7.5957503E+00  4.4425640E+01
 7.6072502E+00  4.4557064E+01
 7.6187506E+00  4.4533470E+01
 7.6302505E+00  4.4562744E+01
 7.6417503E+00  4.4580284E+01
 7.6532502E+00  4.4570862E+01
 7.6647506E+00  4.4632759E+01
 7.6762505E+00  4.4462223E+01
 7.6877503E+00  4.4411152E+01
 7.6992502E+00  4.4352211E+01
 7.7107506E+00  4.4390785E+01
 7.7222505E+00  4.4420132E+01
 7.7337503E+00  4.4428616E+01
 7.7452502E+00  4.4509548E+01
 7.7567506E+00  4.4541088E+01
 7.7682505E+00  4.4552296E+01
 7.7797503E+00  4.4590900E+01
 7.7912502E+00  4.4615276E+01
 7.8027506E+00  4.4699135E+01
 7.8142505E+00  4.4669392E+01
 7.8257504E+00  4.4646706E+01
 7.8372502E+00  4.4641399E+01
 7.8487506E+00  4.4598122E+01
 7.8602505E+00  4.4575237E+01
 7.8717504E+00  4.4511532E+01
 7.8832502E+00  4.4469269E+01
 7.8947506E+00  4.4349365E+01
 7.9062505E+00  4.4269535E+01
 7.9177504E+00  4.4156395E+01
 7.9292502E+00  4.4107349E+01
 7.9407506E+00  4.4030647E+01
 7.9522505E+00  4.4053806E+01
 7.9637504E+00  4.4026669E+01
 7.9752502E+00  4.4120941E+01
 7.9867506E+00  4.4013996E+01
 7.9982505E+00  4.3981129E+01
 8.0097504E+00  4.3779442E+01
 8.0212507E+00  4.3660793E+01
 8.0327501E+00  4.3576897E+01
 8.0442505E+00  4.3535732E+01
 8.0557508E+00  4.3461403E+01
 8.0672503E+00  4.3311989E+01
 8.0787506E+00  4.3137772E+01
 8.0902500E+00  4.3063667E+01
 8.1017504E+00  4.3052525E+01
 8.1132507E+00  4.3135067E+01
 8.1247501E+00  4.3039032E+01
 8.1362505E+00  4.3045559E+01
 8.1477509E+00  4.2880688E+01
 8.1592503E+00  4.2796406E+01
 8.1707506E+00  4.2653652E+01
 8.1822500E+00  4.2447491E+01
 8.1937504E+00  4.2327190E+01
 8.2052507E+00  4.2164597E+01
 8.2167501E+00  4.1975079E+01
 8.2282505E+00  4.1869534E+01
 8.2397509E+00  4.1704803E+01
 8.2512503E+00  4.1608807E+01
 8.2627506E+00  4.1511700E+01
 8.2742500E+00  4.1386662E+01
 8.2857504E+00  4.1276073E+01
 8.2972507E+00  4.1099632E+01
 8.3087502E+00  4.0941196E+01
 8.3202505E+00  4.0853882E+01
 8.3317509E+00  4.0718941E+01
 8.3432503E+00  4.0682060E+01
 8.3547506E+00  4.0585896E+01
 8.3662500E+00  4.0526932E+01
 8.3777504E+00  4.0437607E+01
 8.3892508E+00  4.0299664E+01
 8.4007502E+00  4.0071594E+01
 8.4122505E+00  3.9763641E+01
 8.4237509E+00  3.9509647E+01
 8.4352503E+00  3.9268887E+01
 8.4467506E+00  3.9119316E+01
 8.4582500E+00  3.8974808E+01
 8.4697504E+00  3.8834335E+01
 8.4812508E+00  3.8646107E+01
 8.4927502E+00  3.8434978E+01
 8.5042505E+00  3.8288376E+01
 8.5157509E+00  3.8105267E+01
 8.5272503E+00  3.7958336E+01
 8.5387506E+00  3.7808697E+01
 8.5502501E+00  3.7607513E+01
 8.5617504E+00  3.7486126E+01
 8.5732508E+00  3.7434040E+01
 8.5847502E+00  3.7361137E+01
 8.5962505E+00  3.7189407E+01
 8.6077509E+00  3.6946056E+01
 8.6192503E+00  3.6743084E+01
 8.6307507E+00  3.6588791E+01
 8.6422501E+00  3.6334103E+01
 8.6537504E+00  3.6063927E+01
 8.6652508E+00  3.5807396E+01
 8.6767502E+00  3.5603737E+01
 8.6882505E+00  3.5475025E+01
 8.6997509E+00  3.5332073E+01
 8.7112503E+00  3.5159313E+01
 8.7227507E+00  3.5045635E+01
 8.7342501E+00  3.4887199E+01
 8.7457504E+00  3.4717598E+01
 8.7572508E+00  3.4502949E+01
 8.7687502E+00  3.4349556E+01
 8.7802505E+00  3.4228222E+01
 8.7917500E+00  3.4076115E+01
 8.8032503E+00  3.3843750E+01
 8.8147507E+00  3.3694397E+01
 8.8262501E+00  3.3508156E+01
 8.8377504E+00  3.3378098E+01
 8.8492508E+00  3.3183830E+01
 8.8607502E+00  3.3044308E+01
 8.8722506E+00  3.2930004E+01
 8.8837500E+00  3.2783951E+01
 8.8952503E+00  3.2617630E+01
 8.9067507E+00  3.2396755E+01
 8.9182501E+00  3.2211575E+01
 8.9297504E+00  3.2080791E+01
 8.9412508E+00  3.1963276E+01
 8.9527502E+00  3.1845720E+01
 8.9642506E+00  3.1735271E+01
 8.9757500E+00  3.1605221E+01
 8.9872503E+00  3.1446480E+01
 8.9987507E+00  3.1173595E+01
 9.0102501E+00  3.0983133E+01
 9.0217505E+00  3.0713018E+01
 9.0332508E+00  3.0608799E+01
 9.0447502E+00  3.0449972E+01
 9.0562506E+00  3.0321392E+01
 9.0677500E+00  3.0145857E+01
 9.0792503E+00  3.0034393E+01
 9.0907507E+00  2.9955835E+01
 9.1022501E+00  2.9888321E+01
 9.1137505E+00  2.9830194E+01
 9.1252508E+00  2.9871012E+01
 9.1367502E+00  2.9818661E+01
 9.1482506E+00  2.9757265E+01
 9.1597500E+00  2.9591255E+01
 9.1712503E+00  2.9467554E+01
 9.1827507E+00  2.9330826E+01
 9.1942501E+00  2.9186146E+01
 9.2057505E+00  2.9044790E+01
 9.2172508E+00  2.8870430E+01
 9.2287502E+00  2.8714489E+01
 9.2402506E+00  2.8576200E+01
 9.2517500E+00  2.8484577E+01
 9.2632504E+00  2.8321375E+01
 9.2747507E+00  2.8202139E+01
 9.2862501E+00  2.8020363E+01
 9.2977505E+00  2.7962683E+01
 9.3092508E+00  2.7861803E+01
 9.3207502E+00  2.7836128E+01
 9.3322506E+00  2.7767239E+01
 9.3437500E+00  2.7737204E+01
 9.3552504E+00  2.7648354E+01
 9.3667507E+00  2.7517332E+01
 9.3782501E+00  2.7404779E+01
 9.3897505E+00  2.7286552E+01
 9.4012508E+00  2.7166996E+01
 9.4127502E+00  2.7041117E+01
 9.4242506E+00  2.6971601E+01
 9.4357500E+00  2.6878868E+01
 9.4472504E+00  2.6837866E+01
 9.4587507E+00  2.6759956E+01
 9.4702501E+00  2.6795979E+01
 9.4817505E+00  2.6761383E+01
 9.4932508E+00  2.6728922E+01
 9.5047503E+00  2.6670450E+01
 9.5162506E+00  2.6607204E+01
 9.5277500E+00  2.6522125E+01
 9.5392504E+00  2.6504940E+01
 9.5507507E+00  2.6448156E+01
 9.5622501E+00  2.6434574E+01
 9.5737505E+00  2.6320765E+01
 9.5852509E+00  2.6213348E+01
 9.5967503E+00  2.6140484E+01
 9.6082506E+00  2.6087063E+01
 9.6197500E+00  2.6078022E+01
 9.6312504E+00  2.6006458E+01
 9.6427507E+00  2.5944309E+01
 9.6542501E+00  2.5884466E+01
 9.6657505E+00  2.5849201E+01
 9.6772509E+00  2.5740705E+01
 9.6887503E+00  2.5674234E+01
 9.7002506E+00  2.5568554E+01
 9.7117500E+00  2.5543381E+01
 9.7232504E+00  2.5452229E+01
 9.7347507E+00  2.5346977E+01
 9.7462502E+00  2.5221802E+01
 9.7577505E+00  2.5100275E+01
 9.7692509E+00  2.5129049E+01
 9.7807503E+00  2.5189377E+01
 9.7922506E+00  2.5270052E+01
 9.8037500E+00  2.5278170E+01
 9.8152504E+00  2.5283812E+01
 9.8267508E+00  2.5293261E+01
 9.8382502E+00  2.5244564E+01
 9.8497505E+00  2.5121964E+01
 9.8612509E+00  2.5000317E+01
 9.8727503E+00  2.4932154E+01
 9.8842506E+00  2.4898817E+01
 9.8957500E+00  2.4881531E+01
 9.9072504E+00  2.4881231E+01
 9.9187508E+00  2.4877993E+01
 9.9302502E+00  2.4855095E+01
 9.9417505E+00  2.4747778E+01
 9.9532509E+00  2.4608149E+01
 9.9647503E+00  2.4590158E+01
 9.9762506E+00  2.4595196E+01
 9.9877501E+00  2.4651117E+01
 9.9992504E+00  2.4651262E+01
 1.0010751E+01  2.4585247E+01
 1.0022250E+01  2.4490612E+01
 1.0033751E+01  2.4347353E+01
 1.0045251E+01  2.4293558E+01
 1.0056750E+01  2.4298845E+01
 1.0068251E+01  2.4347477E+01
 1.0079750E+01  2.4324598E+01
 1.0091250E+01  2.4319723E+01
 1.0102751E+01  2.4270407E+01
 1.0114250E+01  2.4256575E+01
 1.0125751E+01  2.4228159E+01
 1.0137251E+01  2.4136612E+01
 1.0148750E+01  2.4133018E+01
 1.0160251E+01  2.4087069E+01
 1.0171750E+01  2.4051462E+01
 1.0183250E+01  2.4004492E+01
 1.0194751E+01  2.3951612E+01
 1.0206250E+01  2.3978798E+01
 1.0217751E+01  2.3951996E+01
 1.0229251E+01  2.3931364E+01
 1.0240750E+01  2.3884857E+01
 1.0252251E+01  2.3799776E+01
 1.0263750E+01  2.3748713E+01
 1.0275250E+01  2.3729748E+01
 1.0286751E+01  2.3749218E+01
 1.0298250E+01  2.3796057E+01
 1.0309751E+01  2.3773510E+01
 1.0321251E+01  2.3782387E+01
 1.0332750E+01  2.3761652E+01
 1.0344251E+01  2.3758047E+01
 1.0355750E+01  2.3726404E+01
 1.0367250E+01  2.3643940E+01
 1.0378751E+01  2.3592890E+01
 1.0390250E+01  2.3622915E+01
 1.0401751E+01  2.3641119E+01
 1.0413251E+01  2.3648834E+01
 1.0424750E+01  2.3593822E+01
 1.0436251E+01  2.3549704E+01
 1.0447750E+01  2.3557936E+01
 1.0459250E+01  2.3505564E+01
 1.0470751E+01  2.3494446E+01
 1.0482250E+01  2.3443253E+01
 1.0493751E+01  2.3467646E+01
 1.0505251E+01  2.3415968E+01
 1.0516750E+01  2.3337778E+01
 1.0528251E+01  2.3271103E+01
 1.0539750E+01  2.3295420E+01
 1.0551250E+01  2.3288076E+01
 1.0562751E+01  2.3284704E+01
 1.0574250E+01  2.3238775E+01
 1.0585751E+01  2.3255478E+01
 1.0597251E+01  2.3202208E+01
 1.0608750E+01  2.3187885E+01
 1.0620251E+01  2.3216957E+01
 1.0631750E+01  2.3319351E+01
 1.0643250E+01  2.3355915E+01
 1.0654751E+01  2.3382113E+01
 1.0666250E+01  2.3335938E+01
 1.0677751E+01  2.3267052E+01
 1.0689251E+01  2.3231064E+01
 1.0700750E+01  2.3188463E+01
 1.0712251E+01  2.3212009E+01
 1.0723750E+01  2.3201990E+01
 1.0735250E+01  2.3200905E+01
 1.0746751E+01  2.3188051E+01
 1.0758250E+01  2.3178093E+01
 1.0769751E+01  2.3197874E+01
 1.0781251E+01  2.3212605E+01
 1.0792750E+01  2.3151361E+01
 1.0804251E+01  2.3110140E+01
 1.0815750E+01  2.3075342E+01
 1.0827250E+01  2.3107393E+01
 1.0838751E+01  2.3055101E+01
 1.0850250E+01  2.2997133E+01
 1.0861751E+01  2.2941908E+01
 1.0873251E+01  2.2923689E+01
 1.0884750E+01  2.2877119E+01
 1.0896251E+01  2.2834269E+01
 1.0907750E+01  2.2862965E+01
 1.0919250E+01  2.2896667E+01
 1.0930751E+01  2.2897676E+01
 1.0942250E+01  2.2864424E+01
 1.0953751E+01  2.2830536E+01
 1.0965251E+01  2.2797554E+01
 1.0976750E+01  2.2807972E+01
 1.0988251E+01  2.2793947E+01
 1.0999750E+01  2.2823692E+01
 1.1011250E+01  2.2739830E+01
 1.1022751E+01  2.2702154E+01
 1.1034250E+01  2.2713739E+01
 1.1045751E+01  2.2681978E+01
 1.1057251E+01  2.2678324E+01
 1.1068750E+01  2.2621584E+01
 1.1080251E+01  2.2700809E+01
 1.1091750E+01  2.2743982E+01
 1.1103251E+01  2.2803179E+01
 1.1114751E+01  2.2828634E+01
 1.1126250E+01  2.2853319E+01
 1.1137751E+01  2.2824795E+01
 1.1149251E+01  2.2752947E+01
 1.1160750E+01  2.2717402E+01
 1.1172251E+01  2.2633787E+01
 1.1183750E+01  2.2656487E+01
 1.1195251E+01  2.2643724E+01
 1.1206751E+01  2.2678308E+01
 1.1218250E+01  2.2677671E+01
 1.1229751E+01  2.2701403E+01
 1.1241251E+01  2.2730129E+01
 1.1252750E+01  2.2761692E+01
 1.1264251E+01  2.2707563E+01
 1.1275750E+01  2.2714586E+01
 1.1287251E+01  2.2614748E+01
 1.1298751E+01  2.2635635E+01
 1.1310250E+01  2.2622442E+01
 1.1321751E+01  2.2721123E+01
 1.1333251E+01  2.2768703E+01
 1.1344750E+01  2.2797934E+01
 1.1356251E+01  2.2800215E+01
 1.1367750E+01  2.2818933E+01
 1.1379251E+01  2.2780598E+01
 1.1390751E+01  2.2755392E+01
 1.1402250E+01  2.2800615E+01
 1.1413751E+01  2.2774069E+01
 1.1425251E+01  2.2778572E+01
 1.1436750E+01  2.2791983E+01
 1.1448251E+01  2.2905571E+01
 1.1459750E+01  2.2988287E+01
 1.1471251E+01  2.3069487E+01
 1.1482751E+01  2.3103842E+01
 1.1494250E+01  2.3161177E+01
 1.1505751E+01  2.3214752E+01
 1.1517251E+01  2.3414490E+01
 1.1528750E+01  2.3972044E+01
 1.1540251E+01  2.4517981E+01
 1.1551750E+01  2.5516291E+01
 1.1563251E+01  2.6490450E+01
 1.1574751E+01  2.7513577E+01
 1.1586250E+01  2.8176931E+01
 1.1597751E+01  2.8088097E+01
 1.1609251E+01  2.7395519E+01
 1.1620750E+01  2.6182539E+01
 1.1632251E+01  2.5023937E+01
 1.1643750E+01  2.4175852E+01
 1.1655251E+01  2.3621655E+01
 1.1666751E+01  2.3283615E+01
 1.1678250E+01  2.3099527E+01
 1.1689751E+01  2.2910351E+01
 1.1701251E+01  2.2777739E+01
 1.1712750E+01  2.2651937E+01
 1.1724251E+01  2.2577967E+01
 1.1735750E+01  2.2599157E+01
 1.1747251E+01  2.2648388E+01
 1.1758751E+01  2.2685638E+01
 1.1770250E+01  2.2677786E+01
 1.1781751E+01  2.2652939E+01
 1.1793251E+01  2.2623878E+01
 1.1804750E+01  2.2591599E+01
 1.1816251E+01  2.2624262E+01
 1.1827750E+01  2.2648159E+01
 1.1839251E+01  2.2698843E+01
 1.1850751E+01  2.2656239E+01
 1.1862250E+01  2.2637152E+01
 1.1873751E+01  2.2606031E+01
 1.1885251E+01  2.2588964E+01
 1.1896750E+01  2.2652573E+01
 1.1908251E+01  2.2639721E+01
 1.1919750E+01  2.2733824E+01
 1.1931251E+01  2.2736553E+01
 1.1942751E+01  2.2831797E+01
 1.1954250E+01  2.3168673E+01
 1.1965751E+01  2.3443310E+01
 1.1977251E+01  2.3691851E+01
 1.1988750E+01  2.3991150E+01
 1.2000251E+01  2.3961847E+01
 1.2011750E+01  2.3892525E+01
 1.2023251E+01  2.3397781E+01
 1.2034751E+01  2.3318733E+01
 1.2046250E+01  2.3182955E+01
 1.2057751E+01  2.3198986E+01
 1.2069251E+01  2.3277277E+01
 1.2080750E+01  2.3412766E+01
 1.2092251E+01  2.3525503E+01
 1.2103750E+01  2.3564589E+01
 1.2115251E+01  2.3540131E+01
 1.2126751E+01  2.3424818E+01
 1.2138250E+01  2.3308958E+01
 1.2149751E+01  2.3122271E+01
 1.2161251E+01  2.2990370E+01
 1.2172750E+01  2.2847662E+01
 1.2184251E+01  2.2879299E+01
 1.2195750E+01  2.2815815E+01
 1.2207251E+01  2.2813305E+01
 1.2218751E+01  2.2790247E+01
 1.2230250E+01  2.2792179E+01
 1.2241751E+01  2.2740072E+01
 1.2253251E+01  2.2680504E+01
 1.2264750E+01  2.2693716E+01
 1.2276251E+01  2.2696993E+01
 1.2287750E+01  2.2750208E+01
 1.2299251E+01  2.2761995E+01
 1.2310751E+01  2.2822800E+01
 1.2322250E+01  2.2823763E+01
 1.2333751E+01  2.2827539E+01
 1.2345250E+01  2.2816544E+01
 1.2356750E+01  2.2800047E+01
 1.2368251E+01  2.2778328E+01
 1.2379750E+01  2.2706108E+01
 1.2391251E+01  2.2700644E+01
 1.2402751E+01  2.2728188E+01
 1.2414250E+01  2.2826607E+01
 1.2425751E+01  2.2852718E+01
 1.2437250E+01  2.2874279E+01
 1.2448750E+01  2.2816290E+01
 1.2460251E+01  2.2818771E+01
 1.2471750E+01  2.2782585E+01
 1.2483251E+01  2.2795450E+01
 1.2494751E+01  2.2755636E+01
 1.2506250E+01  2.2725487E+01
 1.2517751E+01  2.2718864E+01
 1.2529250E+01  2.2764467E+01
 1.2540751E+01  2.2798925E+01
 1.2552251E+01  2.2816000E+01
 1.2563750E+01  2.2827702E+01
 1.2575251E+01  2.2844244E+01
 1.2586751E+01  2.2897377E+01
 1.2598250E+01  2.2943081E+01
 1.2609751E+01  2.3024097E+01
 1.2621250E+01  2.3041643E+01
 1.2632751E+01  2.3076887E+01
 1.2644251E+01  2.3022036E+01
 1.2655750E+01  2.3010653E+01
 1.2667251E+01  2.3000380E+01
 1.2678751E+01  2.3082945E+01
 1.2690250E+01  2.3139172E+01
 1.2701751E+01  2.3187683E+01
 1.2713250E+01  2.3200703E+01
 1.2724751E+01  2.3146282E+01
 1.2736251E+01  2.3081924E+01
 1.2747750E+01  2.3085741E+01
 1.2759251E+01  2.3139933E+01
 1.2770751E+01  2.3203487E+01
 1.2782250E+01  2.3219704E+01
 1.2793751E+01  2.3227118E+01
 1.2805250E+01  2.3270725E+01
 1.2816751E+01  2.3384014E+01
 1.2828251E+01  2.3496981E+01
 1.2839750E+01  2.3543039E+01
 1.2851251E+01  2.3580019E+01
 1.2862751E+01  2.3584839E+01
 1.2874250E+01  2.3589748E+01
 1.2885751E+01  2.3583010E+01
 1.2897250E+01  2.3630592E+01
 1.2908751E+01  2.3727520E+01
 1.2920251E+01  2.3778997E+01
 1.2931750E+01  2.3899809E+01
 1.2943251E+01  2.3945147E+01
 1.2954751E+01  2.4015438E+01
 1.2966250E+01  2.4036837E+01
 1.2977751E+01  2.4094982E+01
 1.2989250E+01  2.4150023E+01
 1.3000751E+01  2.4205072E+01
 1.3012251E+01  2.4267206E+01
 1.3023750E+01  2.4312662E+01
 1.3035251E+01  2.4394039E+01
 1.3046751E+01  2.4446758E+01
 1.3058250E+01  2.4547100E+01
 1.3069751E+01  2.4574352E+01
 1.3081250E+01  2.4628578E+01
 1.3092751E+01  2.4725258E+01
 1.3104251E+01  2.4868212E+01
 1.3115750E+01  2.5006330E+01
 1.3127251E+01  2.5083519E+01
 1.3138751E+01  2.5200617E+01
 1.3150250E+01  2.5319431E+01
 1.3161751E+01  2.5398232E+01
 1.3173250E+01  2.5491713E+01
 1.3184751E+01  2.5635817E+01
 1.3196251E+01  2.5822451E+01
 1.3207750E+01  2.5940567E+01
 1.3219251E+01  2.6070219E+01
 1.3230751E+01  2.6171358E+01
 1.3242250E+01  2.6316206E+01
 1.3253751E+01  2.6373613E+01
 1.3265250E+01  2.6518135E+01
 1.3276751E+01  2.6682396E+01
 1.3288251E+01  2.6918884E+01
 1.3299750E+01  2.7116507E+01
 1.3311251E+01  2.7292170E+01
 1.3322751E+01  2.7428825E+01
 1.3334250E+01  2.7605623E+01
 1.3345751E+01  2.7663830E+01
 1.3357250E+01  2.7798920E+01
 1.3368751E+01  2.7860369E+01
 1.3380251E+01  2.8047544E+01
 1.3391750E+01  2.8213623E+01
 1.3403251E+01  2.8449051E+01
 1.3414751E+01  2.8553059E+01
 1.3426250E+01  2.8631220E+01
 1.3437751E+01  2.8676640E+01
 1.3449250E+01  2.8739227E+01
 1.3460751E+01  2.8910723E+01
 1.3472251E+01  2.9068766E+01
 1.3483750E+01  2.9294758E+01
 1.3495251E+01  2.9412542E+01
 1.3506751E+01  2.9528458E+01
 1.3518250E+01  2.9564060E+01
 1.3529751E+01  2.9609125E+01
 1.3541250E+01  2.9633732E+01
 1.3552751E+01  2.9705469E+01
 1.3564251E+01  2.9767677E+01
 1.3575750E+01  2.9886227E+01
 1.3587251E+01  2.9962410E+01
 1.3598751E+01  2.9965782E+01
 1.3610250E+01  2.9946461E+01
 1.3621751E+01  2.9935322E+01
 1.3633250E+01  2.9921270E+01
 1.3644751E+01  2.9899479E+01
 1.3656251E+01  2.9894035E+01
 1.3667750E+01  2.9896870E+01
 1.3679251E+01  2.9876797E+01
 1.3690751E+01  2.9879210E+01
 1.3702250E+01  2.9795868E+01
 1.3713751E+01  2.9758558E+01
 1.3725250E+01  2.9672649E+01
 1.3736751E+01  2.9649858E+01
 1.3748251E+01  2.9606089E+01
 1.3759750E+01  2.9595978E+01
 1.3771251E+01  2.9613153E+01
 1.3782751E+01  2.9653147E+01
 1.3794250E+01  2.9635614E+01
 1.3805751E+01  2.9635691E+01
 1.3817250E+01  2.9636473E+01
 1.3828751E+01  2.9712835E+01
 1.3840251E+01  2.9789293E+01
 1.3851750E+01  2.9910019E+01
 1.3863251E+01  3.0250761E+01
 1.3874751E+01  3.0841589E+01
 1.3886250E+01  3.1900240E+01
 1.3897751E+01  3.4195225E+01
 1.3909250E+01  3.6259258E+01
 1.3920751E+01  3.9361668E+01
 1.3932251E+01  4.3740917E+01
 1.3943750E+01  4.4944695E+01
 1.3955251E+01  4.6502346E+01
 1.3966751E+01  4.4494858E+01
 1.3978251E+01  4.2787071E+01
 1.3989751E+01  3.9036640E+01
 1.4001250E+01  3.5266605E+01
 1.4012751E+01  3.3324188E+01
 1.4024251E+01  3.0839094E+01
 1.4035750E+01  2.9849833E+01
 1.4047251E+01  2.9136625E+01
 1.4058751E+01  2.8656574E+01
 1.4070251E+01  2.8452915E+01
 1.4081751E+01  2.8286724E+01
 1.4093250E+01  2.8106890E+01
 1.4104751E+01  2.7960587E+01
 1.4116251E+01  2.7854914E+01
 1.4127750E+01  2.7774652E+01
 1.4139251E+01  2.7673328E+01
 1.4150751E+01  2.7516693E+01
 1.4162251E+01  2.7428125E+01
 1.4173751E+01  2.7296593E+01
 1.4185250E+01  2.7212582E+01
 1.4196751E+01  2.7127405E+01
 1.4208251E+01  2.7094292E+01
 1.4219750E+01  2.7016163E+01
 1.4231251E+01  2.6947166E+01
 1.4242751E+01  2.6861557E+01
 1.4254251E+01  2.6751158E+01
 1.4265751E+01  2.6637135E+01
 1.4277250E+01  2.6534510E+01
 1.4288751E+01  2.6493265E+01
 1.4300251E+01  2.6470316E+01
 1.4311750E+01  2.6441584E+01
 1.4323251E+01  2.6397972E+01
 1.4334751E+01  2.6363304E+01
 1.4346251E+01  2.6321714E+01
 1.4357751E+01  2.6341829E+01
 1.4369250E+01  2.6296715E+01
 1.4380751E+01  2.6266769E+01
 1.4392251E+01  2.6198088E+01
 1.4403750E+01  2.6136494E+01
 1.4415251E+01  2.6084442E+01
 1.4426751E+01  2.6009932E+01
 1.4438251E+01  2.5972324E+01
 1.4449751E+01  2.5939220E+01
 1.4461250E+01  2.5936239E+01
 1.4472751E+01  2.5915703E+01
 1.4484251E+01  2.5877455E+01
 1.4495750E+01  2.5852974E+01
 1.4507251E+01  2.5815527E+01
 1.4518751E+01  2.5770567E+01
 1.4530251E+01  2.5736765E+01
 1.4541751E+01  2.5670628E+01
 1.4553250E+01  2.5665325E+01
 1.4564751E+01  2.5647173E+01
 1.4576251E+01  2.5620163E+01
 1.4587750E+01  2.5566660E+01
 1.4599251E+01  2.5504358E+01
 1.4610751E+01  2.5503092E+01
 1.4622251E+01  2.5518826E+01
 1.4633751E+01  2.5527164E+01
 1.4645250E+01  2.5575157E+01
 1.4656751E+01  2.5510227E+01
 1.4668251E+01  2.5462023E+01
 1.4679750E+01  2.5403025E+01
 1.4691251E+01  2.5386576E+01
 1.4702751E+01  2.5325037E+01
 1.4714251E+01  2.5261728E+01
 1.4725751E+01  2.5255341E+01
 1.4737250E+01  2.5210804E+01
 1.4748751E+01  2.5193251E+01
 1.4760251E+01  2.5155350E+01
 1.4771750E+01  2.5167353E+01
 1.4783251E+01  2.5127022E+01
 1.4794751E+01  2.5094471E+01
 1.4806251E+01  2.5060482E+01
 1.4817751E+01  2.5038506E+01
 1.4829250E+01  2.5018871E+01
 1.4840751E+01  2.5047523E+01
 1.4852251E+01  2.5034172E+01
 1.4863750E+01  2.5063290E+01
 1.4875251E+01  2.4999273E+01
 1.4886751E+01  2.4998566E+01
 1.4898251E+01  2.4966507E+01
 1.4909751E+01  2.4997559E+01
 1.4921250E+01  2.5006523E+01
 1.4932751E+01  2.5051662E+01
 1.4944251E+01  2.5044378E+01
 1.4955750E+01  2.5064056E+01
 1.4967251E+01  2.5061623E+01
 1.4978751E+01  2.5091299E+01
 1.4990251E+01  2.5029366E+01
 1.5001751E+01  2.4983673E+01
 1.5013250E+01  2.4996058E+01
 1.5024751E+01  2.5056175E+01
 1.5036251E+01  2.5036718E+01
 1.5047750E+01  2.5025742E+01
 1.5059251E+01  2.5010874E+01
 1.5070751E+01  2.5035305E+01
 1.5082251E+01  2.4959671E+01
 1.5093751E+01  2.4909306E+01
 1.5105250E+01  2.4921835E+01
 1.5116751E+01  2.5028841E+01
 1.5128251E+01  2.5180632E+01
 1.5139750E+01  2.5395432E+01
 1.5151251E+01  2.5667627E+01
 1.5162751E+01  2.5949650E+01
 1.5174251E+01  2.6108507E+01
 1.5185751E+01  2.6304676E+01
 1.5197250E+01  2.6221806E+01
 1.5208751E+01  2.6143339E+01
 1.5220251E+01  2.5804504E+01
 1.5231750E+01  2.5546543E+01
 1.5243251E+01  2.5276817E+01
 1.5254751E+01  2.5142267E+01
 1.5266251E+01  2.5060425E+01
 1.5277751E+01  2.5018200E+01
 1.5289250E+01  2.4973190E+01
 1.5300751E+01  2.4920906E+01
 1.5312251E+01  2.4858810E+01
 1.5323750E+01  2.4822741E+01
 1.5335251E+01  2.4795933E+01
 1.5346751E+01  2.4739157E+01
 1.5358251E+01  2.4700436E+01
 1.5369751E+01  2.4708134E+01
 1.5381250E+01  2.4662096E+01
 1.5392751E+01  2.4705896E+01
 1.5404251E+01  2.4737879E+01
 1.5415751E+01  2.4791082E+01
 1.5427251E+01  2.4748827E+01
 1.5438751E+01  2.4702835E+01
 1.5450251E+01  2.4675928E+01
 1.5461751E+01  2.4655493E+01
 1.5473250E+01  2.4654520E+01
 1.5484751E+01  2.4636127E+01
 1.5496251E+01  2.4639103E+01
 1.5507751E+01  2.4595963E+01
 1.5519251E+01  2.4584312E+01
 1.5530751E+01  2.4577003E+01
 1.5542251E+01  2.4588701E+01
 1.5553751E+01  2.4612701E+01
 1.5565250E+01  2.4682350E+01
 1.5576751E+01  2.4711142E+01
 1.5588251E+01  2.4716955E+01
 1.5599751E+01  2.4672081E+01
 1.5611251E+01  2.4685287E+01
 1.5622751E+01  2.4693209E+01
 1.5634251E+01  2.4712078E+01
 1.5645751E+01  2.4754475E+01
 1.5657250E+01  2.4812901E+01
 1.5668751E+01  2.4822536E+01
 1.5680251E+01  2.4788515E+01
 1.5691751E+01  2.4745747E+01
 1.5703251E+01  2.4782661E+01
 1.5714751E+01  2.4778746E+01
 1.5726251E+01  2.4833265E+01
 1.5737751E+01  2.4768520E+01
 1.5749250E+01  2.4743628E+01
 1.5760751E+01  2.4664444E+01
 1.5772251E+01  2.4656065E+01
 1.5783751E+01  2.4586340E+01
 1.5795251E+01  2.4603340E+01
 1.5806751E+01  2.4621237E+01
 1.5818251E+01  2.4650827E+01
 1.5829751E+01  2.4720554E+01
 1.5841250E+01  2.4735140E+01
 1.5852751E+01  2.4800001E+01
 1.5864251E+01  2.4735027E+01
 1.5875751E+01  2.4811090E+01
 1.5887251E+01  2.4828831E+01
 1.5898750E+01  2.4841347E+01
 1.5910251E+01  2.4785501E+01
 1.5921751E+01  2.4747196E+01
 1.5933250E+01  2.4720171E+01
 1.5944751E+01  2.4700260E+01
 1.5956251E+01  2.4708233E+01
 1.5967751E+01  2.4732170E+01
 1.5979251E+01  2.4752739E+01
 1.5990750E+01  2.4762459E+01
 1.6002251E+01  2.4795162E+01
 1.6013750E+01  2.4829819E+01
 1.6025251E+01  2.4873508E+01
 1.6036751E+01  2.4942278E+01
 1.6048250E+01  2.4981750E+01
 1.6059752E+01  2.5054014E+01
 1.6071251E+01  2.5010073E+01
 1.6082750E+01  2.5053543E+01
 1.6094252E+01  2.4927290E+01
 1.6105751E+01  2.5003551E+01
 1.6117250E+01  2.4927662E+01
 1.6128750E+01  2.4978415E+01
 1.6140251E+01  2.4950371E+01
 1.6151751E+01  2.4997982E+01
 1.6163250E+01  2.5174772E+01
 1.6174751E+01  2.5207493E+01
 1.6186251E+01  2.5822701E+01
 1.6197750E+01  2.5795525E+01
 1.6209251E+01  2.6971508E+01
 1.6220751E+01  2.7041534E+01
 1.6232250E+01  2.8408493E+01
 1.6243752E+01  2.8658089E+01
 1.6255251E+01  2.9149136E+01
 1.6266750E+01  2.9045622E+01
 1.6278252E+01  2.8019716E+01
 1.6289751E+01  2.7598478E+01
 1.6301250E+01  2.6172865E+01
 1.6312750E+01  2.6056789E+01
 1.6324251E+01  2.5267632E+01
 1.6335751E+01  2.5317572E+01
 1.6347250E+01  2.4994097E+01
 1.6358751E+01  2.4934591E+01
 1.6370251E+01  2.4818951E+01
 1.6381750E+01  2.4793139E+01
 1.6393251E+01  2.4817160E+01
 1.6404751E+01  2.4780191E+01
 1.6416250E+01  2.4896193E+01
 1.6427752E+01  2.4854656E+01
 1.6439251E+01  2.4926464E+01
 1.6450750E+01  2.4829922E+01
 1.6462252E+01  2.4790192E+01
 1.6473751E+01  2.4759487E+01
 1.6485250E+01  2.4811440E+01
 1.6496750E+01  2.4860895E+01
 1.6508251E+01  2.4841179E+01
 1.6519751E+01  2.4812983E+01
 1.6531250E+01  2.4770233E+01
 1.6542751E+01  2.4816734E+01
 1.6554251E+01  2.4828089E+01
 1.6565750E+01  2.4855289E+01
 1.6577251E+01  2.4804394E+01
 1.6588751E+01  2.4826433E+01
 1.6600250E+01  2.4807238E+01
 1.6611752E+01  2.4790926E+01
 1.6623251E+01  2.4706972E+01
 1.6634750E+01  2.4687506E+01
 1.6646252E+01  2.4646057E+01
 1.6657751E+01  2.4593515E+01
 1.6669250E+01  2.4538845E+01
 1.6680750E+01  2.4474331E+01
 1.6692251E+01  2.4510357E+01
 1.6703751E+01  2.4503414E+01
 1.6715250E+01  2.4569464E+01
 1.6726751E+01  2.4568544E+01
 1.6738251E+01  2.4608067E+01
 1.6749750E+01  2.4646589E+01
 1.6761251E+01  2.4679060E+01
 1.6772751E+01  2.4694532E+01
 1.6784250E+01  2.4648884E+01
 1.6795752E+01  2.4590771E+01
 1.6807251E+01  2.4575756E+01
 1.6818750E+01  2.4569723E+01
 1.6830252E+01  2.4586088E+01
 1.6841751E+01  2.4641829E+01
 1.6853251E+01  2.4645367E+01
 1.6864750E+01  2.4689657E+01
 1.6876251E+01  2.4669622E+01
 1.6887751E+01  2.4639170E+01
 1.6899250E+01  2.4576792E+01
 1.6910751E+01  2.4557619E+01
 1.6922251E+01  2.4573729E+01
 1.6933750E+01  2.4548073E+01
 1.6945251E+01  2.4538151E+01
 1.6956751E+01  2.4547033E+01
 1.6968250E+01  2.4546476E+01
 1.6979752E+01  2.4530659E+01
 1.6991251E+01  2.4507652E+01
 1.7002750E+01  2.4470760E+01
 1.7014252E+01  2.4412804E+01
 1.7025751E+01  2.4340406E+01
 1.7037251E+01  2.4304119E+01
 1.7048750E+01  2.4306894E+01
 1.7060251E+01  2.4359135E+01
 1.7071751E+01  2.4402996E+01
 1.7083250E+01  2.4388271E+01
 1.7094751E+01  2.4344645E+01
 1.7106251E+01  2.4303175E+01
 1.7117750E+01  2.4261736E+01
 1.7129251E+01  2.4289732E+01
 1.7140751E+01  2.4301352E+01
 1.7152250E+01  2.4302101E+01
 1.7163752E+01  2.4288532E+01
 1.7175251E+01  2.4343042E+01
 1.7186750E+01  2.4414482E+01
 1.7198252E+01  2.4440006E+01
 1.7209751E+01  2.4441732E+01
 1.7221251E+01  2.4393970E+01
 1.7232750E+01  2.4359638E+01
 1.7244251E+01  2.4288797E+01
 1.7255751E+01  2.4227795E+01
 1.7267250E+01  2.4236868E+01
 1.7278751E+01  2.4276392E+01
 1.7290251E+01  2.4360722E+01
 1.7301750E+01  2.4424114E+01
 1.7313251E+01  2.4433298E+01
 1.7324751E+01  2.4411772E+01
 1.7336250E+01  2.4314590E+01
 1.7347752E+01  2.4283609E+01
 1.7359251E+01  2.4225891E+01
 1.7370750E+01  2.4195513E+01
 1.7382252E+01  2.4147884E+01
 1.7393751E+01  2.4105701E+01
 1.7405251E+01  2.4079212E+01
 1.7416750E+01  2.4057327E+01
 1.7428251E+01  2.4063587E+01
 1.7439751E+01  2.4086859E+01
 1.7451250E+01  2.4143364E+01
 1.7462751E+01  2.4229506E+01
 1.7474251E+01  2.4275837E+01
 1.7485750E+01  2.4315792E+01
 1.7497252E+01  2.4232079E+01
 1.7508751E+01  2.4143269E+01
 1.7520250E+01  2.4047482E+01
 1.7531752E+01  2.4042583E+01
 1.7543251E+01  2.4070839E+01
 1.7554750E+01  2.4082283E+01
 1.7566252E+01  2.4035307E+01
 1.7577751E+01  2.3984785E+01
 1.7589251E+01  2.3914658E+01
 1.7600750E+01  2.3907505E+01
 1.7612251E+01  2.3921255E+01
 1.7623751E+01  2.3974543E+01
 1.7635250E+01  2.4004036E+01
 1.7646751E+01  2.4022079E+01
 1.7658251E+01  2.4002087E+01
 1.7669750E+01  2.4010548E+01
 1.7681252E+01  2.3966621E+01
 1.7692751E+01  2.3991758E+01
 1.7704250E+01  2.3956017E+01
 1.7715752E+01  2.3963779E+01
 1.7727251E+01  2.3933260E+01
 1.7738750E+01  2.3937597E+01
 1.7750252E+01  2.3938086E+01
 1.7761751E+01  2.3922482E+01
 1.7773251E+01  2.3938074E+01
 1.7784750E+01  2.3877758E+01
 1.7796251E+01  2.3902027E+01
 1.7807751E+01  2.3861364E+01
 1.7819250E+01  2.3925482E+01
 1.7830751E+01  2.3950348E+01
 1.7842251E+01  2.4000761E+01
 1.7853750E+01  2.4008499E+01
 1.7865252E+01  2.3964340E+01
 1.7876751E+01  2.3938457E+01
 1.7888250E+01  2.3838619E+01
 1.7899752E+01  2.3786049E+01
 1.7911251E+01  2.3779922E+01
 1.7922750E+01  2.3837542E+01
 1.7934252E+01  2.3870590E+01
 1.7945751E+01  2.3904112E+01
 1.7957251E+01  2.3904350E+01
 1.7968750E+01  2.3920139E+01
 1.7980251E+01  2.3949741E+01
 1.7991751E+01  2.4059933E+01
 1.8003250E+01  2.4122547E+01
 1.8014751E+01  2.4153961E+01
 1.8026251E+01  2.4161938E+01
 1.8037750E+01  2.4247057E+01
 1.8049252E+01  2.4439890E+01
 1.8060751E+01  2.4706341E+01
 1.8072250E+01  2.4973499E+01
 1.8083752E+01  2.5177015E+01
 1.8095251E+01  2.5279003E+01
 1.8106750E+01  2.5268986E+01
 1.8118252E+01  2.5100878E+01
 1.8129751E+01  2.4881464E+01
 1.8141251E+01  2.4629927E+01
 1.8152750E+01  2.4427729E+01
 1.8164251E+01  2.4263550E+01
 1.8175751E+01  2.4149817E+01
 1.8187250E+01  2.4017551E+01
 1.8198751E+01  2.3937733E+01
 1.8210251E+01  2.3836174E+01
 1.8221750E+01  2.3755568E+01
 1.8233252E+01  2.3698067E+01
 1.8244751E+01  2.3666904E+01
 1.8256250E+01  2.3659748E+01
 1.8267752E+01  2.3673733E+01
 1.8279251E+01  2.3677980E+01
 1.8290751E+01  2.3699255E+01
 1.8302252E+01  2.3721237E+01
 1.8313751E+01  2.3732931E+01
 1.8325251E+01  2.3730000E+01
 1.8336750E+01  2.3721947E+01
 1.8348251E+01  2.3733688E+01
 1.8359751E+01  2.3751570E+01
 1.8371250E+01  2.3759130E+01
 1.8382751E+01  2.3768330E+01
 1.8394251E+01  2.3806801E+01
 1.8405750E+01  2.3838236E+01
 1.8417252E+01  2.3844444E+01
 1.8428751E+01  2.3790936E+01
 1.8440250E+01  2.3763264E+01
 1.8451752E+01  2.3727663E+01
 1.8463251E+01  2.3741640E+01
 1.8474751E+01  2.3721905E+01
 1.8486252E+01  2.3690483E+01
 1.8497751E+01  2.3649132E+01
 1.8509251E+01  2.3651976E+01
 1.8520750E+01  2.3654743E+01
 1.8532251E+01  2.3666412E+01
 1.8543751E+01  2.3648899E+01
 1.8555250E+01  2.3739752E+01
 1.8566751E+01  2.3736706E+01
 1.8578251E+01  2.3743290E+01
 1.8589750E+01  2.3676310E+01
 1.8601252E+01  2.3662611E+01
 1.8612751E+01  2.3620571E+01
 1.8624250E+01  2.3551601E+01
 1.8635752E+01  2.3521381E+01
 1.8647251E+01  2.3470776E+01
 1.8658751E+01  2.3507544E+01
 1.8670252E+01  2.3554735E+01
 1.8681751E+01  2.3627163E+01
 1.8693251E+01  2.3648991E+01
 1.8704750E+01  2.3622507E+01
 1.8716251E+01  2.3615950E+01
 1.8727751E+01  2.3600105E+01
 1.8739250E+01  2.3645954E+01
 1.8750751E+01  2.3607304E+01
 1.8762251E+01  2.3590427E+01
 1.8773750E+01  2.3574697E+01
 1.8785252E+01  2.3615490E+01
 1.8796751E+01  2.3614563E+01
 1.8808250E+01  2.3616632E+01
 1.8819752E+01  2.3667448E+01
 1.8831251E+01  2.3669062E+01
 1.8842751E+01  2.3672298E+01
 1.8854252E+01  2.3631460E+01
 1.8865751E+01  2.3642790E+01
 1.8877251E+01  2.3608038E+01
 1.8888750E+01  2.3604061E+01
 1.8900251E+01  2.3573576E+01
 1.8911751E+01  2.3557936E+01
 1.8923250E+01  2.3610161E+01
 1.8934752E+01  2.3637121E+01
 1.8946251E+01  2.3720409E+01
 1.8957750E+01  2.3683018E+01
 1.8969252E+01  2.3677979E+01
 1.8980751E+01  2.3627480E+01
 1.8992250E+01  2.3649202E+01
 1.9003752E+01  2.3657187E+01
 1.9015251E+01  2.3662861E+01
 1.9026751E+01  2.3716288E+01
 1.9038252E+01  2.3809319E+01
 1.9049751E+01  2.3821829E+01
 1.9061251E+01  2.3809431E+01
 1.9072750E+01  2.3750000E+01
 1.9084251E+01  2.3750908E+01
 1.9095751E+01  2.3682671E+01
 1.9107250E+01  2.3650574E+01
 1.9118752E+01  2.3621796E+01
 1.9130251E+01  2.3700027E+01
 1.9141750E+01  2.3721243E+01
 1.9153252E+01  2.3746775E+01
 1.9164751E+01  2.3689810E+01
 1.9176250E+01  2.3659027E+01
 1.9187752E+01  2.3614132E+01
 1.9199251E+01  2.3554317E+01
 1.9210751E+01  2.3559452E+01
 1.9222252E+01  2.3568052E+01
 1.9233751E+01  2.3609600E+01
 1.9245251E+01  2.3622192E+01
 1.9256750E+01  2.3642212E+01
 1.9268251E+01  2.3679180E+01
 1.9279751E+01  2.3669903E+01
 1.9291250E+01  2.3676561E+01
 1.9302752E+01  2.3652653E+01
 1.9314251E+01  2.3643015E+01
 1.9325750E+01  2.3581633E+01
 1.9337252E+01  2.3594385E+01
 1.9348751E+01  2.3624769E+01
 1.9360250E+01  2.3674816E+01
 1.9371752E+01  2.3692919E+01
 1.9383251E+01  2.3715906E+01
 1.9394751E+01  2.3740196E+01
 1.9406250E+01  2.3713186E+01
 1.9417751E+01  2.3712631E+01
 1.9429251E+01  2.3704178E+01
 1.9440750E+01  2.3767670E+01
 1.9452251E+01  2.3792858E+01
 1.9463751E+01  2.3767088E+01
 1.9475250E+01  2.3752613E+01
 1.9486752E+01  2.3756180E+01
 1.9498251E+01  2.3789104E+01
 1.9509750E+01  2.3823948E+01
 1.9521252E+01  2.3846399E+01
 1.9532751E+01  2.3833776E+01
 1.9544250E+01  2.3794027E+01
 1.9555752E+01  2.3742367E+01
 1.9567251E+01  2.3739082E+01
 1.9578751E+01  2.3731186E+01
 1.9590250E+01  2.3738037E+01
 1.9601751E+01  2.3743755E+01
 1.9613251E+01  2.3809059E+01
 1.9624750E+01  2.3884285E+01
 1.9636251E+01  2.3959646E+01
 1.9647751E+01  2.4045521E+01
 1.9659250E+01  2.4197964E+01
 1.9670752E+01  2.4357244E+01
 1.9682251E+01  2.4479265E+01
 1.9693750E+01  2.4613358E+01
 1.9705252E+01  2.4748522E+01
 1.9716751E+01  2.4827639E+01
 1.9728251E+01  2.4810961E+01
 1.9739752E+01  2.4681587E+01
 1.9751251E+01  2.4618498E+01
 1.9762751E+01  2.4542379E+01
 1.9774250E+01  2.4484268E+01
 1.9785751E+01  2.4386570E+01
 1.9797251E+01  2.4391432E+01
 1.9808750E+01  2.4478716E+01
 1.9820251E+01  2.4646320E+01
 1.9831751E+01  2.5099482E+01
 1.9843250E+01  2.5519140E+01
 1.9854752E+01  2.5921003E+01
 1.9866251E+01  2.5987057E+01
 1.9877750E+01  2.5775881E+01
 1.9889252E+01  2.5421192E+01
 1.9900751E+01  2.5003757E+01
 1.9912251E+01  2.4672216E+01
 1.9923752E+01  2.4412024E+01
 1.9935251E+01  2.4231630E+01
 1.9946751E+01  2.4051359E+01
 1.9958250E+01  2.3958515E+01
 1.9969751E+01  2.3946764E+01
 1.9981251E+01  2.3929150E+01
 1.9992750E+01  2.3944750E+01
 2.0004251E+01  2.3906080E+01
 2.0015751E+01  2.3909531E+01
 2.0027250E+01  2.3880907E+01
 2.0038752E+01  2.3936148E+01
 2.0050251E+01  2.3992567E+01
 2.0061750E+01  2.3962086E+01
 2.0073252E+01  2.3890606E+01
 2.0084751E+01  2.3809702E+01
 2.0096251E+01  2.3763828E+01
 2.0107752E+01  2.3742558E+01
 2.0119251E+01  2.3730558E+01
 2.0130751E+01  2.3715790E+01
 2.0142250E+01  2.3733789E+01
 2.0153751E+01  2.3750950E+01
 2.0165251E+01  2.3762810E+01
 2.0176750E+01  2.3765482E+01
 2.0188251E+01  2.3765690E+01
 2.0199751E+01  2.3754827E+01
 2.0211250E+01  2.3772955E+01
 2.0222752E+01  2.3816446E+01
 2.0234251E+01  2.3885035E+01
 2.0245750E+01  2.3835354E+01
 2.0257252E+01  2.3795462E+01
 2.0268751E+01  2.3713909E+01
 2.0280251E+01  2.3746069E+01
 2.0291752E+01  2.3766916E+01
 2.0303251E+01  2.3774290E+01
 2.0314751E+01  2.3782351E+01
 2.0326250E+01  2.3757160E+01
 2.0337751E+01  2.3783182E+01
 2.0349251E+01  2.3765862E+01
 2.0360750E+01  2.3828775E+01
 2.0372252E+01  2.3860285E+01
 2.0383751E+01  2.3892860E+01
 2.0395250E+01  2.3924360E+01
 2.0406752E+01  2.3904333E+01
 2.0418251E+01  2.3915119E+01
 2.0429750E+01  2.3888540E+01
 2.0441252E+01  2.3907158E+01
 2.0452751E+01  2.3896950E+01
 2.0464251E+01  2.3894026E+01
 2.0475752E+01  2.3900095E+01
 2.0487251E+01  2.3925470E+01
 2.0498751E+01  2.3944120E+01
 2.0510250E+01  2.3924122E+01
 2.0521751E+01  2.3856720E+01
 2.0533251E+01  2.3805346E+01
 2.0544750E+01  2.3824121E+01
 2.0556252E+01  2.3888512E+01
 2.0567751E+01  2.3974009E+01
 2.0579250E+01  2.4048557E+01
 2.0590752E+01  2.4178190E+01
 2.0602251E+01  2.4199448E+01
 2.0613750E+01  2.4192139E+01
 2.0625252E+01  2.4134457E+01
 2.0636751E+01  2.4111917E+01
 2.0648251E+01  2.4062466E+01
 2.0659752E+01  2.4095694E+01
 2.0671251E+01  2.4180470E+01
 2.0682751E+01  2.4305162E+01
 2.0694250E+01  2.4436739E+01
 2.0705751E+01  2.4588686E+01
 2.0717251E+01  2.4806765E+01
 2.0728750E+01  2.5048702E+01
 2.0740252E+01  2.5364031E+01
 2.0751751E+01  2.5674896E+01
 2.0763250E+01  2.5946436E+01
 2.0774752E+01  2.5950823E+01
 2.0786251E+01  2.5720795E+01
 2.0797750E+01  2.5443253E+01
 2.0809252E+01  2.5022491E+01
 2.0820751E+01  2.4682821E+01
 2.0832251E+01  2.4408171E+01
 2.0843752E+01  2.4254875E+01
 2.0855251E+01  2.4106833E+01
 2.0866751E+01  2.4036282E+01
 2.0878250E+01  2.4021238E+01
 2.0889751E+01  2.4035501E+01
 2.0901251E+01  2.4051659E+01
 2.0912750E+01  2.4064575E+01
 2.0924252E+01  2.4104759E+01
 2.0935751E+01  2.4130812E+01
 2.0947250E+01  2.4202032E+01
 2.0958752E+01  2.4176353E+01
 2.0970251E+01  2.4134125E+01
 2.0981750E+01  2.4068903E+01
 2.0993252E+01  2.4050821E+01
 2.1004751E+01  2.4068901E+01
 2.1016251E+01  2.4049265E+01
 2.1027752E+01  2.4088970E+01
 2.1039251E+01  2.4073086E+01
 2.1050751E+01  2.4054115E+01
 2.1062250E+01  2.3983290E+01
 2.1073751E+01  2.3971188E+01
 2.1085251E+01  2.3965490E+01
 2.1096750E+01  2.3943600E+01
 2.1108252E+01  2.3988407E+01
 2.1119751E+01  2.4014690E+01
 2.1131250E+01  2.4031736E+01
 2.1142752E+01  2.4033621E+01
 2.1154251E+01  2.4027689E+01
 2.1165751E+01  2.4092592E+01
 2.1177252E+01  2.4091177E+01
 2.1188751E+01  2.4114595E+01
 2.1200251E+01  2.4067650E+01
 2.1211752E+01  2.4066547E+01
 2.1223251E+01  2.4021965E+01
 2.1234751E+01  2.4024332E+01
 2.1246250E+01  2.4066322E+01
 2.1257751E+01  2.4099174E+01
 2.1269251E+01  2.4117764E+01
 2.1280750E+01  2.4104237E+01
 2.1292252E+01  2.4083099E+01
 2.1303751E+01  2.4023903E+01
 2.1315250E+01  2.4039230E+01
 2.1326752E+01  2.4050091E+01
 2.1338251E+01  2.4057634E+01
 2.1349751E+01  2.4032581E+01
 2.1361252E+01  2.4059643E+01
 2.1372751E+01  2.4089319E+01
 2.1384251E+01  2.4038095E+01
 2.1395752E+01  2.4013285E+01
 2.1407251E+01  2.3952387E+01
 2.1418751E+01  2.3985163E+01
 2.1430250E+01  2.3988913E+01
 2.1441751E+01  2.3985889E+01
 2.1453251E+01  2.4002750E+01
 2.1464750E+01  2.4070759E+01
 2.1476252E+01  2.4135063E+01
 2.1487751E+01  2.4135061E+01
 2.1499250E+01  2.4110456E+01
 2.1510752E+01  2.4085484E+01
 2.1522251E+01  2.4105389E+01
 2.1533751E+01  2.4103184E+01
 2.1545252E+01  2.4080378E+01
 2.1556751E+01  2.4085855E+01
 2.1568251E+01  2.4122627E+01
 2.1579752E+01  2.4191744E+01
 2.1591251E+01  2.4240067E+01
 2.1602751E+01  2.4301151E+01
 2.1614250E+01  2.4270161E+01
 2.1625751E+01  2.4246161E+01
 2.1637251E+01  2.4197151E+01
 2.1648750E+01  2.4186583E+01
 2.1660252E+01  2.4152414E+01
 2.1671751E+01  2.4183254E+01
 2.1683250E+01  2.4201458E+01
 2.1694752E+01  2.4201254E+01
 2.1706251E+01  2.4205057E+01
 2.1717751E+01  2.4189470E+01
 2.1729252E+01  2.4242996E+01
 2.1740751E+01  2.4301939E+01
 2.1752251E+01  2.4360807E+01
 2.1763752E+01  2.4352396E+01
 2.1775251E+01  2.4349411E+01
 2.1786751E+01  2.4360542E+01
 2.1798250E+01  2.4400137E+01
 2.1809752E+01  2.4394968E+01
 2.1821251E+01  2.4420816E+01
 2.1832750E+01  2.4357286E+01
 2.1844252E+01  2.4339304E+01
 2.1855751E+01  2.4314314E+01
 2.1867250E+01  2.4348358E+01
 2.1878752E+01  2.4357170E+01
 2.1890251E+01  2.4327332E+01
 2.1901751E+01  2.4304525E+01
 2.1913252E+01  2.4268097E+01
 2.1924751E+01  2.4238550E+01
 2.1936251E+01  2.4209490E+01
 2.1947752E+01  2.4203806E+01
 2.1959251E+01  2.4251997E+01
 2.1970751E+01  2.4263937E+01
 2.1982250E+01  2.4297209E+01
 2.1993752E+01  2.4282530E+01
 2.2005251E+01  2.4326115E+01
 2.2016750E+01  2.4330839E+01
 2.2028252E+01  2.4310579E+01
 2.2039751E+01  2.4292776E+01
 2.2051250E+01  2.4324903E+01
 2.2062752E+01  2.4328316E+01
 2.2074251E+01  2.4334755E+01
 2.2085751E+01  2.4308075E+01
 2.2097252E+01  2.4335047E+01
 2.2108751E+01  2.4397778E+01
 2.2120251E+01  2.4481131E+01
 2.2131752E+01  2.4533321E+01
 2.2143251E+01  2.4553921E+01
 2.2154751E+01  2.4542078E+01
 2.2166250E+01  2.4495043E+01
 2.2177752E+01  2.4466881E+01
 2.2189251E+01  2.4437038E+01
 2.2200750E+01  2.4454344E+01
 2.2212252E+01  2.4458410E+01
 2.2223751E+01  2.4494932E+01
 2.2235250E+01  2.4477480E+01
 2.2246752E+01  2.4512600E+01
 2.2258251E+01  2.4506567E+01
 2.2269751E+01  2.4517128E+01
 2.2281252E+01  2.4547859E+01
 2.2292751E+01  2.4584915E+01
 2.2304251E+01  2.4656891E+01
 2.2315752E+01  2.4690075E+01
 2.2327251E+01  2.4757219E+01
 2.2338751E+01  2.4794130E+01
 2.2350250E+01  2.4870903E+01
 2.2361752E+01  2.4871202E+01
 2.2373251E+01  2.4873329E+01
 2.2384750E+01  2.4786348E+01
 2.2396252E+01  2.4760054E+01
 2.2407751E+01  2.4727348E+01
 2.2419250E+01  2.4687172E+01
 2.2430752E+01  2.4682533E+01
 2.2442251E+01  2.4711891E+01
 2.2453751E+01  2.4780645E+01
 2.2465252E+01  2.4812019E+01
 2.2476751E+01  2.4815821E+01
 2.2488251E+01  2.4836880E+01
 2.2499752E+01  2.4881443E+01
 2.2511251E+01  2.4931580E+01
 2.2522751E+01  2.4961651E+01
 2.2534250E+01  2.4939146E+01
 2.2545752E+01  2.4938381E+01
 2.2557251E+01  2.4895597E+01
 2.2568750E+01  2.4933926E+01
 2.2580252E+01  2.4946609E+01
 2.2591751E+01  2.4947273E+01
 2.2603251E+01  2.4965813E+01
 2.2614752E+01  2.5046642E+01
 2.2626251E+01  2.5122318E+01
 2.2637751E+01  2.5176479E+01
 2.2649252E+01  2.5211428E+01
 2.2660751E+01  2.5224287E+01
 2.2672251E+01  2.5247313E+01
 2.2683752E+01  2.5288410E+01
 2.2695251E+01  2.5334528E+01
 2.2706751E+01  2.5273897E+01
 2.2718250E+01  2.5267277E+01
 2.2729752E+01  2.5210316E+01
 2.2741251E+01  2.5232121E+01
 2.2752750E+01  2.5220661E+01
 2.2764252E+01  2.5251553E+01
 2.2775751E+01  2.5268175E+01
 2.2787251E+01  2.5296299E+01
 2.2798752E+01  2.5389545E+01
 2.2810251E+01  2.5526768E+01
 2.2821751E+01  2.5593952E+01
 2.2833252E+01  2.5616518E+01
 2.2844751E+01  2.5644655E+01
 2.2856251E+01  2.5656059E+01
 2.2867750E+01  2.5697052E+01
 2.2879251E+01  2.5734146E+01
 2.2890751E+01  2.5818300E+01
 2.2902250E+01  2.5781410E+01
 2.2913752E+01  2.5844299E+01
 2.2925251E+01  2.5893085E+01
 2.2936750E+01  2.5929010E+01
 2.2948252E+01  2.5972502E+01
 2.2959751E+01  2.5983343E+01
 2.2971251E+01  2.6159529E+01
 2.2982752E+01  2.6306591E+01
 2.2994251E+01  2.6442501E+01
