F:\20151113_APS_34IDE\\Brian\Particle1\OCV\Data_0072.tif
2-Theta Angle (Degrees)
Intensity
       2000
 5.7500005E-03  0.0000000E+00
 1.7250001E-02  0.0000000E+00
 2.8750001E-02  0.0000000E+00
 4.0250003E-02  0.0000000E+00
 5.1750004E-02  0.0000000E+00
 6.3250005E-02  0.0000000E+00
 7.4750006E-02  0.0000000E+00
 8.6250007E-02  0.0000000E+00
 9.7750008E-02  0.0000000E+00
 1.0925001E-01  0.0000000E+00
 1.2075000E-01  0.0000000E+00
 1.3225001E-01  0.0000000E+00
 1.4375001E-01  0.0000000E+00
 1.5525001E-01  0.0000000E+00
 1.6675001E-01  0.0000000E+00
 1.7825001E-01  0.0000000E+00
 1.8975002E-01  0.0000000E+00
 2.0125002E-01  0.0000000E+00
 2.1275002E-01  0.0000000E+00
 2.2425000E-01  0.0000000E+00
 2.3575000E-01  0.0000000E+00
 2.4725001E-01  0.0000000E+00
 2.5875002E-01  0.0000000E+00
 2.7025002E-01  0.0000000E+00
 2.8175002E-01  0.0000000E+00
 2.9325002E-01  0.0000000E+00
 3.0475003E-01  0.0000000E+00
 3.1625003E-01  0.0000000E+00
 3.2775003E-01  0.0000000E+00
 3.3925003E-01  0.0000000E+00
 3.5075003E-01  0.0000000E+00
 3.6225003E-01  0.0000000E+00
 3.7375003E-01  0.0000000E+00
 3.8525003E-01  0.0000000E+00
 3.9675003E-01  0.0000000E+00
 4.0825003E-01  0.0000000E+00
 4.1975003E-01  0.0000000E+00
 4.3125004E-01  0.0000000E+00
 4.4275001E-01  0.0000000E+00
 4.5425001E-01  0.0000000E+00
 4.6575001E-01  0.0000000E+00
 4.7725001E-01  0.0000000E+00
 4.8875001E-01  0.0000000E+00
 5.0025004E-01  0.0000000E+00
 5.1175004E-01  0.0000000E+00
 5.2325004E-01  0.0000000E+00
 5.3475004E-01  0.0000000E+00
 5.4625005E-01  0.0000000E+00
 5.5775005E-01  0.0000000E+00
 5.6925005E-01  0.0000000E+00
 5.8075005E-01  0.0000000E+00
 5.9225005E-01  0.0000000E+00
 6.0375005E-01  0.0000000E+00
 6.1525005E-01  0.0000000E+00
 6.2675005E-01  0.0000000E+00
 6.3825005E-01  0.0000000E+00
 6.4975005E-01  0.0000000E+00
 6.6125005E-01  0.0000000E+00
 6.7275006E-01  0.0000000E+00
 6.8425006E-01  0.0000000E+00
 6.9575006E-01  0.0000000E+00
 7.0725006E-01  0.0000000E+00
 7.1875006E-01  0.0000000E+00
 7.3025006E-01  0.0000000E+00
 7.4175006E-01  0.0000000E+00
 7.5325006E-01  0.0000000E+00
 7.6475006E-01  0.0000000E+00
 7.7625006E-01  0.0000000E+00
 7.8775007E-01  0.0000000E+00
 7.9925007E-01  0.0000000E+00
 8.1075007E-01  0.0000000E+00
 8.2225007E-01  0.0000000E+00
 8.3375007E-01  0.0000000E+00
 8.4525007E-01  0.0000000E+00
 8.5675007E-01  0.0000000E+00
 8.6825007E-01  0.0000000E+00
 8.7975001E-01  0.0000000E+00
 8.9125001E-01  0.0000000E+00
 9.0275002E-01  0.0000000E+00
 9.1425002E-01  0.0000000E+00
 9.2575002E-01  0.0000000E+00
 9.3725002E-01  0.0000000E+00
 9.4875002E-01  0.0000000E+00
 9.6025002E-01  0.0000000E+00
 9.7175002E-01  0.0000000E+00
 9.8325002E-01  0.0000000E+00
 9.9475002E-01  0.0000000E+00
 1.0062500E+00  0.0000000E+00
 1.0177500E+00  0.0000000E+00
 1.0292500E+00  0.0000000E+00
 1.0407500E+00  0.0000000E+00
 1.0522500E+00  0.0000000E+00
 1.0637500E+00  0.0000000E+00
 1.0752500E+00  0.0000000E+00
 1.0867500E+00  0.0000000E+00
 1.0982500E+00  0.0000000E+00
 1.1097500E+00  0.0000000E+00
 1.1212500E+00  0.0000000E+00
 1.1327500E+00  0.0000000E+00
 1.1442500E+00  0.0000000E+00
 1.1557500E+00  0.0000000E+00
 1.1672500E+00  0.0000000E+00
 1.1787500E+00  0.0000000E+00
 1.1902500E+00  0.0000000E+00
 1.2017500E+00  0.0000000E+00
 1.2132500E+00  0.0000000E+00
 1.2247500E+00  0.0000000E+00
 1.2362500E+00  0.0000000E+00
 1.2477500E+00  0.0000000E+00
 1.2592500E+00  0.0000000E+00
 1.2707500E+00  0.0000000E+00
 1.2822500E+00  0.0000000E+00
 1.2937500E+00  0.0000000E+00
 1.3052500E+00  0.0000000E+00
 1.3167500E+00  0.0000000E+00
 1.3282501E+00  0.0000000E+00
 1.3397501E+00  0.0000000E+00
 1.3512501E+00  0.0000000E+00
 1.3627501E+00  0.0000000E+00
 1.3742501E+00  0.0000000E+00
 1.3857501E+00  0.0000000E+00
 1.3972501E+00  0.0000000E+00
 1.4087501E+00  0.0000000E+00
 1.4202501E+00  0.0000000E+00
 1.4317501E+00  0.0000000E+00
 1.4432501E+00  0.0000000E+00
 1.4547501E+00  0.0000000E+00
 1.4662501E+00  0.0000000E+00
 1.4777501E+00  0.0000000E+00
 1.4892501E+00  0.0000000E+00
 1.5007501E+00  0.0000000E+00
 1.5122501E+00  0.0000000E+00
 1.5237501E+00  0.0000000E+00
 1.5352501E+00  0.0000000E+00
 1.5467501E+00  0.0000000E+00
 1.5582501E+00  0.0000000E+00
 1.5697501E+00  0.0000000E+00
 1.5812501E+00  0.0000000E+00
 1.5927501E+00  0.0000000E+00
 1.6042501E+00  0.0000000E+00
 1.6157501E+00  0.0000000E+00
 1.6272501E+00  0.0000000E+00
 1.6387501E+00  0.0000000E+00
 1.6502501E+00  0.0000000E+00
 1.6617501E+00  0.0000000E+00
 1.6732501E+00  0.0000000E+00
 1.6847501E+00  0.0000000E+00
 1.6962501E+00  0.0000000E+00
 1.7077501E+00  0.0000000E+00
 1.7192501E+00  0.0000000E+00
 1.7307501E+00  0.0000000E+00
 1.7422501E+00  0.0000000E+00
 1.7537501E+00  0.0000000E+00
 1.7652501E+00  0.0000000E+00
 1.7767501E+00  0.0000000E+00
 1.7882501E+00  0.0000000E+00
 1.7997501E+00  0.0000000E+00
 1.8112501E+00  0.0000000E+00
 1.8227501E+00  0.0000000E+00
 1.8342501E+00  0.0000000E+00
 1.8457501E+00  0.0000000E+00
 1.8572501E+00  0.0000000E+00
 1.8687501E+00  0.0000000E+00
 1.8802501E+00  0.0000000E+00
 1.8917501E+00  0.0000000E+00
 1.9032501E+00  0.0000000E+00
 1.9147501E+00  0.0000000E+00
 1.9262501E+00  0.0000000E+00
 1.9377501E+00  0.0000000E+00
 1.9492501E+00  0.0000000E+00
 1.9607501E+00  0.0000000E+00
 1.9722501E+00  0.0000000E+00
 1.9837501E+00  0.0000000E+00
 1.9952501E+00  0.0000000E+00
 2.0067501E+00  0.0000000E+00
 2.0182500E+00  0.0000000E+00
 2.0297501E+00  0.0000000E+00
 2.0412500E+00  0.0000000E+00
 2.0527501E+00  0.0000000E+00
 2.0642500E+00  0.0000000E+00
 2.0757501E+00  0.0000000E+00
 2.0872500E+00  0.0000000E+00
 2.0987501E+00  0.0000000E+00
 2.1102500E+00  0.0000000E+00
 2.1217501E+00  0.0000000E+00
 2.1332500E+00  0.0000000E+00
 2.1447501E+00  0.0000000E+00
 2.1562500E+00  0.0000000E+00
 2.1677501E+00  0.0000000E+00
 2.1792500E+00  0.0000000E+00
 2.1907501E+00  0.0000000E+00
 2.2022500E+00  0.0000000E+00
 2.2137501E+00  0.0000000E+00
 2.2252500E+00  0.0000000E+00
 2.2367501E+00  0.0000000E+00
 2.2482500E+00  0.0000000E+00
 2.2597501E+00  0.0000000E+00
 2.2712500E+00  0.0000000E+00
 2.2827501E+00  0.0000000E+00
 2.2942500E+00  0.0000000E+00
 2.3057501E+00  0.0000000E+00
 2.3172500E+00  0.0000000E+00
 2.3287501E+00  0.0000000E+00
 2.3402500E+00  0.0000000E+00
 2.3517501E+00  0.0000000E+00
 2.3632500E+00  0.0000000E+00
 2.3747501E+00  0.0000000E+00
 2.3862500E+00  0.0000000E+00
 2.3977501E+00  0.0000000E+00
 2.4092500E+00  0.0000000E+00
 2.4207501E+00  0.0000000E+00
 2.4322500E+00  0.0000000E+00
 2.4437501E+00  0.0000000E+00
 2.4552500E+00  0.0000000E+00
 2.4667501E+00  0.0000000E+00
 2.4782500E+00  0.0000000E+00
 2.4897501E+00  0.0000000E+00
 2.5012500E+00  0.0000000E+00
 2.5127501E+00  0.0000000E+00
 2.5242500E+00  0.0000000E+00
 2.5357502E+00  0.0000000E+00
 2.5472500E+00  0.0000000E+00
 2.5587502E+00  0.0000000E+00
 2.5702500E+00  0.0000000E+00
 2.5817502E+00  0.0000000E+00
 2.5932500E+00  0.0000000E+00
 2.6047502E+00  0.0000000E+00
 2.6162500E+00  0.0000000E+00
 2.6277502E+00  0.0000000E+00
 2.6392500E+00  0.0000000E+00
 2.6507502E+00  0.0000000E+00
 2.6622500E+00  0.0000000E+00
 2.6737502E+00  0.0000000E+00
 2.6852500E+00  0.0000000E+00
 2.6967502E+00  0.0000000E+00
 2.7082500E+00  0.0000000E+00
 2.7197502E+00  0.0000000E+00
 2.7312500E+00  0.0000000E+00
 2.7427502E+00  0.0000000E+00
 2.7542500E+00  0.0000000E+00
 2.7657502E+00  0.0000000E+00
 2.7772501E+00  0.0000000E+00
 2.7887502E+00  0.0000000E+00
 2.8002501E+00  0.0000000E+00
 2.8117502E+00  0.0000000E+00
 2.8232501E+00  3.0688845E+01
 2.8347502E+00  3.3068405E+01
 2.8462501E+00  3.3677021E+01
 2.8577502E+00  3.4029148E+01
 2.8692501E+00  3.4332523E+01
 2.8807502E+00  3.4500828E+01
 2.8922501E+00  3.4740765E+01
 2.9037502E+00  3.4885803E+01
 2.9152501E+00  3.4982868E+01
 2.9267502E+00  3.5021492E+01
 2.9382501E+00  3.5088642E+01
 2.9497502E+00  3.5242889E+01
 2.9612501E+00  3.5275028E+01
 2.9727502E+00  3.5294048E+01
 2.9842501E+00  3.4834206E+01
 2.9957502E+00  3.5197639E+01
 3.0072501E+00  3.4900185E+01
 3.0187502E+00  3.5201180E+01
 3.0302501E+00  3.4623569E+01
 3.0417502E+00  3.5143326E+01
 3.0532501E+00  3.5361931E+01
 3.0647502E+00  3.5558945E+01
 3.0762501E+00  3.5305737E+01
 3.0877502E+00  3.5064674E+01
 3.0992501E+00  3.5289173E+01
 3.1107502E+00  3.4933697E+01
 3.1222501E+00  3.4949375E+01
 3.1337502E+00  3.4763508E+01
 3.1452501E+00  3.5177925E+01
 3.1567502E+00  3.5216034E+01
 3.1682501E+00  3.5297501E+01
 3.1797502E+00  3.5249645E+01
 3.1912501E+00  3.5251228E+01
 3.2027502E+00  3.5453552E+01
 3.2142501E+00  3.5492977E+01
 3.2257502E+00  3.5364765E+01
 3.2372501E+00  3.5329880E+01
 3.2487502E+00  3.5380615E+01
 3.2602501E+00  3.5311199E+01
 3.2717502E+00  3.5615864E+01
 3.2832501E+00  3.5434288E+01
 3.2947502E+00  3.5752247E+01
 3.3062501E+00  3.5201328E+01
 3.3177502E+00  3.5260841E+01
 3.3292501E+00  3.4995907E+01
 3.3407502E+00  3.4989979E+01
 3.3522501E+00  3.4877018E+01
 3.3637502E+00  3.4885078E+01
 3.3752501E+00  3.4876053E+01
 3.3867502E+00  3.4525200E+01
 3.3982501E+00  3.4492592E+01
 3.4097502E+00  3.4359943E+01
 3.4212501E+00  3.4497787E+01
 3.4327502E+00  3.4339470E+01
 3.4442501E+00  3.4460503E+01
 3.4557502E+00  3.4358597E+01
 3.4672501E+00  3.4477818E+01
 3.4787502E+00  3.4422302E+01
 3.4902501E+00  3.4341320E+01
 3.5017502E+00  3.4075279E+01
 3.5132501E+00  3.3942856E+01
 3.5247502E+00  3.3667274E+01
 3.5362501E+00  3.3501755E+01
 3.5477502E+00  3.3182899E+01
 3.5592501E+00  3.3132298E+01
 3.5707502E+00  3.3017803E+01
 3.5822501E+00  3.2920803E+01
 3.5937502E+00  3.2967297E+01
 3.6052501E+00  3.3063011E+01
 3.6167502E+00  3.2973801E+01
 3.6282501E+00  3.2886147E+01
 3.6397502E+00  3.2912109E+01
 3.6512501E+00  3.3050972E+01
 3.6627502E+00  3.3147461E+01
 3.6742501E+00  3.2974171E+01
 3.6857502E+00  3.2837460E+01
 3.6972501E+00  3.2643665E+01
 3.7087502E+00  3.2263462E+01
 3.7202501E+00  3.2043274E+01
 3.7317502E+00  3.2177528E+01
 3.7432501E+00  3.2363857E+01
 3.7547503E+00  3.2620018E+01
 3.7662501E+00  3.2505596E+01
 3.7777503E+00  3.2680180E+01
 3.7892501E+00  3.2595268E+01
 3.8007503E+00  3.2277851E+01
 3.8122501E+00  3.2173447E+01
 3.8237503E+00  3.2137226E+01
 3.8352501E+00  3.2136677E+01
 3.8467503E+00  3.2152256E+01
 3.8582501E+00  3.2218983E+01
 3.8697503E+00  3.2536015E+01
 3.8812501E+00  3.2571880E+01
 3.8927503E+00  3.2536045E+01
 3.9042501E+00  3.2597855E+01
 3.9157503E+00  3.2624428E+01
 3.9272501E+00  3.2658718E+01
 3.9387503E+00  3.2611111E+01
 3.9502501E+00  3.2641388E+01
 3.9617503E+00  3.2551155E+01
 3.9732502E+00  3.2572197E+01
 3.9847503E+00  3.2572163E+01
 3.9962502E+00  3.2669899E+01
 4.0077500E+00  3.2663815E+01
 4.0192504E+00  3.2640938E+01
 4.0307503E+00  3.2564304E+01
 4.0422502E+00  3.2444458E+01
 4.0537500E+00  3.2522961E+01
 4.0652504E+00  3.2487164E+01
 4.0767503E+00  3.2313492E+01
 4.0882502E+00  3.2177422E+01
 4.0997500E+00  3.1885397E+01
 4.1112504E+00  3.1913143E+01
 4.1227503E+00  3.1907053E+01
 4.1342502E+00  3.2019596E+01
 4.1457500E+00  3.2149414E+01
 4.1572504E+00  3.2123062E+01
 4.1687503E+00  3.1885668E+01
 4.1802502E+00  3.1614708E+01
 4.1917500E+00  3.1366028E+01
 4.2032504E+00  3.1421642E+01
 4.2147503E+00  3.1572329E+01
 4.2262502E+00  3.1604631E+01
 4.2377501E+00  3.1745911E+01
 4.2492504E+00  3.1689766E+01
 4.2607503E+00  3.1800825E+01
 4.2722502E+00  3.1607647E+01
 4.2837501E+00  3.1586267E+01
 4.2952504E+00  3.1497580E+01
 4.3067503E+00  3.1742071E+01
 4.3182502E+00  3.1848595E+01
 4.3297501E+00  3.2030293E+01
 4.3412504E+00  3.2137909E+01
 4.3527503E+00  3.2213886E+01
 4.3642502E+00  3.2187469E+01
 4.3757501E+00  3.2116257E+01
 4.3872504E+00  3.2116703E+01
 4.3987503E+00  3.2102699E+01
 4.4102502E+00  3.2199356E+01
 4.4217501E+00  3.2254147E+01
 4.4332504E+00  3.2320068E+01
 4.4447503E+00  3.2365028E+01
 4.4562502E+00  3.2394760E+01
 4.4677501E+00  3.2330029E+01
 4.4792504E+00  3.2376305E+01
 4.4907503E+00  3.2168835E+01
 4.5022502E+00  3.2210087E+01
 4.5137501E+00  3.1923653E+01
 4.5252504E+00  3.1987633E+01
 4.5367503E+00  3.1869900E+01
 4.5482502E+00  3.2053059E+01
 4.5597501E+00  3.2012753E+01
 4.5712504E+00  3.2304932E+01
 4.5827503E+00  3.2281635E+01
 4.5942502E+00  3.2363918E+01
 4.6057501E+00  3.2225185E+01
 4.6172504E+00  3.2173824E+01
 4.6287503E+00  3.2246815E+01
 4.6402502E+00  3.2344261E+01
 4.6517501E+00  3.2522430E+01
 4.6632504E+00  3.2671257E+01
 4.6747503E+00  3.2710312E+01
 4.6862502E+00  3.2678776E+01
 4.6977501E+00  3.2783371E+01
 4.7092505E+00  3.2803169E+01
 4.7207503E+00  3.2785507E+01
 4.7322502E+00  3.2529007E+01
 4.7437501E+00  3.2299137E+01
 4.7552505E+00  3.2267056E+01
 4.7667503E+00  3.2196217E+01
 4.7782502E+00  3.2275612E+01
 4.7897501E+00  3.2323883E+01
 4.8012505E+00  3.2397053E+01
 4.8127503E+00  3.2461716E+01
 4.8242502E+00  3.2471771E+01
 4.8357501E+00  3.2513454E+01
 4.8472505E+00  3.2510952E+01
 4.8587503E+00  3.2641891E+01
 4.8702502E+00  3.2570438E+01
 4.8817501E+00  3.2600533E+01
 4.8932505E+00  3.2549660E+01
 4.9047503E+00  3.2606468E+01
 4.9162502E+00  3.2640629E+01
 4.9277501E+00  3.2559921E+01
 4.9392505E+00  3.2639282E+01
 4.9507504E+00  3.2604759E+01
 4.9622502E+00  3.2705681E+01
 4.9737501E+00  3.2645218E+01
 4.9852505E+00  3.2676960E+01
 4.9967504E+00  3.2634609E+01
 5.0082502E+00  3.2772881E+01
 5.0197501E+00  3.2830448E+01
 5.0312505E+00  3.2926430E+01
 5.0427504E+00  3.2908268E+01
 5.0542502E+00  3.2853004E+01
 5.0657501E+00  3.2837051E+01
 5.0772505E+00  3.2831253E+01
 5.0887504E+00  3.2804413E+01
 5.1002502E+00  3.2856354E+01
 5.1117501E+00  3.2825546E+01
 5.1232505E+00  3.2968872E+01
 5.1347504E+00  3.3012745E+01
 5.1462502E+00  3.3206772E+01
 5.1577501E+00  3.3238960E+01
 5.1692505E+00  3.3352585E+01
 5.1807504E+00  3.3334404E+01
 5.1922503E+00  3.3415012E+01
 5.2037501E+00  3.3304726E+01
 5.2152505E+00  3.3258175E+01
 5.2267504E+00  3.3122269E+01
 5.2382503E+00  3.3263260E+01
 5.2497501E+00  3.3241108E+01
 5.2612505E+00  3.3447353E+01
 5.2727504E+00  3.3434177E+01
 5.2842503E+00  3.3517422E+01
 5.2957501E+00  3.3583664E+01
 5.3072500E+00  3.3625530E+01
 5.3187504E+00  3.3719109E+01
 5.3302503E+00  3.3671410E+01
 5.3417501E+00  3.3804489E+01
 5.3532500E+00  3.3955444E+01
 5.3647504E+00  3.4108982E+01
 5.3762503E+00  3.4222633E+01
 5.3877501E+00  3.4402142E+01
 5.3992500E+00  3.4525806E+01
 5.4107504E+00  3.4586731E+01
 5.4222503E+00  3.4556618E+01
 5.4337502E+00  3.4491894E+01
 5.4452500E+00  3.4536430E+01
 5.4567504E+00  3.4577923E+01
 5.4682503E+00  3.4628975E+01
 5.4797502E+00  3.4717976E+01
 5.4912500E+00  3.4667019E+01
 5.5027504E+00  3.4664146E+01
 5.5142503E+00  3.4629837E+01
 5.5257502E+00  3.4746845E+01
 5.5372500E+00  3.4751011E+01
 5.5487504E+00  3.4872910E+01
 5.5602503E+00  3.4832573E+01
 5.5717502E+00  3.4919830E+01
 5.5832500E+00  3.5008873E+01
 5.5947504E+00  3.5040379E+01
 5.6062503E+00  3.5160347E+01
 5.6177502E+00  3.5008392E+01
 5.6292500E+00  3.5022511E+01
 5.6407504E+00  3.4974529E+01
 5.6522503E+00  3.4947044E+01
 5.6637502E+00  3.4955463E+01
 5.6752501E+00  3.4932426E+01
 5.6867504E+00  3.5037621E+01
 5.6982503E+00  3.5088924E+01
 5.7097502E+00  3.5297092E+01
 5.7212501E+00  3.5456669E+01
 5.7327504E+00  3.5653934E+01
 5.7442503E+00  3.5594608E+01
 5.7557502E+00  3.5503548E+01
 5.7672501E+00  3.5397488E+01
 5.7787504E+00  3.5462776E+01
 5.7902503E+00  3.5580940E+01
 5.8017502E+00  3.5621864E+01
 5.8132501E+00  3.5709423E+01
 5.8247504E+00  3.5762657E+01
 5.8362503E+00  3.5936363E+01
 5.8477502E+00  3.6048023E+01
 5.8592501E+00  3.6103306E+01
 5.8707504E+00  3.6240772E+01
 5.8822503E+00  3.6453579E+01
 5.8937502E+00  3.6797150E+01
 5.9052501E+00  3.7316959E+01
 5.9167504E+00  3.8333458E+01
 5.9282503E+00  3.9881783E+01
 5.9397502E+00  4.3937893E+01
 5.9512501E+00  4.8773266E+01
 5.9627504E+00  5.3037624E+01
 5.9742503E+00  6.1309738E+01
 5.9857502E+00  6.7065384E+01
 5.9972501E+00  6.7516151E+01
 6.0087504E+00  6.2531593E+01
 6.0202503E+00  5.3818386E+01
 6.0317502E+00  4.9401829E+01
 6.0432501E+00  4.4371735E+01
 6.0547504E+00  4.1206352E+01
 6.0662503E+00  3.9523331E+01
 6.0777502E+00  3.8583393E+01
 6.0892501E+00  3.8075199E+01
 6.1007504E+00  3.7883972E+01
 6.1122503E+00  3.7699486E+01
 6.1237502E+00  3.7498520E+01
 6.1352501E+00  3.7224247E+01
 6.1467505E+00  3.6990959E+01
 6.1582503E+00  3.6853687E+01
 6.1697502E+00  3.6826649E+01
 6.1812501E+00  3.6950676E+01
 6.1927505E+00  3.6991913E+01
 6.2042503E+00  3.7026699E+01
 6.2157502E+00  3.7012177E+01
 6.2272501E+00  3.7082417E+01
 6.2387505E+00  3.7036987E+01
 6.2502503E+00  3.7116753E+01
 6.2617502E+00  3.7146774E+01
 6.2732501E+00  3.7354710E+01
 6.2847505E+00  3.7380627E+01
 6.2962503E+00  3.7385654E+01
 6.3077502E+00  3.7364414E+01
 6.3192501E+00  3.7363182E+01
 6.3307505E+00  3.7466827E+01
 6.3422503E+00  3.7562588E+01
 6.3537502E+00  3.7743057E+01
 6.3652501E+00  3.7860584E+01
 6.3767505E+00  3.7990112E+01
 6.3882504E+00  3.8089077E+01
 6.3997502E+00  3.8139122E+01
 6.4112501E+00  3.8102718E+01
 6.4227505E+00  3.8028069E+01
 6.4342504E+00  3.7982777E+01
 6.4457502E+00  3.8124077E+01
 6.4572501E+00  3.8209740E+01
 6.4687505E+00  3.8420677E+01
 6.4802504E+00  3.8609726E+01
 6.4917502E+00  3.8874725E+01
 6.5032501E+00  3.8968498E+01
 6.5147505E+00  3.8958759E+01
 6.5262504E+00  3.8917320E+01
 6.5377502E+00  3.8970592E+01
 6.5492501E+00  3.9081470E+01
 6.5607505E+00  3.9105938E+01
 6.5722504E+00  3.9104160E+01
 6.5837502E+00  3.9029335E+01
 6.5952501E+00  3.9088337E+01
 6.6067505E+00  3.9241894E+01
 6.6182504E+00  3.9380951E+01
 6.6297503E+00  3.9553764E+01
 6.6412501E+00  3.9694000E+01
 6.6527505E+00  3.9886497E+01
 6.6642504E+00  3.9965660E+01
 6.6757503E+00  3.9903797E+01
 6.6872501E+00  3.9889935E+01
 6.6987505E+00  3.9942047E+01
 6.7102504E+00  4.0078053E+01
 6.7217503E+00  4.0198380E+01
 6.7332501E+00  4.0275738E+01
 6.7447505E+00  4.0264248E+01
 6.7562504E+00  4.0354790E+01
 6.7677503E+00  4.0384300E+01
 6.7792501E+00  4.0710449E+01
 6.7907505E+00  4.0821983E+01
 6.8022504E+00  4.0984447E+01
 6.8137503E+00  4.1066170E+01
 6.8252501E+00  4.1124847E+01
 6.8367505E+00  4.1257061E+01
 6.8482504E+00  4.1292252E+01
 6.8597503E+00  4.1393501E+01
 6.8712502E+00  4.1464863E+01
 6.8827505E+00  4.1602039E+01
 6.8942504E+00  4.1718044E+01
 6.9057503E+00  4.1730110E+01
 6.9172502E+00  4.1638210E+01
 6.9287505E+00  4.1548794E+01
 6.9402504E+00  4.1584534E+01
 6.9517503E+00  4.1649410E+01
 6.9632502E+00  4.1694435E+01
 6.9747505E+00  4.1714245E+01
 6.9862504E+00  4.1727913E+01
 6.9977503E+00  4.1791557E+01
 7.0092502E+00  4.1859909E+01
 7.0207505E+00  4.1963108E+01
 7.0322504E+00  4.2071377E+01
 7.0437503E+00  4.2143497E+01
 7.0552502E+00  4.2261856E+01
 7.0667505E+00  4.2329521E+01
 7.0782504E+00  4.2428589E+01
 7.0897503E+00  4.2485825E+01
 7.1012502E+00  4.2586639E+01
 7.1127505E+00  4.2613434E+01
 7.1242504E+00  4.2716496E+01
 7.1357503E+00  4.2738277E+01
 7.1472502E+00  4.2823460E+01
 7.1587505E+00  4.2841419E+01
 7.1702504E+00  4.2863590E+01
 7.1817503E+00  4.2799255E+01
 7.1932502E+00  4.2882683E+01
 7.2047505E+00  4.2940498E+01
 7.2162504E+00  4.3098289E+01
 7.2277503E+00  4.3067551E+01
 7.2392502E+00  4.2997746E+01
 7.2507505E+00  4.3028000E+01
 7.2622504E+00  4.3017048E+01
 7.2737503E+00  4.3335884E+01
 7.2852502E+00  4.3413181E+01
 7.2967505E+00  4.3519760E+01
 7.3082504E+00  4.3392094E+01
 7.3197503E+00  4.3309818E+01
 7.3312502E+00  4.3370258E+01
 7.3427505E+00  4.3429245E+01
 7.3542504E+00  4.3464001E+01
 7.3657503E+00  4.3514652E+01
 7.3772502E+00  4.3504856E+01
 7.3887506E+00  4.3473305E+01
 7.4002504E+00  4.3435123E+01
 7.4117503E+00  4.3416908E+01
 7.4232502E+00  4.3461258E+01
 7.4347506E+00  4.3496357E+01
 7.4462504E+00  4.3585236E+01
 7.4577503E+00  4.3629784E+01
 7.4692502E+00  4.3609924E+01
 7.4807506E+00  4.3592834E+01
 7.4922504E+00  4.3618435E+01
 7.5037503E+00  4.3653950E+01
 7.5152502E+00  4.3729767E+01
 7.5267506E+00  4.3750401E+01
 7.5382504E+00  4.3876019E+01
 7.5497503E+00  4.3939350E+01
 7.5612502E+00  4.4056721E+01
 7.5727506E+00  4.4109196E+01
 7.5842505E+00  4.4131908E+01
 7.5957503E+00  4.4108528E+01
 7.6072502E+00  4.4057907E+01
 7.6187506E+00  4.3987495E+01
 7.6302505E+00  4.3918282E+01
 7.6417503E+00  4.3790062E+01
 7.6532502E+00  4.3794281E+01
 7.6647506E+00  4.3777287E+01
 7.6762505E+00  4.3799217E+01
 7.6877503E+00  4.3772785E+01
 7.6992502E+00  4.3734890E+01
 7.7107506E+00  4.3688400E+01
 7.7222505E+00  4.3686028E+01
 7.7337503E+00  4.3644188E+01
 7.7452502E+00  4.3695457E+01
 7.7567506E+00  4.3628048E+01
 7.7682505E+00  4.3560379E+01
 7.7797503E+00  4.3487663E+01
 7.7912502E+00  4.3357204E+01
 7.8027506E+00  4.3359833E+01
 7.8142505E+00  4.3353096E+01
 7.8257504E+00  4.3368145E+01
 7.8372502E+00  4.3445885E+01
 7.8487506E+00  4.3447365E+01
 7.8602505E+00  4.3533951E+01
 7.8717504E+00  4.3396095E+01
 7.8832502E+00  4.3357193E+01
 7.8947506E+00  4.3209366E+01
 7.9062505E+00  4.3269905E+01
 7.9177504E+00  4.3212040E+01
 7.9292502E+00  4.3236305E+01
 7.9407506E+00  4.3249161E+01
 7.9522505E+00  4.3212830E+01
 7.9637504E+00  4.3189598E+01
 7.9752502E+00  4.3161873E+01
 7.9867506E+00  4.3173927E+01
 7.9982505E+00  4.3198055E+01
 8.0097504E+00  4.3143238E+01
 8.0212507E+00  4.3094418E+01
 8.0327501E+00  4.2943089E+01
 8.0442505E+00  4.2755669E+01
 8.0557508E+00  4.2596729E+01
 8.0672503E+00  4.2479782E+01
 8.0787506E+00  4.2389832E+01
 8.0902500E+00  4.2338280E+01
 8.1017504E+00  4.2311253E+01
 8.1132507E+00  4.2212299E+01
 8.1247501E+00  4.2108360E+01
 8.1362505E+00  4.1938549E+01
 8.1477509E+00  4.1801056E+01
 8.1592503E+00  4.1596645E+01
 8.1707506E+00  4.1525543E+01
 8.1822500E+00  4.1386703E+01
 8.1937504E+00  4.1344582E+01
 8.2052507E+00  4.1218418E+01
 8.2167501E+00  4.1109016E+01
 8.2282505E+00  4.0971439E+01
 8.2397509E+00  4.0938942E+01
 8.2512503E+00  4.1032131E+01
 8.2627506E+00  4.0962158E+01
 8.2742500E+00  4.0865501E+01
 8.2857504E+00  4.0616539E+01
 8.2972507E+00  4.0457565E+01
 8.3087502E+00  4.0208103E+01
 8.3202505E+00  4.0087852E+01
 8.3317509E+00  3.9955990E+01
 8.3432503E+00  3.9955612E+01
 8.3547506E+00  3.9846767E+01
 8.3662500E+00  3.9754219E+01
 8.3777504E+00  3.9489037E+01
 8.3892508E+00  3.9222385E+01
 8.4007502E+00  3.9010361E+01
 8.4122505E+00  3.8799694E+01
 8.4237509E+00  3.8765289E+01
 8.4352503E+00  3.8548481E+01
 8.4467506E+00  3.8523502E+01
 8.4582500E+00  3.8299290E+01
 8.4697504E+00  3.8287598E+01
 8.4812508E+00  3.8181881E+01
 8.4927502E+00  3.8045063E+01
 8.5042505E+00  3.7876892E+01
 8.5157509E+00  3.7655106E+01
 8.5272503E+00  3.7479393E+01
 8.5387506E+00  3.7267303E+01
 8.5502501E+00  3.6937096E+01
 8.5617504E+00  3.6761765E+01
 8.5732508E+00  3.6534672E+01
 8.5847502E+00  3.6423775E+01
 8.5962505E+00  3.6213211E+01
 8.6077509E+00  3.6103470E+01
 8.6192503E+00  3.5950569E+01
 8.6307507E+00  3.5817703E+01
 8.6422501E+00  3.5659142E+01
 8.6537504E+00  3.5419102E+01
 8.6652508E+00  3.5221783E+01
 8.6767502E+00  3.4930016E+01
 8.6882505E+00  3.4846493E+01
 8.6997509E+00  3.4649555E+01
 8.7112503E+00  3.4458546E+01
 8.7227507E+00  3.4227261E+01
 8.7342501E+00  3.4072159E+01
 8.7457504E+00  3.3895458E+01
 8.7572508E+00  3.3792839E+01
 8.7687502E+00  3.3613171E+01
 8.7802505E+00  3.3473190E+01
 8.7917500E+00  3.3276272E+01
 8.8032503E+00  3.3140926E+01
 8.8147507E+00  3.3049236E+01
 8.8262501E+00  3.2980080E+01
 8.8377504E+00  3.2856998E+01
 8.8492508E+00  3.2675781E+01
 8.8607502E+00  3.2423531E+01
 8.8722506E+00  3.2294506E+01
 8.8837500E+00  3.2063526E+01
 8.8952503E+00  3.1928322E+01
 8.9067507E+00  3.1704090E+01
 8.9182501E+00  3.1621435E+01
 8.9297504E+00  3.1439880E+01
 8.9412508E+00  3.1278978E+01
 8.9527502E+00  3.1135693E+01
 8.9642506E+00  3.1072538E+01
 8.9757500E+00  3.0987930E+01
 8.9872503E+00  3.0922676E+01
 8.9987507E+00  3.0737829E+01
 9.0102501E+00  3.0534250E+01
 9.0217505E+00  3.0279476E+01
 9.0332508E+00  3.0127230E+01
 9.0447502E+00  2.9923664E+01
 9.0562506E+00  2.9750088E+01
 9.0677500E+00  2.9576065E+01
 9.0792503E+00  2.9437716E+01
 9.0907507E+00  2.9325035E+01
 9.1022501E+00  2.9288410E+01
 9.1137505E+00  2.9243925E+01
 9.1252508E+00  2.9197901E+01
 9.1367502E+00  2.9070623E+01
 9.1482506E+00  2.9023205E+01
 9.1597500E+00  2.8915541E+01
 9.1712503E+00  2.8779102E+01
 9.1827507E+00  2.8583618E+01
 9.1942501E+00  2.8476519E+01
 9.2057505E+00  2.8328016E+01
 9.2172508E+00  2.8262287E+01
 9.2287502E+00  2.8154129E+01
 9.2402506E+00  2.8077942E+01
 9.2517500E+00  2.8006388E+01
 9.2632504E+00  2.7895275E+01
 9.2747507E+00  2.7887346E+01
 9.2862501E+00  2.7747391E+01
 9.2977505E+00  2.7666662E+01
 9.3092508E+00  2.7558105E+01
 9.3207502E+00  2.7520199E+01
 9.3322506E+00  2.7433725E+01
 9.3437500E+00  2.7317574E+01
 9.3552504E+00  2.7259817E+01
 9.3667507E+00  2.7171700E+01
 9.3782501E+00  2.7083654E+01
 9.3897505E+00  2.6992971E+01
 9.4012508E+00  2.6917791E+01
 9.4127502E+00  2.6849205E+01
 9.4242506E+00  2.6679008E+01
 9.4357500E+00  2.6618872E+01
 9.4472504E+00  2.6559381E+01
 9.4587507E+00  2.6550327E+01
 9.4702501E+00  2.6469446E+01
 9.4817505E+00  2.6451818E+01
 9.4932508E+00  2.6354727E+01
 9.5047503E+00  2.6255112E+01
 9.5162506E+00  2.6099146E+01
 9.5277500E+00  2.6013655E+01
 9.5392504E+00  2.5936916E+01
 9.5507507E+00  2.5840612E+01
 9.5622501E+00  2.5892818E+01
 9.5737505E+00  2.5885866E+01
 9.5852509E+00  2.5859926E+01
 9.5967503E+00  2.5803852E+01
 9.6082506E+00  2.5790432E+01
 9.6197500E+00  2.5781380E+01
 9.6312504E+00  2.5711046E+01
 9.6427507E+00  2.5582199E+01
 9.6542501E+00  2.5489420E+01
 9.6657505E+00  2.5320055E+01
 9.6772509E+00  2.5191549E+01
 9.6887503E+00  2.5069160E+01
 9.7002506E+00  2.5015295E+01
 9.7117500E+00  2.5050718E+01
 9.7232504E+00  2.5106348E+01
 9.7347507E+00  2.5112497E+01
 9.7462502E+00  2.5117365E+01
 9.7577505E+00  2.5094471E+01
 9.7692509E+00  2.5116428E+01
 9.7807503E+00  2.5096273E+01
 9.7922506E+00  2.5013897E+01
 9.8037500E+00  2.4951658E+01
 9.8152504E+00  2.4916031E+01
 9.8267508E+00  2.4911333E+01
 9.8382502E+00  2.4836588E+01
 9.8497505E+00  2.4741470E+01
 9.8612509E+00  2.4641363E+01
 9.8727503E+00  2.4618601E+01
 9.8842506E+00  2.4502045E+01
 9.8957500E+00  2.4498981E+01
 9.9072504E+00  2.4387785E+01
 9.9187508E+00  2.4430937E+01
 9.9302502E+00  2.4426319E+01
 9.9417505E+00  2.4408060E+01
 9.9532509E+00  2.4312971E+01
 9.9647503E+00  2.4224739E+01
 9.9762506E+00  2.4359400E+01
 9.9877501E+00  2.4330746E+01
 9.9992504E+00  2.4283152E+01
 1.0010751E+01  2.4109037E+01
 1.0022250E+01  2.4090269E+01
 1.0033751E+01  2.4014755E+01
 1.0045251E+01  2.3950617E+01
 1.0056750E+01  2.3934263E+01
 1.0068251E+01  2.3932220E+01
 1.0079750E+01  2.3926878E+01
 1.0091250E+01  2.3894190E+01
 1.0102751E+01  2.3924616E+01
 1.0114250E+01  2.3891470E+01
 1.0125751E+01  2.3864628E+01
 1.0137251E+01  2.3774981E+01
 1.0148750E+01  2.3769638E+01
 1.0160251E+01  2.3750696E+01
 1.0171750E+01  2.3736700E+01
 1.0183250E+01  2.3740568E+01
 1.0194751E+01  2.3669710E+01
 1.0206250E+01  2.3645157E+01
 1.0217751E+01  2.3565807E+01
 1.0229251E+01  2.3512613E+01
 1.0240750E+01  2.3438641E+01
 1.0252251E+01  2.3380016E+01
 1.0263750E+01  2.3385668E+01
 1.0275250E+01  2.3422306E+01
 1.0286751E+01  2.3413765E+01
 1.0298250E+01  2.3447725E+01
 1.0309751E+01  2.3418093E+01
 1.0321251E+01  2.3345736E+01
 1.0332750E+01  2.3261370E+01
 1.0344251E+01  2.3171778E+01
 1.0355750E+01  2.3152674E+01
 1.0367250E+01  2.3117584E+01
 1.0378751E+01  2.3132071E+01
 1.0390250E+01  2.3197577E+01
 1.0401751E+01  2.3218245E+01
 1.0413251E+01  2.3175589E+01
 1.0424750E+01  2.3142467E+01
 1.0436251E+01  2.3077644E+01
 1.0447750E+01  2.3071482E+01
 1.0459250E+01  2.3038811E+01
 1.0470751E+01  2.3094608E+01
 1.0482250E+01  2.3183958E+01
 1.0493751E+01  2.3199162E+01
 1.0505251E+01  2.3201479E+01
 1.0516750E+01  2.3172239E+01
 1.0528251E+01  2.3146132E+01
 1.0539750E+01  2.3109386E+01
 1.0551250E+01  2.3096703E+01
 1.0562751E+01  2.3124256E+01
 1.0574250E+01  2.3094496E+01
 1.0585751E+01  2.3012491E+01
 1.0597251E+01  2.2954681E+01
 1.0608750E+01  2.2928574E+01
 1.0620251E+01  2.2946371E+01
 1.0631750E+01  2.2909807E+01
 1.0643250E+01  2.2938702E+01
 1.0654751E+01  2.2907000E+01
 1.0666250E+01  2.2932978E+01
 1.0677751E+01  2.2819042E+01
 1.0689251E+01  2.2768652E+01
 1.0700750E+01  2.2703270E+01
 1.0712251E+01  2.2711407E+01
 1.0723750E+01  2.2715372E+01
 1.0735250E+01  2.2758738E+01
 1.0746751E+01  2.2854464E+01
 1.0758250E+01  2.2852568E+01
 1.0769751E+01  2.2814196E+01
 1.0781251E+01  2.2753553E+01
 1.0792750E+01  2.2739153E+01
 1.0804251E+01  2.2732929E+01
 1.0815750E+01  2.2681854E+01
 1.0827250E+01  2.2654425E+01
 1.0838751E+01  2.2588926E+01
 1.0850250E+01  2.2606993E+01
 1.0861751E+01  2.2654583E+01
 1.0873251E+01  2.2681330E+01
 1.0884750E+01  2.2659986E+01
 1.0896251E+01  2.2601727E+01
 1.0907750E+01  2.2665672E+01
 1.0919250E+01  2.2663813E+01
 1.0930751E+01  2.2662546E+01
 1.0942250E+01  2.2606762E+01
 1.0953751E+01  2.2646261E+01
 1.0965251E+01  2.2588446E+01
 1.0976750E+01  2.2617634E+01
 1.0988251E+01  2.2518732E+01
 1.0999750E+01  2.2556679E+01
 1.1011250E+01  2.2523201E+01
 1.1022751E+01  2.2526331E+01
 1.1034250E+01  2.2485622E+01
 1.1045751E+01  2.2386171E+01
 1.1057251E+01  2.2342199E+01
 1.1068750E+01  2.2301292E+01
 1.1080251E+01  2.2306858E+01
 1.1091750E+01  2.2367582E+01
 1.1103251E+01  2.2419607E+01
 1.1114751E+01  2.2492258E+01
 1.1126250E+01  2.2546495E+01
 1.1137751E+01  2.2567532E+01
 1.1149251E+01  2.2623264E+01
 1.1160750E+01  2.2574215E+01
 1.1172251E+01  2.2558350E+01
 1.1183750E+01  2.2478388E+01
 1.1195251E+01  2.2429163E+01
 1.1206751E+01  2.2377047E+01
 1.1218250E+01  2.2349092E+01
 1.1229751E+01  2.2314468E+01
 1.1241251E+01  2.2292786E+01
 1.1252750E+01  2.2245914E+01
 1.1264251E+01  2.2261915E+01
 1.1275750E+01  2.2339291E+01
 1.1287251E+01  2.2352949E+01
 1.1298751E+01  2.2350195E+01
 1.1310250E+01  2.2344509E+01
 1.1321751E+01  2.2368814E+01
 1.1333251E+01  2.2385286E+01
 1.1344750E+01  2.2380869E+01
 1.1356251E+01  2.2415504E+01
 1.1367750E+01  2.2523335E+01
 1.1379251E+01  2.2648508E+01
 1.1390751E+01  2.2753361E+01
 1.1402250E+01  2.2940468E+01
 1.1413751E+01  2.2941425E+01
 1.1425251E+01  2.2936268E+01
 1.1436750E+01  2.2837440E+01
 1.1448251E+01  2.2833830E+01
 1.1459750E+01  2.2858711E+01
 1.1471251E+01  2.2875370E+01
 1.1482751E+01  2.2900417E+01
 1.1494250E+01  2.2963274E+01
 1.1505751E+01  2.2982243E+01
 1.1517251E+01  2.3185410E+01
 1.1528750E+01  2.3512762E+01
 1.1540251E+01  2.4058092E+01
 1.1551750E+01  2.4779291E+01
 1.1563251E+01  2.5791824E+01
 1.1574751E+01  2.6823921E+01
 1.1586250E+01  2.7968964E+01
 1.1597751E+01  2.8468819E+01
 1.1609251E+01  2.8735146E+01
 1.1620750E+01  2.8068388E+01
 1.1632251E+01  2.7188728E+01
 1.1643750E+01  2.5899652E+01
 1.1655251E+01  2.4847248E+01
 1.1666751E+01  2.3979761E+01
 1.1678250E+01  2.3400274E+01
 1.1689751E+01  2.3034487E+01
 1.1701251E+01  2.2822639E+01
 1.1712750E+01  2.2683491E+01
 1.1724251E+01  2.2613298E+01
 1.1735750E+01  2.2573034E+01
 1.1747251E+01  2.2557959E+01
 1.1758751E+01  2.2542028E+01
 1.1770250E+01  2.2524538E+01
 1.1781751E+01  2.2528915E+01
 1.1793251E+01  2.2539738E+01
 1.1804750E+01  2.2601620E+01
 1.1816251E+01  2.2654598E+01
 1.1827750E+01  2.2679893E+01
 1.1839251E+01  2.2700171E+01
 1.1850751E+01  2.2692488E+01
 1.1862250E+01  2.2718649E+01
 1.1873751E+01  2.2708992E+01
 1.1885251E+01  2.2774437E+01
 1.1896750E+01  2.2960350E+01
 1.1908251E+01  2.3352711E+01
 1.1919750E+01  2.3909513E+01
 1.1931251E+01  2.5134487E+01
 1.1942751E+01  2.6722986E+01
 1.1954250E+01  2.9327938E+01
 1.1965751E+01  3.0177898E+01
 1.1977251E+01  3.1371624E+01
 1.1988750E+01  3.0198458E+01
 1.2000251E+01  2.9473623E+01
 1.2011750E+01  2.7373613E+01
 1.2023251E+01  2.6270098E+01
 1.2034751E+01  2.5472780E+01
 1.2046250E+01  2.5097357E+01
 1.2057751E+01  2.5674019E+01
 1.2069251E+01  2.5975166E+01
 1.2080750E+01  2.7011023E+01
 1.2092251E+01  2.7310299E+01
 1.2103750E+01  2.7708227E+01
 1.2115251E+01  2.7180124E+01
 1.2126751E+01  2.6469498E+01
 1.2138250E+01  2.5617132E+01
 1.2149751E+01  2.4845057E+01
 1.2161251E+01  2.4041122E+01
 1.2172750E+01  2.3631947E+01
 1.2184251E+01  2.3184404E+01
 1.2195750E+01  2.2904718E+01
 1.2207251E+01  2.2714949E+01
 1.2218751E+01  2.2641668E+01
 1.2230250E+01  2.2633669E+01
 1.2241751E+01  2.2656622E+01
 1.2253251E+01  2.2689798E+01
 1.2264750E+01  2.2690052E+01
 1.2276251E+01  2.2713465E+01
 1.2287750E+01  2.2686390E+01
 1.2299251E+01  2.2671295E+01
 1.2310751E+01  2.2613750E+01
 1.2322250E+01  2.2589901E+01
 1.2333751E+01  2.2608049E+01
 1.2345250E+01  2.2613718E+01
 1.2356750E+01  2.2616095E+01
 1.2368251E+01  2.2577259E+01
 1.2379750E+01  2.2589317E+01
 1.2391251E+01  2.2574018E+01
 1.2402751E+01  2.2536118E+01
 1.2414250E+01  2.2482885E+01
 1.2425751E+01  2.2473454E+01
 1.2437250E+01  2.2495192E+01
 1.2448750E+01  2.2512089E+01
 1.2460251E+01  2.2528563E+01
 1.2471750E+01  2.2544607E+01
 1.2483251E+01  2.2589401E+01
 1.2494751E+01  2.2649145E+01
 1.2506250E+01  2.2654551E+01
 1.2517751E+01  2.2637026E+01
 1.2529250E+01  2.2639893E+01
 1.2540751E+01  2.2678049E+01
 1.2552251E+01  2.2693987E+01
 1.2563750E+01  2.2682081E+01
 1.2575251E+01  2.2693117E+01
 1.2586751E+01  2.2721449E+01
 1.2598250E+01  2.2745623E+01
 1.2609751E+01  2.2739279E+01
 1.2621250E+01  2.2717663E+01
 1.2632751E+01  2.2742216E+01
 1.2644251E+01  2.2703255E+01
 1.2655750E+01  2.2730030E+01
 1.2667251E+01  2.2664614E+01
 1.2678751E+01  2.2713089E+01
 1.2690250E+01  2.2710022E+01
 1.2701751E+01  2.2772125E+01
 1.2713250E+01  2.2810575E+01
 1.2724751E+01  2.2812992E+01
 1.2736251E+01  2.2847197E+01
 1.2747750E+01  2.2857183E+01
 1.2759251E+01  2.2975374E+01
 1.2770751E+01  2.2993273E+01
 1.2782250E+01  2.3080112E+01
 1.2793751E+01  2.3055716E+01
 1.2805250E+01  2.3138468E+01
 1.2816751E+01  2.3185488E+01
 1.2828251E+01  2.3254498E+01
 1.2839750E+01  2.3246288E+01
 1.2851251E+01  2.3243317E+01
 1.2862751E+01  2.3237478E+01
 1.2874250E+01  2.3288818E+01
 1.2885751E+01  2.3341492E+01
 1.2897250E+01  2.3423233E+01
 1.2908751E+01  2.3508446E+01
 1.2920251E+01  2.3579023E+01
 1.2931750E+01  2.3651018E+01
 1.2943251E+01  2.3731077E+01
 1.2954751E+01  2.3732059E+01
 1.2966250E+01  2.3766281E+01
 1.2977751E+01  2.3770710E+01
 1.2989250E+01  2.3836102E+01
 1.3000751E+01  2.3903191E+01
 1.3012251E+01  2.4004477E+01
 1.3023750E+01  2.4134827E+01
 1.3035251E+01  2.4205885E+01
 1.3046751E+01  2.4269930E+01
 1.3058250E+01  2.4346153E+01
 1.3069751E+01  2.4417288E+01
 1.3081250E+01  2.4491938E+01
 1.3092751E+01  2.4567022E+01
 1.3104251E+01  2.4730782E+01
 1.3115750E+01  2.4888220E+01
 1.3127251E+01  2.4986351E+01
 1.3138751E+01  2.5069799E+01
 1.3150250E+01  2.5163702E+01
 1.3161751E+01  2.5257835E+01
 1.3173250E+01  2.5346283E+01
 1.3184751E+01  2.5480705E+01
 1.3196251E+01  2.5613377E+01
 1.3207750E+01  2.5786530E+01
 1.3219251E+01  2.5908533E+01
 1.3230751E+01  2.6068403E+01
 1.3242250E+01  2.6210632E+01
 1.3253751E+01  2.6317856E+01
 1.3265250E+01  2.6483896E+01
 1.3276751E+01  2.6594614E+01
 1.3288251E+01  2.6756435E+01
 1.3299750E+01  2.6857397E+01
 1.3311251E+01  2.6928648E+01
 1.3322751E+01  2.7046799E+01
 1.3334250E+01  2.7170479E+01
 1.3345751E+01  2.7321119E+01
 1.3357250E+01  2.7443258E+01
 1.3368751E+01  2.7558434E+01
 1.3380251E+01  2.7694229E+01
 1.3391750E+01  2.7852882E+01
 1.3403251E+01  2.8001125E+01
 1.3414751E+01  2.8141788E+01
 1.3426250E+01  2.8255947E+01
 1.3437751E+01  2.8390467E+01
 1.3449250E+01  2.8534571E+01
 1.3460751E+01  2.8615917E+01
 1.3472251E+01  2.8780741E+01
 1.3483750E+01  2.8925079E+01
 1.3495251E+01  2.9079451E+01
 1.3506751E+01  2.9158766E+01
 1.3518250E+01  2.9266737E+01
 1.3529751E+01  2.9348906E+01
 1.3541250E+01  2.9444235E+01
 1.3552751E+01  2.9539324E+01
 1.3564251E+01  2.9600130E+01
 1.3575750E+01  2.9644913E+01
 1.3587251E+01  2.9658838E+01
 1.3598751E+01  2.9650665E+01
 1.3610250E+01  2.9681307E+01
 1.3621751E+01  2.9704342E+01
 1.3633250E+01  2.9813368E+01
 1.3644751E+01  2.9790894E+01
 1.3656251E+01  2.9810419E+01
 1.3667750E+01  2.9881453E+01
 1.3679251E+01  2.9894321E+01
 1.3690751E+01  2.9908415E+01
 1.3702250E+01  2.9846670E+01
 1.3713751E+01  2.9865295E+01
 1.3725250E+01  2.9871124E+01
 1.3736751E+01  2.9833931E+01
 1.3748251E+01  2.9852554E+01
 1.3759750E+01  2.9879154E+01
 1.3771251E+01  2.9965019E+01
 1.3782751E+01  3.0103725E+01
 1.3794250E+01  3.0208214E+01
 1.3805751E+01  3.0363701E+01
 1.3817250E+01  3.0477652E+01
 1.3828751E+01  3.0624561E+01
 1.3840251E+01  3.0970331E+01
 1.3851750E+01  3.1384735E+01
 1.3863251E+01  3.2266987E+01
 1.3874751E+01  3.4142265E+01
 1.3886250E+01  3.5302326E+01
 1.3897751E+01  3.9117649E+01
 1.3909250E+01  4.2856087E+01
 1.3920751E+01  4.8526569E+01
 1.3932251E+01  5.8607288E+01
 1.3943750E+01  6.9259094E+01
 1.3955251E+01  8.2276154E+01
 1.3966751E+01  8.5187637E+01
 1.3978251E+01  8.4514503E+01
 1.3989751E+01  7.3060402E+01
 1.4001250E+01  6.2917931E+01
 1.4012751E+01  5.0455532E+01
 1.4024251E+01  4.3219090E+01
 1.4035750E+01  3.6763432E+01
 1.4047251E+01  3.3725342E+01
 1.4058751E+01  3.1417425E+01
 1.4070251E+01  3.0317135E+01
 1.4081751E+01  2.9518284E+01
 1.4093250E+01  2.9028063E+01
 1.4104751E+01  2.8628561E+01
 1.4116251E+01  2.8360666E+01
 1.4127750E+01  2.8074492E+01
 1.4139251E+01  2.7909117E+01
 1.4150751E+01  2.7682819E+01
 1.4162251E+01  2.7486759E+01
 1.4173751E+01  2.7313204E+01
 1.4185250E+01  2.7204357E+01
 1.4196751E+01  2.7128712E+01
 1.4208251E+01  2.7061466E+01
 1.4219750E+01  2.7015530E+01
 1.4231251E+01  2.6967119E+01
 1.4242751E+01  2.6892618E+01
 1.4254251E+01  2.6771530E+01
 1.4265751E+01  2.6648224E+01
 1.4277250E+01  2.6543814E+01
 1.4288751E+01  2.6504953E+01
 1.4300251E+01  2.6494579E+01
 1.4311750E+01  2.6467131E+01
 1.4323251E+01  2.6430317E+01
 1.4334751E+01  2.6352945E+01
 1.4346251E+01  2.6322481E+01
 1.4357751E+01  2.6278866E+01
 1.4369250E+01  2.6307869E+01
 1.4380751E+01  2.6195938E+01
 1.4392251E+01  2.6080753E+01
 1.4403750E+01  2.5918970E+01
 1.4415251E+01  2.5874119E+01
 1.4426751E+01  2.5827158E+01
 1.4438251E+01  2.5820450E+01
 1.4449751E+01  2.5786852E+01
 1.4461250E+01  2.5764751E+01
 1.4472751E+01  2.5697622E+01
 1.4484251E+01  2.5626947E+01
 1.4495750E+01  2.5586920E+01
 1.4507251E+01  2.5592470E+01
 1.4518751E+01  2.5667896E+01
 1.4530251E+01  2.5696711E+01
 1.4541751E+01  2.5676695E+01
 1.4553250E+01  2.5628605E+01
 1.4564751E+01  2.5596449E+01
 1.4576251E+01  2.5504553E+01
 1.4587750E+01  2.5437180E+01
 1.4599251E+01  2.5375717E+01
 1.4610751E+01  2.5363558E+01
 1.4622251E+01  2.5315922E+01
 1.4633751E+01  2.5296427E+01
 1.4645250E+01  2.5303301E+01
 1.4656751E+01  2.5292826E+01
 1.4668251E+01  2.5245275E+01
 1.4679750E+01  2.5185806E+01
 1.4691251E+01  2.5120449E+01
 1.4702751E+01  2.5063435E+01
 1.4714251E+01  2.4990093E+01
 1.4725751E+01  2.4961164E+01
 1.4737250E+01  2.4915117E+01
 1.4748751E+01  2.4922243E+01
 1.4760251E+01  2.4906546E+01
 1.4771750E+01  2.4957193E+01
 1.4783251E+01  2.4918144E+01
 1.4794751E+01  2.4950176E+01
 1.4806251E+01  2.4955812E+01
 1.4817751E+01  2.4992437E+01
 1.4829250E+01  2.4963024E+01
 1.4840751E+01  2.4948282E+01
 1.4852251E+01  2.4958017E+01
 1.4863750E+01  2.4899290E+01
 1.4875251E+01  2.4846096E+01
 1.4886751E+01  2.4826788E+01
 1.4898251E+01  2.4892851E+01
 1.4909751E+01  2.4921280E+01
 1.4921250E+01  2.4912792E+01
 1.4932751E+01  2.4914948E+01
 1.4944251E+01  2.4841087E+01
 1.4955750E+01  2.4746092E+01
 1.4967251E+01  2.4741587E+01
 1.4978751E+01  2.4801958E+01
 1.4990251E+01  2.4900393E+01
 1.5001751E+01  2.4935102E+01
 1.5013250E+01  2.4973320E+01
 1.5024751E+01  2.5033632E+01
 1.5036251E+01  2.4989325E+01
 1.5047750E+01  2.4966377E+01
 1.5059251E+01  2.4918638E+01
 1.5070751E+01  2.4920179E+01
 1.5082251E+01  2.4864304E+01
 1.5093751E+01  2.4893173E+01
 1.5105250E+01  2.4918707E+01
 1.5116751E+01  2.5025663E+01
 1.5128251E+01  2.5122835E+01
 1.5139750E+01  2.5446651E+01
 1.5151251E+01  2.5866156E+01
 1.5162751E+01  2.6545090E+01
 1.5174251E+01  2.7041151E+01
 1.5185751E+01  2.7464296E+01
 1.5197250E+01  2.7695848E+01
 1.5208751E+01  2.7647696E+01
 1.5220251E+01  2.7346746E+01
 1.5231750E+01  2.6751976E+01
 1.5243251E+01  2.6240705E+01
 1.5254751E+01  2.5712896E+01
 1.5266251E+01  2.5217293E+01
 1.5277751E+01  2.4961290E+01
 1.5289250E+01  2.4813349E+01
 1.5300751E+01  2.4751709E+01
 1.5312251E+01  2.4726828E+01
 1.5323750E+01  2.4650442E+01
 1.5335251E+01  2.4590199E+01
 1.5346751E+01  2.4472424E+01
 1.5358251E+01  2.4474064E+01
 1.5369751E+01  2.4515619E+01
 1.5381250E+01  2.4568697E+01
 1.5392751E+01  2.4631506E+01
 1.5404251E+01  2.4606159E+01
 1.5415751E+01  2.4612495E+01
 1.5427251E+01  2.4548550E+01
 1.5438751E+01  2.4518890E+01
 1.5450251E+01  2.4512577E+01
 1.5461751E+01  2.4520424E+01
 1.5473250E+01  2.4554272E+01
 1.5484751E+01  2.4550905E+01
 1.5496251E+01  2.4574848E+01
 1.5507751E+01  2.4569151E+01
 1.5519251E+01  2.4532364E+01
 1.5530751E+01  2.4473362E+01
 1.5542251E+01  2.4459871E+01
 1.5553751E+01  2.4418028E+01
 1.5565250E+01  2.4410704E+01
 1.5576751E+01  2.4393520E+01
 1.5588251E+01  2.4449846E+01
 1.5599751E+01  2.4459410E+01
 1.5611251E+01  2.4450796E+01
 1.5622751E+01  2.4425617E+01
 1.5634251E+01  2.4425671E+01
 1.5645751E+01  2.4435986E+01
 1.5657250E+01  2.4451771E+01
 1.5668751E+01  2.4464811E+01
 1.5680251E+01  2.4487560E+01
 1.5691751E+01  2.4486967E+01
 1.5703251E+01  2.4547234E+01
 1.5714751E+01  2.4493813E+01
 1.5726251E+01  2.4514730E+01
 1.5737751E+01  2.4455423E+01
 1.5749250E+01  2.4462479E+01
 1.5760751E+01  2.4450445E+01
 1.5772251E+01  2.4480083E+01
 1.5783751E+01  2.4522089E+01
 1.5795251E+01  2.4624325E+01
 1.5806751E+01  2.4745707E+01
 1.5818251E+01  2.4764523E+01
 1.5829751E+01  2.4719807E+01
 1.5841250E+01  2.4611008E+01
 1.5852751E+01  2.4557386E+01
 1.5864251E+01  2.4499792E+01
 1.5875751E+01  2.4513889E+01
 1.5887251E+01  2.4585777E+01
 1.5898750E+01  2.4614525E+01
 1.5910251E+01  2.4617899E+01
 1.5921751E+01  2.4530996E+01
 1.5933250E+01  2.4533173E+01
 1.5944751E+01  2.4488649E+01
 1.5956251E+01  2.4528509E+01
 1.5967751E+01  2.4534361E+01
 1.5979251E+01  2.4573278E+01
 1.5990750E+01  2.4611921E+01
 1.6002251E+01  2.4577410E+01
 1.6013750E+01  2.4575481E+01
 1.6025251E+01  2.4565224E+01
 1.6036751E+01  2.4622110E+01
 1.6048250E+01  2.4696209E+01
 1.6059752E+01  2.4738958E+01
 1.6071251E+01  2.4671532E+01
 1.6082750E+01  2.4622448E+01
 1.6094252E+01  2.4577810E+01
 1.6105751E+01  2.4680756E+01
 1.6117250E+01  2.4727413E+01
 1.6128750E+01  2.4764254E+01
 1.6140251E+01  2.4751020E+01
 1.6151751E+01  2.4779480E+01
 1.6163250E+01  2.4833076E+01
 1.6174751E+01  2.4800690E+01
 1.6186251E+01  2.4913288E+01
 1.6197750E+01  2.4847473E+01
 1.6209251E+01  2.5154856E+01
 1.6220751E+01  2.5131001E+01
 1.6232250E+01  2.5524553E+01
 1.6243752E+01  2.5630682E+01
 1.6255251E+01  2.5831526E+01
 1.6266750E+01  2.5967995E+01
 1.6278252E+01  2.5786369E+01
 1.6289751E+01  2.5861776E+01
 1.6301250E+01  2.5335575E+01
 1.6312750E+01  2.5337799E+01
 1.6324251E+01  2.4906187E+01
 1.6335751E+01  2.4942308E+01
 1.6347250E+01  2.4746508E+01
 1.6358751E+01  2.4716730E+01
 1.6370251E+01  2.4624956E+01
 1.6381750E+01  2.4623814E+01
 1.6393251E+01  2.4639898E+01
 1.6404751E+01  2.4608566E+01
 1.6416250E+01  2.4554646E+01
 1.6427752E+01  2.4523136E+01
 1.6439251E+01  2.4529774E+01
 1.6450750E+01  2.4514490E+01
 1.6462252E+01  2.4501871E+01
 1.6473751E+01  2.4501490E+01
 1.6485250E+01  2.4574928E+01
 1.6496750E+01  2.4634150E+01
 1.6508251E+01  2.4638237E+01
 1.6519751E+01  2.4614801E+01
 1.6531250E+01  2.4597691E+01
 1.6542751E+01  2.4570938E+01
 1.6554251E+01  2.4551380E+01
 1.6565750E+01  2.4542511E+01
 1.6577251E+01  2.4505747E+01
 1.6588751E+01  2.4469828E+01
 1.6600250E+01  2.4504358E+01
 1.6611752E+01  2.4578478E+01
 1.6623251E+01  2.4612059E+01
 1.6634750E+01  2.4569796E+01
 1.6646252E+01  2.4590906E+01
 1.6657751E+01  2.4589285E+01
 1.6669250E+01  2.4578320E+01
 1.6680750E+01  2.4573687E+01
 1.6692251E+01  2.4549862E+01
 1.6703751E+01  2.4541897E+01
 1.6715250E+01  2.4522135E+01
 1.6726751E+01  2.4525728E+01
 1.6738251E+01  2.4496780E+01
 1.6749750E+01  2.4463114E+01
 1.6761251E+01  2.4420540E+01
 1.6772751E+01  2.4427914E+01
 1.6784250E+01  2.4412870E+01
 1.6795752E+01  2.4468208E+01
 1.6807251E+01  2.4456039E+01
 1.6818750E+01  2.4472734E+01
 1.6830252E+01  2.4421913E+01
 1.6841751E+01  2.4396156E+01
 1.6853251E+01  2.4377253E+01
 1.6864750E+01  2.4426128E+01
 1.6876251E+01  2.4439533E+01
 1.6887751E+01  2.4411789E+01
 1.6899250E+01  2.4349745E+01
 1.6910751E+01  2.4329144E+01
 1.6922251E+01  2.4286396E+01
 1.6933750E+01  2.4259752E+01
 1.6945251E+01  2.4213835E+01
 1.6956751E+01  2.4226629E+01
 1.6968250E+01  2.4226515E+01
 1.6979752E+01  2.4286861E+01
 1.6991251E+01  2.4291079E+01
 1.7002750E+01  2.4279215E+01
 1.7014252E+01  2.4307154E+01
 1.7025751E+01  2.4284948E+01
 1.7037251E+01  2.4244814E+01
 1.7048750E+01  2.4145496E+01
 1.7060251E+01  2.4122438E+01
 1.7071751E+01  2.4160372E+01
 1.7083250E+01  2.4198067E+01
 1.7094751E+01  2.4250820E+01
 1.7106251E+01  2.4246988E+01
 1.7117750E+01  2.4227659E+01
 1.7129251E+01  2.4197128E+01
 1.7140751E+01  2.4174572E+01
 1.7152250E+01  2.4144213E+01
 1.7163752E+01  2.4096462E+01
 1.7175251E+01  2.4094162E+01
 1.7186750E+01  2.4147570E+01
 1.7198252E+01  2.4207186E+01
 1.7209751E+01  2.4242399E+01
 1.7221251E+01  2.4221952E+01
 1.7232750E+01  2.4160242E+01
 1.7244251E+01  2.4107006E+01
 1.7255751E+01  2.4027081E+01
 1.7267250E+01  2.4017721E+01
 1.7278751E+01  2.4001570E+01
 1.7290251E+01  2.4028053E+01
 1.7301750E+01  2.4065039E+01
 1.7313251E+01  2.4058685E+01
 1.7324751E+01  2.4095139E+01
 1.7336250E+01  2.4103346E+01
 1.7347752E+01  2.4091084E+01
 1.7359251E+01  2.4068338E+01
 1.7370750E+01  2.4017984E+01
 1.7382252E+01  2.4008865E+01
 1.7393751E+01  2.3969881E+01
 1.7405251E+01  2.4014973E+01
 1.7416750E+01  2.4023817E+01
 1.7428251E+01  2.4064440E+01
 1.7439751E+01  2.4039038E+01
 1.7451250E+01  2.4079508E+01
 1.7462751E+01  2.4101101E+01
 1.7474251E+01  2.4149385E+01
 1.7485750E+01  2.4156061E+01
 1.7497252E+01  2.4051264E+01
 1.7508751E+01  2.3930445E+01
 1.7520250E+01  2.3816990E+01
 1.7531752E+01  2.3817360E+01
 1.7543251E+01  2.3876823E+01
 1.7554750E+01  2.3887110E+01
 1.7566252E+01  2.3894266E+01
 1.7577751E+01  2.3889452E+01
 1.7589251E+01  2.3890430E+01
 1.7600750E+01  2.3884554E+01
 1.7612251E+01  2.3844276E+01
 1.7623751E+01  2.3855347E+01
 1.7635250E+01  2.3817301E+01
 1.7646751E+01  2.3790684E+01
 1.7658251E+01  2.3767418E+01
 1.7669750E+01  2.3840027E+01
 1.7681252E+01  2.3922501E+01
 1.7692751E+01  2.3988382E+01
 1.7704250E+01  2.3960918E+01
 1.7715752E+01  2.3902014E+01
 1.7727251E+01  2.3810230E+01
 1.7738750E+01  2.3771776E+01
 1.7750252E+01  2.3744165E+01
 1.7761751E+01  2.3782597E+01
 1.7773251E+01  2.3816772E+01
 1.7784750E+01  2.3820024E+01
 1.7796251E+01  2.3771788E+01
 1.7807751E+01  2.3682590E+01
 1.7819250E+01  2.3635180E+01
 1.7830751E+01  2.3638975E+01
 1.7842251E+01  2.3694540E+01
 1.7853750E+01  2.3732218E+01
 1.7865252E+01  2.3782877E+01
 1.7876751E+01  2.3816988E+01
 1.7888250E+01  2.3828360E+01
 1.7899752E+01  2.3796591E+01
 1.7911251E+01  2.3853884E+01
 1.7922750E+01  2.3907927E+01
 1.7934252E+01  2.3987526E+01
 1.7945751E+01  2.4067247E+01
 1.7957251E+01  2.4155178E+01
 1.7968750E+01  2.4212189E+01
 1.7980251E+01  2.4306723E+01
 1.7991751E+01  2.4473286E+01
 1.8003250E+01  2.4710497E+01
 1.8014751E+01  2.4936625E+01
 1.8026251E+01  2.5101303E+01
 1.8037750E+01  2.5432964E+01
 1.8049252E+01  2.5774466E+01
 1.8060751E+01  2.6303108E+01
 1.8072250E+01  2.6805403E+01
 1.8083752E+01  2.7619225E+01
 1.8095251E+01  2.8128777E+01
 1.8106750E+01  2.9208632E+01
 1.8118252E+01  2.8905962E+01
 1.8129751E+01  2.9549801E+01
 1.8141251E+01  2.8062796E+01
 1.8152750E+01  2.7848896E+01
 1.8164251E+01  2.6246521E+01
 1.8175751E+01  2.5639338E+01
 1.8187250E+01  2.4829945E+01
 1.8198751E+01  2.4410877E+01
 1.8210251E+01  2.4210514E+01
 1.8221750E+01  2.4040812E+01
 1.8233252E+01  2.3909323E+01
 1.8244751E+01  2.3776205E+01
 1.8256250E+01  2.3729778E+01
 1.8267752E+01  2.3683216E+01
 1.8279251E+01  2.3648617E+01
 1.8290751E+01  2.3613405E+01
 1.8302252E+01  2.3631504E+01
 1.8313751E+01  2.3672583E+01
 1.8325251E+01  2.3754072E+01
 1.8336750E+01  2.3800951E+01
 1.8348251E+01  2.3818256E+01
 1.8359751E+01  2.3815170E+01
 1.8371250E+01  2.3764137E+01
 1.8382751E+01  2.3697731E+01
 1.8394251E+01  2.3696093E+01
 1.8405750E+01  2.3693136E+01
 1.8417252E+01  2.3724758E+01
 1.8428751E+01  2.3712994E+01
 1.8440250E+01  2.3680609E+01
 1.8451752E+01  2.3659340E+01
 1.8463251E+01  2.3678667E+01
 1.8474751E+01  2.3678284E+01
 1.8486252E+01  2.3639339E+01
 1.8497751E+01  2.3597780E+01
 1.8509251E+01  2.3597336E+01
 1.8520750E+01  2.3569660E+01
 1.8532251E+01  2.3578705E+01
 1.8543751E+01  2.3512470E+01
 1.8555250E+01  2.3476957E+01
 1.8566751E+01  2.3410299E+01
 1.8578251E+01  2.3478365E+01
 1.8589750E+01  2.3525528E+01
 1.8601252E+01  2.3543756E+01
 1.8612751E+01  2.3507483E+01
 1.8624250E+01  2.3491776E+01
 1.8635752E+01  2.3530191E+01
 1.8647251E+01  2.3511063E+01
 1.8658751E+01  2.3517498E+01
 1.8670252E+01  2.3424501E+01
 1.8681751E+01  2.3446571E+01
 1.8693251E+01  2.3441797E+01
 1.8704750E+01  2.3489901E+01
 1.8716251E+01  2.3502087E+01
 1.8727751E+01  2.3537024E+01
 1.8739250E+01  2.3557409E+01
 1.8750751E+01  2.3544210E+01
 1.8762251E+01  2.3557850E+01
 1.8773750E+01  2.3561424E+01
 1.8785252E+01  2.3620045E+01
 1.8796751E+01  2.3645847E+01
 1.8808250E+01  2.3623726E+01
 1.8819752E+01  2.3597366E+01
 1.8831251E+01  2.3548273E+01
 1.8842751E+01  2.3539169E+01
 1.8854252E+01  2.3531189E+01
 1.8865751E+01  2.3552521E+01
 1.8877251E+01  2.3555227E+01
 1.8888750E+01  2.3550722E+01
 1.8900251E+01  2.3524004E+01
 1.8911751E+01  2.3531233E+01
 1.8923250E+01  2.3523817E+01
 1.8934752E+01  2.3560429E+01
 1.8946251E+01  2.3579016E+01
 1.8957750E+01  2.3556019E+01
 1.8969252E+01  2.3456699E+01
 1.8980751E+01  2.3407455E+01
 1.8992250E+01  2.3410702E+01
 1.9003752E+01  2.3556055E+01
 1.9015251E+01  2.3598528E+01
 1.9026751E+01  2.3637241E+01
 1.9038252E+01  2.3581886E+01
 1.9049751E+01  2.3600451E+01
 1.9061251E+01  2.3584389E+01
 1.9072750E+01  2.3628561E+01
 1.9084251E+01  2.3626419E+01
 1.9095751E+01  2.3624069E+01
 1.9107250E+01  2.3611332E+01
 1.9118752E+01  2.3594576E+01
 1.9130251E+01  2.3597765E+01
 1.9141750E+01  2.3587215E+01
 1.9153252E+01  2.3614101E+01
 1.9164751E+01  2.3587551E+01
 1.9176250E+01  2.3580605E+01
 1.9187752E+01  2.3564547E+01
 1.9199251E+01  2.3540512E+01
 1.9210751E+01  2.3535803E+01
 1.9222252E+01  2.3510275E+01
 1.9233751E+01  2.3487022E+01
 1.9245251E+01  2.3506294E+01
 1.9256750E+01  2.3577948E+01
 1.9268251E+01  2.3668627E+01
 1.9279751E+01  2.3630531E+01
 1.9291250E+01  2.3603357E+01
 1.9302752E+01  2.3595240E+01
 1.9314251E+01  2.3626255E+01
 1.9325750E+01  2.3673256E+01
 1.9337252E+01  2.3702637E+01
 1.9348751E+01  2.3695158E+01
 1.9360250E+01  2.3641680E+01
 1.9371752E+01  2.3644913E+01
 1.9383251E+01  2.3665512E+01
 1.9394751E+01  2.3701275E+01
 1.9406250E+01  2.3708471E+01
 1.9417751E+01  2.3760321E+01
 1.9429251E+01  2.3785089E+01
 1.9440750E+01  2.3790279E+01
 1.9452251E+01  2.3772852E+01
 1.9463751E+01  2.3754877E+01
 1.9475250E+01  2.3769047E+01
 1.9486752E+01  2.3806467E+01
 1.9498251E+01  2.3820189E+01
 1.9509750E+01  2.3766832E+01
 1.9521252E+01  2.3772947E+01
 1.9532751E+01  2.3789202E+01
 1.9544250E+01  2.3844219E+01
 1.9555752E+01  2.3836088E+01
 1.9567251E+01  2.3821754E+01
 1.9578751E+01  2.3802801E+01
 1.9590250E+01  2.3795620E+01
 1.9601751E+01  2.3862696E+01
 1.9613251E+01  2.3983770E+01
 1.9624750E+01  2.4128414E+01
 1.9636251E+01  2.4322586E+01
 1.9647751E+01  2.4569162E+01
 1.9659250E+01  2.4881405E+01
 1.9670752E+01  2.5237963E+01
 1.9682251E+01  2.5696163E+01
 1.9693750E+01  2.6258230E+01
 1.9705252E+01  2.7176531E+01
 1.9716751E+01  2.7714203E+01
 1.9728251E+01  2.8301426E+01
 1.9739752E+01  2.8499420E+01
 1.9751251E+01  2.8266363E+01
 1.9762751E+01  2.7625933E+01
 1.9774250E+01  2.7005810E+01
 1.9785751E+01  2.6855097E+01
 1.9797251E+01  2.6934103E+01
 1.9808750E+01  2.7699675E+01
 1.9820251E+01  2.8500149E+01
 1.9831751E+01  3.0064280E+01
 1.9843250E+01  3.0770712E+01
 1.9854752E+01  3.2192413E+01
 1.9866251E+01  3.1999422E+01
 1.9877750E+01  3.2550362E+01
 1.9889252E+01  3.1437210E+01
 1.9900751E+01  3.0504803E+01
 1.9912251E+01  2.8489388E+01
 1.9923752E+01  2.7033556E+01
 1.9935251E+01  2.6059889E+01
 1.9946751E+01  2.5075451E+01
 1.9958250E+01  2.4763479E+01
 1.9969751E+01  2.4444851E+01
 1.9981251E+01  2.4343178E+01
 1.9992750E+01  2.4274601E+01
 2.0004251E+01  2.4239506E+01
 2.0015751E+01  2.4202671E+01
 2.0027250E+01  2.4178375E+01
 2.0038752E+01  2.4122635E+01
 2.0050251E+01  2.4105635E+01
 2.0061750E+01  2.4112162E+01
 2.0073252E+01  2.4017342E+01
 2.0084751E+01  2.3990944E+01
 2.0096251E+01  2.3932455E+01
 2.0107752E+01  2.3957478E+01
 2.0119251E+01  2.3957258E+01
 2.0130751E+01  2.3967241E+01
 2.0142250E+01  2.3944199E+01
 2.0153751E+01  2.3914532E+01
 2.0165251E+01  2.3895870E+01
 2.0176750E+01  2.3875086E+01
 2.0188251E+01  2.3826170E+01
 2.0199751E+01  2.3782038E+01
 2.0211250E+01  2.3756807E+01
 2.0222752E+01  2.3805229E+01
 2.0234251E+01  2.3787146E+01
 2.0245750E+01  2.3827135E+01
 2.0257252E+01  2.3780312E+01
 2.0268751E+01  2.3780312E+01
 2.0280251E+01  2.3784386E+01
 2.0291752E+01  2.3834770E+01
 2.0303251E+01  2.3787973E+01
 2.0314751E+01  2.3702919E+01
 2.0326250E+01  2.3663280E+01
 2.0337751E+01  2.3659580E+01
 2.0349251E+01  2.3722567E+01
 2.0360750E+01  2.3769419E+01
 2.0372252E+01  2.3798107E+01
 2.0383751E+01  2.3782894E+01
 2.0395250E+01  2.3794235E+01
 2.0406752E+01  2.3782610E+01
 2.0418251E+01  2.3775406E+01
 2.0429750E+01  2.3795502E+01
 2.0441252E+01  2.3797794E+01
 2.0452751E+01  2.3816486E+01
 2.0464251E+01  2.3826279E+01
 2.0475752E+01  2.3823750E+01
 2.0487251E+01  2.3832613E+01
 2.0498751E+01  2.3801603E+01
 2.0510250E+01  2.3746843E+01
 2.0521751E+01  2.3699465E+01
 2.0533251E+01  2.3680952E+01
 2.0544750E+01  2.3689087E+01
 2.0556252E+01  2.3733440E+01
 2.0567751E+01  2.3797375E+01
 2.0579250E+01  2.3867924E+01
 2.0590752E+01  2.3986237E+01
 2.0602251E+01  2.4060852E+01
 2.0613750E+01  2.4102749E+01
 2.0625252E+01  2.4152170E+01
 2.0636751E+01  2.4168575E+01
 2.0648251E+01  2.4124739E+01
 2.0659752E+01  2.4151421E+01
 2.0671251E+01  2.4245073E+01
 2.0682751E+01  2.4498489E+01
 2.0694250E+01  2.4776674E+01
 2.0705751E+01  2.5249449E+01
 2.0717251E+01  2.5738802E+01
 2.0728750E+01  2.6437874E+01
 2.0740252E+01  2.7128651E+01
 2.0751751E+01  2.7857111E+01
 2.0763250E+01  2.8463179E+01
 2.0774752E+01  2.8688576E+01
 2.0786251E+01  2.8583794E+01
 2.0797750E+01  2.8263498E+01
 2.0809252E+01  2.7596489E+01
 2.0820751E+01  2.6866301E+01
 2.0832251E+01  2.6088037E+01
 2.0843752E+01  2.5489691E+01
 2.0855251E+01  2.4935797E+01
 2.0866751E+01  2.4604923E+01
 2.0878250E+01  2.4343880E+01
 2.0889751E+01  2.4252838E+01
 2.0901251E+01  2.4179123E+01
 2.0912750E+01  2.4198900E+01
 2.0924252E+01  2.4153357E+01
 2.0935751E+01  2.4182030E+01
 2.0947250E+01  2.4151157E+01
 2.0958752E+01  2.4068899E+01
 2.0970251E+01  2.3982409E+01
 2.0981750E+01  2.3982342E+01
 2.0993252E+01  2.3995792E+01
 2.1004751E+01  2.4024294E+01
 2.1016251E+01  2.4019444E+01
 2.1027752E+01  2.4057306E+01
 2.1039251E+01  2.4035793E+01
 2.1050751E+01  2.4026436E+01
 2.1062250E+01  2.4026083E+01
 2.1073751E+01  2.4054989E+01
 2.1085251E+01  2.4062998E+01
 2.1096750E+01  2.4015339E+01
 2.1108252E+01  2.3971710E+01
 2.1119751E+01  2.3938183E+01
 2.1131250E+01  2.3890314E+01
 2.1142752E+01  2.3881287E+01
 2.1154251E+01  2.3849386E+01
 2.1165751E+01  2.3879036E+01
 2.1177252E+01  2.3916195E+01
 2.1188751E+01  2.3948078E+01
 2.1200251E+01  2.3948769E+01
 2.1211752E+01  2.3931847E+01
 2.1223251E+01  2.3951990E+01
 2.1234751E+01  2.3923395E+01
 2.1246250E+01  2.3969114E+01
 2.1257751E+01  2.4032984E+01
 2.1269251E+01  2.4122005E+01
 2.1280750E+01  2.4281111E+01
 2.1292252E+01  2.4330996E+01
 2.1303751E+01  2.4296265E+01
 2.1315250E+01  2.4080570E+01
 2.1326752E+01  2.3958473E+01
 2.1338251E+01  2.3862722E+01
 2.1349751E+01  2.3856758E+01
 2.1361252E+01  2.3836977E+01
 2.1372751E+01  2.3870092E+01
 2.1384251E+01  2.3896023E+01
 2.1395752E+01  2.3981131E+01
 2.1407251E+01  2.4001949E+01
 2.1418751E+01  2.4055155E+01
 2.1430250E+01  2.4059431E+01
 2.1441751E+01  2.4037258E+01
 2.1453251E+01  2.3985279E+01
 2.1464750E+01  2.3955481E+01
 2.1476252E+01  2.3984516E+01
 2.1487751E+01  2.4028864E+01
 2.1499250E+01  2.4041908E+01
 2.1510752E+01  2.4062468E+01
 2.1522251E+01  2.4042320E+01
 2.1533751E+01  2.4026838E+01
 2.1545252E+01  2.3990599E+01
 2.1556751E+01  2.3958504E+01
 2.1568251E+01  2.3956223E+01
 2.1579752E+01  2.3991486E+01
 2.1591251E+01  2.4050125E+01
 2.1602751E+01  2.4112812E+01
 2.1614250E+01  2.4132839E+01
 2.1625751E+01  2.4110632E+01
 2.1637251E+01  2.4088226E+01
 2.1648750E+01  2.4037106E+01
 2.1660252E+01  2.4051001E+01
 2.1671751E+01  2.4099905E+01
 2.1683250E+01  2.4147097E+01
 2.1694752E+01  2.4139868E+01
 2.1706251E+01  2.4144424E+01
 2.1717751E+01  2.4154398E+01
 2.1729252E+01  2.4171516E+01
 2.1740751E+01  2.4157955E+01
 2.1752251E+01  2.4126902E+01
 2.1763752E+01  2.4107868E+01
 2.1775251E+01  2.4105133E+01
 2.1786751E+01  2.4078405E+01
 2.1798250E+01  2.4098804E+01
 2.1809752E+01  2.4124792E+01
 2.1821251E+01  2.4195438E+01
 2.1832750E+01  2.4215010E+01
 2.1844252E+01  2.4279593E+01
 2.1855751E+01  2.4309774E+01
 2.1867250E+01  2.4281702E+01
 2.1878752E+01  2.4282639E+01
 2.1890251E+01  2.4280924E+01
 2.1901751E+01  2.4283495E+01
 2.1913252E+01  2.4299761E+01
 2.1924751E+01  2.4286913E+01
 2.1936251E+01  2.4265284E+01
 2.1947752E+01  2.4215256E+01
 2.1959251E+01  2.4217262E+01
 2.1970751E+01  2.4218210E+01
 2.1982250E+01  2.4170298E+01
 2.1993752E+01  2.4148552E+01
 2.2005251E+01  2.4126686E+01
 2.2016750E+01  2.4164675E+01
 2.2028252E+01  2.4227131E+01
 2.2039751E+01  2.4294283E+01
 2.2051250E+01  2.4323500E+01
 2.2062752E+01  2.4337126E+01
 2.2074251E+01  2.4352041E+01
 2.2085751E+01  2.4374458E+01
 2.2097252E+01  2.4346970E+01
 2.2108751E+01  2.4318396E+01
 2.2120251E+01  2.4288900E+01
 2.2131752E+01  2.4316278E+01
 2.2143251E+01  2.4338923E+01
 2.2154751E+01  2.4306625E+01
 2.2166250E+01  2.4263554E+01
 2.2177752E+01  2.4284950E+01
 2.2189251E+01  2.4366276E+01
 2.2200750E+01  2.4446453E+01
 2.2212252E+01  2.4477694E+01
 2.2223751E+01  2.4506891E+01
 2.2235250E+01  2.4553099E+01
 2.2246752E+01  2.4599876E+01
 2.2258251E+01  2.4571020E+01
 2.2269751E+01  2.4518007E+01
 2.2281252E+01  2.4491943E+01
 2.2292751E+01  2.4464508E+01
 2.2304251E+01  2.4444698E+01
 2.2315752E+01  2.4454842E+01
 2.2327251E+01  2.4466330E+01
 2.2338751E+01  2.4470503E+01
 2.2350250E+01  2.4472145E+01
 2.2361752E+01  2.4475843E+01
 2.2373251E+01  2.4485928E+01
 2.2384750E+01  2.4477247E+01
 2.2396252E+01  2.4534136E+01
 2.2407751E+01  2.4536367E+01
 2.2419250E+01  2.4489597E+01
 2.2430752E+01  2.4516468E+01
 2.2442251E+01  2.4570858E+01
 2.2453751E+01  2.4656557E+01
 2.2465252E+01  2.4684376E+01
 2.2476751E+01  2.4678108E+01
 2.2488251E+01  2.4680471E+01
 2.2499752E+01  2.4717857E+01
 2.2511251E+01  2.4757080E+01
 2.2522751E+01  2.4834185E+01
 2.2534250E+01  2.4848993E+01
 2.2545752E+01  2.4887455E+01
 2.2557251E+01  2.4849833E+01
 2.2568750E+01  2.4844849E+01
 2.2580252E+01  2.4854200E+01
 2.2591751E+01  2.4857853E+01
 2.2603251E+01  2.4876938E+01
 2.2614752E+01  2.4902077E+01
 2.2626251E+01  2.4940899E+01
 2.2637751E+01  2.4948500E+01
 2.2649252E+01  2.4927971E+01
 2.2660751E+01  2.4961332E+01
 2.2672251E+01  2.5021315E+01
 2.2683752E+01  2.5110750E+01
 2.2695251E+01  2.5194197E+01
 2.2706751E+01  2.5234049E+01
 2.2718250E+01  2.5270718E+01
 2.2729752E+01  2.5250208E+01
 2.2741251E+01  2.5273279E+01
 2.2752750E+01  2.5327297E+01
 2.2764252E+01  2.5382887E+01
 2.2775751E+01  2.5382286E+01
 2.2787251E+01  2.5352797E+01
 2.2798752E+01  2.5358988E+01
 2.2810251E+01  2.5440916E+01
 2.2821751E+01  2.5511108E+01
 2.2833252E+01  2.5566010E+01
 2.2844751E+01  2.5581877E+01
 2.2856251E+01  2.5626972E+01
 2.2867750E+01  2.5668299E+01
 2.2879251E+01  2.5713318E+01
 2.2890751E+01  2.5779551E+01
 2.2902250E+01  2.5810995E+01
 2.2913752E+01  2.5900599E+01
 2.2925251E+01  2.5943645E+01
 2.2936750E+01  2.5931171E+01
 2.2948252E+01  2.5931896E+01
 2.2959751E+01  2.5993391E+01
 2.2971251E+01  2.6142025E+01
 2.2982752E+01  2.6306227E+01
 2.2994251E+01  2.6433056E+01
