F:\20151113_APS_34IDE\\Brian\Particle1\OCV\Data_0010.tif
2-Theta Angle (Degrees)
Intensity
       2000
 5.7500005E-03  0.0000000E+00
 1.7250001E-02  0.0000000E+00
 2.8750001E-02  0.0000000E+00
 4.0250003E-02  0.0000000E+00
 5.1750004E-02  0.0000000E+00
 6.3250005E-02  0.0000000E+00
 7.4750006E-02  0.0000000E+00
 8.6250007E-02  0.0000000E+00
 9.7750008E-02  0.0000000E+00
 1.0925001E-01  0.0000000E+00
 1.2075000E-01  0.0000000E+00
 1.3225001E-01  0.0000000E+00
 1.4375001E-01  0.0000000E+00
 1.5525001E-01  0.0000000E+00
 1.6675001E-01  0.0000000E+00
 1.7825001E-01  0.0000000E+00
 1.8975002E-01  0.0000000E+00
 2.0125002E-01  0.0000000E+00
 2.1275002E-01  0.0000000E+00
 2.2425000E-01  0.0000000E+00
 2.3575000E-01  0.0000000E+00
 2.4725001E-01  0.0000000E+00
 2.5875002E-01  0.0000000E+00
 2.7025002E-01  0.0000000E+00
 2.8175002E-01  0.0000000E+00
 2.9325002E-01  0.0000000E+00
 3.0475003E-01  0.0000000E+00
 3.1625003E-01  0.0000000E+00
 3.2775003E-01  0.0000000E+00
 3.3925003E-01  0.0000000E+00
 3.5075003E-01  0.0000000E+00
 3.6225003E-01  0.0000000E+00
 3.7375003E-01  0.0000000E+00
 3.8525003E-01  0.0000000E+00
 3.9675003E-01  0.0000000E+00
 4.0825003E-01  0.0000000E+00
 4.1975003E-01  0.0000000E+00
 4.3125004E-01  0.0000000E+00
 4.4275001E-01  0.0000000E+00
 4.5425001E-01  0.0000000E+00
 4.6575001E-01  0.0000000E+00
 4.7725001E-01  0.0000000E+00
 4.8875001E-01  0.0000000E+00
 5.0025004E-01  0.0000000E+00
 5.1175004E-01  0.0000000E+00
 5.2325004E-01  0.0000000E+00
 5.3475004E-01  0.0000000E+00
 5.4625005E-01  0.0000000E+00
 5.5775005E-01  0.0000000E+00
 5.6925005E-01  0.0000000E+00
 5.8075005E-01  0.0000000E+00
 5.9225005E-01  0.0000000E+00
 6.0375005E-01  0.0000000E+00
 6.1525005E-01  0.0000000E+00
 6.2675005E-01  0.0000000E+00
 6.3825005E-01  0.0000000E+00
 6.4975005E-01  0.0000000E+00
 6.6125005E-01  0.0000000E+00
 6.7275006E-01  0.0000000E+00
 6.8425006E-01  0.0000000E+00
 6.9575006E-01  0.0000000E+00
 7.0725006E-01  0.0000000E+00
 7.1875006E-01  0.0000000E+00
 7.3025006E-01  0.0000000E+00
 7.4175006E-01  0.0000000E+00
 7.5325006E-01  0.0000000E+00
 7.6475006E-01  0.0000000E+00
 7.7625006E-01  0.0000000E+00
 7.8775007E-01  0.0000000E+00
 7.9925007E-01  0.0000000E+00
 8.1075007E-01  0.0000000E+00
 8.2225007E-01  0.0000000E+00
 8.3375007E-01  0.0000000E+00
 8.4525007E-01  0.0000000E+00
 8.5675007E-01  0.0000000E+00
 8.6825007E-01  0.0000000E+00
 8.7975001E-01  0.0000000E+00
 8.9125001E-01  0.0000000E+00
 9.0275002E-01  0.0000000E+00
 9.1425002E-01  0.0000000E+00
 9.2575002E-01  0.0000000E+00
 9.3725002E-01  0.0000000E+00
 9.4875002E-01  0.0000000E+00
 9.6025002E-01  0.0000000E+00
 9.7175002E-01  0.0000000E+00
 9.8325002E-01  0.0000000E+00
 9.9475002E-01  0.0000000E+00
 1.0062500E+00  0.0000000E+00
 1.0177500E+00  0.0000000E+00
 1.0292500E+00  0.0000000E+00
 1.0407500E+00  0.0000000E+00
 1.0522500E+00  0.0000000E+00
 1.0637500E+00  0.0000000E+00
 1.0752500E+00  0.0000000E+00
 1.0867500E+00  0.0000000E+00
 1.0982500E+00  0.0000000E+00
 1.1097500E+00  0.0000000E+00
 1.1212500E+00  0.0000000E+00
 1.1327500E+00  0.0000000E+00
 1.1442500E+00  0.0000000E+00
 1.1557500E+00  0.0000000E+00
 1.1672500E+00  0.0000000E+00
 1.1787500E+00  0.0000000E+00
 1.1902500E+00  0.0000000E+00
 1.2017500E+00  0.0000000E+00
 1.2132500E+00  0.0000000E+00
 1.2247500E+00  0.0000000E+00
 1.2362500E+00  0.0000000E+00
 1.2477500E+00  0.0000000E+00
 1.2592500E+00  0.0000000E+00
 1.2707500E+00  0.0000000E+00
 1.2822500E+00  0.0000000E+00
 1.2937500E+00  0.0000000E+00
 1.3052500E+00  0.0000000E+00
 1.3167500E+00  0.0000000E+00
 1.3282501E+00  0.0000000E+00
 1.3397501E+00  0.0000000E+00
 1.3512501E+00  0.0000000E+00
 1.3627501E+00  0.0000000E+00
 1.3742501E+00  0.0000000E+00
 1.3857501E+00  0.0000000E+00
 1.3972501E+00  0.0000000E+00
 1.4087501E+00  0.0000000E+00
 1.4202501E+00  0.0000000E+00
 1.4317501E+00  0.0000000E+00
 1.4432501E+00  0.0000000E+00
 1.4547501E+00  0.0000000E+00
 1.4662501E+00  0.0000000E+00
 1.4777501E+00  0.0000000E+00
 1.4892501E+00  0.0000000E+00
 1.5007501E+00  0.0000000E+00
 1.5122501E+00  0.0000000E+00
 1.5237501E+00  0.0000000E+00
 1.5352501E+00  0.0000000E+00
 1.5467501E+00  0.0000000E+00
 1.5582501E+00  0.0000000E+00
 1.5697501E+00  0.0000000E+00
 1.5812501E+00  0.0000000E+00
 1.5927501E+00  0.0000000E+00
 1.6042501E+00  0.0000000E+00
 1.6157501E+00  0.0000000E+00
 1.6272501E+00  0.0000000E+00
 1.6387501E+00  0.0000000E+00
 1.6502501E+00  0.0000000E+00
 1.6617501E+00  0.0000000E+00
 1.6732501E+00  0.0000000E+00
 1.6847501E+00  0.0000000E+00
 1.6962501E+00  0.0000000E+00
 1.7077501E+00  0.0000000E+00
 1.7192501E+00  0.0000000E+00
 1.7307501E+00  0.0000000E+00
 1.7422501E+00  0.0000000E+00
 1.7537501E+00  0.0000000E+00
 1.7652501E+00  0.0000000E+00
 1.7767501E+00  0.0000000E+00
 1.7882501E+00  0.0000000E+00
 1.7997501E+00  0.0000000E+00
 1.8112501E+00  0.0000000E+00
 1.8227501E+00  0.0000000E+00
 1.8342501E+00  0.0000000E+00
 1.8457501E+00  0.0000000E+00
 1.8572501E+00  0.0000000E+00
 1.8687501E+00  0.0000000E+00
 1.8802501E+00  0.0000000E+00
 1.8917501E+00  0.0000000E+00
 1.9032501E+00  0.0000000E+00
 1.9147501E+00  0.0000000E+00
 1.9262501E+00  0.0000000E+00
 1.9377501E+00  0.0000000E+00
 1.9492501E+00  0.0000000E+00
 1.9607501E+00  0.0000000E+00
 1.9722501E+00  0.0000000E+00
 1.9837501E+00  0.0000000E+00
 1.9952501E+00  0.0000000E+00
 2.0067501E+00  0.0000000E+00
 2.0182500E+00  0.0000000E+00
 2.0297501E+00  0.0000000E+00
 2.0412500E+00  0.0000000E+00
 2.0527501E+00  0.0000000E+00
 2.0642500E+00  0.0000000E+00
 2.0757501E+00  0.0000000E+00
 2.0872500E+00  0.0000000E+00
 2.0987501E+00  0.0000000E+00
 2.1102500E+00  0.0000000E+00
 2.1217501E+00  0.0000000E+00
 2.1332500E+00  0.0000000E+00
 2.1447501E+00  0.0000000E+00
 2.1562500E+00  0.0000000E+00
 2.1677501E+00  0.0000000E+00
 2.1792500E+00  0.0000000E+00
 2.1907501E+00  0.0000000E+00
 2.2022500E+00  0.0000000E+00
 2.2137501E+00  0.0000000E+00
 2.2252500E+00  0.0000000E+00
 2.2367501E+00  0.0000000E+00
 2.2482500E+00  0.0000000E+00
 2.2597501E+00  0.0000000E+00
 2.2712500E+00  0.0000000E+00
 2.2827501E+00  0.0000000E+00
 2.2942500E+00  0.0000000E+00
 2.3057501E+00  0.0000000E+00
 2.3172500E+00  0.0000000E+00
 2.3287501E+00  0.0000000E+00
 2.3402500E+00  0.0000000E+00
 2.3517501E+00  0.0000000E+00
 2.3632500E+00  0.0000000E+00
 2.3747501E+00  0.0000000E+00
 2.3862500E+00  0.0000000E+00
 2.3977501E+00  0.0000000E+00
 2.4092500E+00  0.0000000E+00
 2.4207501E+00  0.0000000E+00
 2.4322500E+00  0.0000000E+00
 2.4437501E+00  0.0000000E+00
 2.4552500E+00  0.0000000E+00
 2.4667501E+00  0.0000000E+00
 2.4782500E+00  0.0000000E+00
 2.4897501E+00  0.0000000E+00
 2.5012500E+00  0.0000000E+00
 2.5127501E+00  0.0000000E+00
 2.5242500E+00  0.0000000E+00
 2.5357502E+00  0.0000000E+00
 2.5472500E+00  0.0000000E+00
 2.5587502E+00  0.0000000E+00
 2.5702500E+00  0.0000000E+00
 2.5817502E+00  0.0000000E+00
 2.5932500E+00  0.0000000E+00
 2.6047502E+00  0.0000000E+00
 2.6162500E+00  0.0000000E+00
 2.6277502E+00  0.0000000E+00
 2.6392500E+00  0.0000000E+00
 2.6507502E+00  0.0000000E+00
 2.6622500E+00  0.0000000E+00
 2.6737502E+00  0.0000000E+00
 2.6852500E+00  0.0000000E+00
 2.6967502E+00  0.0000000E+00
 2.7082500E+00  0.0000000E+00
 2.7197502E+00  0.0000000E+00
 2.7312500E+00  0.0000000E+00
 2.7427502E+00  0.0000000E+00
 2.7542500E+00  0.0000000E+00
 2.7657502E+00  0.0000000E+00
 2.7772501E+00  0.0000000E+00
 2.7887502E+00  0.0000000E+00
 2.8002501E+00  0.0000000E+00
 2.8117502E+00  0.0000000E+00
 2.8232501E+00  2.9913113E+01
 2.8347502E+00  3.2412918E+01
 2.8462501E+00  3.3478531E+01
 2.8577502E+00  3.4113888E+01
 2.8692501E+00  3.4631172E+01
 2.8807502E+00  3.4976944E+01
 2.8922501E+00  3.4836750E+01
 2.9037502E+00  3.5339977E+01
 2.9152501E+00  3.5190338E+01
 2.9267502E+00  3.5111393E+01
 2.9382501E+00  3.4822144E+01
 2.9497502E+00  3.4819954E+01
 2.9612501E+00  3.5097538E+01
 2.9727502E+00  3.5089718E+01
 2.9842501E+00  3.5067642E+01
 2.9957502E+00  3.5364040E+01
 3.0072501E+00  3.5522530E+01
 3.0187502E+00  3.5764221E+01
 3.0302501E+00  3.5614571E+01
 3.0417502E+00  3.5865601E+01
 3.0532501E+00  3.5839745E+01
 3.0647502E+00  3.6247261E+01
 3.0762501E+00  3.6542385E+01
 3.0877502E+00  3.7090355E+01
 3.0992501E+00  3.7239662E+01
 3.1107502E+00  3.6562561E+01
 3.1222501E+00  3.6226105E+01
 3.1337502E+00  3.5659996E+01
 3.1452501E+00  3.5675480E+01
 3.1567502E+00  3.5368324E+01
 3.1682501E+00  3.5389072E+01
 3.1797502E+00  3.5587765E+01
 3.1912501E+00  3.5666756E+01
 3.2027502E+00  3.5753536E+01
 3.2142501E+00  3.5673443E+01
 3.2257502E+00  3.5604862E+01
 3.2372501E+00  3.5666225E+01
 3.2487502E+00  3.5747501E+01
 3.2602501E+00  3.5943092E+01
 3.2717502E+00  3.6004478E+01
 3.2832501E+00  3.6171646E+01
 3.2947502E+00  3.6226730E+01
 3.3062501E+00  3.6102829E+01
 3.3177502E+00  3.5905926E+01
 3.3292501E+00  3.5771397E+01
 3.3407502E+00  3.5438927E+01
 3.3522501E+00  3.5361721E+01
 3.3637502E+00  3.5191242E+01
 3.3752501E+00  3.5466122E+01
 3.3867502E+00  3.5253819E+01
 3.3982501E+00  3.5120193E+01
 3.4097502E+00  3.4906513E+01
 3.4212501E+00  3.4938972E+01
 3.4327502E+00  3.4930676E+01
 3.4442501E+00  3.4907341E+01
 3.4557502E+00  3.4891792E+01
 3.4672501E+00  3.4863625E+01
 3.4787502E+00  3.4694859E+01
 3.4902501E+00  3.4532909E+01
 3.5017502E+00  3.4360886E+01
 3.5132501E+00  3.4263714E+01
 3.5247502E+00  3.4148617E+01
 3.5362501E+00  3.4064091E+01
 3.5477502E+00  3.4059414E+01
 3.5592501E+00  3.3990555E+01
 3.5707502E+00  3.4001759E+01
 3.5822501E+00  3.3938038E+01
 3.5937502E+00  3.3853809E+01
 3.6052501E+00  3.3841999E+01
 3.6167502E+00  3.3752926E+01
 3.6282501E+00  3.3913895E+01
 3.6397502E+00  3.3828129E+01
 3.6512501E+00  3.3823837E+01
 3.6627502E+00  3.3677471E+01
 3.6742501E+00  3.3578983E+01
 3.6857502E+00  3.3567944E+01
 3.6972501E+00  3.3593517E+01
 3.7087502E+00  3.3381901E+01
 3.7202501E+00  3.3206570E+01
 3.7317502E+00  3.2884693E+01
 3.7432501E+00  3.2711662E+01
 3.7547503E+00  3.2692421E+01
 3.7662501E+00  3.2734165E+01
 3.7777503E+00  3.3087784E+01
 3.7892501E+00  3.3190975E+01
 3.8007503E+00  3.3073341E+01
 3.8122501E+00  3.2924389E+01
 3.8237503E+00  3.2672012E+01
 3.8352501E+00  3.2577614E+01
 3.8467503E+00  3.2505817E+01
 3.8582501E+00  3.2588367E+01
 3.8697503E+00  3.2643654E+01
 3.8812501E+00  3.2732876E+01
 3.8927503E+00  3.2682392E+01
 3.9042501E+00  3.2707031E+01
 3.9157503E+00  3.2650085E+01
 3.9272501E+00  3.2611599E+01
 3.9387503E+00  3.2734501E+01
 3.9502501E+00  3.2945061E+01
 3.9617503E+00  3.3087959E+01
 3.9732502E+00  3.3291153E+01
 3.9847503E+00  3.3521099E+01
 3.9962502E+00  3.3796803E+01
 4.0077500E+00  3.3644356E+01
 4.0192504E+00  3.3337498E+01
 4.0307503E+00  3.2924198E+01
 4.0422502E+00  3.2663124E+01
 4.0537500E+00  3.2533150E+01
 4.0652504E+00  3.2454105E+01
 4.0767503E+00  3.2474522E+01
 4.0882502E+00  3.2511913E+01
 4.0997500E+00  3.2488995E+01
 4.1112504E+00  3.2587437E+01
 4.1227503E+00  3.2650604E+01
 4.1342502E+00  3.2756817E+01
 4.1457500E+00  3.2952221E+01
 4.1572504E+00  3.2722660E+01
 4.1687503E+00  3.2687096E+01
 4.1802502E+00  3.2456059E+01
 4.1917500E+00  3.2537609E+01
 4.2032504E+00  3.2453735E+01
 4.2147503E+00  3.2479919E+01
 4.2262502E+00  3.2352432E+01
 4.2377501E+00  3.2278259E+01
 4.2492504E+00  3.2250656E+01
 4.2607503E+00  3.2346096E+01
 4.2722502E+00  3.2435120E+01
 4.2837501E+00  3.2572098E+01
 4.2952504E+00  3.2537365E+01
 4.3067503E+00  3.2544868E+01
 4.3182502E+00  3.2393013E+01
 4.3297501E+00  3.2425316E+01
 4.3412504E+00  3.2478745E+01
 4.3527503E+00  3.2505016E+01
 4.3642502E+00  3.2596470E+01
 4.3757501E+00  3.2569550E+01
 4.3872504E+00  3.2562702E+01
 4.3987503E+00  3.2549107E+01
 4.4102502E+00  3.2599010E+01
 4.4217501E+00  3.2636623E+01
 4.4332504E+00  3.2710075E+01
 4.4447503E+00  3.2781693E+01
 4.4562502E+00  3.2884594E+01
 4.4677501E+00  3.3033741E+01
 4.4792504E+00  3.3109165E+01
 4.4907503E+00  3.3070477E+01
 4.5022502E+00  3.2971176E+01
 4.5137501E+00  3.2763447E+01
 4.5252504E+00  3.2826721E+01
 4.5367503E+00  3.2842278E+01
 4.5482502E+00  3.2852486E+01
 4.5597501E+00  3.2803593E+01
 4.5712504E+00  3.2897507E+01
 4.5827503E+00  3.2978962E+01
 4.5942502E+00  3.2912842E+01
 4.6057501E+00  3.2916386E+01
 4.6172504E+00  3.3028011E+01
 4.6287503E+00  3.3077362E+01
 4.6402502E+00  3.3203247E+01
 4.6517501E+00  3.3251160E+01
 4.6632504E+00  3.3464294E+01
 4.6747503E+00  3.3435619E+01
 4.6862502E+00  3.3369045E+01
 4.6977501E+00  3.3316807E+01
 4.7092505E+00  3.3157341E+01
 4.7207503E+00  3.3074341E+01
 4.7322502E+00  3.2892426E+01
 4.7437501E+00  3.2887009E+01
 4.7552505E+00  3.2788784E+01
 4.7667503E+00  3.2824337E+01
 4.7782502E+00  3.2961033E+01
 4.7897501E+00  3.2984756E+01
 4.8012505E+00  3.2989109E+01
 4.8127503E+00  3.2890434E+01
 4.8242502E+00  3.2865849E+01
 4.8357501E+00  3.2864544E+01
 4.8472505E+00  3.2978672E+01
 4.8587503E+00  3.3145386E+01
 4.8702502E+00  3.3300983E+01
 4.8817501E+00  3.3286205E+01
 4.8932505E+00  3.3255299E+01
 4.9047503E+00  3.3305805E+01
 4.9162502E+00  3.3393169E+01
 4.9277501E+00  3.3289848E+01
 4.9392505E+00  3.3118969E+01
 4.9507504E+00  3.2985691E+01
 4.9622502E+00  3.3004105E+01
 4.9737501E+00  3.3106766E+01
 4.9852505E+00  3.3166523E+01
 4.9967504E+00  3.3184055E+01
 5.0082502E+00  3.3298740E+01
 5.0197501E+00  3.3277431E+01
 5.0312505E+00  3.3455372E+01
 5.0427504E+00  3.3520657E+01
 5.0542502E+00  3.3611378E+01
 5.0657501E+00  3.3647999E+01
 5.0772505E+00  3.3654739E+01
 5.0887504E+00  3.3706661E+01
 5.1002502E+00  3.3856911E+01
 5.1117501E+00  3.3867439E+01
 5.1232505E+00  3.4022823E+01
 5.1347504E+00  3.4128338E+01
 5.1462502E+00  3.4119587E+01
 5.1577501E+00  3.4022385E+01
 5.1692505E+00  3.3910915E+01
 5.1807504E+00  3.3937096E+01
 5.1922503E+00  3.3983322E+01
 5.2037501E+00  3.4013798E+01
 5.2152505E+00  3.4096790E+01
 5.2267504E+00  3.4275478E+01
 5.2382503E+00  3.4373539E+01
 5.2497501E+00  3.4362175E+01
 5.2612505E+00  3.4300880E+01
 5.2727504E+00  3.4315823E+01
 5.2842503E+00  3.4405251E+01
 5.2957501E+00  3.4542316E+01
 5.3072500E+00  3.4590389E+01
 5.3187504E+00  3.4728855E+01
 5.3302503E+00  3.4649204E+01
 5.3417501E+00  3.4600277E+01
 5.3532500E+00  3.4598598E+01
 5.3647504E+00  3.4573627E+01
 5.3762503E+00  3.4653400E+01
 5.3877501E+00  3.4646389E+01
 5.3992500E+00  3.4709820E+01
 5.4107504E+00  3.4803955E+01
 5.4222503E+00  3.4847214E+01
 5.4337502E+00  3.4828499E+01
 5.4452500E+00  3.4887505E+01
 5.4567504E+00  3.4971733E+01
 5.4682503E+00  3.5120094E+01
 5.4797502E+00  3.5127708E+01
 5.4912500E+00  3.5085915E+01
 5.5027504E+00  3.5212006E+01
 5.5142503E+00  3.5303825E+01
 5.5257502E+00  3.5398460E+01
 5.5372500E+00  3.5357971E+01
 5.5487504E+00  3.5320927E+01
 5.5602503E+00  3.5270061E+01
 5.5717502E+00  3.5349407E+01
 5.5832500E+00  3.5340366E+01
 5.5947504E+00  3.5435062E+01
 5.6062503E+00  3.5405628E+01
 5.6177502E+00  3.5464497E+01
 5.6292500E+00  3.5483521E+01
 5.6407504E+00  3.5485008E+01
 5.6522503E+00  3.5450195E+01
 5.6637502E+00  3.5553158E+01
 5.6752501E+00  3.5539772E+01
 5.6867504E+00  3.5696640E+01
 5.6982503E+00  3.5634598E+01
 5.7097502E+00  3.5758625E+01
 5.7212501E+00  3.5888710E+01
 5.7327504E+00  3.6017281E+01
 5.7442503E+00  3.6138889E+01
 5.7557502E+00  3.6112835E+01
 5.7672501E+00  3.6044159E+01
 5.7787504E+00  3.5972610E+01
 5.7902503E+00  3.5943623E+01
 5.8017502E+00  3.5874226E+01
 5.8132501E+00  3.5772945E+01
 5.8247504E+00  3.5682961E+01
 5.8362503E+00  3.5748486E+01
 5.8477502E+00  3.5802322E+01
 5.8592501E+00  3.5876209E+01
 5.8707504E+00  3.5925858E+01
 5.8822503E+00  3.6059753E+01
 5.8937502E+00  3.6178741E+01
 5.9052501E+00  3.6326416E+01
 5.9167504E+00  3.6396931E+01
 5.9282503E+00  3.6710457E+01
 5.9397502E+00  3.7257507E+01
 5.9512501E+00  3.7952438E+01
 5.9627504E+00  3.9011307E+01
 5.9742503E+00  3.9617023E+01
 5.9857502E+00  4.0181637E+01
 5.9972501E+00  4.0173553E+01
 6.0087504E+00  3.9749706E+01
 6.0202503E+00  3.9178024E+01
 6.0317502E+00  3.8234642E+01
 6.0432501E+00  3.7632996E+01
 6.0547504E+00  3.7160660E+01
 6.0662503E+00  3.6895130E+01
 6.0777502E+00  3.6797333E+01
 6.0892501E+00  3.6864216E+01
 6.1007504E+00  3.7076870E+01
 6.1122503E+00  3.7104576E+01
 6.1237502E+00  3.7200657E+01
 6.1352501E+00  3.7140179E+01
 6.1467505E+00  3.7191025E+01
 6.1582503E+00  3.7202930E+01
 6.1697502E+00  3.7257641E+01
 6.1812501E+00  3.7399124E+01
 6.1927505E+00  3.7443523E+01
 6.2042503E+00  3.7417152E+01
 6.2157502E+00  3.7415005E+01
 6.2272501E+00  3.7559273E+01
 6.2387505E+00  3.7600079E+01
 6.2502503E+00  3.7726860E+01
 6.2617502E+00  3.7767902E+01
 6.2732501E+00  3.7924736E+01
 6.2847505E+00  3.8058441E+01
 6.2962503E+00  3.8106220E+01
 6.3077502E+00  3.8042355E+01
 6.3192501E+00  3.7976185E+01
 6.3307505E+00  3.7987335E+01
 6.3422503E+00  3.8043140E+01
 6.3537502E+00  3.8205837E+01
 6.3652501E+00  3.8308895E+01
 6.3767505E+00  3.8474636E+01
 6.3882504E+00  3.8537029E+01
 6.3997502E+00  3.8627010E+01
 6.4112501E+00  3.8696777E+01
 6.4227505E+00  3.8790833E+01
 6.4342504E+00  3.8851807E+01
 6.4457502E+00  3.8959217E+01
 6.4572501E+00  3.8897984E+01
 6.4687505E+00  3.8917068E+01
 6.4802504E+00  3.8837177E+01
 6.4917502E+00  3.8925674E+01
 6.5032501E+00  3.9063427E+01
 6.5147505E+00  3.9290096E+01
 6.5262504E+00  3.9536045E+01
 6.5377502E+00  3.9769341E+01
 6.5492501E+00  3.9887409E+01
 6.5607505E+00  3.9974892E+01
 6.5722504E+00  3.9944298E+01
 6.5837502E+00  4.0010666E+01
 6.5952501E+00  3.9973312E+01
 6.6067505E+00  4.0132599E+01
 6.6182504E+00  4.0228485E+01
 6.6297503E+00  4.0368698E+01
 6.6412501E+00  4.0371910E+01
 6.6527505E+00  4.0395264E+01
 6.6642504E+00  4.0493046E+01
 6.6757503E+00  4.0519276E+01
 6.6872501E+00  4.0526180E+01
 6.6987505E+00  4.0450405E+01
 6.7102504E+00  4.0539928E+01
 6.7217503E+00  4.0609711E+01
 6.7332501E+00  4.0754654E+01
 6.7447505E+00  4.0850063E+01
 6.7562504E+00  4.0985359E+01
 6.7677503E+00  4.1037281E+01
 6.7792501E+00  4.1116676E+01
 6.7907505E+00  4.1267654E+01
 6.8022504E+00  4.1453835E+01
 6.8137503E+00  4.1627003E+01
 6.8252501E+00  4.1778111E+01
 6.8367505E+00  4.1858131E+01
 6.8482504E+00  4.2026546E+01
 6.8597503E+00  4.2086803E+01
 6.8712502E+00  4.2243832E+01
 6.8827505E+00  4.2324974E+01
 6.8942504E+00  4.2398281E+01
 6.9057503E+00  4.2503250E+01
 6.9172502E+00  4.2465935E+01
 6.9287505E+00  4.2505928E+01
 6.9402504E+00  4.2395130E+01
 6.9517503E+00  4.2478825E+01
 6.9632502E+00  4.2388523E+01
 6.9747505E+00  4.2576462E+01
 6.9862504E+00  4.2579559E+01
 6.9977503E+00  4.2693401E+01
 7.0092502E+00  4.2676086E+01
 7.0207505E+00  4.2605499E+01
 7.0322504E+00  4.2667053E+01
 7.0437503E+00  4.2699665E+01
 7.0552502E+00  4.2809586E+01
 7.0667505E+00  4.2868919E+01
 7.0782504E+00  4.2834942E+01
 7.0897503E+00  4.2827553E+01
 7.1012502E+00  4.2858387E+01
 7.1127505E+00  4.2922348E+01
 7.1242504E+00  4.3074356E+01
 7.1357503E+00  4.3094975E+01
 7.1472502E+00  4.3217216E+01
 7.1587505E+00  4.3349491E+01
 7.1702504E+00  4.3478378E+01
 7.1817503E+00  4.3549629E+01
 7.1932502E+00  4.3707737E+01
 7.2047505E+00  4.3786427E+01
 7.2162504E+00  4.3944664E+01
 7.2277503E+00  4.3975151E+01
 7.2392502E+00  4.4079453E+01
 7.2507505E+00  4.4086491E+01
 7.2622504E+00  4.4053776E+01
 7.2737503E+00  4.4091503E+01
 7.2852502E+00  4.4127914E+01
 7.2967505E+00  4.4095478E+01
 7.3082504E+00  4.4122105E+01
 7.3197503E+00  4.4183956E+01
 7.3312502E+00  4.4260841E+01
 7.3427505E+00  4.4273735E+01
 7.3542504E+00  4.4189426E+01
 7.3657503E+00  4.4247623E+01
 7.3772502E+00  4.4188019E+01
 7.3887506E+00  4.4309216E+01
 7.4002504E+00  4.4357109E+01
 7.4117503E+00  4.4485176E+01
 7.4232502E+00  4.4484970E+01
 7.4347506E+00  4.4431496E+01
 7.4462504E+00  4.4442650E+01
 7.4577503E+00  4.4505730E+01
 7.4692502E+00  4.4525345E+01
 7.4807506E+00  4.4594528E+01
 7.4922504E+00  4.4669483E+01
 7.5037503E+00  4.4793339E+01
 7.5152502E+00  4.4866386E+01
 7.5267506E+00  4.4812725E+01
 7.5382504E+00  4.4868366E+01
 7.5497503E+00  4.4808872E+01
 7.5612502E+00  4.4882629E+01
 7.5727506E+00  4.4896896E+01
 7.5842505E+00  4.4974369E+01
 7.5957503E+00  4.4986427E+01
 7.6072502E+00  4.4868244E+01
 7.6187506E+00  4.4871605E+01
 7.6302505E+00  4.4769257E+01
 7.6417503E+00  4.4834625E+01
 7.6532502E+00  4.4813614E+01
 7.6647506E+00  4.4815224E+01
 7.6762505E+00  4.4845955E+01
 7.6877503E+00  4.4832439E+01
 7.6992502E+00  4.4720062E+01
 7.7107506E+00  4.4612053E+01
 7.7222505E+00  4.4523895E+01
 7.7337503E+00  4.4578358E+01
 7.7452502E+00  4.4480690E+01
 7.7567506E+00  4.4456970E+01
 7.7682505E+00  4.4382374E+01
 7.7797503E+00  4.4360676E+01
 7.7912502E+00  4.4268440E+01
 7.8027506E+00  4.4279900E+01
 7.8142505E+00  4.4381714E+01
 7.8257504E+00  4.4445320E+01
 7.8372502E+00  4.4528931E+01
 7.8487506E+00  4.4455460E+01
 7.8602505E+00  4.4434338E+01
 7.8717504E+00  4.4317909E+01
 7.8832502E+00  4.4299545E+01
 7.8947506E+00  4.4265980E+01
 7.9062505E+00  4.4257549E+01
 7.9177504E+00  4.4218166E+01
 7.9292502E+00  4.4182358E+01
 7.9407506E+00  4.4049141E+01
 7.9522505E+00  4.4028755E+01
 7.9637504E+00  4.3960369E+01
 7.9752502E+00  4.3976563E+01
 7.9867506E+00  4.3891361E+01
 7.9982505E+00  4.3841064E+01
 8.0097504E+00  4.3702984E+01
 8.0212507E+00  4.3617012E+01
 8.0327501E+00  4.3522903E+01
 8.0442505E+00  4.3504032E+01
 8.0557508E+00  4.3460373E+01
 8.0672503E+00  4.3385830E+01
 8.0787506E+00  4.3325863E+01
 8.0902500E+00  4.3329647E+01
 8.1017504E+00  4.3379459E+01
 8.1132507E+00  4.3320534E+01
 8.1247501E+00  4.3186626E+01
 8.1362505E+00  4.3023460E+01
 8.1477509E+00  4.2880238E+01
 8.1592503E+00  4.2767555E+01
 8.1707506E+00  4.2630047E+01
 8.1822500E+00  4.2467842E+01
 8.1937504E+00  4.2385262E+01
 8.2052507E+00  4.2228901E+01
 8.2167501E+00  4.2178448E+01
 8.2282505E+00  4.2043079E+01
 8.2397509E+00  4.2011677E+01
 8.2512503E+00  4.1901226E+01
 8.2627506E+00  4.1718506E+01
 8.2742500E+00  4.1565792E+01
 8.2857504E+00  4.1329926E+01
 8.2972507E+00  4.1217663E+01
 8.3087502E+00  4.1087517E+01
 8.3202505E+00  4.1016514E+01
 8.3317509E+00  4.0890541E+01
 8.3432503E+00  4.0671295E+01
 8.3547506E+00  4.0478855E+01
 8.3662500E+00  4.0340496E+01
 8.3777504E+00  4.0153034E+01
 8.3892508E+00  3.9997017E+01
 8.4007502E+00  3.9841827E+01
 8.4122505E+00  3.9790115E+01
 8.4237509E+00  3.9620266E+01
 8.4352503E+00  3.9426418E+01
 8.4467506E+00  3.9169159E+01
 8.4582500E+00  3.9001614E+01
 8.4697504E+00  3.8783501E+01
 8.4812508E+00  3.8585697E+01
 8.4927502E+00  3.8368950E+01
 8.5042505E+00  3.8209961E+01
 8.5157509E+00  3.8099937E+01
 8.5272503E+00  3.7974476E+01
 8.5387506E+00  3.7856606E+01
 8.5502501E+00  3.7597954E+01
 8.5617504E+00  3.7492447E+01
 8.5732508E+00  3.7363052E+01
 8.5847502E+00  3.7278053E+01
 8.5962505E+00  3.7102451E+01
 8.6077509E+00  3.6889271E+01
 8.6192503E+00  3.6686661E+01
 8.6307507E+00  3.6506630E+01
 8.6422501E+00  3.6341557E+01
 8.6537504E+00  3.6194405E+01
 8.6652508E+00  3.5957565E+01
 8.6767502E+00  3.5716728E+01
 8.6882505E+00  3.5498825E+01
 8.6997509E+00  3.5411861E+01
 8.7112503E+00  3.5303413E+01
 8.7227507E+00  3.5142052E+01
 8.7342501E+00  3.4921024E+01
 8.7457504E+00  3.4693905E+01
 8.7572508E+00  3.4457035E+01
 8.7687502E+00  3.4250500E+01
 8.7802505E+00  3.4015896E+01
 8.7917500E+00  3.3838524E+01
 8.8032503E+00  3.3629284E+01
 8.8147507E+00  3.3438236E+01
 8.8262501E+00  3.3296635E+01
 8.8377504E+00  3.3195736E+01
 8.8492508E+00  3.3118099E+01
 8.8607502E+00  3.3054943E+01
 8.8722506E+00  3.2970371E+01
 8.8837500E+00  3.2841297E+01
 8.8952503E+00  3.2646332E+01
 8.9067507E+00  3.2421494E+01
 8.9182501E+00  3.2244747E+01
 8.9297504E+00  3.2048168E+01
 8.9412508E+00  3.1838270E+01
 8.9527502E+00  3.1644043E+01
 8.9642506E+00  3.1527275E+01
 8.9757500E+00  3.1343899E+01
 8.9872503E+00  3.1223921E+01
 8.9987507E+00  3.1050776E+01
 9.0102501E+00  3.0952478E+01
 9.0217505E+00  3.0802908E+01
 9.0332508E+00  3.0668800E+01
 9.0447502E+00  3.0507751E+01
 9.0562506E+00  3.0362509E+01
 9.0677500E+00  3.0213308E+01
 9.0792503E+00  3.0111481E+01
 9.0907507E+00  2.9973042E+01
 9.1022501E+00  2.9787718E+01
 9.1137505E+00  2.9736370E+01
 9.1252508E+00  2.9621626E+01
 9.1367502E+00  2.9608076E+01
 9.1482506E+00  2.9498241E+01
 9.1597500E+00  2.9514874E+01
 9.1712503E+00  2.9399549E+01
 9.1827507E+00  2.9323528E+01
 9.1942501E+00  2.9164652E+01
 9.2057505E+00  2.9000519E+01
 9.2172508E+00  2.8861189E+01
 9.2287502E+00  2.8690319E+01
 9.2402506E+00  2.8621279E+01
 9.2517500E+00  2.8491491E+01
 9.2632504E+00  2.8410742E+01
 9.2747507E+00  2.8300743E+01
 9.2862501E+00  2.8275642E+01
 9.2977505E+00  2.8210541E+01
 9.3092508E+00  2.8161833E+01
 9.3207502E+00  2.8023170E+01
 9.3322506E+00  2.7932018E+01
 9.3437500E+00  2.7798380E+01
 9.3552504E+00  2.7701319E+01
 9.3667507E+00  2.7582697E+01
 9.3782501E+00  2.7553171E+01
 9.3897505E+00  2.7530756E+01
 9.4012508E+00  2.7544367E+01
 9.4127502E+00  2.7454504E+01
 9.4242506E+00  2.7360241E+01
 9.4357500E+00  2.7164276E+01
 9.4472504E+00  2.7058491E+01
 9.4587507E+00  2.6914089E+01
 9.4702501E+00  2.6890530E+01
 9.4817505E+00  2.6820889E+01
 9.4932508E+00  2.6770023E+01
 9.5047503E+00  2.6641752E+01
 9.5162506E+00  2.6558283E+01
 9.5277500E+00  2.6458664E+01
 9.5392504E+00  2.6444088E+01
 9.5507507E+00  2.6309420E+01
 9.5622501E+00  2.6237720E+01
 9.5737505E+00  2.6091494E+01
 9.5852509E+00  2.6082045E+01
 9.5967503E+00  2.6073616E+01
 9.6082506E+00  2.6006937E+01
 9.6197500E+00  2.5912659E+01
 9.6312504E+00  2.5792931E+01
 9.6427507E+00  2.5706236E+01
 9.6542501E+00  2.5659513E+01
 9.6657505E+00  2.5646433E+01
 9.6772509E+00  2.5648151E+01
 9.6887503E+00  2.5632578E+01
 9.7002506E+00  2.5576670E+01
 9.7117500E+00  2.5541365E+01
 9.7232504E+00  2.5505508E+01
 9.7347507E+00  2.5441107E+01
 9.7462502E+00  2.5355730E+01
 9.7577505E+00  2.5260710E+01
 9.7692509E+00  2.5203623E+01
 9.7807503E+00  2.5166830E+01
 9.7922506E+00  2.5177668E+01
 9.8037500E+00  2.5107115E+01
 9.8152504E+00  2.5121643E+01
 9.8267508E+00  2.4990004E+01
 9.8382502E+00  2.4950321E+01
 9.8497505E+00  2.4874247E+01
 9.8612509E+00  2.4841072E+01
 9.8727503E+00  2.4764872E+01
 9.8842506E+00  2.4645658E+01
 9.8957500E+00  2.4616060E+01
 9.9072504E+00  2.4606596E+01
 9.9187508E+00  2.4635387E+01
 9.9302502E+00  2.4598293E+01
 9.9417505E+00  2.4599476E+01
 9.9532509E+00  2.4619629E+01
 9.9647503E+00  2.4581989E+01
 9.9762506E+00  2.4543573E+01
 9.9877501E+00  2.4449314E+01
 9.9992504E+00  2.4442440E+01
 1.0010751E+01  2.4400103E+01
 1.0022250E+01  2.4369503E+01
 1.0033751E+01  2.4337635E+01
 1.0045251E+01  2.4292252E+01
 1.0056750E+01  2.4280582E+01
 1.0068251E+01  2.4234711E+01
 1.0079750E+01  2.4225809E+01
 1.0091250E+01  2.4239208E+01
 1.0102751E+01  2.4223215E+01
 1.0114250E+01  2.4199522E+01
 1.0125751E+01  2.4123644E+01
 1.0137251E+01  2.4049547E+01
 1.0148750E+01  2.4020302E+01
 1.0160251E+01  2.3944599E+01
 1.0171750E+01  2.3918913E+01
 1.0183250E+01  2.3902006E+01
 1.0194751E+01  2.3876326E+01
 1.0206250E+01  2.3850731E+01
 1.0217751E+01  2.3843414E+01
 1.0229251E+01  2.3899702E+01
 1.0240750E+01  2.3898197E+01
 1.0252251E+01  2.3821695E+01
 1.0263750E+01  2.3738342E+01
 1.0275250E+01  2.3671068E+01
 1.0286751E+01  2.3640146E+01
 1.0298250E+01  2.3641157E+01
 1.0309751E+01  2.3683161E+01
 1.0321251E+01  2.3655554E+01
 1.0332750E+01  2.3592943E+01
 1.0344251E+01  2.3607199E+01
 1.0355750E+01  2.3593502E+01
 1.0367250E+01  2.3573215E+01
 1.0378751E+01  2.3538282E+01
 1.0390250E+01  2.3581598E+01
 1.0401751E+01  2.3616655E+01
 1.0413251E+01  2.3561424E+01
 1.0424750E+01  2.3521107E+01
 1.0436251E+01  2.3398899E+01
 1.0447750E+01  2.3367855E+01
 1.0459250E+01  2.3260626E+01
 1.0470751E+01  2.3252617E+01
 1.0482250E+01  2.3285561E+01
 1.0493751E+01  2.3341011E+01
 1.0505251E+01  2.3428942E+01
 1.0516750E+01  2.3406279E+01
 1.0528251E+01  2.3352184E+01
 1.0539750E+01  2.3312237E+01
 1.0551250E+01  2.3254288E+01
 1.0562751E+01  2.3291893E+01
 1.0574250E+01  2.3239967E+01
 1.0585751E+01  2.3161947E+01
 1.0597251E+01  2.3095695E+01
 1.0608750E+01  2.3070074E+01
 1.0620251E+01  2.3078993E+01
 1.0631750E+01  2.3110498E+01
 1.0643250E+01  2.3085747E+01
 1.0654751E+01  2.3160208E+01
 1.0666250E+01  2.3115742E+01
 1.0677751E+01  2.3079214E+01
 1.0689251E+01  2.3041849E+01
 1.0700750E+01  2.3036787E+01
 1.0712251E+01  2.3061790E+01
 1.0723750E+01  2.3051161E+01
 1.0735250E+01  2.3028400E+01
 1.0746751E+01  2.3073204E+01
 1.0758250E+01  2.3032450E+01
 1.0769751E+01  2.3037470E+01
 1.0781251E+01  2.2979288E+01
 1.0792750E+01  2.2911999E+01
 1.0804251E+01  2.2869366E+01
 1.0815750E+01  2.2795849E+01
 1.0827250E+01  2.2789621E+01
 1.0838751E+01  2.2794519E+01
 1.0850250E+01  2.2847502E+01
 1.0861751E+01  2.2883034E+01
 1.0873251E+01  2.2873829E+01
 1.0884750E+01  2.2864305E+01
 1.0896251E+01  2.2834763E+01
 1.0907750E+01  2.2810631E+01
 1.0919250E+01  2.2773970E+01
 1.0930751E+01  2.2762218E+01
 1.0942250E+01  2.2736420E+01
 1.0953751E+01  2.2727003E+01
 1.0965251E+01  2.2683464E+01
 1.0976750E+01  2.2684793E+01
 1.0988251E+01  2.2677313E+01
 1.0999750E+01  2.2697021E+01
 1.1011250E+01  2.2727383E+01
 1.1022751E+01  2.2772133E+01
 1.1034250E+01  2.2752279E+01
 1.1045751E+01  2.2698181E+01
 1.1057251E+01  2.2603104E+01
 1.1068750E+01  2.2604315E+01
 1.1080251E+01  2.2619637E+01
 1.1091750E+01  2.2659731E+01
 1.1103251E+01  2.2673607E+01
 1.1114751E+01  2.2704508E+01
 1.1126250E+01  2.2747444E+01
 1.1137751E+01  2.2772242E+01
 1.1149251E+01  2.2794775E+01
 1.1160750E+01  2.2817915E+01
 1.1172251E+01  2.2824385E+01
 1.1183750E+01  2.2780998E+01
 1.1195251E+01  2.2701540E+01
 1.1206751E+01  2.2645248E+01
 1.1218250E+01  2.2597408E+01
 1.1229751E+01  2.2539652E+01
 1.1241251E+01  2.2498571E+01
 1.1252750E+01  2.2479481E+01
 1.1264251E+01  2.2440002E+01
 1.1275750E+01  2.2472065E+01
 1.1287251E+01  2.2479101E+01
 1.1298751E+01  2.2516369E+01
 1.1310250E+01  2.2563772E+01
 1.1321751E+01  2.2566244E+01
 1.1333251E+01  2.2596376E+01
 1.1344750E+01  2.2614271E+01
 1.1356251E+01  2.2634138E+01
 1.1367750E+01  2.2720066E+01
 1.1379251E+01  2.2698996E+01
 1.1390751E+01  2.2726971E+01
 1.1402250E+01  2.2854040E+01
 1.1413751E+01  2.2832523E+01
 1.1425251E+01  2.2879200E+01
 1.1436750E+01  2.2819145E+01
 1.1448251E+01  2.2858561E+01
 1.1459750E+01  2.2869287E+01
 1.1471251E+01  2.2788309E+01
 1.1482751E+01  2.2834291E+01
 1.1494250E+01  2.2885851E+01
 1.1505751E+01  2.2948671E+01
 1.1517251E+01  2.3045406E+01
 1.1528750E+01  2.3328222E+01
 1.1540251E+01  2.3888372E+01
 1.1551750E+01  2.4217340E+01
 1.1563251E+01  2.5448986E+01
 1.1574751E+01  2.6418694E+01
 1.1586250E+01  2.6822689E+01
 1.1597751E+01  2.8740593E+01
 1.1609251E+01  2.8521004E+01
 1.1620750E+01  2.8253838E+01
 1.1632251E+01  2.5823767E+01
 1.1643750E+01  2.4720778E+01
 1.1655251E+01  2.4280495E+01
 1.1666751E+01  2.3315113E+01
 1.1678250E+01  2.3033176E+01
 1.1689751E+01  2.2787554E+01
 1.1701251E+01  2.2564487E+01
 1.1712750E+01  2.2557039E+01
 1.1724251E+01  2.2518368E+01
 1.1735750E+01  2.2583178E+01
 1.1747251E+01  2.2599939E+01
 1.1758751E+01  2.2697588E+01
 1.1770250E+01  2.2635048E+01
 1.1781751E+01  2.2641867E+01
 1.1793251E+01  2.2598543E+01
 1.1804750E+01  2.2643379E+01
 1.1816251E+01  2.2647324E+01
 1.1827750E+01  2.2618523E+01
 1.1839251E+01  2.2565519E+01
 1.1850751E+01  2.2458441E+01
 1.1862250E+01  2.2417688E+01
 1.1873751E+01  2.2328695E+01
 1.1885251E+01  2.2371231E+01
 1.1896750E+01  2.2424482E+01
 1.1908251E+01  2.2494783E+01
 1.1919750E+01  2.2559252E+01
 1.1931251E+01  2.2603376E+01
 1.1942751E+01  2.2650574E+01
 1.1954250E+01  2.2674347E+01
 1.1965751E+01  2.2659704E+01
 1.1977251E+01  2.2690277E+01
 1.1988750E+01  2.2662945E+01
 1.2000251E+01  2.2641544E+01
 1.2011750E+01  2.2688978E+01
 1.2023251E+01  2.2700569E+01
 1.2034751E+01  2.2761515E+01
 1.2046250E+01  2.2710657E+01
 1.2057751E+01  2.2716322E+01
 1.2069251E+01  2.2729759E+01
 1.2080750E+01  2.2819160E+01
 1.2092251E+01  2.2930021E+01
 1.2103750E+01  2.3042490E+01
 1.2115251E+01  2.3062342E+01
 1.2126751E+01  2.3017513E+01
 1.2138250E+01  2.2994938E+01
 1.2149751E+01  2.2911837E+01
 1.2161251E+01  2.2847660E+01
 1.2172750E+01  2.2757168E+01
 1.2184251E+01  2.2682974E+01
 1.2195750E+01  2.2650896E+01
 1.2207251E+01  2.2561449E+01
 1.2218751E+01  2.2559761E+01
 1.2230250E+01  2.2522741E+01
 1.2241751E+01  2.2559717E+01
 1.2253251E+01  2.2595402E+01
 1.2264750E+01  2.2625925E+01
 1.2276251E+01  2.2637831E+01
 1.2287750E+01  2.2624182E+01
 1.2299251E+01  2.2636314E+01
 1.2310751E+01  2.2652206E+01
 1.2322250E+01  2.2612312E+01
 1.2333751E+01  2.2641680E+01
 1.2345250E+01  2.2597788E+01
 1.2356750E+01  2.2689440E+01
 1.2368251E+01  2.2651861E+01
 1.2379750E+01  2.2665840E+01
 1.2391251E+01  2.2668175E+01
 1.2402751E+01  2.2656351E+01
 1.2414250E+01  2.2675510E+01
 1.2425751E+01  2.2684931E+01
 1.2437250E+01  2.2682570E+01
 1.2448750E+01  2.2648590E+01
 1.2460251E+01  2.2654625E+01
 1.2471750E+01  2.2715315E+01
 1.2483251E+01  2.2818506E+01
 1.2494751E+01  2.2858841E+01
 1.2506250E+01  2.2875908E+01
 1.2517751E+01  2.2899969E+01
 1.2529250E+01  2.2960264E+01
 1.2540751E+01  2.3041086E+01
 1.2552251E+01  2.2994833E+01
 1.2563750E+01  2.2915447E+01
 1.2575251E+01  2.2850317E+01
 1.2586751E+01  2.2840816E+01
 1.2598250E+01  2.2833687E+01
 1.2609751E+01  2.2846460E+01
 1.2621250E+01  2.2853354E+01
 1.2632751E+01  2.2877649E+01
 1.2644251E+01  2.2827656E+01
 1.2655750E+01  2.2790968E+01
 1.2667251E+01  2.2792307E+01
 1.2678751E+01  2.2789042E+01
 1.2690250E+01  2.2851847E+01
 1.2701751E+01  2.2878803E+01
 1.2713250E+01  2.2919348E+01
 1.2724751E+01  2.2926903E+01
 1.2736251E+01  2.2947119E+01
 1.2747750E+01  2.2992327E+01
 1.2759251E+01  2.3054106E+01
 1.2770751E+01  2.3081850E+01
 1.2782250E+01  2.3118744E+01
 1.2793751E+01  2.3070402E+01
 1.2805250E+01  2.3063810E+01
 1.2816751E+01  2.3090895E+01
 1.2828251E+01  2.3199657E+01
 1.2839750E+01  2.3288195E+01
 1.2851251E+01  2.3376961E+01
 1.2862751E+01  2.3406931E+01
 1.2874250E+01  2.3423141E+01
 1.2885751E+01  2.3374922E+01
 1.2897250E+01  2.3312731E+01
 1.2908751E+01  2.3371178E+01
 1.2920251E+01  2.3452360E+01
 1.2931750E+01  2.3576853E+01
 1.2943251E+01  2.3617756E+01
 1.2954751E+01  2.3684189E+01
 1.2966250E+01  2.3777855E+01
 1.2977751E+01  2.3895617E+01
 1.2989250E+01  2.3963358E+01
 1.3000751E+01  2.4045107E+01
 1.3012251E+01  2.4073021E+01
 1.3023750E+01  2.4132578E+01
 1.3035251E+01  2.4196375E+01
 1.3046751E+01  2.4204655E+01
 1.3058250E+01  2.4327639E+01
 1.3069751E+01  2.4330566E+01
 1.3081250E+01  2.4510443E+01
 1.3092751E+01  2.4609549E+01
 1.3104251E+01  2.4884174E+01
 1.3115750E+01  2.5039742E+01
 1.3127251E+01  2.5158491E+01
 1.3138751E+01  2.5216724E+01
 1.3150250E+01  2.5272562E+01
 1.3161751E+01  2.5362791E+01
 1.3173250E+01  2.5481716E+01
 1.3184751E+01  2.5632908E+01
 1.3196251E+01  2.5752186E+01
 1.3207750E+01  2.5868860E+01
 1.3219251E+01  2.5981668E+01
 1.3230751E+01  2.6161285E+01
 1.3242250E+01  2.6321444E+01
 1.3253751E+01  2.6520937E+01
 1.3265250E+01  2.6618435E+01
 1.3276751E+01  2.6756466E+01
 1.3288251E+01  2.6887205E+01
 1.3299750E+01  2.7131390E+01
 1.3311251E+01  2.7230757E+01
 1.3322751E+01  2.7385120E+01
 1.3334250E+01  2.7500818E+01
 1.3345751E+01  2.7647127E+01
 1.3357250E+01  2.7727085E+01
 1.3368751E+01  2.7770433E+01
 1.3380251E+01  2.7944704E+01
 1.3391750E+01  2.8082514E+01
 1.3403251E+01  2.8240396E+01
 1.3414751E+01  2.8311138E+01
 1.3426250E+01  2.8406172E+01
 1.3437751E+01  2.8561903E+01
 1.3449250E+01  2.8693699E+01
 1.3460751E+01  2.8838972E+01
 1.3472251E+01  2.8925650E+01
 1.3483750E+01  2.9101084E+01
 1.3495251E+01  2.9224054E+01
 1.3506751E+01  2.9356121E+01
 1.3518250E+01  2.9421600E+01
 1.3529751E+01  2.9471676E+01
 1.3541250E+01  2.9471758E+01
 1.3552751E+01  2.9515215E+01
 1.3564251E+01  2.9579880E+01
 1.3575750E+01  2.9702047E+01
 1.3587251E+01  2.9739868E+01
 1.3598751E+01  2.9825239E+01
 1.3610250E+01  2.9846663E+01
 1.3621751E+01  2.9897633E+01
 1.3633250E+01  2.9878548E+01
 1.3644751E+01  2.9852194E+01
 1.3656251E+01  2.9838114E+01
 1.3667750E+01  2.9772854E+01
 1.3679251E+01  2.9750921E+01
 1.3690751E+01  2.9712999E+01
 1.3702250E+01  2.9689533E+01
 1.3713751E+01  2.9628675E+01
 1.3725250E+01  2.9548244E+01
 1.3736751E+01  2.9548542E+01
 1.3748251E+01  2.9451487E+01
 1.3759750E+01  2.9379229E+01
 1.3771251E+01  2.9341116E+01
 1.3782751E+01  2.9353844E+01
 1.3794250E+01  2.9317398E+01
 1.3805751E+01  2.9205935E+01
 1.3817250E+01  2.9141174E+01
 1.3828751E+01  2.9099777E+01
 1.3840251E+01  2.9054184E+01
 1.3851750E+01  2.8986137E+01
 1.3863251E+01  2.8982388E+01
 1.3874751E+01  2.8946505E+01
 1.3886250E+01  2.8935602E+01
 1.3897751E+01  2.9029976E+01
 1.3909250E+01  2.9232306E+01
 1.3920751E+01  2.9538559E+01
 1.3932251E+01  2.9940567E+01
 1.3943750E+01  3.0305513E+01
 1.3955251E+01  3.0607265E+01
 1.3966751E+01  3.0661152E+01
 1.3978251E+01  3.0644815E+01
 1.3989751E+01  3.0143213E+01
 1.4001250E+01  2.9704323E+01
 1.4012751E+01  2.9079626E+01
 1.4024251E+01  2.8638041E+01
 1.4035750E+01  2.8112862E+01
 1.4047251E+01  2.7810036E+01
 1.4058751E+01  2.7689249E+01
 1.4070251E+01  2.7534891E+01
 1.4081751E+01  2.7438419E+01
 1.4093250E+01  2.7363607E+01
 1.4104751E+01  2.7325108E+01
 1.4116251E+01  2.7262241E+01
 1.4127750E+01  2.7204313E+01
 1.4139251E+01  2.7155870E+01
 1.4150751E+01  2.7097713E+01
 1.4162251E+01  2.7032072E+01
 1.4173751E+01  2.6933716E+01
 1.4185250E+01  2.6914009E+01
 1.4196751E+01  2.6867702E+01
 1.4208251E+01  2.6862923E+01
 1.4219750E+01  2.6819691E+01
 1.4231251E+01  2.6728945E+01
 1.4242751E+01  2.6659424E+01
 1.4254251E+01  2.6553398E+01
 1.4265751E+01  2.6496429E+01
 1.4277250E+01  2.6402260E+01
 1.4288751E+01  2.6397596E+01
 1.4300251E+01  2.6372139E+01
 1.4311750E+01  2.6334534E+01
 1.4323251E+01  2.6212290E+01
 1.4334751E+01  2.6135149E+01
 1.4346251E+01  2.6114210E+01
 1.4357751E+01  2.6164272E+01
 1.4369250E+01  2.6167229E+01
 1.4380751E+01  2.6179983E+01
 1.4392251E+01  2.6101929E+01
 1.4403750E+01  2.6041292E+01
 1.4415251E+01  2.5978571E+01
 1.4426751E+01  2.5970041E+01
 1.4438251E+01  2.5959005E+01
 1.4449751E+01  2.5920498E+01
 1.4461250E+01  2.5874098E+01
 1.4472751E+01  2.5806164E+01
 1.4484251E+01  2.5741783E+01
 1.4495750E+01  2.5699636E+01
 1.4507251E+01  2.5695032E+01
 1.4518751E+01  2.5627544E+01
 1.4530251E+01  2.5611393E+01
 1.4541751E+01  2.5560976E+01
 1.4553250E+01  2.5574356E+01
 1.4564751E+01  2.5534584E+01
 1.4576251E+01  2.5467373E+01
 1.4587750E+01  2.5460238E+01
 1.4599251E+01  2.5440536E+01
 1.4610751E+01  2.5447342E+01
 1.4622251E+01  2.5425734E+01
 1.4633751E+01  2.5393091E+01
 1.4645250E+01  2.5385391E+01
 1.4656751E+01  2.5317663E+01
 1.4668251E+01  2.5277210E+01
 1.4679750E+01  2.5265661E+01
 1.4691251E+01  2.5271509E+01
 1.4702751E+01  2.5266809E+01
 1.4714251E+01  2.5222595E+01
 1.4725751E+01  2.5210100E+01
 1.4737250E+01  2.5193043E+01
 1.4748751E+01  2.5175220E+01
 1.4760251E+01  2.5125916E+01
 1.4771750E+01  2.5141352E+01
 1.4783251E+01  2.5126215E+01
 1.4794751E+01  2.5121889E+01
 1.4806251E+01  2.5075865E+01
 1.4817751E+01  2.5045732E+01
 1.4829250E+01  2.5054277E+01
 1.4840751E+01  2.5042215E+01
 1.4852251E+01  2.5062883E+01
 1.4863750E+01  2.5054117E+01
 1.4875251E+01  2.5018745E+01
 1.4886751E+01  2.5021235E+01
 1.4898251E+01  2.5027006E+01
 1.4909751E+01  2.5064150E+01
 1.4921250E+01  2.5040789E+01
 1.4932751E+01  2.5001326E+01
 1.4944251E+01  2.4946899E+01
 1.4955750E+01  2.4940918E+01
 1.4967251E+01  2.4887693E+01
 1.4978751E+01  2.4877819E+01
 1.4990251E+01  2.4844862E+01
 1.5001751E+01  2.4882214E+01
 1.5013250E+01  2.4916967E+01
 1.5024751E+01  2.4938061E+01
 1.5036251E+01  2.4905783E+01
 1.5047750E+01  2.4864977E+01
 1.5059251E+01  2.4866272E+01
 1.5070751E+01  2.4871153E+01
 1.5082251E+01  2.4846008E+01
 1.5093751E+01  2.4807549E+01
 1.5105250E+01  2.4838760E+01
 1.5116751E+01  2.4871872E+01
 1.5128251E+01  2.4896711E+01
 1.5139750E+01  2.4915556E+01
 1.5151251E+01  2.5119690E+01
 1.5162751E+01  2.5228008E+01
 1.5174251E+01  2.5453056E+01
 1.5185751E+01  2.5638359E+01
 1.5197250E+01  2.5847042E+01
 1.5208751E+01  2.6050867E+01
 1.5220251E+01  2.6110004E+01
 1.5231750E+01  2.6034788E+01
 1.5243251E+01  2.5804815E+01
 1.5254751E+01  2.5529673E+01
 1.5266251E+01  2.5307831E+01
 1.5277751E+01  2.5075811E+01
 1.5289250E+01  2.4968452E+01
 1.5300751E+01  2.4876717E+01
 1.5312251E+01  2.4804430E+01
 1.5323750E+01  2.4718370E+01
 1.5335251E+01  2.4662766E+01
 1.5346751E+01  2.4639843E+01
 1.5358251E+01  2.4656942E+01
 1.5369751E+01  2.4680365E+01
 1.5381250E+01  2.4713507E+01
 1.5392751E+01  2.4707418E+01
 1.5404251E+01  2.4726776E+01
 1.5415751E+01  2.4651138E+01
 1.5427251E+01  2.4607204E+01
 1.5438751E+01  2.4541609E+01
 1.5450251E+01  2.4523438E+01
 1.5461751E+01  2.4531189E+01
 1.5473250E+01  2.4579819E+01
 1.5484751E+01  2.4681608E+01
 1.5496251E+01  2.4687258E+01
 1.5507751E+01  2.4696102E+01
 1.5519251E+01  2.4664829E+01
 1.5530751E+01  2.4674791E+01
 1.5542251E+01  2.4636576E+01
 1.5553751E+01  2.4528320E+01
 1.5565250E+01  2.4524763E+01
 1.5576751E+01  2.4500925E+01
 1.5588251E+01  2.4555000E+01
 1.5599751E+01  2.4577185E+01
 1.5611251E+01  2.4579100E+01
 1.5622751E+01  2.4533068E+01
 1.5634251E+01  2.4430323E+01
 1.5645751E+01  2.4466410E+01
 1.5657250E+01  2.4493496E+01
 1.5668751E+01  2.4540854E+01
 1.5680251E+01  2.4581482E+01
 1.5691751E+01  2.4574167E+01
 1.5703251E+01  2.4647699E+01
 1.5714751E+01  2.4612564E+01
 1.5726251E+01  2.4676949E+01
 1.5737751E+01  2.4615374E+01
 1.5749250E+01  2.4658621E+01
 1.5760751E+01  2.4674044E+01
 1.5772251E+01  2.4701204E+01
 1.5783751E+01  2.4645805E+01
 1.5795251E+01  2.4618416E+01
 1.5806751E+01  2.4646151E+01
 1.5818251E+01  2.4648886E+01
 1.5829751E+01  2.4665634E+01
 1.5841250E+01  2.4675749E+01
 1.5852751E+01  2.4686911E+01
 1.5864251E+01  2.4619736E+01
 1.5875751E+01  2.4624210E+01
 1.5887251E+01  2.4678988E+01
 1.5898750E+01  2.4762850E+01
 1.5910251E+01  2.4770823E+01
 1.5921751E+01  2.4698446E+01
 1.5933250E+01  2.4698004E+01
 1.5944751E+01  2.4632687E+01
 1.5956251E+01  2.4643070E+01
 1.5967751E+01  2.4591579E+01
 1.5979251E+01  2.4611198E+01
 1.5990750E+01  2.4646122E+01
 1.6002251E+01  2.4649744E+01
 1.6013750E+01  2.4717739E+01
 1.6025251E+01  2.4745544E+01
 1.6036751E+01  2.4754288E+01
 1.6048250E+01  2.4692806E+01
 1.6059752E+01  2.4703449E+01
 1.6071251E+01  2.4684530E+01
 1.6082750E+01  2.4702074E+01
 1.6094252E+01  2.4691755E+01
 1.6105751E+01  2.4726753E+01
 1.6117250E+01  2.4756075E+01
 1.6128750E+01  2.4732460E+01
 1.6140251E+01  2.4757641E+01
 1.6151751E+01  2.4771435E+01
 1.6163250E+01  2.4843250E+01
 1.6174751E+01  2.4871948E+01
 1.6186251E+01  2.4992094E+01
 1.6197750E+01  2.4958925E+01
 1.6209251E+01  2.5071407E+01
 1.6220751E+01  2.4969410E+01
 1.6232250E+01  2.5099842E+01
 1.6243752E+01  2.5143131E+01
 1.6255251E+01  2.5250889E+01
 1.6266750E+01  2.5349966E+01
 1.6278252E+01  2.5223507E+01
 1.6289751E+01  2.5287554E+01
 1.6301250E+01  2.5014572E+01
 1.6312750E+01  2.5112082E+01
 1.6324251E+01  2.4894779E+01
 1.6335751E+01  2.4935408E+01
 1.6347250E+01  2.4751978E+01
 1.6358751E+01  2.4785872E+01
 1.6370251E+01  2.4683577E+01
 1.6381750E+01  2.4689207E+01
 1.6393251E+01  2.4677977E+01
 1.6404751E+01  2.4753277E+01
 1.6416250E+01  2.4819637E+01
 1.6427752E+01  2.4804224E+01
 1.6439251E+01  2.4825384E+01
 1.6450750E+01  2.4781048E+01
 1.6462252E+01  2.4783438E+01
 1.6473751E+01  2.4713713E+01
 1.6485250E+01  2.4714315E+01
 1.6496750E+01  2.4683237E+01
 1.6508251E+01  2.4646959E+01
 1.6519751E+01  2.4612345E+01
 1.6531250E+01  2.4591692E+01
 1.6542751E+01  2.4636293E+01
 1.6554251E+01  2.4641060E+01
 1.6565750E+01  2.4658976E+01
 1.6577251E+01  2.4610056E+01
 1.6588751E+01  2.4626770E+01
 1.6600250E+01  2.4651133E+01
 1.6611752E+01  2.4679377E+01
 1.6623251E+01  2.4597792E+01
 1.6634750E+01  2.4541206E+01
 1.6646252E+01  2.4507147E+01
 1.6657751E+01  2.4503822E+01
 1.6669250E+01  2.4527620E+01
 1.6680750E+01  2.4492558E+01
 1.6692251E+01  2.4530933E+01
 1.6703751E+01  2.4520233E+01
 1.6715250E+01  2.4577570E+01
 1.6726751E+01  2.4589563E+01
 1.6738251E+01  2.4620327E+01
 1.6749750E+01  2.4649439E+01
 1.6761251E+01  2.4627905E+01
 1.6772751E+01  2.4638472E+01
 1.6784250E+01  2.4587799E+01
 1.6795752E+01  2.4516140E+01
 1.6807251E+01  2.4460485E+01
 1.6818750E+01  2.4481215E+01
 1.6830252E+01  2.4516672E+01
 1.6841751E+01  2.4515497E+01
 1.6853251E+01  2.4494961E+01
 1.6864750E+01  2.4483925E+01
 1.6876251E+01  2.4446157E+01
 1.6887751E+01  2.4436729E+01
 1.6899250E+01  2.4430538E+01
 1.6910751E+01  2.4445150E+01
 1.6922251E+01  2.4430275E+01
 1.6933750E+01  2.4400517E+01
 1.6945251E+01  2.4357828E+01
 1.6956751E+01  2.4349623E+01
 1.6968250E+01  2.4341654E+01
 1.6979752E+01  2.4357306E+01
 1.6991251E+01  2.4361706E+01
 1.7002750E+01  2.4322706E+01
 1.7014252E+01  2.4301565E+01
 1.7025751E+01  2.4272245E+01
 1.7037251E+01  2.4213371E+01
 1.7048750E+01  2.4127661E+01
 1.7060251E+01  2.4081982E+01
 1.7071751E+01  2.4110819E+01
 1.7083250E+01  2.4137312E+01
 1.7094751E+01  2.4196117E+01
 1.7106251E+01  2.4284296E+01
 1.7117750E+01  2.4343559E+01
 1.7129251E+01  2.4378527E+01
 1.7140751E+01  2.4354492E+01
 1.7152250E+01  2.4319141E+01
 1.7163752E+01  2.4269953E+01
 1.7175251E+01  2.4241383E+01
 1.7186750E+01  2.4204365E+01
 1.7198252E+01  2.4145142E+01
 1.7209751E+01  2.4139099E+01
 1.7221251E+01  2.4147953E+01
 1.7232750E+01  2.4171598E+01
 1.7244251E+01  2.4197052E+01
 1.7255751E+01  2.4156187E+01
 1.7267250E+01  2.4121885E+01
 1.7278751E+01  2.4011902E+01
 1.7290251E+01  2.4025660E+01
 1.7301750E+01  2.4048157E+01
 1.7313251E+01  2.4099230E+01
 1.7324751E+01  2.4170269E+01
 1.7336250E+01  2.4183952E+01
 1.7347752E+01  2.4188387E+01
 1.7359251E+01  2.4133333E+01
 1.7370750E+01  2.4103754E+01
 1.7382252E+01  2.4070591E+01
 1.7393751E+01  2.4030569E+01
 1.7405251E+01  2.4036388E+01
 1.7416750E+01  2.4034225E+01
 1.7428251E+01  2.3997469E+01
 1.7439751E+01  2.4009789E+01
 1.7451250E+01  2.3988276E+01
 1.7462751E+01  2.4029018E+01
 1.7474251E+01  2.4006262E+01
 1.7485750E+01  2.3996315E+01
 1.7497252E+01  2.3955900E+01
 1.7508751E+01  2.3962355E+01
 1.7520250E+01  2.3952286E+01
 1.7531752E+01  2.3968620E+01
 1.7543251E+01  2.3980898E+01
 1.7554750E+01  2.3964838E+01
 1.7566252E+01  2.3913193E+01
 1.7577751E+01  2.3826567E+01
 1.7589251E+01  2.3744492E+01
 1.7600750E+01  2.3726635E+01
 1.7612251E+01  2.3758802E+01
 1.7623751E+01  2.3812912E+01
 1.7635250E+01  2.3792433E+01
 1.7646751E+01  2.3812622E+01
 1.7658251E+01  2.3781616E+01
 1.7669750E+01  2.3789070E+01
 1.7681252E+01  2.3798683E+01
 1.7692751E+01  2.3828611E+01
 1.7704250E+01  2.3863049E+01
 1.7715752E+01  2.3862946E+01
 1.7727251E+01  2.3869881E+01
 1.7738750E+01  2.3826101E+01
 1.7750252E+01  2.3795721E+01
 1.7761751E+01  2.3781261E+01
 1.7773251E+01  2.3775309E+01
 1.7784750E+01  2.3801750E+01
 1.7796251E+01  2.3840685E+01
 1.7807751E+01  2.3876474E+01
 1.7819250E+01  2.3870062E+01
 1.7830751E+01  2.3867489E+01
 1.7842251E+01  2.3851389E+01
 1.7853750E+01  2.3819138E+01
 1.7865252E+01  2.3767973E+01
 1.7876751E+01  2.3717478E+01
 1.7888250E+01  2.3683887E+01
 1.7899752E+01  2.3669239E+01
 1.7911251E+01  2.3725370E+01
 1.7922750E+01  2.3779894E+01
 1.7934252E+01  2.3738701E+01
 1.7945751E+01  2.3704407E+01
 1.7957251E+01  2.3640499E+01
 1.7968750E+01  2.3629360E+01
 1.7980251E+01  2.3642900E+01
 1.7991751E+01  2.3662899E+01
 1.8003250E+01  2.3722910E+01
 1.8014751E+01  2.3704779E+01
 1.8026251E+01  2.3735022E+01
 1.8037750E+01  2.3753510E+01
 1.8049252E+01  2.3816137E+01
 1.8060751E+01  2.3876131E+01
 1.8072250E+01  2.3918058E+01
 1.8083752E+01  2.4010000E+01
 1.8095251E+01  2.4016541E+01
 1.8106750E+01  2.3987835E+01
 1.8118252E+01  2.3936083E+01
 1.8129751E+01  2.3934437E+01
 1.8141251E+01  2.3857260E+01
 1.8152750E+01  2.3734165E+01
 1.8164251E+01  2.3655674E+01
 1.8175751E+01  2.3618780E+01
 1.8187250E+01  2.3641106E+01
 1.8198751E+01  2.3662392E+01
 1.8210251E+01  2.3727610E+01
 1.8221750E+01  2.3719444E+01
 1.8233252E+01  2.3702337E+01
 1.8244751E+01  2.3621868E+01
 1.8256250E+01  2.3568544E+01
 1.8267752E+01  2.3544426E+01
 1.8279251E+01  2.3530113E+01
 1.8290751E+01  2.3578009E+01
 1.8302252E+01  2.3584618E+01
 1.8313751E+01  2.3610327E+01
 1.8325251E+01  2.3587200E+01
 1.8336750E+01  2.3600420E+01
 1.8348251E+01  2.3632479E+01
 1.8359751E+01  2.3617392E+01
 1.8371250E+01  2.3604839E+01
 1.8382751E+01  2.3559444E+01
 1.8394251E+01  2.3609411E+01
 1.8405750E+01  2.3649517E+01
 1.8417252E+01  2.3691648E+01
 1.8428751E+01  2.3652805E+01
 1.8440250E+01  2.3633698E+01
 1.8451752E+01  2.3598103E+01
 1.8463251E+01  2.3606802E+01
 1.8474751E+01  2.3598686E+01
 1.8486252E+01  2.3581413E+01
 1.8497751E+01  2.3567442E+01
 1.8509251E+01  2.3556091E+01
 1.8520750E+01  2.3540312E+01
 1.8532251E+01  2.3532629E+01
 1.8543751E+01  2.3492693E+01
 1.8555250E+01  2.3519039E+01
 1.8566751E+01  2.3524149E+01
 1.8578251E+01  2.3603308E+01
 1.8589750E+01  2.3616936E+01
 1.8601252E+01  2.3598270E+01
 1.8612751E+01  2.3551943E+01
 1.8624250E+01  2.3532654E+01
 1.8635752E+01  2.3530579E+01
 1.8647251E+01  2.3509310E+01
 1.8658751E+01  2.3435143E+01
 1.8670252E+01  2.3429947E+01
 1.8681751E+01  2.3479845E+01
 1.8693251E+01  2.3551756E+01
 1.8704750E+01  2.3558151E+01
 1.8716251E+01  2.3526520E+01
 1.8727751E+01  2.3502714E+01
 1.8739250E+01  2.3543968E+01
 1.8750751E+01  2.3529203E+01
 1.8762251E+01  2.3578829E+01
 1.8773750E+01  2.3573942E+01
 1.8785252E+01  2.3610884E+01
 1.8796751E+01  2.3625860E+01
 1.8808250E+01  2.3613493E+01
 1.8819752E+01  2.3598577E+01
 1.8831251E+01  2.3548714E+01
 1.8842751E+01  2.3553267E+01
 1.8854252E+01  2.3542204E+01
 1.8865751E+01  2.3526407E+01
 1.8877251E+01  2.3520924E+01
 1.8888750E+01  2.3479628E+01
 1.8900251E+01  2.3458696E+01
 1.8911751E+01  2.3425650E+01
 1.8923250E+01  2.3492260E+01
 1.8934752E+01  2.3510168E+01
 1.8946251E+01  2.3553844E+01
 1.8957750E+01  2.3515774E+01
 1.8969252E+01  2.3496740E+01
 1.8980751E+01  2.3503201E+01
 1.8992250E+01  2.3516006E+01
 1.9003752E+01  2.3529734E+01
 1.9015251E+01  2.3545698E+01
 1.9026751E+01  2.3584362E+01
 1.9038252E+01  2.3622862E+01
 1.9049751E+01  2.3617968E+01
 1.9061251E+01  2.3620337E+01
 1.9072750E+01  2.3583586E+01
 1.9084251E+01  2.3557293E+01
 1.9095751E+01  2.3513065E+01
 1.9107250E+01  2.3518427E+01
 1.9118752E+01  2.3513821E+01
 1.9130251E+01  2.3557228E+01
 1.9141750E+01  2.3550592E+01
 1.9153252E+01  2.3581621E+01
 1.9164751E+01  2.3563745E+01
 1.9176250E+01  2.3562349E+01
 1.9187752E+01  2.3536434E+01
 1.9199251E+01  2.3521141E+01
 1.9210751E+01  2.3522610E+01
 1.9222252E+01  2.3544846E+01
 1.9233751E+01  2.3558846E+01
 1.9245251E+01  2.3608137E+01
 1.9256750E+01  2.3670326E+01
 1.9268251E+01  2.3685860E+01
 1.9279751E+01  2.3613392E+01
 1.9291250E+01  2.3603354E+01
 1.9302752E+01  2.3671911E+01
 1.9314251E+01  2.3700916E+01
 1.9325750E+01  2.3688667E+01
 1.9337252E+01  2.3629267E+01
 1.9348751E+01  2.3575193E+01
 1.9360250E+01  2.3511652E+01
 1.9371752E+01  2.3538389E+01
 1.9383251E+01  2.3557734E+01
 1.9394751E+01  2.3568628E+01
 1.9406250E+01  2.3555212E+01
 1.9417751E+01  2.3568026E+01
 1.9429251E+01  2.3535168E+01
 1.9440750E+01  2.3559082E+01
 1.9452251E+01  2.3613617E+01
 1.9463751E+01  2.3617411E+01
 1.9475250E+01  2.3588684E+01
 1.9486752E+01  2.3540039E+01
 1.9498251E+01  2.3531885E+01
 1.9509750E+01  2.3510004E+01
 1.9521252E+01  2.3569086E+01
 1.9532751E+01  2.3642944E+01
 1.9544250E+01  2.3672853E+01
 1.9555752E+01  2.3631010E+01
 1.9567251E+01  2.3600775E+01
 1.9578751E+01  2.3635185E+01
 1.9590250E+01  2.3696741E+01
 1.9601751E+01  2.3739786E+01
 1.9613251E+01  2.3751991E+01
 1.9624750E+01  2.3759907E+01
 1.9636251E+01  2.3866131E+01
 1.9647751E+01  2.3905022E+01
 1.9659250E+01  2.4005402E+01
 1.9670752E+01  2.4096205E+01
 1.9682251E+01  2.4273504E+01
 1.9693750E+01  2.4407446E+01
 1.9705252E+01  2.4489319E+01
 1.9716751E+01  2.4506447E+01
 1.9728251E+01  2.4452675E+01
 1.9739752E+01  2.4391172E+01
 1.9751251E+01  2.4296721E+01
 1.9762751E+01  2.4248074E+01
 1.9774250E+01  2.4218224E+01
 1.9785751E+01  2.4266527E+01
 1.9797251E+01  2.4332285E+01
 1.9808750E+01  2.4423021E+01
 1.9820251E+01  2.4573021E+01
 1.9831751E+01  2.4708431E+01
 1.9843250E+01  2.4762482E+01
 1.9854752E+01  2.4750280E+01
 1.9866251E+01  2.4640371E+01
 1.9877750E+01  2.4485453E+01
 1.9889252E+01  2.4299088E+01
 1.9900751E+01  2.4165272E+01
 1.9912251E+01  2.4072502E+01
 1.9923752E+01  2.4006815E+01
 1.9935251E+01  2.3924934E+01
 1.9946751E+01  2.3858109E+01
 1.9958250E+01  2.3760410E+01
 1.9969751E+01  2.3658419E+01
 1.9981251E+01  2.3559570E+01
 1.9992750E+01  2.3550611E+01
 2.0004251E+01  2.3579048E+01
 2.0015751E+01  2.3644846E+01
 2.0027250E+01  2.3634302E+01
 2.0038752E+01  2.3661860E+01
 2.0050251E+01  2.3676414E+01
 2.0061750E+01  2.3676136E+01
 2.0073252E+01  2.3640356E+01
 2.0084751E+01  2.3598116E+01
 2.0096251E+01  2.3634588E+01
 2.0107752E+01  2.3657873E+01
 2.0119251E+01  2.3665569E+01
 2.0130751E+01  2.3647720E+01
 2.0142250E+01  2.3624479E+01
 2.0153751E+01  2.3660528E+01
 2.0165251E+01  2.3661081E+01
 2.0176750E+01  2.3735950E+01
 2.0188251E+01  2.3755266E+01
 2.0199751E+01  2.3782112E+01
 2.0211250E+01  2.3782135E+01
 2.0222752E+01  2.3774490E+01
 2.0234251E+01  2.3785917E+01
 2.0245750E+01  2.3753515E+01
 2.0257252E+01  2.3745924E+01
 2.0268751E+01  2.3672495E+01
 2.0280251E+01  2.3657219E+01
 2.0291752E+01  2.3641071E+01
 2.0303251E+01  2.3638552E+01
 2.0314751E+01  2.3637808E+01
 2.0326250E+01  2.3701319E+01
 2.0337751E+01  2.3772017E+01
 2.0349251E+01  2.3804840E+01
 2.0360750E+01  2.3787655E+01
 2.0372252E+01  2.3728405E+01
 2.0383751E+01  2.3687767E+01
 2.0395250E+01  2.3663050E+01
 2.0406752E+01  2.3700241E+01
 2.0418251E+01  2.3708326E+01
 2.0429750E+01  2.3755505E+01
 2.0441252E+01  2.3784922E+01
 2.0452751E+01  2.3797934E+01
 2.0464251E+01  2.3775011E+01
 2.0475752E+01  2.3750620E+01
 2.0487251E+01  2.3733360E+01
 2.0498751E+01  2.3691231E+01
 2.0510250E+01  2.3652273E+01
 2.0521751E+01  2.3608006E+01
 2.0533251E+01  2.3609903E+01
 2.0544750E+01  2.3615173E+01
 2.0556252E+01  2.3688496E+01
 2.0567751E+01  2.3711241E+01
 2.0579250E+01  2.3702909E+01
 2.0590752E+01  2.3741730E+01
 2.0602251E+01  2.3778528E+01
 2.0613750E+01  2.3784548E+01
 2.0625252E+01  2.3796278E+01
 2.0636751E+01  2.3789989E+01
 2.0648251E+01  2.3747032E+01
 2.0659752E+01  2.3724653E+01
 2.0671251E+01  2.3760141E+01
 2.0682751E+01  2.3788868E+01
 2.0694250E+01  2.3843586E+01
 2.0705751E+01  2.3917561E+01
 2.0717251E+01  2.4011070E+01
 2.0728750E+01  2.4057508E+01
 2.0740252E+01  2.4106075E+01
 2.0751751E+01  2.4121796E+01
 2.0763250E+01  2.4190050E+01
 2.0774752E+01  2.4235336E+01
 2.0786251E+01  2.4237442E+01
 2.0797750E+01  2.4172480E+01
 2.0809252E+01  2.4087389E+01
 2.0820751E+01  2.3988373E+01
 2.0832251E+01  2.3910072E+01
 2.0843752E+01  2.3875742E+01
 2.0855251E+01  2.3859921E+01
 2.0866751E+01  2.3841078E+01
 2.0878250E+01  2.3847448E+01
 2.0889751E+01  2.3879475E+01
 2.0901251E+01  2.3933556E+01
 2.0912750E+01  2.3986534E+01
 2.0924252E+01  2.3997362E+01
 2.0935751E+01  2.3969622E+01
 2.0947250E+01  2.3916954E+01
 2.0958752E+01  2.3884214E+01
 2.0970251E+01  2.3851559E+01
 2.0981750E+01  2.3845734E+01
 2.0993252E+01  2.3820295E+01
 2.1004751E+01  2.3785501E+01
 2.1016251E+01  2.3717947E+01
 2.1027752E+01  2.3739172E+01
 2.1039251E+01  2.3761965E+01
 2.1050751E+01  2.3795706E+01
 2.1062250E+01  2.3804590E+01
 2.1073751E+01  2.3845139E+01
 2.1085251E+01  2.3841127E+01
 2.1096750E+01  2.3819725E+01
 2.1108252E+01  2.3820406E+01
 2.1119751E+01  2.3860542E+01
 2.1131250E+01  2.3892147E+01
 2.1142752E+01  2.3894922E+01
 2.1154251E+01  2.3821558E+01
 2.1165751E+01  2.3831833E+01
 2.1177252E+01  2.3898050E+01
 2.1188751E+01  2.3931787E+01
 2.1200251E+01  2.3930044E+01
 2.1211752E+01  2.3945040E+01
 2.1223251E+01  2.3925499E+01
 2.1234751E+01  2.3889441E+01
 2.1246250E+01  2.3933622E+01
 2.1257751E+01  2.3942251E+01
 2.1269251E+01  2.3927238E+01
 2.1280750E+01  2.3881121E+01
 2.1292252E+01  2.3917471E+01
 2.1303751E+01  2.3880381E+01
 2.1315250E+01  2.3881783E+01
 2.1326752E+01  2.3896242E+01
 2.1338251E+01  2.3934267E+01
 2.1349751E+01  2.3943890E+01
 2.1361252E+01  2.3974907E+01
 2.1372751E+01  2.3978344E+01
 2.1384251E+01  2.3973890E+01
 2.1395752E+01  2.3955246E+01
 2.1407251E+01  2.3941195E+01
 2.1418751E+01  2.3952541E+01
 2.1430250E+01  2.3954227E+01
 2.1441751E+01  2.3951267E+01
 2.1453251E+01  2.3988005E+01
 2.1464750E+01  2.4042828E+01
 2.1476252E+01  2.4014166E+01
 2.1487751E+01  2.4037659E+01
 2.1499250E+01  2.4025002E+01
 2.1510752E+01  2.4033955E+01
 2.1522251E+01  2.4035076E+01
 2.1533751E+01  2.4053091E+01
 2.1545252E+01  2.4043556E+01
 2.1556751E+01  2.4038477E+01
 2.1568251E+01  2.3988390E+01
 2.1579752E+01  2.4027704E+01
 2.1591251E+01  2.4052752E+01
 2.1602751E+01  2.4108973E+01
 2.1614250E+01  2.4106602E+01
 2.1625751E+01  2.4132973E+01
 2.1637251E+01  2.4146088E+01
 2.1648750E+01  2.4177275E+01
 2.1660252E+01  2.4139801E+01
 2.1671751E+01  2.4139631E+01
 2.1683250E+01  2.4125389E+01
 2.1694752E+01  2.4151142E+01
 2.1706251E+01  2.4147457E+01
 2.1717751E+01  2.4174067E+01
 2.1729252E+01  2.4175255E+01
 2.1740751E+01  2.4156948E+01
 2.1752251E+01  2.4142477E+01
 2.1763752E+01  2.4137445E+01
 2.1775251E+01  2.4149403E+01
 2.1786751E+01  2.4149412E+01
 2.1798250E+01  2.4151672E+01
 2.1809752E+01  2.4190901E+01
 2.1821251E+01  2.4215660E+01
 2.1832750E+01  2.4193151E+01
 2.1844252E+01  2.4172981E+01
 2.1855751E+01  2.4164394E+01
 2.1867250E+01  2.4172348E+01
 2.1878752E+01  2.4253515E+01
 2.1890251E+01  2.4229708E+01
 2.1901751E+01  2.4231890E+01
 2.1913252E+01  2.4222906E+01
 2.1924751E+01  2.4239264E+01
 2.1936251E+01  2.4221479E+01
 2.1947752E+01  2.4239891E+01
 2.1959251E+01  2.4431046E+01
 2.1970751E+01  2.4575405E+01
 2.1982250E+01  2.4587887E+01
 2.1993752E+01  2.4479237E+01
 2.2005251E+01  2.4390102E+01
 2.2016750E+01  2.4276499E+01
 2.2028252E+01  2.4216557E+01
 2.2039751E+01  2.4249063E+01
 2.2051250E+01  2.4255821E+01
 2.2062752E+01  2.4267092E+01
 2.2074251E+01  2.4292990E+01
 2.2085751E+01  2.4308138E+01
 2.2097252E+01  2.4311464E+01
 2.2108751E+01  2.4334042E+01
 2.2120251E+01  2.4398939E+01
 2.2131752E+01  2.4422195E+01
 2.2143251E+01  2.4403105E+01
 2.2154751E+01  2.4361645E+01
 2.2166250E+01  2.4298471E+01
 2.2177752E+01  2.4272461E+01
 2.2189251E+01  2.4247612E+01
 2.2200750E+01  2.4276875E+01
 2.2212252E+01  2.4318287E+01
 2.2223751E+01  2.4405899E+01
 2.2235250E+01  2.4445763E+01
 2.2246752E+01  2.4492331E+01
 2.2258251E+01  2.4471426E+01
 2.2269751E+01  2.4403379E+01
 2.2281252E+01  2.4377485E+01
 2.2292751E+01  2.4423487E+01
 2.2304251E+01  2.4522371E+01
 2.2315752E+01  2.4538507E+01
 2.2327251E+01  2.4542982E+01
 2.2338751E+01  2.4506262E+01
 2.2350250E+01  2.4519529E+01
 2.2361752E+01  2.4546219E+01
 2.2373251E+01  2.4589705E+01
 2.2384750E+01  2.4583359E+01
 2.2396252E+01  2.4596109E+01
 2.2407751E+01  2.4544794E+01
 2.2419250E+01  2.4550909E+01
 2.2430752E+01  2.4543797E+01
 2.2442251E+01  2.4607216E+01
 2.2453751E+01  2.4639683E+01
 2.2465252E+01  2.4689987E+01
 2.2476751E+01  2.4594244E+01
 2.2488251E+01  2.4576130E+01
 2.2499752E+01  2.4596025E+01
 2.2511251E+01  2.4626957E+01
 2.2522751E+01  2.4672369E+01
 2.2534250E+01  2.4697317E+01
 2.2545752E+01  2.4717030E+01
 2.2557251E+01  2.4692648E+01
 2.2568750E+01  2.4712814E+01
 2.2580252E+01  2.4753918E+01
 2.2591751E+01  2.4784279E+01
 2.2603251E+01  2.4830158E+01
 2.2614752E+01  2.4895449E+01
 2.2626251E+01  2.4962627E+01
 2.2637751E+01  2.5005081E+01
 2.2649252E+01  2.4971315E+01
 2.2660751E+01  2.4935867E+01
 2.2672251E+01  2.4906763E+01
 2.2683752E+01  2.4942924E+01
 2.2695251E+01  2.5023266E+01
 2.2706751E+01  2.5029623E+01
 2.2718250E+01  2.5086576E+01
 2.2729752E+01  2.5097960E+01
 2.2741251E+01  2.5198668E+01
 2.2752750E+01  2.5235231E+01
 2.2764252E+01  2.5285461E+01
 2.2775751E+01  2.5306555E+01
 2.2787251E+01  2.5279306E+01
 2.2798752E+01  2.5340878E+01
 2.2810251E+01  2.5444254E+01
 2.2821751E+01  2.5486376E+01
 2.2833252E+01  2.5522163E+01
 2.2844751E+01  2.5531300E+01
 2.2856251E+01  2.5554924E+01
 2.2867750E+01  2.5589462E+01
 2.2879251E+01  2.5592522E+01
 2.2890751E+01  2.5653770E+01
 2.2902250E+01  2.5688555E+01
 2.2913752E+01  2.5822254E+01
 2.2925251E+01  2.5918375E+01
 2.2936750E+01  2.5968475E+01
 2.2948252E+01  2.5988512E+01
 2.2959751E+01  2.5957718E+01
 2.2971251E+01  2.6031891E+01
 2.2982752E+01  2.6063898E+01
 2.2994251E+01  2.6155241E+01
