F:\20151113_APS_34IDE\\Brian\Particle1\OCV\Data_0122.tif
2-Theta Angle (Degrees)
Intensity
       2000
 5.7500005E-03  0.0000000E+00
 1.7250001E-02  0.0000000E+00
 2.8750001E-02  0.0000000E+00
 4.0250003E-02  0.0000000E+00
 5.1750004E-02  0.0000000E+00
 6.3250005E-02  0.0000000E+00
 7.4750006E-02  0.0000000E+00
 8.6250007E-02  0.0000000E+00
 9.7750008E-02  0.0000000E+00
 1.0925001E-01  0.0000000E+00
 1.2075000E-01  0.0000000E+00
 1.3225001E-01  0.0000000E+00
 1.4375001E-01  0.0000000E+00
 1.5525001E-01  0.0000000E+00
 1.6675001E-01  0.0000000E+00
 1.7825001E-01  0.0000000E+00
 1.8975002E-01  0.0000000E+00
 2.0125002E-01  0.0000000E+00
 2.1275002E-01  0.0000000E+00
 2.2425000E-01  0.0000000E+00
 2.3575000E-01  0.0000000E+00
 2.4725001E-01  0.0000000E+00
 2.5875002E-01  0.0000000E+00
 2.7025002E-01  0.0000000E+00
 2.8175002E-01  0.0000000E+00
 2.9325002E-01  0.0000000E+00
 3.0475003E-01  0.0000000E+00
 3.1625003E-01  0.0000000E+00
 3.2775003E-01  0.0000000E+00
 3.3925003E-01  0.0000000E+00
 3.5075003E-01  0.0000000E+00
 3.6225003E-01  0.0000000E+00
 3.7375003E-01  0.0000000E+00
 3.8525003E-01  0.0000000E+00
 3.9675003E-01  0.0000000E+00
 4.0825003E-01  0.0000000E+00
 4.1975003E-01  0.0000000E+00
 4.3125004E-01  0.0000000E+00
 4.4275001E-01  0.0000000E+00
 4.5425001E-01  0.0000000E+00
 4.6575001E-01  0.0000000E+00
 4.7725001E-01  0.0000000E+00
 4.8875001E-01  0.0000000E+00
 5.0025004E-01  0.0000000E+00
 5.1175004E-01  0.0000000E+00
 5.2325004E-01  0.0000000E+00
 5.3475004E-01  0.0000000E+00
 5.4625005E-01  0.0000000E+00
 5.5775005E-01  0.0000000E+00
 5.6925005E-01  0.0000000E+00
 5.8075005E-01  0.0000000E+00
 5.9225005E-01  0.0000000E+00
 6.0375005E-01  0.0000000E+00
 6.1525005E-01  0.0000000E+00
 6.2675005E-01  0.0000000E+00
 6.3825005E-01  0.0000000E+00
 6.4975005E-01  0.0000000E+00
 6.6125005E-01  0.0000000E+00
 6.7275006E-01  0.0000000E+00
 6.8425006E-01  0.0000000E+00
 6.9575006E-01  0.0000000E+00
 7.0725006E-01  0.0000000E+00
 7.1875006E-01  0.0000000E+00
 7.3025006E-01  0.0000000E+00
 7.4175006E-01  0.0000000E+00
 7.5325006E-01  0.0000000E+00
 7.6475006E-01  0.0000000E+00
 7.7625006E-01  0.0000000E+00
 7.8775007E-01  0.0000000E+00
 7.9925007E-01  0.0000000E+00
 8.1075007E-01  0.0000000E+00
 8.2225007E-01  0.0000000E+00
 8.3375007E-01  0.0000000E+00
 8.4525007E-01  0.0000000E+00
 8.5675007E-01  0.0000000E+00
 8.6825007E-01  0.0000000E+00
 8.7975001E-01  0.0000000E+00
 8.9125001E-01  0.0000000E+00
 9.0275002E-01  0.0000000E+00
 9.1425002E-01  0.0000000E+00
 9.2575002E-01  0.0000000E+00
 9.3725002E-01  0.0000000E+00
 9.4875002E-01  0.0000000E+00
 9.6025002E-01  0.0000000E+00
 9.7175002E-01  0.0000000E+00
 9.8325002E-01  0.0000000E+00
 9.9475002E-01  0.0000000E+00
 1.0062500E+00  0.0000000E+00
 1.0177500E+00  0.0000000E+00
 1.0292500E+00  0.0000000E+00
 1.0407500E+00  0.0000000E+00
 1.0522500E+00  0.0000000E+00
 1.0637500E+00  0.0000000E+00
 1.0752500E+00  0.0000000E+00
 1.0867500E+00  0.0000000E+00
 1.0982500E+00  0.0000000E+00
 1.1097500E+00  0.0000000E+00
 1.1212500E+00  0.0000000E+00
 1.1327500E+00  0.0000000E+00
 1.1442500E+00  0.0000000E+00
 1.1557500E+00  0.0000000E+00
 1.1672500E+00  0.0000000E+00
 1.1787500E+00  0.0000000E+00
 1.1902500E+00  0.0000000E+00
 1.2017500E+00  0.0000000E+00
 1.2132500E+00  0.0000000E+00
 1.2247500E+00  0.0000000E+00
 1.2362500E+00  0.0000000E+00
 1.2477500E+00  0.0000000E+00
 1.2592500E+00  0.0000000E+00
 1.2707500E+00  0.0000000E+00
 1.2822500E+00  0.0000000E+00
 1.2937500E+00  0.0000000E+00
 1.3052500E+00  0.0000000E+00
 1.3167500E+00  0.0000000E+00
 1.3282501E+00  0.0000000E+00
 1.3397501E+00  0.0000000E+00
 1.3512501E+00  0.0000000E+00
 1.3627501E+00  0.0000000E+00
 1.3742501E+00  0.0000000E+00
 1.3857501E+00  0.0000000E+00
 1.3972501E+00  0.0000000E+00
 1.4087501E+00  0.0000000E+00
 1.4202501E+00  0.0000000E+00
 1.4317501E+00  0.0000000E+00
 1.4432501E+00  0.0000000E+00
 1.4547501E+00  0.0000000E+00
 1.4662501E+00  0.0000000E+00
 1.4777501E+00  0.0000000E+00
 1.4892501E+00  0.0000000E+00
 1.5007501E+00  0.0000000E+00
 1.5122501E+00  0.0000000E+00
 1.5237501E+00  0.0000000E+00
 1.5352501E+00  0.0000000E+00
 1.5467501E+00  0.0000000E+00
 1.5582501E+00  0.0000000E+00
 1.5697501E+00  0.0000000E+00
 1.5812501E+00  0.0000000E+00
 1.5927501E+00  0.0000000E+00
 1.6042501E+00  0.0000000E+00
 1.6157501E+00  0.0000000E+00
 1.6272501E+00  0.0000000E+00
 1.6387501E+00  0.0000000E+00
 1.6502501E+00  0.0000000E+00
 1.6617501E+00  0.0000000E+00
 1.6732501E+00  0.0000000E+00
 1.6847501E+00  0.0000000E+00
 1.6962501E+00  0.0000000E+00
 1.7077501E+00  0.0000000E+00
 1.7192501E+00  0.0000000E+00
 1.7307501E+00  0.0000000E+00
 1.7422501E+00  0.0000000E+00
 1.7537501E+00  0.0000000E+00
 1.7652501E+00  0.0000000E+00
 1.7767501E+00  0.0000000E+00
 1.7882501E+00  0.0000000E+00
 1.7997501E+00  0.0000000E+00
 1.8112501E+00  0.0000000E+00
 1.8227501E+00  0.0000000E+00
 1.8342501E+00  0.0000000E+00
 1.8457501E+00  0.0000000E+00
 1.8572501E+00  0.0000000E+00
 1.8687501E+00  0.0000000E+00
 1.8802501E+00  0.0000000E+00
 1.8917501E+00  0.0000000E+00
 1.9032501E+00  0.0000000E+00
 1.9147501E+00  0.0000000E+00
 1.9262501E+00  0.0000000E+00
 1.9377501E+00  0.0000000E+00
 1.9492501E+00  0.0000000E+00
 1.9607501E+00  0.0000000E+00
 1.9722501E+00  0.0000000E+00
 1.9837501E+00  0.0000000E+00
 1.9952501E+00  0.0000000E+00
 2.0067501E+00  0.0000000E+00
 2.0182500E+00  0.0000000E+00
 2.0297501E+00  0.0000000E+00
 2.0412500E+00  0.0000000E+00
 2.0527501E+00  0.0000000E+00
 2.0642500E+00  0.0000000E+00
 2.0757501E+00  0.0000000E+00
 2.0872500E+00  0.0000000E+00
 2.0987501E+00  0.0000000E+00
 2.1102500E+00  0.0000000E+00
 2.1217501E+00  0.0000000E+00
 2.1332500E+00  0.0000000E+00
 2.1447501E+00  0.0000000E+00
 2.1562500E+00  0.0000000E+00
 2.1677501E+00  0.0000000E+00
 2.1792500E+00  0.0000000E+00
 2.1907501E+00  0.0000000E+00
 2.2022500E+00  0.0000000E+00
 2.2137501E+00  0.0000000E+00
 2.2252500E+00  0.0000000E+00
 2.2367501E+00  0.0000000E+00
 2.2482500E+00  0.0000000E+00
 2.2597501E+00  0.0000000E+00
 2.2712500E+00  0.0000000E+00
 2.2827501E+00  0.0000000E+00
 2.2942500E+00  0.0000000E+00
 2.3057501E+00  0.0000000E+00
 2.3172500E+00  0.0000000E+00
 2.3287501E+00  0.0000000E+00
 2.3402500E+00  0.0000000E+00
 2.3517501E+00  0.0000000E+00
 2.3632500E+00  0.0000000E+00
 2.3747501E+00  0.0000000E+00
 2.3862500E+00  0.0000000E+00
 2.3977501E+00  0.0000000E+00
 2.4092500E+00  0.0000000E+00
 2.4207501E+00  0.0000000E+00
 2.4322500E+00  0.0000000E+00
 2.4437501E+00  0.0000000E+00
 2.4552500E+00  0.0000000E+00
 2.4667501E+00  0.0000000E+00
 2.4782500E+00  0.0000000E+00
 2.4897501E+00  0.0000000E+00
 2.5012500E+00  0.0000000E+00
 2.5127501E+00  0.0000000E+00
 2.5242500E+00  0.0000000E+00
 2.5357502E+00  0.0000000E+00
 2.5472500E+00  0.0000000E+00
 2.5587502E+00  0.0000000E+00
 2.5702500E+00  0.0000000E+00
 2.5817502E+00  0.0000000E+00
 2.5932500E+00  0.0000000E+00
 2.6047502E+00  0.0000000E+00
 2.6162500E+00  0.0000000E+00
 2.6277502E+00  0.0000000E+00
 2.6392500E+00  0.0000000E+00
 2.6507502E+00  0.0000000E+00
 2.6622500E+00  0.0000000E+00
 2.6737502E+00  0.0000000E+00
 2.6852500E+00  0.0000000E+00
 2.6967502E+00  0.0000000E+00
 2.7082500E+00  0.0000000E+00
 2.7197502E+00  0.0000000E+00
 2.7312500E+00  0.0000000E+00
 2.7427502E+00  0.0000000E+00
 2.7542500E+00  0.0000000E+00
 2.7657502E+00  0.0000000E+00
 2.7772501E+00  0.0000000E+00
 2.7887502E+00  0.0000000E+00
 2.8002501E+00  0.0000000E+00
 2.8117502E+00  0.0000000E+00
 2.8232501E+00  3.7726707E+01
 2.8347502E+00  3.4951687E+01
 2.8462501E+00  3.4738392E+01
 2.8577502E+00  3.4293396E+01
 2.8692501E+00  3.4563808E+01
 2.8807502E+00  3.4787521E+01
 2.8922501E+00  3.5147144E+01
 2.9037502E+00  3.5417377E+01
 2.9152501E+00  3.5678627E+01
 2.9267502E+00  3.5637791E+01
 2.9382501E+00  3.5450790E+01
 2.9497502E+00  3.5759087E+01
 2.9612501E+00  3.6182190E+01
 2.9727502E+00  3.6570225E+01
 2.9842501E+00  3.6855972E+01
 2.9957502E+00  3.6946171E+01
 3.0072501E+00  3.6982712E+01
 3.0187502E+00  3.6868031E+01
 3.0302501E+00  3.6470913E+01
 3.0417502E+00  3.6497173E+01
 3.0532501E+00  3.6395531E+01
 3.0647502E+00  3.6091942E+01
 3.0762501E+00  3.5606945E+01
 3.0877502E+00  3.5224831E+01
 3.0992501E+00  3.5144161E+01
 3.1107502E+00  3.4806835E+01
 3.1222501E+00  3.4673031E+01
 3.1337502E+00  3.4406509E+01
 3.1452501E+00  3.5062389E+01
 3.1567502E+00  3.5203949E+01
 3.1682501E+00  3.5332691E+01
 3.1797502E+00  3.5095860E+01
 3.1912501E+00  3.5074509E+01
 3.2027502E+00  3.5238922E+01
 3.2142501E+00  3.5291801E+01
 3.2257502E+00  3.5109291E+01
 3.2372501E+00  3.4903053E+01
 3.2487502E+00  3.4613434E+01
 3.2602501E+00  3.4668453E+01
 3.2717502E+00  3.4470669E+01
 3.2832501E+00  3.4461376E+01
 3.2947502E+00  3.4383778E+01
 3.3062501E+00  3.4541569E+01
 3.3177502E+00  3.4851871E+01
 3.3292501E+00  3.4887119E+01
 3.3407502E+00  3.5102459E+01
 3.3522501E+00  3.4858269E+01
 3.3637502E+00  3.4693306E+01
 3.3752501E+00  3.4527676E+01
 3.3867502E+00  3.4399479E+01
 3.3982501E+00  3.4177067E+01
 3.4097502E+00  3.4080589E+01
 3.4212501E+00  3.4025517E+01
 3.4327502E+00  3.4256149E+01
 3.4442501E+00  3.4535576E+01
 3.4557502E+00  3.4647480E+01
 3.4672501E+00  3.4782188E+01
 3.4787502E+00  3.4505375E+01
 3.4902501E+00  3.4274879E+01
 3.5017502E+00  3.4058067E+01
 3.5132501E+00  3.3653259E+01
 3.5247502E+00  3.3570477E+01
 3.5362501E+00  3.3407146E+01
 3.5477502E+00  3.3225658E+01
 3.5592501E+00  3.3058235E+01
 3.5707502E+00  3.2825912E+01
 3.5822501E+00  3.2836861E+01
 3.5937502E+00  3.2591942E+01
 3.6052501E+00  3.2503727E+01
 3.6167502E+00  3.2486843E+01
 3.6282501E+00  3.2508392E+01
 3.6397502E+00  3.2430920E+01
 3.6512501E+00  3.2804268E+01
 3.6627502E+00  3.2956837E+01
 3.6742501E+00  3.3310699E+01
 3.6857502E+00  3.3244873E+01
 3.6972501E+00  3.3282696E+01
 3.7087502E+00  3.3172195E+01
 3.7202501E+00  3.3103603E+01
 3.7317502E+00  3.3053986E+01
 3.7432501E+00  3.3058838E+01
 3.7547503E+00  3.3234585E+01
 3.7662501E+00  3.3241577E+01
 3.7777503E+00  3.3311481E+01
 3.7892501E+00  3.3081470E+01
 3.8007503E+00  3.2897816E+01
 3.8122501E+00  3.2861446E+01
 3.8237503E+00  3.2667633E+01
 3.8352501E+00  3.2613388E+01
 3.8467503E+00  3.2394360E+01
 3.8582501E+00  3.2452377E+01
 3.8697503E+00  3.2382370E+01
 3.8812501E+00  3.2314590E+01
 3.8927503E+00  3.2205711E+01
 3.9042501E+00  3.2140072E+01
 3.9157503E+00  3.2164509E+01
 3.9272501E+00  3.2242199E+01
 3.9387503E+00  3.2279739E+01
 3.9502501E+00  3.2222458E+01
 3.9617503E+00  3.2427341E+01
 3.9732502E+00  3.2697617E+01
 3.9847503E+00  3.3001823E+01
 3.9962502E+00  3.3194313E+01
 4.0077500E+00  3.3229130E+01
 4.0192504E+00  3.3199398E+01
 4.0307503E+00  3.3139778E+01
 4.0422502E+00  3.3143253E+01
 4.0537500E+00  3.3136501E+01
 4.0652504E+00  3.3055676E+01
 4.0767503E+00  3.2759304E+01
 4.0882502E+00  3.2688900E+01
 4.0997500E+00  3.2503914E+01
 4.1112504E+00  3.2319675E+01
 4.1227503E+00  3.2178417E+01
 4.1342502E+00  3.2176746E+01
 4.1457500E+00  3.2190212E+01
 4.1572504E+00  3.1913013E+01
 4.1687503E+00  3.1650009E+01
 4.1802502E+00  3.1283726E+01
 4.1917500E+00  3.1333765E+01
 4.2032504E+00  3.1513567E+01
 4.2147503E+00  3.1720736E+01
 4.2262502E+00  3.1947203E+01
 4.2377501E+00  3.2012581E+01
 4.2492504E+00  3.2058506E+01
 4.2607503E+00  3.2076363E+01
 4.2722502E+00  3.1985939E+01
 4.2837501E+00  3.2014015E+01
 4.2952504E+00  3.1945688E+01
 4.3067503E+00  3.2034649E+01
 4.3182502E+00  3.2206772E+01
 4.3297501E+00  3.2431747E+01
 4.3412504E+00  3.2627480E+01
 4.3527503E+00  3.2749294E+01
 4.3642502E+00  3.2639076E+01
 4.3757501E+00  3.2593723E+01
 4.3872504E+00  3.2490715E+01
 4.3987503E+00  3.2557430E+01
 4.4102502E+00  3.2430698E+01
 4.4217501E+00  3.2343727E+01
 4.4332504E+00  3.2298187E+01
 4.4447503E+00  3.2306339E+01
 4.4562502E+00  3.2345127E+01
 4.4677501E+00  3.2329990E+01
 4.4792504E+00  3.2252960E+01
 4.4907503E+00  3.2324753E+01
 4.5022502E+00  3.2310596E+01
 4.5137501E+00  3.2477020E+01
 4.5252504E+00  3.2602737E+01
 4.5367503E+00  3.2621777E+01
 4.5482502E+00  3.2672520E+01
 4.5597501E+00  3.2533615E+01
 4.5712504E+00  3.2771751E+01
 4.5827503E+00  3.2706055E+01
 4.5942502E+00  3.2683392E+01
 4.6057501E+00  3.2464176E+01
 4.6172504E+00  3.2438667E+01
 4.6287503E+00  3.2446358E+01
 4.6402502E+00  3.2609901E+01
 4.6517501E+00  3.2603573E+01
 4.6632504E+00  3.2707687E+01
 4.6747503E+00  3.2623505E+01
 4.6862502E+00  3.2667667E+01
 4.6977501E+00  3.2669804E+01
 4.7092505E+00  3.2780468E+01
 4.7207503E+00  3.2943172E+01
 4.7322502E+00  3.2939640E+01
 4.7437501E+00  3.2829330E+01
 4.7552505E+00  3.2649796E+01
 4.7667503E+00  3.2673290E+01
 4.7782502E+00  3.2618420E+01
 4.7897501E+00  3.2660492E+01
 4.8012505E+00  3.2502808E+01
 4.8127503E+00  3.2421410E+01
 4.8242502E+00  3.2319942E+01
 4.8357501E+00  3.2298389E+01
 4.8472505E+00  3.2413315E+01
 4.8587503E+00  3.2571228E+01
 4.8702502E+00  3.2707802E+01
 4.8817501E+00  3.2772583E+01
 4.8932505E+00  3.2873962E+01
 4.9047503E+00  3.2886375E+01
 4.9162502E+00  3.3023956E+01
 4.9277501E+00  3.3037971E+01
 4.9392505E+00  3.3128780E+01
 4.9507504E+00  3.3077808E+01
 4.9622502E+00  3.2910908E+01
 4.9737501E+00  3.2815811E+01
 4.9852505E+00  3.2770912E+01
 4.9967504E+00  3.2740612E+01
 5.0082502E+00  3.2880711E+01
 5.0197501E+00  3.2785683E+01
 5.0312505E+00  3.2846783E+01
 5.0427504E+00  3.2786816E+01
 5.0542502E+00  3.2940166E+01
 5.0657501E+00  3.3037006E+01
 5.0772505E+00  3.3098942E+01
 5.0887504E+00  3.3261578E+01
 5.1002502E+00  3.3395451E+01
 5.1117501E+00  3.3426598E+01
 5.1232505E+00  3.3398056E+01
 5.1347504E+00  3.3345356E+01
 5.1462502E+00  3.3308903E+01
 5.1577501E+00  3.3234402E+01
 5.1692505E+00  3.3224159E+01
 5.1807504E+00  3.3258263E+01
 5.1922503E+00  3.3388142E+01
 5.2037501E+00  3.3531010E+01
 5.2152505E+00  3.3687431E+01
 5.2267504E+00  3.3739956E+01
 5.2382503E+00  3.3877010E+01
 5.2497501E+00  3.3941887E+01
 5.2612505E+00  3.4047318E+01
 5.2727504E+00  3.4028770E+01
 5.2842503E+00  3.4126560E+01
 5.2957501E+00  3.4223782E+01
 5.3072500E+00  3.4290848E+01
 5.3187504E+00  3.4371605E+01
 5.3302503E+00  3.4481525E+01
 5.3417501E+00  3.4424168E+01
 5.3532500E+00  3.4457039E+01
 5.3647504E+00  3.4418221E+01
 5.3762503E+00  3.4658855E+01
 5.3877501E+00  3.4770523E+01
 5.3992500E+00  3.4825100E+01
 5.4107504E+00  3.4730278E+01
 5.4222503E+00  3.4735779E+01
 5.4337502E+00  3.4679436E+01
 5.4452500E+00  3.4713394E+01
 5.4567504E+00  3.4689247E+01
 5.4682503E+00  3.4652020E+01
 5.4797502E+00  3.4698933E+01
 5.4912500E+00  3.4706528E+01
 5.5027504E+00  3.4793037E+01
 5.5142503E+00  3.4799053E+01
 5.5257502E+00  3.4867992E+01
 5.5372500E+00  3.4923584E+01
 5.5487504E+00  3.5026573E+01
 5.5602503E+00  3.5048958E+01
 5.5717502E+00  3.5109013E+01
 5.5832500E+00  3.5098656E+01
 5.5947504E+00  3.5198040E+01
 5.6062503E+00  3.5288975E+01
 5.6177502E+00  3.5234631E+01
 5.6292500E+00  3.5126633E+01
 5.6407504E+00  3.4936565E+01
 5.6522503E+00  3.5065170E+01
 5.6637502E+00  3.5131828E+01
 5.6752501E+00  3.5265282E+01
 5.6867504E+00  3.5209606E+01
 5.6982503E+00  3.5155678E+01
 5.7097502E+00  3.5140366E+01
 5.7212501E+00  3.5242573E+01
 5.7327504E+00  3.5298714E+01
 5.7442503E+00  3.5380924E+01
 5.7557502E+00  3.5460781E+01
 5.7672501E+00  3.5431885E+01
 5.7787504E+00  3.5573174E+01
 5.7902503E+00  3.5614193E+01
 5.8017502E+00  3.5694595E+01
 5.8132501E+00  3.5682377E+01
 5.8247504E+00  3.5661068E+01
 5.8362503E+00  3.5835907E+01
 5.8477502E+00  3.5840145E+01
 5.8592501E+00  3.5887249E+01
 5.8707504E+00  3.5830505E+01
 5.8822503E+00  3.5864372E+01
 5.8937502E+00  3.5867542E+01
 5.9052501E+00  3.5983082E+01
 5.9167504E+00  3.6171898E+01
 5.9282503E+00  3.6335140E+01
 5.9397502E+00  3.6874493E+01
 5.9512501E+00  3.7927761E+01
 5.9627504E+00  3.8823906E+01
 5.9742503E+00  3.9942417E+01
 5.9857502E+00  4.0486729E+01
 5.9972501E+00  4.0585651E+01
 6.0087504E+00  4.0493385E+01
 6.0202503E+00  3.9781494E+01
 6.0317502E+00  3.9257740E+01
 6.0432501E+00  3.8160957E+01
 6.0547504E+00  3.7247459E+01
 6.0662503E+00  3.6750179E+01
 6.0777502E+00  3.6524609E+01
 6.0892501E+00  3.6486450E+01
 6.1007504E+00  3.6445457E+01
 6.1122503E+00  3.6518642E+01
 6.1237502E+00  3.6538113E+01
 6.1352501E+00  3.6562782E+01
 6.1467505E+00  3.6551098E+01
 6.1582503E+00  3.6631935E+01
 6.1697502E+00  3.6683971E+01
 6.1812501E+00  3.6786797E+01
 6.1927505E+00  3.6713223E+01
 6.2042503E+00  3.6663418E+01
 6.2157502E+00  3.6704018E+01
 6.2272501E+00  3.6865360E+01
 6.2387505E+00  3.6976612E+01
 6.2502503E+00  3.7109165E+01
 6.2617502E+00  3.7199268E+01
 6.2732501E+00  3.7331356E+01
 6.2847505E+00  3.7410629E+01
 6.2962503E+00  3.7371731E+01
 6.3077502E+00  3.7374237E+01
 6.3192501E+00  3.7427845E+01
 6.3307505E+00  3.7575974E+01
 6.3422503E+00  3.7704693E+01
 6.3537502E+00  3.7898567E+01
 6.3652501E+00  3.8067474E+01
 6.3767505E+00  3.8221542E+01
 6.3882504E+00  3.8347813E+01
 6.3997502E+00  3.8417637E+01
 6.4112501E+00  3.8574593E+01
 6.4227505E+00  3.8625824E+01
 6.4342504E+00  3.8613628E+01
 6.4457502E+00  3.8625477E+01
 6.4572501E+00  3.8680695E+01
 6.4687505E+00  3.8830036E+01
 6.4802504E+00  3.8907154E+01
 6.4917502E+00  3.8897316E+01
 6.5032501E+00  3.8968365E+01
 6.5147505E+00  3.9078033E+01
 6.5262504E+00  3.9210815E+01
 6.5377502E+00  3.9309868E+01
 6.5492501E+00  3.9435234E+01
 6.5607505E+00  3.9578976E+01
 6.5722504E+00  3.9665771E+01
 6.5837502E+00  3.9614445E+01
 6.5952501E+00  3.9635948E+01
 6.6067505E+00  3.9646015E+01
 6.6182504E+00  3.9781567E+01
 6.6297503E+00  3.9901890E+01
 6.6412501E+00  4.0000900E+01
 6.6527505E+00  4.0003349E+01
 6.6642504E+00  4.0025131E+01
 6.6757503E+00  3.9962189E+01
 6.6872501E+00  3.9972149E+01
 6.6987505E+00  4.0084023E+01
 6.7102504E+00  4.0208431E+01
 6.7217503E+00  4.0413746E+01
 6.7332501E+00  4.0454266E+01
 6.7447505E+00  4.0548279E+01
 6.7562504E+00  4.0680855E+01
 6.7677503E+00  4.0775211E+01
 6.7792501E+00  4.0912151E+01
 6.7907505E+00  4.0894161E+01
 6.8022504E+00  4.1012074E+01
 6.8137503E+00  4.1102707E+01
 6.8252501E+00  4.1282921E+01
 6.8367505E+00  4.1405304E+01
 6.8482504E+00  4.1509499E+01
 6.8597503E+00  4.1572113E+01
 6.8712502E+00  4.1486652E+01
 6.8827505E+00  4.1431854E+01
 6.8942504E+00  4.1392208E+01
 6.9057503E+00  4.1374657E+01
 6.9172502E+00  4.1325138E+01
 6.9287505E+00  4.1321133E+01
 6.9402504E+00  4.1489223E+01
 6.9517503E+00  4.1687885E+01
 6.9632502E+00  4.1984814E+01
 6.9747505E+00  4.2074604E+01
 6.9862504E+00  4.2230824E+01
 6.9977503E+00  4.2214218E+01
 7.0092502E+00  4.2223167E+01
 7.0207505E+00  4.2259914E+01
 7.0322504E+00  4.2341892E+01
 7.0437503E+00  4.2550556E+01
 7.0552502E+00  4.2627247E+01
 7.0667505E+00  4.2634506E+01
 7.0782504E+00  4.2553528E+01
 7.0897503E+00  4.2471436E+01
 7.1012502E+00  4.2541348E+01
 7.1127505E+00  4.2569878E+01
 7.1242504E+00  4.2797901E+01
 7.1357503E+00  4.2891487E+01
 7.1472502E+00  4.3051689E+01
 7.1587505E+00  4.3139900E+01
 7.1702504E+00  4.3312859E+01
 7.1817503E+00  4.3344276E+01
 7.1932502E+00  4.3381180E+01
 7.2047505E+00  4.3291233E+01
 7.2162504E+00  4.3292397E+01
 7.2277503E+00  4.3261925E+01
 7.2392502E+00  4.3330223E+01
 7.2507505E+00  4.3436146E+01
 7.2622504E+00  4.3584087E+01
 7.2737503E+00  4.3597019E+01
 7.2852502E+00  4.3733212E+01
 7.2967505E+00  4.3742615E+01
 7.3082504E+00  4.3887421E+01
 7.3197503E+00  4.3907860E+01
 7.3312502E+00  4.3979881E+01
 7.3427505E+00  4.3871803E+01
 7.3542504E+00  4.3922054E+01
 7.3657503E+00  4.3861130E+01
 7.3772502E+00  4.3980572E+01
 7.3887506E+00  4.4032185E+01
 7.4002504E+00  4.4060757E+01
 7.4117503E+00  4.4196465E+01
 7.4232502E+00  4.4159054E+01
 7.4347506E+00  4.4186874E+01
 7.4462504E+00  4.4128208E+01
 7.4577503E+00  4.4120049E+01
 7.4692502E+00  4.4146301E+01
 7.4807506E+00  4.4155109E+01
 7.4922504E+00  4.4240105E+01
 7.5037503E+00  4.4365086E+01
 7.5152502E+00  4.4404442E+01
 7.5267506E+00  4.4506310E+01
 7.5382504E+00  4.4536579E+01
 7.5497503E+00  4.4497246E+01
 7.5612502E+00  4.4532867E+01
 7.5727506E+00  4.4507744E+01
 7.5842505E+00  4.4594353E+01
 7.5957503E+00  4.4474697E+01
 7.6072502E+00  4.4451035E+01
 7.6187506E+00  4.4393009E+01
 7.6302505E+00  4.4355919E+01
 7.6417503E+00  4.4305805E+01
 7.6532502E+00  4.4263912E+01
 7.6647506E+00  4.4232880E+01
 7.6762505E+00  4.4281776E+01
 7.6877503E+00  4.4356285E+01
 7.6992502E+00  4.4438026E+01
 7.7107506E+00  4.4502502E+01
 7.7222505E+00  4.4488243E+01
 7.7337503E+00  4.4636021E+01
 7.7452502E+00  4.4531631E+01
 7.7567506E+00  4.4484558E+01
 7.7682505E+00  4.4371201E+01
 7.7797503E+00  4.4431847E+01
 7.7912502E+00  4.4571335E+01
 7.8027506E+00  4.4644348E+01
 7.8142505E+00  4.4636177E+01
 7.8257504E+00  4.4537243E+01
 7.8372502E+00  4.4417183E+01
 7.8487506E+00  4.4292240E+01
 7.8602505E+00  4.4122520E+01
 7.8717504E+00  4.4024609E+01
 7.8832502E+00  4.3888458E+01
 7.8947506E+00  4.3883171E+01
 7.9062505E+00  4.3908348E+01
 7.9177504E+00  4.3959476E+01
 7.9292502E+00  4.3994987E+01
 7.9407506E+00  4.3929977E+01
 7.9522505E+00  4.3786263E+01
 7.9637504E+00  4.3685570E+01
 7.9752502E+00  4.3518406E+01
 7.9867506E+00  4.3460075E+01
 7.9982505E+00  4.3453022E+01
 8.0097504E+00  4.3402187E+01
 8.0212507E+00  4.3412384E+01
 8.0327501E+00  4.3436199E+01
 8.0442505E+00  4.3464695E+01
 8.0557508E+00  4.3490707E+01
 8.0672503E+00  4.3311447E+01
 8.0787506E+00  4.3156918E+01
 8.0902500E+00  4.2944309E+01
 8.1017504E+00  4.2827095E+01
 8.1132507E+00  4.2715092E+01
 8.1247501E+00  4.2659130E+01
 8.1362505E+00  4.2535549E+01
 8.1477509E+00  4.2448444E+01
 8.1592503E+00  4.2352573E+01
 8.1707506E+00  4.2281677E+01
 8.1822500E+00  4.2148735E+01
 8.1937504E+00  4.1981289E+01
 8.2052507E+00  4.1799133E+01
 8.2167501E+00  4.1597145E+01
 8.2282505E+00  4.1525902E+01
 8.2397509E+00  4.1345718E+01
 8.2512503E+00  4.1255737E+01
 8.2627506E+00  4.1023273E+01
 8.2742500E+00  4.0966930E+01
 8.2857504E+00  4.0857628E+01
 8.2972507E+00  4.0816456E+01
 8.3087502E+00  4.0749119E+01
 8.3202505E+00  4.0704903E+01
 8.3317509E+00  4.0595539E+01
 8.3432503E+00  4.0481422E+01
 8.3547506E+00  4.0292110E+01
 8.3662500E+00  4.0159294E+01
 8.3777504E+00  3.9944950E+01
 8.3892508E+00  3.9800453E+01
 8.4007502E+00  3.9568546E+01
 8.4122505E+00  3.9393921E+01
 8.4237509E+00  3.9169376E+01
 8.4352503E+00  3.9061817E+01
 8.4467506E+00  3.8940674E+01
 8.4582500E+00  3.8854836E+01
 8.4697504E+00  3.8683762E+01
 8.4812508E+00  3.8514973E+01
 8.4927502E+00  3.8344894E+01
 8.5042505E+00  3.8099239E+01
 8.5157509E+00  3.7910385E+01
 8.5272503E+00  3.7644905E+01
 8.5387506E+00  3.7486019E+01
 8.5502501E+00  3.7338142E+01
 8.5617504E+00  3.7178749E+01
 8.5732508E+00  3.7045376E+01
 8.5847502E+00  3.6713028E+01
 8.5962505E+00  3.6512821E+01
 8.6077509E+00  3.6287346E+01
 8.6192503E+00  3.6234226E+01
 8.6307507E+00  3.6088905E+01
 8.6422501E+00  3.5961170E+01
 8.6537504E+00  3.5788448E+01
 8.6652508E+00  3.5629513E+01
 8.6767502E+00  3.5453449E+01
 8.6882505E+00  3.5316105E+01
 8.6997509E+00  3.5207626E+01
 8.7112503E+00  3.5027069E+01
 8.7227507E+00  3.4787758E+01
 8.7342501E+00  3.4505363E+01
 8.7457504E+00  3.4282223E+01
 8.7572508E+00  3.4090645E+01
 8.7687502E+00  3.4039215E+01
 8.7802505E+00  3.3986244E+01
 8.7917500E+00  3.3904678E+01
 8.8032503E+00  3.3743847E+01
 8.8147507E+00  3.3612556E+01
 8.8262501E+00  3.3470123E+01
 8.8377504E+00  3.3387192E+01
 8.8492508E+00  3.3189095E+01
 8.8607502E+00  3.3024197E+01
 8.8722506E+00  3.2810387E+01
 8.8837500E+00  3.2530056E+01
 8.8952503E+00  3.2340687E+01
 8.9067507E+00  3.2124546E+01
 8.9182501E+00  3.2009117E+01
 8.9297504E+00  3.1826824E+01
 8.9412508E+00  3.1672468E+01
 8.9527502E+00  3.1591751E+01
 8.9642506E+00  3.1561913E+01
 8.9757500E+00  3.1457834E+01
 8.9872503E+00  3.1363588E+01
 8.9987507E+00  3.1019043E+01
 9.0102501E+00  3.0797104E+01
 9.0217505E+00  3.0462519E+01
 9.0332508E+00  3.0330944E+01
 9.0447502E+00  3.0190079E+01
 9.0562506E+00  3.0128168E+01
 9.0677500E+00  3.0180853E+01
 9.0792503E+00  3.0124350E+01
 9.0907507E+00  3.0048807E+01
 9.1022501E+00  2.9904819E+01
 9.1137505E+00  2.9753294E+01
 9.1252508E+00  2.9692324E+01
 9.1367502E+00  2.9593304E+01
 9.1482506E+00  2.9531590E+01
 9.1597500E+00  2.9422197E+01
 9.1712503E+00  2.9250654E+01
 9.1827507E+00  2.9091991E+01
 9.1942501E+00  2.8930094E+01
 9.2057505E+00  2.8763344E+01
 9.2172508E+00  2.8673845E+01
 9.2287502E+00  2.8535889E+01
 9.2402506E+00  2.8463825E+01
 9.2517500E+00  2.8359741E+01
 9.2632504E+00  2.8282328E+01
 9.2747507E+00  2.8240677E+01
 9.2862501E+00  2.8114609E+01
 9.2977505E+00  2.8011084E+01
 9.3092508E+00  2.7846329E+01
 9.3207502E+00  2.7748148E+01
 9.3322506E+00  2.7634581E+01
 9.3437500E+00  2.7536997E+01
 9.3552504E+00  2.7428852E+01
 9.3667507E+00  2.7346371E+01
 9.3782501E+00  2.7245144E+01
 9.3897505E+00  2.7179415E+01
 9.4012508E+00  2.7057447E+01
 9.4127502E+00  2.7005339E+01
 9.4242506E+00  2.6932055E+01
 9.4357500E+00  2.6950096E+01
 9.4472504E+00  2.6930979E+01
 9.4587507E+00  2.6928883E+01
 9.4702501E+00  2.6957033E+01
 9.4817505E+00  2.6925838E+01
 9.4932508E+00  2.6824411E+01
 9.5047503E+00  2.6687857E+01
 9.5162506E+00  2.6572821E+01
 9.5277500E+00  2.6440327E+01
 9.5392504E+00  2.6344782E+01
 9.5507507E+00  2.6296288E+01
 9.5622501E+00  2.6340605E+01
 9.5737505E+00  2.6291515E+01
 9.5852509E+00  2.6151407E+01
 9.5967503E+00  2.6075970E+01
 9.6082506E+00  2.5948570E+01
 9.6197500E+00  2.5909225E+01
 9.6312504E+00  2.5814816E+01
 9.6427507E+00  2.5745617E+01
 9.6542501E+00  2.5659189E+01
 9.6657505E+00  2.5590157E+01
 9.6772509E+00  2.5484205E+01
 9.6887503E+00  2.5397921E+01
 9.7002506E+00  2.5344328E+01
 9.7117500E+00  2.5387749E+01
 9.7232504E+00  2.5454678E+01
 9.7347507E+00  2.5492296E+01
 9.7462502E+00  2.5466251E+01
 9.7577505E+00  2.5382681E+01
 9.7692509E+00  2.5300566E+01
 9.7807503E+00  2.5202993E+01
 9.7922506E+00  2.5152126E+01
 9.8037500E+00  2.5100821E+01
 9.8152504E+00  2.5098473E+01
 9.8267508E+00  2.5034826E+01
 9.8382502E+00  2.4967236E+01
 9.8497505E+00  2.4879181E+01
 9.8612509E+00  2.4813578E+01
 9.8727503E+00  2.4755419E+01
 9.8842506E+00  2.4723419E+01
 9.8957500E+00  2.4733704E+01
 9.9072504E+00  2.4706974E+01
 9.9187508E+00  2.4652267E+01
 9.9302502E+00  2.4532190E+01
 9.9417505E+00  2.4435028E+01
 9.9532509E+00  2.4370626E+01
 9.9647503E+00  2.4384949E+01
 9.9762506E+00  2.4403881E+01
 9.9877501E+00  2.4383154E+01
 9.9992504E+00  2.4374636E+01
 1.0010751E+01  2.4359871E+01
 1.0022250E+01  2.4353704E+01
 1.0033751E+01  2.4307913E+01
 1.0045251E+01  2.4265036E+01
 1.0056750E+01  2.4269892E+01
 1.0068251E+01  2.4284273E+01
 1.0079750E+01  2.4270294E+01
 1.0091250E+01  2.4233213E+01
 1.0102751E+01  2.4202415E+01
 1.0114250E+01  2.4152607E+01
 1.0125751E+01  2.4091164E+01
 1.0137251E+01  2.4026672E+01
 1.0148750E+01  2.4039921E+01
 1.0160251E+01  2.4054777E+01
 1.0171750E+01  2.4012922E+01
 1.0183250E+01  2.3966206E+01
 1.0194751E+01  2.3933651E+01
 1.0206250E+01  2.3968124E+01
 1.0217751E+01  2.3961988E+01
 1.0229251E+01  2.3926350E+01
 1.0240750E+01  2.3889181E+01
 1.0252251E+01  2.3842882E+01
 1.0263750E+01  2.3797964E+01
 1.0275250E+01  2.3779716E+01
 1.0286751E+01  2.3754129E+01
 1.0298250E+01  2.3812853E+01
 1.0309751E+01  2.3773378E+01
 1.0321251E+01  2.3729597E+01
 1.0332750E+01  2.3649282E+01
 1.0344251E+01  2.3572157E+01
 1.0355750E+01  2.3538895E+01
 1.0367250E+01  2.3490374E+01
 1.0378751E+01  2.3561378E+01
 1.0390250E+01  2.3625647E+01
 1.0401751E+01  2.3671356E+01
 1.0413251E+01  2.3604183E+01
 1.0424750E+01  2.3527424E+01
 1.0436251E+01  2.3429501E+01
 1.0447750E+01  2.3344828E+01
 1.0459250E+01  2.3304455E+01
 1.0470751E+01  2.3304436E+01
 1.0482250E+01  2.3336914E+01
 1.0493751E+01  2.3323097E+01
 1.0505251E+01  2.3298391E+01
 1.0516750E+01  2.3211807E+01
 1.0528251E+01  2.3120703E+01
 1.0539750E+01  2.3061338E+01
 1.0551250E+01  2.3046089E+01
 1.0562751E+01  2.3082083E+01
 1.0574250E+01  2.3016130E+01
 1.0585751E+01  2.3006279E+01
 1.0597251E+01  2.2972624E+01
 1.0608750E+01  2.3050194E+01
 1.0620251E+01  2.3075176E+01
 1.0631750E+01  2.3166986E+01
 1.0643250E+01  2.3124075E+01
 1.0654751E+01  2.3120584E+01
 1.0666250E+01  2.3037827E+01
 1.0677751E+01  2.3033752E+01
 1.0689251E+01  2.2985754E+01
 1.0700750E+01  2.3008631E+01
 1.0712251E+01  2.3063116E+01
 1.0723750E+01  2.3149118E+01
 1.0735250E+01  2.3129578E+01
 1.0746751E+01  2.3161432E+01
 1.0758250E+01  2.3128010E+01
 1.0769751E+01  2.3077421E+01
 1.0781251E+01  2.2988367E+01
 1.0792750E+01  2.2929008E+01
 1.0804251E+01  2.2913847E+01
 1.0815750E+01  2.2853415E+01
 1.0827250E+01  2.2862265E+01
 1.0838751E+01  2.2848753E+01
 1.0850250E+01  2.2893511E+01
 1.0861751E+01  2.2873644E+01
 1.0873251E+01  2.2884270E+01
 1.0884750E+01  2.2849182E+01
 1.0896251E+01  2.2785107E+01
 1.0907750E+01  2.2771994E+01
 1.0919250E+01  2.2783566E+01
 1.0930751E+01  2.2806211E+01
 1.0942250E+01  2.2801291E+01
 1.0953751E+01  2.2760889E+01
 1.0965251E+01  2.2728172E+01
 1.0976750E+01  2.2678785E+01
 1.0988251E+01  2.2631037E+01
 1.0999750E+01  2.2622349E+01
 1.1011250E+01  2.2651350E+01
 1.1022751E+01  2.2653015E+01
 1.1034250E+01  2.2723921E+01
 1.1045751E+01  2.2656094E+01
 1.1057251E+01  2.2637503E+01
 1.1068750E+01  2.2555920E+01
 1.1080251E+01  2.2516171E+01
 1.1091750E+01  2.2534832E+01
 1.1103251E+01  2.2518152E+01
 1.1114751E+01  2.2563364E+01
 1.1126250E+01  2.2601469E+01
 1.1137751E+01  2.2662506E+01
 1.1149251E+01  2.2704679E+01
 1.1160750E+01  2.2708050E+01
 1.1172251E+01  2.2669849E+01
 1.1183750E+01  2.2643559E+01
 1.1195251E+01  2.2593180E+01
 1.1206751E+01  2.2534111E+01
 1.1218250E+01  2.2504295E+01
 1.1229751E+01  2.2420424E+01
 1.1241251E+01  2.2415630E+01
 1.1252750E+01  2.2359259E+01
 1.1264251E+01  2.2310143E+01
 1.1275750E+01  2.2263374E+01
 1.1287251E+01  2.2219976E+01
 1.1298751E+01  2.2279638E+01
 1.1310250E+01  2.2333324E+01
 1.1321751E+01  2.2387493E+01
 1.1333251E+01  2.2379461E+01
 1.1344750E+01  2.2394192E+01
 1.1356251E+01  2.2425413E+01
 1.1367750E+01  2.2507505E+01
 1.1379251E+01  2.2535971E+01
 1.1390751E+01  2.2564999E+01
 1.1402250E+01  2.2615759E+01
 1.1413751E+01  2.2607939E+01
 1.1425251E+01  2.2600912E+01
 1.1436750E+01  2.2564497E+01
 1.1448251E+01  2.2598127E+01
 1.1459750E+01  2.2646656E+01
 1.1471251E+01  2.2662376E+01
 1.1482751E+01  2.2592548E+01
 1.1494250E+01  2.2536619E+01
 1.1505751E+01  2.2459768E+01
 1.1517251E+01  2.2456450E+01
 1.1528750E+01  2.2504517E+01
 1.1540251E+01  2.2581419E+01
 1.1551750E+01  2.2820883E+01
 1.1563251E+01  2.3094357E+01
 1.1574751E+01  2.3390707E+01
 1.1586250E+01  2.3633350E+01
 1.1597751E+01  2.3728956E+01
 1.1609251E+01  2.3709837E+01
 1.1620750E+01  2.3510260E+01
 1.1632251E+01  2.3243490E+01
 1.1643750E+01  2.2992405E+01
 1.1655251E+01  2.2786751E+01
 1.1666751E+01  2.2633600E+01
 1.1678250E+01  2.2542036E+01
 1.1689751E+01  2.2461670E+01
 1.1701251E+01  2.2407488E+01
 1.1712750E+01  2.2367462E+01
 1.1724251E+01  2.2374668E+01
 1.1735750E+01  2.2422125E+01
 1.1747251E+01  2.2427858E+01
 1.1758751E+01  2.2416399E+01
 1.1770250E+01  2.2302906E+01
 1.1781751E+01  2.2263149E+01
 1.1793251E+01  2.2240948E+01
 1.1804750E+01  2.2273819E+01
 1.1816251E+01  2.2326426E+01
 1.1827750E+01  2.2365211E+01
 1.1839251E+01  2.2388872E+01
 1.1850751E+01  2.2339546E+01
 1.1862250E+01  2.2334148E+01
 1.1873751E+01  2.2364513E+01
 1.1885251E+01  2.2429203E+01
 1.1896750E+01  2.2515099E+01
 1.1908251E+01  2.2559904E+01
 1.1919750E+01  2.2622101E+01
 1.1931251E+01  2.2601639E+01
 1.1942751E+01  2.2656685E+01
 1.1954250E+01  2.2632570E+01
 1.1965751E+01  2.2654636E+01
 1.1977251E+01  2.2654469E+01
 1.1988750E+01  2.2693621E+01
 1.2000251E+01  2.2719803E+01
 1.2011750E+01  2.2755472E+01
 1.2023251E+01  2.2763968E+01
 1.2034751E+01  2.2780134E+01
 1.2046250E+01  2.2781404E+01
 1.2057751E+01  2.2830545E+01
 1.2069251E+01  2.2898645E+01
 1.2080750E+01  2.2992682E+01
 1.2092251E+01  2.2977495E+01
 1.2103750E+01  2.2953871E+01
 1.2115251E+01  2.2898594E+01
 1.2126751E+01  2.2900991E+01
 1.2138250E+01  2.2880657E+01
 1.2149751E+01  2.2845230E+01
 1.2161251E+01  2.2817720E+01
 1.2172750E+01  2.2765121E+01
 1.2184251E+01  2.2698471E+01
 1.2195750E+01  2.2636616E+01
 1.2207251E+01  2.2537167E+01
 1.2218751E+01  2.2447992E+01
 1.2230250E+01  2.2374727E+01
 1.2241751E+01  2.2320246E+01
 1.2253251E+01  2.2364885E+01
 1.2264750E+01  2.2429455E+01
 1.2276251E+01  2.2447678E+01
 1.2287750E+01  2.2467979E+01
 1.2299251E+01  2.2455973E+01
 1.2310751E+01  2.2508104E+01
 1.2322250E+01  2.2432251E+01
 1.2333751E+01  2.2435783E+01
 1.2345250E+01  2.2422483E+01
 1.2356750E+01  2.2517790E+01
 1.2368251E+01  2.2560852E+01
 1.2379750E+01  2.2616709E+01
 1.2391251E+01  2.2580124E+01
 1.2402751E+01  2.2516447E+01
 1.2414250E+01  2.2511604E+01
 1.2425751E+01  2.2508089E+01
 1.2437250E+01  2.2520708E+01
 1.2448750E+01  2.2483673E+01
 1.2460251E+01  2.2533073E+01
 1.2471750E+01  2.2598351E+01
 1.2483251E+01  2.2655800E+01
 1.2494751E+01  2.2682707E+01
 1.2506250E+01  2.2655268E+01
 1.2517751E+01  2.2655010E+01
 1.2529250E+01  2.2882231E+01
 1.2540751E+01  2.3110842E+01
 1.2552251E+01  2.3214817E+01
 1.2563750E+01  2.3275690E+01
 1.2575251E+01  2.3237434E+01
 1.2586751E+01  2.3242685E+01
 1.2598250E+01  2.3034822E+01
 1.2609751E+01  2.2949743E+01
 1.2621250E+01  2.2917465E+01
 1.2632751E+01  2.2901739E+01
 1.2644251E+01  2.2886183E+01
 1.2655750E+01  2.2880297E+01
 1.2667251E+01  2.2828907E+01
 1.2678751E+01  2.2836798E+01
 1.2690250E+01  2.2835535E+01
 1.2701751E+01  2.2893805E+01
 1.2713250E+01  2.2950443E+01
 1.2724751E+01  2.2945673E+01
 1.2736251E+01  2.2960318E+01
 1.2747750E+01  2.2953360E+01
 1.2759251E+01  2.2996923E+01
 1.2770751E+01  2.2982538E+01
 1.2782250E+01  2.3031378E+01
 1.2793751E+01  2.3035196E+01
 1.2805250E+01  2.3144760E+01
 1.2816751E+01  2.3226744E+01
 1.2828251E+01  2.3315228E+01
 1.2839750E+01  2.3304323E+01
 1.2851251E+01  2.3328165E+01
 1.2862751E+01  2.3356733E+01
 1.2874250E+01  2.3359657E+01
 1.2885751E+01  2.3347189E+01
 1.2897250E+01  2.3330818E+01
 1.2908751E+01  2.3427559E+01
 1.2920251E+01  2.3439419E+01
 1.2931750E+01  2.3524035E+01
 1.2943251E+01  2.3514906E+01
 1.2954751E+01  2.3616442E+01
 1.2966250E+01  2.3653654E+01
 1.2977751E+01  2.3755516E+01
 1.2989250E+01  2.3799789E+01
 1.3000751E+01  2.3912153E+01
 1.3012251E+01  2.3971596E+01
 1.3023750E+01  2.4046885E+01
 1.3035251E+01  2.4089685E+01
 1.3046751E+01  2.4120068E+01
 1.3058250E+01  2.4226381E+01
 1.3069751E+01  2.4332355E+01
 1.3081250E+01  2.4416029E+01
 1.3092751E+01  2.4479116E+01
 1.3104251E+01  2.4605438E+01
 1.3115750E+01  2.4831697E+01
 1.3127251E+01  2.4954433E+01
 1.3138751E+01  2.5020182E+01
 1.3150250E+01  2.5074421E+01
 1.3161751E+01  2.5135841E+01
 1.3173250E+01  2.5238764E+01
 1.3184751E+01  2.5347961E+01
 1.3196251E+01  2.5512186E+01
 1.3207750E+01  2.5626654E+01
 1.3219251E+01  2.5825615E+01
 1.3230751E+01  2.6003441E+01
 1.3242250E+01  2.6205912E+01
 1.3253751E+01  2.6325241E+01
 1.3265250E+01  2.6467733E+01
 1.3276751E+01  2.6627045E+01
 1.3288251E+01  2.6751480E+01
 1.3299750E+01  2.6918306E+01
 1.3311251E+01  2.7029406E+01
 1.3322751E+01  2.7198423E+01
 1.3334250E+01  2.7442364E+01
 1.3345751E+01  2.7644566E+01
 1.3357250E+01  2.7793211E+01
 1.3368751E+01  2.7939045E+01
 1.3380251E+01  2.8163000E+01
 1.3391750E+01  2.8262375E+01
 1.3403251E+01  2.8318392E+01
 1.3414751E+01  2.8316837E+01
 1.3426250E+01  2.8452412E+01
 1.3437751E+01  2.8520317E+01
 1.3449250E+01  2.8646406E+01
 1.3460751E+01  2.8724560E+01
 1.3472251E+01  2.8806566E+01
 1.3483750E+01  2.8899654E+01
 1.3495251E+01  2.8989885E+01
 1.3506751E+01  2.9094322E+01
 1.3518250E+01  2.9148354E+01
 1.3529751E+01  2.9224676E+01
 1.3541250E+01  2.9316162E+01
 1.3552751E+01  2.9408373E+01
 1.3564251E+01  2.9449928E+01
 1.3575750E+01  2.9504782E+01
 1.3587251E+01  2.9505661E+01
 1.3598751E+01  2.9583773E+01
 1.3610250E+01  2.9508337E+01
 1.3621751E+01  2.9565899E+01
 1.3633250E+01  2.9578159E+01
 1.3644751E+01  2.9623205E+01
 1.3656251E+01  2.9637156E+01
 1.3667750E+01  2.9642300E+01
 1.3679251E+01  2.9638355E+01
 1.3690751E+01  2.9602957E+01
 1.3702250E+01  2.9530752E+01
 1.3713751E+01  2.9456861E+01
 1.3725250E+01  2.9343077E+01
 1.3736751E+01  2.9247528E+01
 1.3748251E+01  2.9167925E+01
 1.3759750E+01  2.9080488E+01
 1.3771251E+01  2.8998455E+01
 1.3782751E+01  2.8937649E+01
 1.3794250E+01  2.8868198E+01
 1.3805751E+01  2.8816347E+01
 1.3817250E+01  2.8800266E+01
 1.3828751E+01  2.8776770E+01
 1.3840251E+01  2.8799870E+01
 1.3851750E+01  2.8829559E+01
 1.3863251E+01  2.8830345E+01
 1.3874751E+01  2.8831463E+01
 1.3886250E+01  2.8820677E+01
 1.3897751E+01  2.8893496E+01
 1.3909250E+01  2.8986050E+01
 1.3920751E+01  2.9050865E+01
 1.3932251E+01  2.9182779E+01
 1.3943750E+01  2.9223400E+01
 1.3955251E+01  2.9222952E+01
 1.3966751E+01  2.9131697E+01
 1.3978251E+01  2.8906918E+01
 1.3989751E+01  2.8669476E+01
 1.4001250E+01  2.8324043E+01
 1.4012751E+01  2.8083426E+01
 1.4024251E+01  2.7774916E+01
 1.4035750E+01  2.7599520E+01
 1.4047251E+01  2.7430162E+01
 1.4058751E+01  2.7423470E+01
 1.4070251E+01  2.7425920E+01
 1.4081751E+01  2.7424623E+01
 1.4093250E+01  2.7351126E+01
 1.4104751E+01  2.7192564E+01
 1.4116251E+01  2.7097908E+01
 1.4127750E+01  2.6997786E+01
 1.4139251E+01  2.6934832E+01
 1.4150751E+01  2.6814569E+01
 1.4162251E+01  2.6725225E+01
 1.4173751E+01  2.6604433E+01
 1.4185250E+01  2.6524248E+01
 1.4196751E+01  2.6446272E+01
 1.4208251E+01  2.6435160E+01
 1.4219750E+01  2.6420805E+01
 1.4231251E+01  2.6385929E+01
 1.4242751E+01  2.6329943E+01
 1.4254251E+01  2.6253265E+01
 1.4265751E+01  2.6261202E+01
 1.4277250E+01  2.6260946E+01
 1.4288751E+01  2.6290598E+01
 1.4300251E+01  2.6275436E+01
 1.4311750E+01  2.6307135E+01
 1.4323251E+01  2.6235086E+01
 1.4334751E+01  2.6202650E+01
 1.4346251E+01  2.6141151E+01
 1.4357751E+01  2.6123602E+01
 1.4369250E+01  2.6097204E+01
 1.4380751E+01  2.6088215E+01
 1.4392251E+01  2.6123304E+01
 1.4403750E+01  2.6062868E+01
 1.4415251E+01  2.6046574E+01
 1.4426751E+01  2.5962090E+01
 1.4438251E+01  2.5938808E+01
 1.4449751E+01  2.5835400E+01
 1.4461250E+01  2.5793779E+01
 1.4472751E+01  2.5691298E+01
 1.4484251E+01  2.5615225E+01
 1.4495750E+01  2.5559690E+01
 1.4507251E+01  2.5556738E+01
 1.4518751E+01  2.5536274E+01
 1.4530251E+01  2.5529877E+01
 1.4541751E+01  2.5490667E+01
 1.4553250E+01  2.5472523E+01
 1.4564751E+01  2.5454407E+01
 1.4576251E+01  2.5464914E+01
 1.4587750E+01  2.5481108E+01
 1.4599251E+01  2.5467457E+01
 1.4610751E+01  2.5465307E+01
 1.4622251E+01  2.5441477E+01
 1.4633751E+01  2.5407515E+01
 1.4645250E+01  2.5322968E+01
 1.4656751E+01  2.5257122E+01
 1.4668251E+01  2.5197113E+01
 1.4679750E+01  2.5208895E+01
 1.4691251E+01  2.5186136E+01
 1.4702751E+01  2.5207193E+01
 1.4714251E+01  2.5141853E+01
 1.4725751E+01  2.5073713E+01
 1.4737250E+01  2.4982676E+01
 1.4748751E+01  2.4903187E+01
 1.4760251E+01  2.4863043E+01
 1.4771750E+01  2.4888725E+01
 1.4783251E+01  2.4929422E+01
 1.4794751E+01  2.4983286E+01
 1.4806251E+01  2.4988886E+01
 1.4817751E+01  2.4988585E+01
 1.4829250E+01  2.4980389E+01
 1.4840751E+01  2.4973284E+01
 1.4852251E+01  2.4956600E+01
 1.4863750E+01  2.4923321E+01
 1.4875251E+01  2.4857363E+01
 1.4886751E+01  2.4874275E+01
 1.4898251E+01  2.4925770E+01
 1.4909751E+01  2.4996981E+01
 1.4921250E+01  2.4969034E+01
 1.4932751E+01  2.4951355E+01
 1.4944251E+01  2.4919914E+01
 1.4955750E+01  2.4873842E+01
 1.4967251E+01  2.4811047E+01
 1.4978751E+01  2.4792896E+01
 1.4990251E+01  2.4761446E+01
 1.5001751E+01  2.4752499E+01
 1.5013250E+01  2.4766817E+01
 1.5024751E+01  2.4797445E+01
 1.5036251E+01  2.4700966E+01
 1.5047750E+01  2.4635250E+01
 1.5059251E+01  2.4612782E+01
 1.5070751E+01  2.4646536E+01
 1.5082251E+01  2.4608587E+01
 1.5093751E+01  2.4623995E+01
 1.5105250E+01  2.4646004E+01
 1.5116751E+01  2.4737844E+01
 1.5128251E+01  2.4731363E+01
 1.5139750E+01  2.4809044E+01
 1.5151251E+01  2.4863359E+01
 1.5162751E+01  2.4948097E+01
 1.5174251E+01  2.4970421E+01
 1.5185751E+01  2.4928968E+01
 1.5197250E+01  2.4880877E+01
 1.5208751E+01  2.4884834E+01
 1.5220251E+01  2.4900322E+01
 1.5231750E+01  2.4829102E+01
 1.5243251E+01  2.4696653E+01
 1.5254751E+01  2.4620817E+01
 1.5266251E+01  2.4533428E+01
 1.5277751E+01  2.4524406E+01
 1.5289250E+01  2.4525318E+01
 1.5300751E+01  2.4565725E+01
 1.5312251E+01  2.4554445E+01
 1.5323750E+01  2.4522497E+01
 1.5335251E+01  2.4492769E+01
 1.5346751E+01  2.4455742E+01
 1.5358251E+01  2.4433254E+01
 1.5369751E+01  2.4490681E+01
 1.5381250E+01  2.4519272E+01
 1.5392751E+01  2.4522520E+01
 1.5404251E+01  2.4536617E+01
 1.5415751E+01  2.4531212E+01
 1.5427251E+01  2.4556227E+01
 1.5438751E+01  2.4480774E+01
 1.5450251E+01  2.4411943E+01
 1.5461751E+01  2.4353798E+01
 1.5473250E+01  2.4376808E+01
 1.5484751E+01  2.4449202E+01
 1.5496251E+01  2.4486479E+01
 1.5507751E+01  2.4510836E+01
 1.5519251E+01  2.4493229E+01
 1.5530751E+01  2.4511158E+01
 1.5542251E+01  2.4511164E+01
 1.5553751E+01  2.4504442E+01
 1.5565250E+01  2.4519466E+01
 1.5576751E+01  2.4486208E+01
 1.5588251E+01  2.4469225E+01
 1.5599751E+01  2.4450022E+01
 1.5611251E+01  2.4477503E+01
 1.5622751E+01  2.4479067E+01
 1.5634251E+01  2.4419533E+01
 1.5645751E+01  2.4432367E+01
 1.5657250E+01  2.4451454E+01
 1.5668751E+01  2.4486536E+01
 1.5680251E+01  2.4474148E+01
 1.5691751E+01  2.4470592E+01
 1.5703251E+01  2.4470335E+01
 1.5714751E+01  2.4425102E+01
 1.5726251E+01  2.4438961E+01
 1.5737751E+01  2.4391901E+01
 1.5749250E+01  2.4389370E+01
 1.5760751E+01  2.4430374E+01
 1.5772251E+01  2.4476736E+01
 1.5783751E+01  2.4563547E+01
 1.5795251E+01  2.4537773E+01
 1.5806751E+01  2.4571817E+01
 1.5818251E+01  2.4525982E+01
 1.5829751E+01  2.4523918E+01
 1.5841250E+01  2.4518122E+01
 1.5852751E+01  2.4547003E+01
 1.5864251E+01  2.4540049E+01
 1.5875751E+01  2.4571447E+01
 1.5887251E+01  2.4608627E+01
 1.5898750E+01  2.4647724E+01
 1.5910251E+01  2.4659922E+01
 1.5921751E+01  2.4617149E+01
 1.5933250E+01  2.4627474E+01
 1.5944751E+01  2.4550941E+01
 1.5956251E+01  2.4560749E+01
 1.5967751E+01  2.4540411E+01
 1.5979251E+01  2.4574087E+01
 1.5990750E+01  2.4583986E+01
 1.6002251E+01  2.4584923E+01
 1.6013750E+01  2.4594240E+01
 1.6025251E+01  2.4623955E+01
 1.6036751E+01  2.4671608E+01
 1.6048250E+01  2.4701416E+01
 1.6059752E+01  2.4733738E+01
 1.6071251E+01  2.4706257E+01
 1.6082750E+01  2.4783777E+01
 1.6094252E+01  2.4754610E+01
 1.6105751E+01  2.4881222E+01
 1.6117250E+01  2.4872673E+01
 1.6128750E+01  2.4916185E+01
 1.6140251E+01  2.4919054E+01
 1.6151751E+01  2.4871742E+01
 1.6163250E+01  2.4981153E+01
 1.6174751E+01  2.4880407E+01
 1.6186251E+01  2.5354959E+01
 1.6197750E+01  2.5317509E+01
 1.6209251E+01  2.6553841E+01
 1.6220751E+01  2.6769306E+01
 1.6232250E+01  2.8475826E+01
 1.6243752E+01  2.8963533E+01
 1.6255251E+01  2.9702662E+01
 1.6266750E+01  2.9549089E+01
 1.6278252E+01  2.8421679E+01
 1.6289751E+01  2.7868607E+01
 1.6301250E+01  2.6243681E+01
 1.6312750E+01  2.6086803E+01
 1.6324251E+01  2.5185080E+01
 1.6335751E+01  2.5205313E+01
 1.6347250E+01  2.4856148E+01
 1.6358751E+01  2.4776682E+01
 1.6370251E+01  2.4624306E+01
 1.6381750E+01  2.4583681E+01
 1.6393251E+01  2.4638927E+01
 1.6404751E+01  2.4639006E+01
 1.6416250E+01  2.4712353E+01
 1.6427752E+01  2.4722296E+01
 1.6439251E+01  2.4756283E+01
 1.6450750E+01  2.4762161E+01
 1.6462252E+01  2.4747711E+01
 1.6473751E+01  2.4723776E+01
 1.6485250E+01  2.4722595E+01
 1.6496750E+01  2.4694923E+01
 1.6508251E+01  2.4641722E+01
 1.6519751E+01  2.4585157E+01
 1.6531250E+01  2.4506113E+01
 1.6542751E+01  2.4478092E+01
 1.6554251E+01  2.4439497E+01
 1.6565750E+01  2.4488762E+01
 1.6577251E+01  2.4508560E+01
 1.6588751E+01  2.4518278E+01
 1.6600250E+01  2.4543249E+01
 1.6611752E+01  2.4526680E+01
 1.6623251E+01  2.4507227E+01
 1.6634750E+01  2.4469648E+01
 1.6646252E+01  2.4436344E+01
 1.6657751E+01  2.4399366E+01
 1.6669250E+01  2.4404768E+01
 1.6680750E+01  2.4429384E+01
 1.6692251E+01  2.4443844E+01
 1.6703751E+01  2.4387316E+01
 1.6715250E+01  2.4311638E+01
 1.6726751E+01  2.4259602E+01
 1.6738251E+01  2.4263020E+01
 1.6749750E+01  2.4267401E+01
 1.6761251E+01  2.4299086E+01
 1.6772751E+01  2.4361849E+01
 1.6784250E+01  2.4386314E+01
 1.6795752E+01  2.4344173E+01
 1.6807251E+01  2.4310989E+01
 1.6818750E+01  2.4328175E+01
 1.6830252E+01  2.4295296E+01
 1.6841751E+01  2.4297756E+01
 1.6853251E+01  2.4302837E+01
 1.6864750E+01  2.4340479E+01
 1.6876251E+01  2.4333584E+01
 1.6887751E+01  2.4287050E+01
 1.6899250E+01  2.4259991E+01
 1.6910751E+01  2.4274967E+01
 1.6922251E+01  2.4260187E+01
 1.6933750E+01  2.4279490E+01
 1.6945251E+01  2.4217165E+01
 1.6956751E+01  2.4244829E+01
 1.6968250E+01  2.4224562E+01
 1.6979752E+01  2.4242918E+01
 1.6991251E+01  2.4246080E+01
 1.7002750E+01  2.4233353E+01
 1.7014252E+01  2.4228334E+01
 1.7025751E+01  2.4227737E+01
 1.7037251E+01  2.4210129E+01
 1.7048750E+01  2.4126938E+01
 1.7060251E+01  2.4054602E+01
 1.7071751E+01  2.4021162E+01
 1.7083250E+01  2.4059269E+01
 1.7094751E+01  2.4103983E+01
 1.7106251E+01  2.4134657E+01
 1.7117750E+01  2.4143093E+01
 1.7129251E+01  2.4189550E+01
 1.7140751E+01  2.4215883E+01
 1.7152250E+01  2.4210533E+01
 1.7163752E+01  2.4166656E+01
 1.7175251E+01  2.4139957E+01
 1.7186750E+01  2.4140148E+01
 1.7198252E+01  2.4114985E+01
 1.7209751E+01  2.4082151E+01
 1.7221251E+01  2.3983980E+01
 1.7232750E+01  2.3955469E+01
 1.7244251E+01  2.3970613E+01
 1.7255751E+01  2.3959927E+01
 1.7267250E+01  2.3949429E+01
 1.7278751E+01  2.3931934E+01
 1.7290251E+01  2.3951183E+01
 1.7301750E+01  2.3963306E+01
 1.7313251E+01  2.3976538E+01
 1.7324751E+01  2.4033985E+01
 1.7336250E+01  2.4056389E+01
 1.7347752E+01  2.4105442E+01
 1.7359251E+01  2.4184752E+01
 1.7370750E+01  2.4154119E+01
 1.7382252E+01  2.4109598E+01
 1.7393751E+01  2.4060070E+01
 1.7405251E+01  2.4066130E+01
 1.7416750E+01  2.4038137E+01
 1.7428251E+01  2.3994167E+01
 1.7439751E+01  2.3969511E+01
 1.7451250E+01  2.3867441E+01
 1.7462751E+01  2.3827179E+01
 1.7474251E+01  2.3808002E+01
 1.7485750E+01  2.3832056E+01
 1.7497252E+01  2.3770521E+01
 1.7508751E+01  2.3773771E+01
 1.7520250E+01  2.3756918E+01
 1.7531752E+01  2.3774820E+01
 1.7543251E+01  2.3803835E+01
 1.7554750E+01  2.3810160E+01
 1.7566252E+01  2.3822638E+01
 1.7577751E+01  2.3757307E+01
 1.7589251E+01  2.3707970E+01
 1.7600750E+01  2.3665922E+01
 1.7612251E+01  2.3679193E+01
 1.7623751E+01  2.3717857E+01
 1.7635250E+01  2.3707262E+01
 1.7646751E+01  2.3735483E+01
 1.7658251E+01  2.3691977E+01
 1.7669750E+01  2.3717531E+01
 1.7681252E+01  2.3677500E+01
 1.7692751E+01  2.3689909E+01
 1.7704250E+01  2.3668854E+01
 1.7715752E+01  2.3661850E+01
 1.7727251E+01  2.3685068E+01
 1.7738750E+01  2.3701092E+01
 1.7750252E+01  2.3722652E+01
 1.7761751E+01  2.3695051E+01
 1.7773251E+01  2.3689707E+01
 1.7784750E+01  2.3700794E+01
 1.7796251E+01  2.3770117E+01
 1.7807751E+01  2.3763624E+01
 1.7819250E+01  2.3725163E+01
 1.7830751E+01  2.3675701E+01
 1.7842251E+01  2.3714489E+01
 1.7853750E+01  2.3694361E+01
 1.7865252E+01  2.3694006E+01
 1.7876751E+01  2.3687296E+01
 1.7888250E+01  2.3715572E+01
 1.7899752E+01  2.3718195E+01
 1.7911251E+01  2.3725153E+01
 1.7922750E+01  2.3721796E+01
 1.7934252E+01  2.3683168E+01
 1.7945751E+01  2.3665691E+01
 1.7957251E+01  2.3674397E+01
 1.7968750E+01  2.3666334E+01
 1.7980251E+01  2.3732897E+01
 1.7991751E+01  2.3786327E+01
 1.8003250E+01  2.3887182E+01
 1.8014751E+01  2.3940243E+01
 1.8026251E+01  2.3929785E+01
 1.8037750E+01  2.3898649E+01
 1.8049252E+01  2.3884102E+01
 1.8060751E+01  2.3861666E+01
 1.8072250E+01  2.3776360E+01
 1.8083752E+01  2.3759125E+01
 1.8095251E+01  2.3814075E+01
 1.8106750E+01  2.3828035E+01
 1.8118252E+01  2.3935194E+01
 1.8129751E+01  2.3970369E+01
 1.8141251E+01  2.4020050E+01
 1.8152750E+01  2.3937967E+01
 1.8164251E+01  2.3822313E+01
 1.8175751E+01  2.3684549E+01
 1.8187250E+01  2.3589415E+01
 1.8198751E+01  2.3564787E+01
 1.8210251E+01  2.3555668E+01
 1.8221750E+01  2.3530365E+01
 1.8233252E+01  2.3463856E+01
 1.8244751E+01  2.3416460E+01
 1.8256250E+01  2.3428692E+01
 1.8267752E+01  2.3474937E+01
 1.8279251E+01  2.3497435E+01
 1.8290751E+01  2.3517889E+01
 1.8302252E+01  2.3530487E+01
 1.8313751E+01  2.3496271E+01
 1.8325251E+01  2.3476124E+01
 1.8336750E+01  2.3484570E+01
 1.8348251E+01  2.3531981E+01
 1.8359751E+01  2.3561886E+01
 1.8371250E+01  2.3579889E+01
 1.8382751E+01  2.3579620E+01
 1.8394251E+01  2.3565121E+01
 1.8405750E+01  2.3556919E+01
 1.8417252E+01  2.3538177E+01
 1.8428751E+01  2.3504845E+01
 1.8440250E+01  2.3513483E+01
 1.8451752E+01  2.3530680E+01
 1.8463251E+01  2.3552940E+01
 1.8474751E+01  2.3552708E+01
 1.8486252E+01  2.3493118E+01
 1.8497751E+01  2.3461855E+01
 1.8509251E+01  2.3434679E+01
 1.8520750E+01  2.3403109E+01
 1.8532251E+01  2.3373999E+01
 1.8543751E+01  2.3396666E+01
 1.8555250E+01  2.3475075E+01
 1.8566751E+01  2.3499886E+01
 1.8578251E+01  2.3539391E+01
 1.8589750E+01  2.3544592E+01
 1.8601252E+01  2.3546009E+01
 1.8612751E+01  2.3552567E+01
 1.8624250E+01  2.3494894E+01
 1.8635752E+01  2.3490055E+01
 1.8647251E+01  2.3435200E+01
 1.8658751E+01  2.3485603E+01
 1.8670252E+01  2.3477472E+01
 1.8681751E+01  2.3528257E+01
 1.8693251E+01  2.3542683E+01
 1.8704750E+01  2.3581203E+01
 1.8716251E+01  2.3573343E+01
 1.8727751E+01  2.3571838E+01
 1.8739250E+01  2.3517315E+01
 1.8750751E+01  2.3465298E+01
 1.8762251E+01  2.3424704E+01
 1.8773750E+01  2.3372763E+01
 1.8785252E+01  2.3341122E+01
 1.8796751E+01  2.3359274E+01
 1.8808250E+01  2.3380903E+01
 1.8819752E+01  2.3415054E+01
 1.8831251E+01  2.3418381E+01
 1.8842751E+01  2.3444099E+01
 1.8854252E+01  2.3410965E+01
 1.8865751E+01  2.3348612E+01
 1.8877251E+01  2.3337025E+01
 1.8888750E+01  2.3364817E+01
 1.8900251E+01  2.3418791E+01
 1.8911751E+01  2.3457531E+01
 1.8923250E+01  2.3511377E+01
 1.8934752E+01  2.3572285E+01
 1.8946251E+01  2.3636574E+01
 1.8957750E+01  2.3582523E+01
 1.8969252E+01  2.3528755E+01
 1.8980751E+01  2.3447733E+01
 1.8992250E+01  2.3455839E+01
 1.9003752E+01  2.3457323E+01
 1.9015251E+01  2.3490179E+01
 1.9026751E+01  2.3504154E+01
 1.9038252E+01  2.3500086E+01
 1.9049751E+01  2.3474211E+01
 1.9061251E+01  2.3449257E+01
 1.9072750E+01  2.3474007E+01
 1.9084251E+01  2.3478727E+01
 1.9095751E+01  2.3472679E+01
 1.9107250E+01  2.3403225E+01
 1.9118752E+01  2.3342546E+01
 1.9130251E+01  2.3338833E+01
 1.9141750E+01  2.3352757E+01
 1.9153252E+01  2.3431522E+01
 1.9164751E+01  2.3457767E+01
 1.9176250E+01  2.3487232E+01
 1.9187752E+01  2.3525370E+01
 1.9199251E+01  2.3559227E+01
 1.9210751E+01  2.3544977E+01
 1.9222252E+01  2.3467180E+01
 1.9233751E+01  2.3390598E+01
 1.9245251E+01  2.3415329E+01
 1.9256750E+01  2.3459110E+01
 1.9268251E+01  2.3496996E+01
 1.9279751E+01  2.3493204E+01
 1.9291250E+01  2.3531981E+01
 1.9302752E+01  2.3572001E+01
 1.9314251E+01  2.3589363E+01
 1.9325750E+01  2.3587523E+01
 1.9337252E+01  2.3558247E+01
 1.9348751E+01  2.3526690E+01
 1.9360250E+01  2.3510525E+01
 1.9371752E+01  2.3531754E+01
 1.9383251E+01  2.3547037E+01
 1.9394751E+01  2.3577463E+01
 1.9406250E+01  2.3573940E+01
 1.9417751E+01  2.3592239E+01
 1.9429251E+01  2.3562281E+01
 1.9440750E+01  2.3573149E+01
 1.9452251E+01  2.3545664E+01
 1.9463751E+01  2.3565948E+01
 1.9475250E+01  2.3564842E+01
 1.9486752E+01  2.3566959E+01
 1.9498251E+01  2.3552883E+01
 1.9509750E+01  2.3557220E+01
 1.9521252E+01  2.3624178E+01
 1.9532751E+01  2.3656782E+01
 1.9544250E+01  2.3712557E+01
 1.9555752E+01  2.3754089E+01
 1.9567251E+01  2.3740009E+01
 1.9578751E+01  2.3803453E+01
 1.9590250E+01  2.3746986E+01
 1.9601751E+01  2.3814894E+01
 1.9613251E+01  2.3804861E+01
 1.9624750E+01  2.3898300E+01
 1.9636251E+01  2.3989992E+01
 1.9647751E+01  2.3920988E+01
 1.9659250E+01  2.3964661E+01
 1.9670752E+01  2.3888391E+01
 1.9682251E+01  2.3990252E+01
 1.9693750E+01  2.4097364E+01
 1.9705252E+01  2.4230600E+01
 1.9716751E+01  2.4336748E+01
 1.9728251E+01  2.4336042E+01
 1.9739752E+01  2.4295200E+01
 1.9751251E+01  2.4223793E+01
 1.9762751E+01  2.4134361E+01
 1.9774250E+01  2.4003468E+01
 1.9785751E+01  2.3894672E+01
 1.9797251E+01  2.3927778E+01
 1.9808750E+01  2.4083384E+01
 1.9820251E+01  2.4265507E+01
 1.9831751E+01  2.4418133E+01
 1.9843250E+01  2.4439693E+01
 1.9854752E+01  2.4421986E+01
 1.9866251E+01  2.4358919E+01
 1.9877750E+01  2.4372038E+01
 1.9889252E+01  2.4355267E+01
 1.9900751E+01  2.4303757E+01
 1.9912251E+01  2.4264292E+01
 1.9923752E+01  2.4126455E+01
 1.9935251E+01  2.3973211E+01
 1.9946751E+01  2.3806398E+01
 1.9958250E+01  2.3759987E+01
 1.9969751E+01  2.3746971E+01
 1.9981251E+01  2.3705456E+01
 1.9992750E+01  2.3671875E+01
 2.0004251E+01  2.3627115E+01
 2.0015751E+01  2.3621586E+01
 2.0027250E+01  2.3604784E+01
 2.0038752E+01  2.3562660E+01
 2.0050251E+01  2.3546562E+01
 2.0061750E+01  2.3578751E+01
 2.0073252E+01  2.3611685E+01
 2.0084751E+01  2.3602667E+01
 2.0096251E+01  2.3606329E+01
 2.0107752E+01  2.3589479E+01
 2.0119251E+01  2.3566898E+01
 2.0130751E+01  2.3543348E+01
 2.0142250E+01  2.3546061E+01
 2.0153751E+01  2.3494108E+01
 2.0165251E+01  2.3473421E+01
 2.0176750E+01  2.3483591E+01
 2.0188251E+01  2.3494909E+01
 2.0199751E+01  2.3462309E+01
 2.0211250E+01  2.3506241E+01
 2.0222752E+01  2.3579594E+01
 2.0234251E+01  2.3637295E+01
 2.0245750E+01  2.3692913E+01
 2.0257252E+01  2.3707333E+01
 2.0268751E+01  2.3695852E+01
 2.0280251E+01  2.3659044E+01
 2.0291752E+01  2.3628054E+01
 2.0303251E+01  2.3599737E+01
 2.0314751E+01  2.3587940E+01
 2.0326250E+01  2.3615904E+01
 2.0337751E+01  2.3675259E+01
 2.0349251E+01  2.3716000E+01
 2.0360750E+01  2.3736753E+01
 2.0372252E+01  2.3679512E+01
 2.0383751E+01  2.3672001E+01
 2.0395250E+01  2.3687750E+01
 2.0406752E+01  2.3733456E+01
 2.0418251E+01  2.3757277E+01
 2.0429750E+01  2.3779739E+01
 2.0441252E+01  2.3738783E+01
 2.0452751E+01  2.3722275E+01
 2.0464251E+01  2.3747398E+01
 2.0475752E+01  2.3779535E+01
 2.0487251E+01  2.3775761E+01
 2.0498751E+01  2.3734005E+01
 2.0510250E+01  2.3650812E+01
 2.0521751E+01  2.3582846E+01
 2.0533251E+01  2.3520071E+01
 2.0544750E+01  2.3561428E+01
 2.0556252E+01  2.3603006E+01
 2.0567751E+01  2.3641001E+01
 2.0579250E+01  2.3647552E+01
 2.0590752E+01  2.3685343E+01
 2.0602251E+01  2.3710859E+01
 2.0613750E+01  2.3729595E+01
 2.0625252E+01  2.3715534E+01
 2.0636751E+01  2.3684010E+01
 2.0648251E+01  2.3674583E+01
 2.0659752E+01  2.3691900E+01
 2.0671251E+01  2.3736475E+01
 2.0682751E+01  2.3789564E+01
 2.0694250E+01  2.3832428E+01
 2.0705751E+01  2.3860533E+01
 2.0717251E+01  2.3929586E+01
 2.0728750E+01  2.4039413E+01
 2.0740252E+01  2.4159069E+01
 2.0751751E+01  2.4258570E+01
 2.0763250E+01  2.4307644E+01
 2.0774752E+01  2.4252924E+01
 2.0786251E+01  2.4136459E+01
 2.0797750E+01  2.4060646E+01
 2.0809252E+01  2.3983290E+01
 2.0820751E+01  2.3906532E+01
 2.0832251E+01  2.3841982E+01
 2.0843752E+01  2.3824671E+01
 2.0855251E+01  2.3774788E+01
 2.0866751E+01  2.3755856E+01
 2.0878250E+01  2.3776419E+01
 2.0889751E+01  2.3813274E+01
 2.0901251E+01  2.3873560E+01
 2.0912750E+01  2.3894833E+01
 2.0924252E+01  2.3868704E+01
 2.0935751E+01  2.3811096E+01
 2.0947250E+01  2.3804485E+01
 2.0958752E+01  2.3792746E+01
 2.0970251E+01  2.3773651E+01
 2.0981750E+01  2.3739307E+01
 2.0993252E+01  2.3699627E+01
 2.1004751E+01  2.3689919E+01
 2.1016251E+01  2.3702147E+01
 2.1027752E+01  2.3797268E+01
 2.1039251E+01  2.3839653E+01
 2.1050751E+01  2.3855171E+01
 2.1062250E+01  2.3890963E+01
 2.1073751E+01  2.3868519E+01
 2.1085251E+01  2.3870199E+01
 2.1096750E+01  2.3802673E+01
 2.1108252E+01  2.3809151E+01
 2.1119751E+01  2.3848419E+01
 2.1131250E+01  2.3799307E+01
 2.1142752E+01  2.3718225E+01
 2.1154251E+01  2.3646809E+01
 2.1165751E+01  2.3673979E+01
 2.1177252E+01  2.3729141E+01
 2.1188751E+01  2.3796675E+01
 2.1200251E+01  2.3840517E+01
 2.1211752E+01  2.3850697E+01
 2.1223251E+01  2.3867424E+01
 2.1234751E+01  2.3871269E+01
 2.1246250E+01  2.3939608E+01
 2.1257751E+01  2.3965569E+01
 2.1269251E+01  2.3989901E+01
 2.1280750E+01  2.3983187E+01
 2.1292252E+01  2.4190348E+01
 2.1303751E+01  2.4209173E+01
 2.1315250E+01  2.4514393E+01
 2.1326752E+01  2.4454008E+01
 2.1338251E+01  2.4459316E+01
 2.1349751E+01  2.4361832E+01
 2.1361252E+01  2.4176096E+01
 2.1372751E+01  2.4197464E+01
 2.1384251E+01  2.4033806E+01
 2.1395752E+01  2.4028328E+01
 2.1407251E+01  2.3913105E+01
 2.1418751E+01  2.3920956E+01
 2.1430250E+01  2.3889080E+01
 2.1441751E+01  2.3890640E+01
 2.1453251E+01  2.3875513E+01
 2.1464750E+01  2.3837227E+01
 2.1476252E+01  2.3846468E+01
 2.1487751E+01  2.3897547E+01
 2.1499250E+01  2.3940279E+01
 2.1510752E+01  2.3934008E+01
 2.1522251E+01  2.3931353E+01
 2.1533751E+01  2.3935932E+01
 2.1545252E+01  2.3978354E+01
 2.1556751E+01  2.3959444E+01
 2.1568251E+01  2.3932350E+01
 2.1579752E+01  2.3924141E+01
 2.1591251E+01  2.3980547E+01
 2.1602751E+01  2.3994341E+01
 2.1614250E+01  2.3996531E+01
 2.1625751E+01  2.3998039E+01
 2.1637251E+01  2.4002096E+01
 2.1648750E+01  2.4003300E+01
 2.1660252E+01  2.4026894E+01
 2.1671751E+01  2.4054565E+01
 2.1683250E+01  2.4030603E+01
 2.1694752E+01  2.3984013E+01
 2.1706251E+01  2.3969721E+01
 2.1717751E+01  2.3977074E+01
 2.1729252E+01  2.3969875E+01
 2.1740751E+01  2.4001945E+01
 2.1752251E+01  2.3992687E+01
 2.1763752E+01  2.4004536E+01
 2.1775251E+01  2.4005648E+01
 2.1786751E+01  2.4016182E+01
 2.1798250E+01  2.4025383E+01
 2.1809752E+01  2.4063114E+01
 2.1821251E+01  2.4056877E+01
 2.1832750E+01  2.4024607E+01
 2.1844252E+01  2.4025974E+01
 2.1855751E+01  2.4083000E+01
 2.1867250E+01  2.4113054E+01
 2.1878752E+01  2.4095793E+01
 2.1890251E+01  2.4101793E+01
 2.1901751E+01  2.4088121E+01
 2.1913252E+01  2.4117109E+01
 2.1924751E+01  2.4064451E+01
 2.1936251E+01  2.4100533E+01
 2.1947752E+01  2.4095583E+01
 2.1959251E+01  2.4111338E+01
 2.1970751E+01  2.4159203E+01
 2.1982250E+01  2.4173004E+01
 2.1993752E+01  2.4200321E+01
 2.2005251E+01  2.4237898E+01
 2.2016750E+01  2.4289635E+01
 2.2028252E+01  2.4283838E+01
 2.2039751E+01  2.4211344E+01
 2.2051250E+01  2.4180330E+01
 2.2062752E+01  2.4190180E+01
 2.2074251E+01  2.4232370E+01
 2.2085751E+01  2.4245424E+01
 2.2097252E+01  2.4202635E+01
 2.2108751E+01  2.4151279E+01
 2.2120251E+01  2.4154509E+01
 2.2131752E+01  2.4176035E+01
 2.2143251E+01  2.4197683E+01
 2.2154751E+01  2.4201969E+01
 2.2166250E+01  2.4207161E+01
 2.2177752E+01  2.4205158E+01
 2.2189251E+01  2.4157761E+01
 2.2200750E+01  2.4183847E+01
 2.2212252E+01  2.4213427E+01
 2.2223751E+01  2.4248789E+01
 2.2235250E+01  2.4257011E+01
 2.2246752E+01  2.4224369E+01
 2.2258251E+01  2.4248514E+01
 2.2269751E+01  2.4257742E+01
 2.2281252E+01  2.4336121E+01
 2.2292751E+01  2.4335899E+01
 2.2304251E+01  2.4368584E+01
 2.2315752E+01  2.4374573E+01
 2.2327251E+01  2.4399401E+01
 2.2338751E+01  2.4395573E+01
 2.2350250E+01  2.4379877E+01
 2.2361752E+01  2.4359568E+01
 2.2373251E+01  2.4362783E+01
 2.2384750E+01  2.4360926E+01
 2.2396252E+01  2.4361414E+01
 2.2407751E+01  2.4347364E+01
 2.2419250E+01  2.4397984E+01
 2.2430752E+01  2.4453165E+01
 2.2442251E+01  2.4509533E+01
 2.2453751E+01  2.4555212E+01
 2.2465252E+01  2.4561251E+01
 2.2476751E+01  2.4497206E+01
 2.2488251E+01  2.4475819E+01
 2.2499752E+01  2.4448959E+01
 2.2511251E+01  2.4451508E+01
 2.2522751E+01  2.4498436E+01
 2.2534250E+01  2.4585913E+01
 2.2545752E+01  2.4678665E+01
 2.2557251E+01  2.4701862E+01
 2.2568750E+01  2.4699980E+01
 2.2580252E+01  2.4667185E+01
 2.2591751E+01  2.4668474E+01
 2.2603251E+01  2.4727695E+01
 2.2614752E+01  2.4811871E+01
 2.2626251E+01  2.4863197E+01
 2.2637751E+01  2.4845390E+01
 2.2649252E+01  2.4843517E+01
 2.2660751E+01  2.4830507E+01
 2.2672251E+01  2.4803202E+01
 2.2683752E+01  2.4834772E+01
 2.2695251E+01  2.4933294E+01
 2.2706751E+01  2.4975950E+01
 2.2718250E+01  2.5016563E+01
 2.2729752E+01  2.5026857E+01
 2.2741251E+01  2.5070105E+01
 2.2752750E+01  2.5055006E+01
 2.2764252E+01  2.5058252E+01
 2.2775751E+01  2.5034233E+01
 2.2787251E+01  2.4990969E+01
 2.2798752E+01  2.5054152E+01
 2.2810251E+01  2.5164881E+01
 2.2821751E+01  2.5263710E+01
 2.2833252E+01  2.5325623E+01
 2.2844751E+01  2.5371399E+01
 2.2856251E+01  2.5399963E+01
 2.2867750E+01  2.5518684E+01
 2.2879251E+01  2.5581846E+01
 2.2890751E+01  2.5633829E+01
 2.2902250E+01  2.5608181E+01
 2.2913752E+01  2.5704000E+01
 2.2925251E+01  2.5770771E+01
 2.2936750E+01  2.5807117E+01
 2.2948252E+01  2.5812082E+01
 2.2959751E+01  2.5828211E+01
 2.2971251E+01  2.5895849E+01
 2.2982752E+01  2.5935730E+01
 2.2994251E+01  2.6043118E+01
