F:\20151113_APS_34IDE\\Brian\Particle1\OCV\Data_0052.tif
2-Theta Angle (Degrees)
Intensity
       2000
 5.7500005E-03  0.0000000E+00
 1.7250001E-02  0.0000000E+00
 2.8750001E-02  0.0000000E+00
 4.0250003E-02  0.0000000E+00
 5.1750004E-02  0.0000000E+00
 6.3250005E-02  0.0000000E+00
 7.4750006E-02  0.0000000E+00
 8.6250007E-02  0.0000000E+00
 9.7750008E-02  0.0000000E+00
 1.0925001E-01  0.0000000E+00
 1.2075000E-01  0.0000000E+00
 1.3225001E-01  0.0000000E+00
 1.4375001E-01  0.0000000E+00
 1.5525001E-01  0.0000000E+00
 1.6675001E-01  0.0000000E+00
 1.7825001E-01  0.0000000E+00
 1.8975002E-01  0.0000000E+00
 2.0125002E-01  0.0000000E+00
 2.1275002E-01  0.0000000E+00
 2.2425000E-01  0.0000000E+00
 2.3575000E-01  0.0000000E+00
 2.4725001E-01  0.0000000E+00
 2.5875002E-01  0.0000000E+00
 2.7025002E-01  0.0000000E+00
 2.8175002E-01  0.0000000E+00
 2.9325002E-01  0.0000000E+00
 3.0475003E-01  0.0000000E+00
 3.1625003E-01  0.0000000E+00
 3.2775003E-01  0.0000000E+00
 3.3925003E-01  0.0000000E+00
 3.5075003E-01  0.0000000E+00
 3.6225003E-01  0.0000000E+00
 3.7375003E-01  0.0000000E+00
 3.8525003E-01  0.0000000E+00
 3.9675003E-01  0.0000000E+00
 4.0825003E-01  0.0000000E+00
 4.1975003E-01  0.0000000E+00
 4.3125004E-01  0.0000000E+00
 4.4275001E-01  0.0000000E+00
 4.5425001E-01  0.0000000E+00
 4.6575001E-01  0.0000000E+00
 4.7725001E-01  0.0000000E+00
 4.8875001E-01  0.0000000E+00
 5.0025004E-01  0.0000000E+00
 5.1175004E-01  0.0000000E+00
 5.2325004E-01  0.0000000E+00
 5.3475004E-01  0.0000000E+00
 5.4625005E-01  0.0000000E+00
 5.5775005E-01  0.0000000E+00
 5.6925005E-01  0.0000000E+00
 5.8075005E-01  0.0000000E+00
 5.9225005E-01  0.0000000E+00
 6.0375005E-01  0.0000000E+00
 6.1525005E-01  0.0000000E+00
 6.2675005E-01  0.0000000E+00
 6.3825005E-01  0.0000000E+00
 6.4975005E-01  0.0000000E+00
 6.6125005E-01  0.0000000E+00
 6.7275006E-01  0.0000000E+00
 6.8425006E-01  0.0000000E+00
 6.9575006E-01  0.0000000E+00
 7.0725006E-01  0.0000000E+00
 7.1875006E-01  0.0000000E+00
 7.3025006E-01  0.0000000E+00
 7.4175006E-01  0.0000000E+00
 7.5325006E-01  0.0000000E+00
 7.6475006E-01  0.0000000E+00
 7.7625006E-01  0.0000000E+00
 7.8775007E-01  0.0000000E+00
 7.9925007E-01  0.0000000E+00
 8.1075007E-01  0.0000000E+00
 8.2225007E-01  0.0000000E+00
 8.3375007E-01  0.0000000E+00
 8.4525007E-01  0.0000000E+00
 8.5675007E-01  0.0000000E+00
 8.6825007E-01  0.0000000E+00
 8.7975001E-01  0.0000000E+00
 8.9125001E-01  0.0000000E+00
 9.0275002E-01  0.0000000E+00
 9.1425002E-01  0.0000000E+00
 9.2575002E-01  0.0000000E+00
 9.3725002E-01  0.0000000E+00
 9.4875002E-01  0.0000000E+00
 9.6025002E-01  0.0000000E+00
 9.7175002E-01  0.0000000E+00
 9.8325002E-01  0.0000000E+00
 9.9475002E-01  0.0000000E+00
 1.0062500E+00  0.0000000E+00
 1.0177500E+00  0.0000000E+00
 1.0292500E+00  0.0000000E+00
 1.0407500E+00  0.0000000E+00
 1.0522500E+00  0.0000000E+00
 1.0637500E+00  0.0000000E+00
 1.0752500E+00  0.0000000E+00
 1.0867500E+00  0.0000000E+00
 1.0982500E+00  0.0000000E+00
 1.1097500E+00  0.0000000E+00
 1.1212500E+00  0.0000000E+00
 1.1327500E+00  0.0000000E+00
 1.1442500E+00  0.0000000E+00
 1.1557500E+00  0.0000000E+00
 1.1672500E+00  0.0000000E+00
 1.1787500E+00  0.0000000E+00
 1.1902500E+00  0.0000000E+00
 1.2017500E+00  0.0000000E+00
 1.2132500E+00  0.0000000E+00
 1.2247500E+00  0.0000000E+00
 1.2362500E+00  0.0000000E+00
 1.2477500E+00  0.0000000E+00
 1.2592500E+00  0.0000000E+00
 1.2707500E+00  0.0000000E+00
 1.2822500E+00  0.0000000E+00
 1.2937500E+00  0.0000000E+00
 1.3052500E+00  0.0000000E+00
 1.3167500E+00  0.0000000E+00
 1.3282501E+00  0.0000000E+00
 1.3397501E+00  0.0000000E+00
 1.3512501E+00  0.0000000E+00
 1.3627501E+00  0.0000000E+00
 1.3742501E+00  0.0000000E+00
 1.3857501E+00  0.0000000E+00
 1.3972501E+00  0.0000000E+00
 1.4087501E+00  0.0000000E+00
 1.4202501E+00  0.0000000E+00
 1.4317501E+00  0.0000000E+00
 1.4432501E+00  0.0000000E+00
 1.4547501E+00  0.0000000E+00
 1.4662501E+00  0.0000000E+00
 1.4777501E+00  0.0000000E+00
 1.4892501E+00  0.0000000E+00
 1.5007501E+00  0.0000000E+00
 1.5122501E+00  0.0000000E+00
 1.5237501E+00  0.0000000E+00
 1.5352501E+00  0.0000000E+00
 1.5467501E+00  0.0000000E+00
 1.5582501E+00  0.0000000E+00
 1.5697501E+00  0.0000000E+00
 1.5812501E+00  0.0000000E+00
 1.5927501E+00  0.0000000E+00
 1.6042501E+00  0.0000000E+00
 1.6157501E+00  0.0000000E+00
 1.6272501E+00  0.0000000E+00
 1.6387501E+00  0.0000000E+00
 1.6502501E+00  0.0000000E+00
 1.6617501E+00  0.0000000E+00
 1.6732501E+00  0.0000000E+00
 1.6847501E+00  0.0000000E+00
 1.6962501E+00  0.0000000E+00
 1.7077501E+00  0.0000000E+00
 1.7192501E+00  0.0000000E+00
 1.7307501E+00  0.0000000E+00
 1.7422501E+00  0.0000000E+00
 1.7537501E+00  0.0000000E+00
 1.7652501E+00  0.0000000E+00
 1.7767501E+00  0.0000000E+00
 1.7882501E+00  0.0000000E+00
 1.7997501E+00  0.0000000E+00
 1.8112501E+00  0.0000000E+00
 1.8227501E+00  0.0000000E+00
 1.8342501E+00  0.0000000E+00
 1.8457501E+00  0.0000000E+00
 1.8572501E+00  0.0000000E+00
 1.8687501E+00  0.0000000E+00
 1.8802501E+00  0.0000000E+00
 1.8917501E+00  0.0000000E+00
 1.9032501E+00  0.0000000E+00
 1.9147501E+00  0.0000000E+00
 1.9262501E+00  0.0000000E+00
 1.9377501E+00  0.0000000E+00
 1.9492501E+00  0.0000000E+00
 1.9607501E+00  0.0000000E+00
 1.9722501E+00  0.0000000E+00
 1.9837501E+00  0.0000000E+00
 1.9952501E+00  0.0000000E+00
 2.0067501E+00  0.0000000E+00
 2.0182500E+00  0.0000000E+00
 2.0297501E+00  0.0000000E+00
 2.0412500E+00  0.0000000E+00
 2.0527501E+00  0.0000000E+00
 2.0642500E+00  0.0000000E+00
 2.0757501E+00  0.0000000E+00
 2.0872500E+00  0.0000000E+00
 2.0987501E+00  0.0000000E+00
 2.1102500E+00  0.0000000E+00
 2.1217501E+00  0.0000000E+00
 2.1332500E+00  0.0000000E+00
 2.1447501E+00  0.0000000E+00
 2.1562500E+00  0.0000000E+00
 2.1677501E+00  0.0000000E+00
 2.1792500E+00  0.0000000E+00
 2.1907501E+00  0.0000000E+00
 2.2022500E+00  0.0000000E+00
 2.2137501E+00  0.0000000E+00
 2.2252500E+00  0.0000000E+00
 2.2367501E+00  0.0000000E+00
 2.2482500E+00  0.0000000E+00
 2.2597501E+00  0.0000000E+00
 2.2712500E+00  0.0000000E+00
 2.2827501E+00  0.0000000E+00
 2.2942500E+00  0.0000000E+00
 2.3057501E+00  0.0000000E+00
 2.3172500E+00  0.0000000E+00
 2.3287501E+00  0.0000000E+00
 2.3402500E+00  0.0000000E+00
 2.3517501E+00  0.0000000E+00
 2.3632500E+00  0.0000000E+00
 2.3747501E+00  0.0000000E+00
 2.3862500E+00  0.0000000E+00
 2.3977501E+00  0.0000000E+00
 2.4092500E+00  0.0000000E+00
 2.4207501E+00  0.0000000E+00
 2.4322500E+00  0.0000000E+00
 2.4437501E+00  0.0000000E+00
 2.4552500E+00  0.0000000E+00
 2.4667501E+00  0.0000000E+00
 2.4782500E+00  0.0000000E+00
 2.4897501E+00  0.0000000E+00
 2.5012500E+00  0.0000000E+00
 2.5127501E+00  0.0000000E+00
 2.5242500E+00  0.0000000E+00
 2.5357502E+00  0.0000000E+00
 2.5472500E+00  0.0000000E+00
 2.5587502E+00  0.0000000E+00
 2.5702500E+00  0.0000000E+00
 2.5817502E+00  0.0000000E+00
 2.5932500E+00  0.0000000E+00
 2.6047502E+00  0.0000000E+00
 2.6162500E+00  0.0000000E+00
 2.6277502E+00  0.0000000E+00
 2.6392500E+00  0.0000000E+00
 2.6507502E+00  0.0000000E+00
 2.6622500E+00  0.0000000E+00
 2.6737502E+00  0.0000000E+00
 2.6852500E+00  0.0000000E+00
 2.6967502E+00  0.0000000E+00
 2.7082500E+00  0.0000000E+00
 2.7197502E+00  0.0000000E+00
 2.7312500E+00  0.0000000E+00
 2.7427502E+00  0.0000000E+00
 2.7542500E+00  0.0000000E+00
 2.7657502E+00  0.0000000E+00
 2.7772501E+00  0.0000000E+00
 2.7887502E+00  0.0000000E+00
 2.8002501E+00  0.0000000E+00
 2.8117502E+00  0.0000000E+00
 2.8232501E+00  3.3226295E+01
 2.8347502E+00  3.4412502E+01
 2.8462501E+00  3.5056923E+01
 2.8577502E+00  3.5257309E+01
 2.8692501E+00  3.5812969E+01
 2.8807502E+00  3.6118279E+01
 2.8922501E+00  3.6449238E+01
 2.9037502E+00  3.6470638E+01
 2.9152501E+00  3.6170273E+01
 2.9267502E+00  3.5806698E+01
 2.9382501E+00  3.5232048E+01
 2.9497502E+00  3.5467064E+01
 2.9612501E+00  3.5437710E+01
 2.9727502E+00  3.5488747E+01
 2.9842501E+00  3.5480480E+01
 2.9957502E+00  3.5632107E+01
 3.0072501E+00  3.6094967E+01
 3.0187502E+00  3.6134312E+01
 3.0302501E+00  3.6036366E+01
 3.0417502E+00  3.6067635E+01
 3.0532501E+00  3.6194523E+01
 3.0647502E+00  3.6348175E+01
 3.0762501E+00  3.6225700E+01
 3.0877502E+00  3.5897495E+01
 3.0992501E+00  3.5687958E+01
 3.1107502E+00  3.5423969E+01
 3.1222501E+00  3.5416233E+01
 3.1337502E+00  3.5373001E+01
 3.1452501E+00  3.5430313E+01
 3.1567502E+00  3.5647240E+01
 3.1682501E+00  3.5595779E+01
 3.1797502E+00  3.5727085E+01
 3.1912501E+00  3.5453938E+01
 3.2027502E+00  3.5592186E+01
 3.2142501E+00  3.5373116E+01
 3.2257502E+00  3.5252609E+01
 3.2372501E+00  3.4962238E+01
 3.2487502E+00  3.4658581E+01
 3.2602501E+00  3.4975643E+01
 3.2717502E+00  3.4626308E+01
 3.2832501E+00  3.4889065E+01
 3.2947502E+00  3.4389908E+01
 3.3062501E+00  3.4446869E+01
 3.3177502E+00  3.4329525E+01
 3.3292501E+00  3.4686398E+01
 3.3407502E+00  3.4884682E+01
 3.3522501E+00  3.5258965E+01
 3.3637502E+00  3.4821846E+01
 3.3752501E+00  3.4749695E+01
 3.3867502E+00  3.4485359E+01
 3.3982501E+00  3.4708984E+01
 3.4097502E+00  3.4933239E+01
 3.4212501E+00  3.5075558E+01
 3.4327502E+00  3.4650738E+01
 3.4442501E+00  3.4769588E+01
 3.4557502E+00  3.4527737E+01
 3.4672501E+00  3.4557941E+01
 3.4787502E+00  3.4470654E+01
 3.4902501E+00  3.4647697E+01
 3.5017502E+00  3.4589561E+01
 3.5132501E+00  3.4343361E+01
 3.5247502E+00  3.3935741E+01
 3.5362501E+00  3.3876640E+01
 3.5477502E+00  3.3731518E+01
 3.5592501E+00  3.3722107E+01
 3.5707502E+00  3.3545452E+01
 3.5822501E+00  3.3402382E+01
 3.5937502E+00  3.3305836E+01
 3.6052501E+00  3.3419952E+01
 3.6167502E+00  3.3657875E+01
 3.6282501E+00  3.3512077E+01
 3.6397502E+00  3.3331570E+01
 3.6512501E+00  3.3174500E+01
 3.6627502E+00  3.3102924E+01
 3.6742501E+00  3.3033791E+01
 3.6857502E+00  3.2848152E+01
 3.6972501E+00  3.2766819E+01
 3.7087502E+00  3.2718857E+01
 3.7202501E+00  3.2824745E+01
 3.7317502E+00  3.3051022E+01
 3.7432501E+00  3.3163799E+01
 3.7547503E+00  3.3172829E+01
 3.7662501E+00  3.3121952E+01
 3.7777503E+00  3.2907593E+01
 3.7892501E+00  3.2855824E+01
 3.8007503E+00  3.2794617E+01
 3.8122501E+00  3.2879848E+01
 3.8237503E+00  3.2800686E+01
 3.8352501E+00  3.2763790E+01
 3.8467503E+00  3.2788181E+01
 3.8582501E+00  3.2514809E+01
 3.8697503E+00  3.2419937E+01
 3.8812501E+00  3.2479748E+01
 3.8927503E+00  3.2591293E+01
 3.9042501E+00  3.2658047E+01
 3.9157503E+00  3.2606850E+01
 3.9272501E+00  3.2686085E+01
 3.9387503E+00  3.2589954E+01
 3.9502501E+00  3.2628735E+01
 3.9617503E+00  3.2659721E+01
 3.9732502E+00  3.2711807E+01
 3.9847503E+00  3.2794273E+01
 3.9962502E+00  3.2889984E+01
 4.0077500E+00  3.3147812E+01
 4.0192504E+00  3.3231903E+01
 4.0307503E+00  3.3131348E+01
 4.0422502E+00  3.3177605E+01
 4.0537500E+00  3.3054600E+01
 4.0652504E+00  3.3135689E+01
 4.0767503E+00  3.3147625E+01
 4.0882502E+00  3.3201298E+01
 4.0997500E+00  3.3078323E+01
 4.1112504E+00  3.2948105E+01
 4.1227503E+00  3.2637222E+01
 4.1342502E+00  3.2637920E+01
 4.1457500E+00  3.2490070E+01
 4.1572504E+00  3.2434696E+01
 4.1687503E+00  3.2264458E+01
 4.1802502E+00  3.2240547E+01
 4.1917500E+00  3.2318932E+01
 4.2032504E+00  3.2472366E+01
 4.2147503E+00  3.2611507E+01
 4.2262502E+00  3.2712788E+01
 4.2377501E+00  3.2674610E+01
 4.2492504E+00  3.2572880E+01
 4.2607503E+00  3.2626270E+01
 4.2722502E+00  3.2505260E+01
 4.2837501E+00  3.2497757E+01
 4.2952504E+00  3.2272888E+01
 4.3067503E+00  3.2279999E+01
 4.3182502E+00  3.2259743E+01
 4.3297501E+00  3.2316162E+01
 4.3412504E+00  3.2421204E+01
 4.3527503E+00  3.2436993E+01
 4.3642502E+00  3.2483452E+01
 4.3757501E+00  3.2317131E+01
 4.3872504E+00  3.2406849E+01
 4.3987503E+00  3.2367668E+01
 4.4102502E+00  3.2502018E+01
 4.4217501E+00  3.2526974E+01
 4.4332504E+00  3.2709484E+01
 4.4447503E+00  3.2604168E+01
 4.4562502E+00  3.2715401E+01
 4.4677501E+00  3.2653725E+01
 4.4792504E+00  3.2718231E+01
 4.4907503E+00  3.2586140E+01
 4.5022502E+00  3.2540058E+01
 4.5137501E+00  3.2447021E+01
 4.5252504E+00  3.2468369E+01
 4.5367503E+00  3.2466434E+01
 4.5482502E+00  3.2603188E+01
 4.5597501E+00  3.2710209E+01
 4.5712504E+00  3.2743885E+01
 4.5827503E+00  3.2869061E+01
 4.5942502E+00  3.2825207E+01
 4.6057501E+00  3.2850109E+01
 4.6172504E+00  3.2755432E+01
 4.6287503E+00  3.2842388E+01
 4.6402502E+00  3.2947151E+01
 4.6517501E+00  3.3043102E+01
 4.6632504E+00  3.3179592E+01
 4.6747503E+00  3.3087708E+01
 4.6862502E+00  3.3139442E+01
 4.6977501E+00  3.2983627E+01
 4.7092505E+00  3.2724236E+01
 4.7207503E+00  3.2431202E+01
 4.7322502E+00  3.2259357E+01
 4.7437501E+00  3.2247890E+01
 4.7552505E+00  3.2300121E+01
 4.7667503E+00  3.2530827E+01
 4.7782502E+00  3.2660980E+01
 4.7897501E+00  3.2837437E+01
 4.8012505E+00  3.2856441E+01
 4.8127503E+00  3.2931255E+01
 4.8242502E+00  3.2903446E+01
 4.8357501E+00  3.2864307E+01
 4.8472505E+00  3.2923138E+01
 4.8587503E+00  3.3072632E+01
 4.8702502E+00  3.3076752E+01
 4.8817501E+00  3.2984859E+01
 4.8932505E+00  3.2906570E+01
 4.9047503E+00  3.2842655E+01
 4.9162502E+00  3.2875793E+01
 4.9277501E+00  3.2874546E+01
 4.9392505E+00  3.2902393E+01
 4.9507504E+00  3.2875999E+01
 4.9622502E+00  3.2905418E+01
 4.9737501E+00  3.2965748E+01
 4.9852505E+00  3.3037113E+01
 4.9967504E+00  3.3026836E+01
 5.0082502E+00  3.3092148E+01
 5.0197501E+00  3.3032490E+01
 5.0312505E+00  3.3074860E+01
 5.0427504E+00  3.3117970E+01
 5.0542502E+00  3.3221100E+01
 5.0657501E+00  3.3358482E+01
 5.0772505E+00  3.3370010E+01
 5.0887504E+00  3.3440182E+01
 5.1002502E+00  3.3349934E+01
 5.1117501E+00  3.3257004E+01
 5.1232505E+00  3.3089130E+01
 5.1347504E+00  3.3173977E+01
 5.1462502E+00  3.3337009E+01
 5.1577501E+00  3.3462009E+01
 5.1692505E+00  3.3661991E+01
 5.1807504E+00  3.3711956E+01
 5.1922503E+00  3.3965572E+01
 5.2037501E+00  3.3977333E+01
 5.2152505E+00  3.4141666E+01
 5.2267504E+00  3.4209274E+01
 5.2382503E+00  3.4342148E+01
 5.2497501E+00  3.4345856E+01
 5.2612505E+00  3.4426861E+01
 5.2727504E+00  3.4350136E+01
 5.2842503E+00  3.4402332E+01
 5.2957501E+00  3.4360229E+01
 5.3072500E+00  3.4294674E+01
 5.3187504E+00  3.4214638E+01
 5.3302503E+00  3.4081085E+01
 5.3417501E+00  3.4095200E+01
 5.3532500E+00  3.4075806E+01
 5.3647504E+00  3.4110062E+01
 5.3762503E+00  3.4297169E+01
 5.3877501E+00  3.4499336E+01
 5.3992500E+00  3.4667202E+01
 5.4107504E+00  3.4672516E+01
 5.4222503E+00  3.4672401E+01
 5.4337502E+00  3.4592640E+01
 5.4452500E+00  3.4566078E+01
 5.4567504E+00  3.4555775E+01
 5.4682503E+00  3.4637672E+01
 5.4797502E+00  3.4736622E+01
 5.4912500E+00  3.4624809E+01
 5.5027504E+00  3.4702190E+01
 5.5142503E+00  3.4781498E+01
 5.5257502E+00  3.5007935E+01
 5.5372500E+00  3.5059830E+01
 5.5487504E+00  3.5025215E+01
 5.5602503E+00  3.4976410E+01
 5.5717502E+00  3.4878315E+01
 5.5832500E+00  3.4828445E+01
 5.5947504E+00  3.4831757E+01
 5.6062503E+00  3.4943523E+01
 5.6177502E+00  3.5098080E+01
 5.6292500E+00  3.5254360E+01
 5.6407504E+00  3.5395454E+01
 5.6522503E+00  3.5610500E+01
 5.6637502E+00  3.5762669E+01
 5.6752501E+00  3.5899883E+01
 5.6867504E+00  3.5928272E+01
 5.6982503E+00  3.5853630E+01
 5.7097502E+00  3.5917229E+01
 5.7212501E+00  3.5900181E+01
 5.7327504E+00  3.5953075E+01
 5.7442503E+00  3.5898876E+01
 5.7557502E+00  3.5834602E+01
 5.7672501E+00  3.5868488E+01
 5.7787504E+00  3.5960548E+01
 5.7902503E+00  3.6171726E+01
 5.8017502E+00  3.6336121E+01
 5.8132501E+00  3.6498573E+01
 5.8247504E+00  3.6509087E+01
 5.8362503E+00  3.6703190E+01
 5.8477502E+00  3.6854412E+01
 5.8592501E+00  3.7000832E+01
 5.8707504E+00  3.7201675E+01
 5.8822503E+00  3.7460335E+01
 5.8937502E+00  3.7937550E+01
 5.9052501E+00  3.8779057E+01
 5.9167504E+00  3.9431618E+01
 5.9282503E+00  4.1445938E+01
 5.9397502E+00  4.4363651E+01
 5.9512501E+00  4.8122257E+01
 5.9627504E+00  5.4835403E+01
 5.9742503E+00  5.9212963E+01
 5.9857502E+00  6.7279465E+01
 5.9972501E+00  7.3915085E+01
 6.0087504E+00  7.2448219E+01
 6.0202503E+00  6.4103088E+01
 6.0317502E+00  5.2710831E+01
 6.0432501E+00  4.7212898E+01
 6.0547504E+00  4.3700611E+01
 6.0662503E+00  4.0918926E+01
 6.0777502E+00  3.9549255E+01
 6.0892501E+00  3.8813553E+01
 6.1007504E+00  3.8450680E+01
 6.1122503E+00  3.8128864E+01
 6.1237502E+00  3.7882587E+01
 6.1352501E+00  3.7607292E+01
 6.1467505E+00  3.7472126E+01
 6.1582503E+00  3.7435810E+01
 6.1697502E+00  3.7404282E+01
 6.1812501E+00  3.7471863E+01
 6.1927505E+00  3.7460152E+01
 6.2042503E+00  3.7382687E+01
 6.2157502E+00  3.7383022E+01
 6.2272501E+00  3.7338326E+01
 6.2387505E+00  3.7348068E+01
 6.2502503E+00  3.7364735E+01
 6.2617502E+00  3.7472912E+01
 6.2732501E+00  3.7631935E+01
 6.2847505E+00  3.7863091E+01
 6.2962503E+00  3.7999004E+01
 6.3077502E+00  3.8146851E+01
 6.3192501E+00  3.8243763E+01
 6.3307505E+00  3.8286854E+01
 6.3422503E+00  3.8389374E+01
 6.3537502E+00  3.8445747E+01
 6.3652501E+00  3.8597637E+01
 6.3767505E+00  3.8631737E+01
 6.3882504E+00  3.8663643E+01
 6.3997502E+00  3.8624859E+01
 6.4112501E+00  3.8624992E+01
 6.4227505E+00  3.8632179E+01
 6.4342504E+00  3.8634205E+01
 6.4457502E+00  3.8619446E+01
 6.4572501E+00  3.8603931E+01
 6.4687505E+00  3.8629665E+01
 6.4802504E+00  3.8792912E+01
 6.4917502E+00  3.8951351E+01
 6.5032501E+00  3.9236023E+01
 6.5147505E+00  3.9456215E+01
 6.5262504E+00  3.9596485E+01
 6.5377502E+00  3.9607662E+01
 6.5492501E+00  3.9518982E+01
 6.5607505E+00  3.9421631E+01
 6.5722504E+00  3.9336399E+01
 6.5837502E+00  3.9423805E+01
 6.5952501E+00  3.9508564E+01
 6.6067505E+00  3.9720032E+01
 6.6182504E+00  3.9860924E+01
 6.6297503E+00  4.0084347E+01
 6.6412501E+00  4.0231747E+01
 6.6527505E+00  4.0382774E+01
 6.6642504E+00  4.0551193E+01
 6.6757503E+00  4.0642433E+01
 6.6872501E+00  4.0616436E+01
 6.6987505E+00  4.0519402E+01
 6.7102504E+00  4.0504333E+01
 6.7217503E+00  4.0514351E+01
 6.7332501E+00  4.0626003E+01
 6.7447505E+00  4.0695293E+01
 6.7562504E+00  4.0907043E+01
 6.7677503E+00  4.0992725E+01
 6.7792501E+00  4.1124050E+01
 6.7907505E+00  4.1173855E+01
 6.8022504E+00  4.1256763E+01
 6.8137503E+00  4.1357235E+01
 6.8252501E+00  4.1480213E+01
 6.8367505E+00  4.1589958E+01
 6.8482504E+00  4.1800838E+01
 6.8597503E+00  4.1989410E+01
 6.8712502E+00  4.2057846E+01
 6.8827505E+00  4.2115810E+01
 6.8942504E+00  4.2083721E+01
 6.9057503E+00  4.2077194E+01
 6.9172502E+00  4.2104168E+01
 6.9287505E+00  4.2073524E+01
 6.9402504E+00  4.2169701E+01
 6.9517503E+00  4.2149094E+01
 6.9632502E+00  4.2160671E+01
 6.9747505E+00  4.2228428E+01
 6.9862504E+00  4.2286476E+01
 6.9977503E+00  4.2350540E+01
 7.0092502E+00  4.2407604E+01
 7.0207505E+00  4.2394222E+01
 7.0322504E+00  4.2480984E+01
 7.0437503E+00  4.2526901E+01
 7.0552502E+00  4.2653702E+01
 7.0667505E+00  4.2693916E+01
 7.0782504E+00  4.2734589E+01
 7.0897503E+00  4.2838734E+01
 7.1012502E+00  4.2924881E+01
 7.1127505E+00  4.3069813E+01
 7.1242504E+00  4.3127533E+01
 7.1357503E+00  4.3193104E+01
 7.1472502E+00  4.3191254E+01
 7.1587505E+00  4.3261112E+01
 7.1702504E+00  4.3258350E+01
 7.1817503E+00  4.3355770E+01
 7.1932502E+00  4.3328480E+01
 7.2047505E+00  4.3437588E+01
 7.2162504E+00  4.3512638E+01
 7.2277503E+00  4.3598507E+01
 7.2392502E+00  4.3630505E+01
 7.2507505E+00  4.3653210E+01
 7.2622504E+00  4.3669609E+01
 7.2737503E+00  4.3707737E+01
 7.2852502E+00  4.3713844E+01
 7.2967505E+00  4.3644123E+01
 7.3082504E+00  4.3671421E+01
 7.3197503E+00  4.3599270E+01
 7.3312502E+00  4.3723434E+01
 7.3427505E+00  4.3719982E+01
 7.3542504E+00  4.3789253E+01
 7.3657503E+00  4.3840412E+01
 7.3772502E+00  4.3936287E+01
 7.3887506E+00  4.4060307E+01
 7.4002504E+00  4.4193146E+01
 7.4117503E+00  4.4260841E+01
 7.4232502E+00  4.4344143E+01
 7.4347506E+00  4.4481586E+01
 7.4462504E+00  4.4589893E+01
 7.4577503E+00  4.4668648E+01
 7.4692502E+00  4.4567955E+01
 7.4807506E+00  4.4492035E+01
 7.4922504E+00  4.4447979E+01
 7.5037503E+00  4.4391949E+01
 7.5152502E+00  4.4368790E+01
 7.5267506E+00  4.4252579E+01
 7.5382504E+00  4.4263210E+01
 7.5497503E+00  4.4235317E+01
 7.5612502E+00  4.4284912E+01
 7.5727506E+00  4.4262897E+01
 7.5842505E+00  4.4364784E+01
 7.5957503E+00  4.4364849E+01
 7.6072502E+00  4.4486176E+01
 7.6187506E+00  4.4559238E+01
 7.6302505E+00  4.4676800E+01
 7.6417503E+00  4.4711170E+01
 7.6532502E+00  4.4761555E+01
 7.6647506E+00  4.4748058E+01
 7.6762505E+00  4.4766228E+01
 7.6877503E+00  4.4608891E+01
 7.6992502E+00  4.4570221E+01
 7.7107506E+00  4.4469769E+01
 7.7222505E+00  4.4519257E+01
 7.7337503E+00  4.4524410E+01
 7.7452502E+00  4.4523674E+01
 7.7567506E+00  4.4508240E+01
 7.7682505E+00  4.4443569E+01
 7.7797503E+00  4.4499428E+01
 7.7912502E+00  4.4443989E+01
 7.8027506E+00  4.4415215E+01
 7.8142505E+00  4.4241043E+01
 7.8257504E+00  4.4182438E+01
 7.8372502E+00  4.4164597E+01
 7.8487506E+00  4.4154884E+01
 7.8602505E+00  4.4137451E+01
 7.8717504E+00  4.4179539E+01
 7.8832502E+00  4.4202847E+01
 7.8947506E+00  4.4164669E+01
 7.9062505E+00  4.4034027E+01
 7.9177504E+00  4.3924664E+01
 7.9292502E+00  4.3854095E+01
 7.9407506E+00  4.3854725E+01
 7.9522505E+00  4.3843483E+01
 7.9637504E+00  4.3889736E+01
 7.9752502E+00  4.3853493E+01
 7.9867506E+00  4.3873432E+01
 7.9982505E+00  4.3901581E+01
 8.0097504E+00  4.3849548E+01
 8.0212507E+00  4.3781136E+01
 8.0327501E+00  4.3660282E+01
 8.0442505E+00  4.3617126E+01
 8.0557508E+00  4.3499592E+01
 8.0672503E+00  4.3344959E+01
 8.0787506E+00  4.3229240E+01
 8.0902500E+00  4.3126053E+01
 8.1017504E+00  4.3094517E+01
 8.1132507E+00  4.3046463E+01
 8.1247501E+00  4.2946140E+01
 8.1362505E+00  4.2801792E+01
 8.1477509E+00  4.2649597E+01
 8.1592503E+00  4.2559223E+01
 8.1707506E+00  4.2487778E+01
 8.1822500E+00  4.2274948E+01
 8.1937504E+00  4.2126720E+01
 8.2052507E+00  4.1968388E+01
 8.2167501E+00  4.1788548E+01
 8.2282505E+00  4.1644440E+01
 8.2397509E+00  4.1548500E+01
 8.2512503E+00  4.1527126E+01
 8.2627506E+00  4.1443172E+01
 8.2742500E+00  4.1313713E+01
 8.2857504E+00  4.1168919E+01
 8.2972507E+00  4.0981403E+01
 8.3087502E+00  4.0876495E+01
 8.3202505E+00  4.0773884E+01
 8.3317509E+00  4.0673626E+01
 8.3432503E+00  4.0559364E+01
 8.3547506E+00  4.0447201E+01
 8.3662500E+00  4.0343513E+01
 8.3777504E+00  4.0204243E+01
 8.3892508E+00  3.9994247E+01
 8.4007502E+00  3.9768021E+01
 8.4122505E+00  3.9530132E+01
 8.4237509E+00  3.9248890E+01
 8.4352503E+00  3.8994514E+01
 8.4467506E+00  3.8784367E+01
 8.4582500E+00  3.8655067E+01
 8.4697504E+00  3.8550869E+01
 8.4812508E+00  3.8390224E+01
 8.4927502E+00  3.8227062E+01
 8.5042505E+00  3.8107449E+01
 8.5157509E+00  3.7988785E+01
 8.5272503E+00  3.7835491E+01
 8.5387506E+00  3.7686203E+01
 8.5502501E+00  3.7417732E+01
 8.5617504E+00  3.7354862E+01
 8.5732508E+00  3.7196682E+01
 8.5847502E+00  3.7053127E+01
 8.5962505E+00  3.6800117E+01
 8.6077509E+00  3.6555424E+01
 8.6192503E+00  3.6413303E+01
 8.6307507E+00  3.6227482E+01
 8.6422501E+00  3.6018353E+01
 8.6537504E+00  3.5801590E+01
 8.6652508E+00  3.5633141E+01
 8.6767502E+00  3.5487904E+01
 8.6882505E+00  3.5376934E+01
 8.6997509E+00  3.5260166E+01
 8.7112503E+00  3.5065063E+01
 8.7227507E+00  3.4922024E+01
 8.7342501E+00  3.4657284E+01
 8.7457504E+00  3.4549549E+01
 8.7572508E+00  3.4353462E+01
 8.7687502E+00  3.4247501E+01
 8.7802505E+00  3.4034233E+01
 8.7917500E+00  3.3875568E+01
 8.8032503E+00  3.3648529E+01
 8.8147507E+00  3.3561401E+01
 8.8262501E+00  3.3413269E+01
 8.8377504E+00  3.3321457E+01
 8.8492508E+00  3.3128326E+01
 8.8607502E+00  3.3042477E+01
 8.8722506E+00  3.2943398E+01
 8.8837500E+00  3.2834187E+01
 8.8952503E+00  3.2635784E+01
 8.9067507E+00  3.2433002E+01
 8.9182501E+00  3.2276985E+01
 8.9297504E+00  3.2064388E+01
 8.9412508E+00  3.1880424E+01
 8.9527502E+00  3.1778715E+01
 8.9642506E+00  3.1691528E+01
 8.9757500E+00  3.1548157E+01
 8.9872503E+00  3.1388145E+01
 8.9987507E+00  3.1275507E+01
 9.0102501E+00  3.1160034E+01
 9.0217505E+00  3.1034260E+01
 9.0332508E+00  3.0910934E+01
 9.0447502E+00  3.0832182E+01
 9.0562506E+00  3.0710323E+01
 9.0677500E+00  3.0578047E+01
 9.0792503E+00  3.0477577E+01
 9.0907507E+00  3.0281574E+01
 9.1022501E+00  3.0101067E+01
 9.1137505E+00  2.9908459E+01
 9.1252508E+00  2.9787474E+01
 9.1367502E+00  2.9711237E+01
 9.1482506E+00  2.9671236E+01
 9.1597500E+00  2.9589972E+01
 9.1712503E+00  2.9470146E+01
 9.1827507E+00  2.9299337E+01
 9.1942501E+00  2.9108984E+01
 9.2057505E+00  2.8946148E+01
 9.2172508E+00  2.8861740E+01
 9.2287502E+00  2.8783087E+01
 9.2402506E+00  2.8719542E+01
 9.2517500E+00  2.8615105E+01
 9.2632504E+00  2.8467445E+01
 9.2747507E+00  2.8345531E+01
 9.2862501E+00  2.8180788E+01
 9.2977505E+00  2.8085403E+01
 9.3092508E+00  2.7976368E+01
 9.3207502E+00  2.7873116E+01
 9.3322506E+00  2.7805317E+01
 9.3437500E+00  2.7664541E+01
 9.3552504E+00  2.7601547E+01
 9.3667507E+00  2.7508068E+01
 9.3782501E+00  2.7425024E+01
 9.3897505E+00  2.7320768E+01
 9.4012508E+00  2.7162933E+01
 9.4127502E+00  2.7109715E+01
 9.4242506E+00  2.7008890E+01
 9.4357500E+00  2.6987764E+01
 9.4472504E+00  2.6894207E+01
 9.4587507E+00  2.6860865E+01
 9.4702501E+00  2.6864613E+01
 9.4817505E+00  2.6899788E+01
 9.4932508E+00  2.6840780E+01
 9.5047503E+00  2.6740788E+01
 9.5162506E+00  2.6576727E+01
 9.5277500E+00  2.6412516E+01
 9.5392504E+00  2.6277699E+01
 9.5507507E+00  2.6150602E+01
 9.5622501E+00  2.6176659E+01
 9.5737505E+00  2.6052313E+01
 9.5852509E+00  2.6042503E+01
 9.5967503E+00  2.5996897E+01
 9.6082506E+00  2.6028952E+01
 9.6197500E+00  2.5994501E+01
 9.6312504E+00  2.5910818E+01
 9.6427507E+00  2.5877033E+01
 9.6542501E+00  2.5765528E+01
 9.6657505E+00  2.5662323E+01
 9.6772509E+00  2.5593191E+01
 9.6887503E+00  2.5605003E+01
 9.7002506E+00  2.5609480E+01
 9.7117500E+00  2.5617863E+01
 9.7232504E+00  2.5682409E+01
 9.7347507E+00  2.5633797E+01
 9.7462502E+00  2.5608633E+01
 9.7577505E+00  2.5515621E+01
 9.7692509E+00  2.5524681E+01
 9.7807503E+00  2.5470812E+01
 9.7922506E+00  2.5411882E+01
 9.8037500E+00  2.5315943E+01
 9.8152504E+00  2.5246628E+01
 9.8267508E+00  2.5151482E+01
 9.8382502E+00  2.5159580E+01
 9.8497505E+00  2.5101677E+01
 9.8612509E+00  2.5124676E+01
 9.8727503E+00  2.5059526E+01
 9.8842506E+00  2.4990189E+01
 9.8957500E+00  2.4904781E+01
 9.9072504E+00  2.4907862E+01
 9.9187508E+00  2.4913509E+01
 9.9302502E+00  2.4926743E+01
 9.9417505E+00  2.4906235E+01
 9.9532509E+00  2.4874104E+01
 9.9647503E+00  2.4875038E+01
 9.9762506E+00  2.4808443E+01
 9.9877501E+00  2.4722692E+01
 9.9992504E+00  2.4623207E+01
 1.0010751E+01  2.4529627E+01
 1.0022250E+01  2.4544668E+01
 1.0033751E+01  2.4520786E+01
 1.0045251E+01  2.4508999E+01
 1.0056750E+01  2.4463541E+01
 1.0068251E+01  2.4428999E+01
 1.0079750E+01  2.4348475E+01
 1.0091250E+01  2.4270256E+01
 1.0102751E+01  2.4238960E+01
 1.0114250E+01  2.4263918E+01
 1.0125751E+01  2.4317743E+01
 1.0137251E+01  2.4315695E+01
 1.0148750E+01  2.4387646E+01
 1.0160251E+01  2.4430582E+01
 1.0171750E+01  2.4409527E+01
 1.0183250E+01  2.4324968E+01
 1.0194751E+01  2.4206909E+01
 1.0206250E+01  2.4128975E+01
 1.0217751E+01  2.4079912E+01
 1.0229251E+01  2.4084269E+01
 1.0240750E+01  2.4098410E+01
 1.0252251E+01  2.4044912E+01
 1.0263750E+01  2.3994806E+01
 1.0275250E+01  2.3920103E+01
 1.0286751E+01  2.3902439E+01
 1.0298250E+01  2.3871864E+01
 1.0309751E+01  2.3876684E+01
 1.0321251E+01  2.3829287E+01
 1.0332750E+01  2.3827456E+01
 1.0344251E+01  2.3802837E+01
 1.0355750E+01  2.3791887E+01
 1.0367250E+01  2.3703440E+01
 1.0378751E+01  2.3635399E+01
 1.0390250E+01  2.3678490E+01
 1.0401751E+01  2.3685812E+01
 1.0413251E+01  2.3723633E+01
 1.0424750E+01  2.3618303E+01
 1.0436251E+01  2.3626009E+01
 1.0447750E+01  2.3533812E+01
 1.0459250E+01  2.3574629E+01
 1.0470751E+01  2.3554863E+01
 1.0482250E+01  2.3590221E+01
 1.0493751E+01  2.3560041E+01
 1.0505251E+01  2.3533117E+01
 1.0516750E+01  2.3460253E+01
 1.0528251E+01  2.3388721E+01
 1.0539750E+01  2.3345299E+01
 1.0551250E+01  2.3409781E+01
 1.0562751E+01  2.3458061E+01
 1.0574250E+01  2.3450939E+01
 1.0585751E+01  2.3420393E+01
 1.0597251E+01  2.3391001E+01
 1.0608750E+01  2.3394516E+01
 1.0620251E+01  2.3393002E+01
 1.0631750E+01  2.3406000E+01
 1.0643250E+01  2.3399187E+01
 1.0654751E+01  2.3407772E+01
 1.0666250E+01  2.3345949E+01
 1.0677751E+01  2.3306383E+01
 1.0689251E+01  2.3248135E+01
 1.0700750E+01  2.3237476E+01
 1.0712251E+01  2.3238375E+01
 1.0723750E+01  2.3253748E+01
 1.0735250E+01  2.3222082E+01
 1.0746751E+01  2.3177515E+01
 1.0758250E+01  2.3095177E+01
 1.0769751E+01  2.3063986E+01
 1.0781251E+01  2.3078531E+01
 1.0792750E+01  2.3044306E+01
 1.0804251E+01  2.3022667E+01
 1.0815750E+01  2.2989620E+01
 1.0827250E+01  2.3000511E+01
 1.0838751E+01  2.3024239E+01
 1.0850250E+01  2.3043247E+01
 1.0861751E+01  2.3054436E+01
 1.0873251E+01  2.3064116E+01
 1.0884750E+01  2.3015390E+01
 1.0896251E+01  2.2929884E+01
 1.0907750E+01  2.2877987E+01
 1.0919250E+01  2.2844761E+01
 1.0930751E+01  2.2842318E+01
 1.0942250E+01  2.2802954E+01
 1.0953751E+01  2.2847799E+01
 1.0965251E+01  2.2876471E+01
 1.0976750E+01  2.2948420E+01
 1.0988251E+01  2.2890760E+01
 1.0999750E+01  2.2883417E+01
 1.1011250E+01  2.2829163E+01
 1.1022751E+01  2.2780605E+01
 1.1034250E+01  2.2722378E+01
 1.1045751E+01  2.2644764E+01
 1.1057251E+01  2.2579044E+01
 1.1068750E+01  2.2544357E+01
 1.1080251E+01  2.2593939E+01
 1.1091750E+01  2.2682400E+01
 1.1103251E+01  2.2742426E+01
 1.1114751E+01  2.2781551E+01
 1.1126250E+01  2.2795446E+01
 1.1137751E+01  2.2768200E+01
 1.1149251E+01  2.2730131E+01
 1.1160750E+01  2.2703569E+01
 1.1172251E+01  2.2665163E+01
 1.1183750E+01  2.2624323E+01
 1.1195251E+01  2.2601156E+01
 1.1206751E+01  2.2600311E+01
 1.1218250E+01  2.2590355E+01
 1.1229751E+01  2.2535635E+01
 1.1241251E+01  2.2626640E+01
 1.1252750E+01  2.2680719E+01
 1.1264251E+01  2.2764917E+01
 1.1275750E+01  2.2787041E+01
 1.1287251E+01  2.2830290E+01
 1.1298751E+01  2.2831474E+01
 1.1310250E+01  2.2870447E+01
 1.1321751E+01  2.2908539E+01
 1.1333251E+01  2.2964476E+01
 1.1344750E+01  2.3014143E+01
 1.1356251E+01  2.3030102E+01
 1.1367750E+01  2.3128157E+01
 1.1379251E+01  2.3136919E+01
 1.1390751E+01  2.3138350E+01
 1.1402250E+01  2.3257296E+01
 1.1413751E+01  2.3257076E+01
 1.1425251E+01  2.3325758E+01
 1.1436750E+01  2.3291376E+01
 1.1448251E+01  2.3314287E+01
 1.1459750E+01  2.3359045E+01
 1.1471251E+01  2.3384066E+01
 1.1482751E+01  2.3475719E+01
 1.1494250E+01  2.3610329E+01
 1.1505751E+01  2.3910028E+01
 1.1517251E+01  2.4402538E+01
 1.1528750E+01  2.5676981E+01
 1.1540251E+01  2.6682625E+01
 1.1551750E+01  2.9663214E+01
 1.1563251E+01  3.1279362E+01
 1.1574751E+01  3.3725636E+01
 1.1586250E+01  3.6145618E+01
 1.1597751E+01  3.6860485E+01
 1.1609251E+01  3.6287239E+01
 1.1620750E+01  3.3216137E+01
 1.1632251E+01  3.0628830E+01
 1.1643750E+01  2.8228493E+01
 1.1655251E+01  2.5827890E+01
 1.1666751E+01  2.4828672E+01
 1.1678250E+01  2.4058935E+01
 1.1689751E+01  2.3594213E+01
 1.1701251E+01  2.3421272E+01
 1.1712750E+01  2.3314474E+01
 1.1724251E+01  2.3239235E+01
 1.1735750E+01  2.3138607E+01
 1.1747251E+01  2.3014006E+01
 1.1758751E+01  2.2887938E+01
 1.1770250E+01  2.2778173E+01
 1.1781751E+01  2.2712389E+01
 1.1793251E+01  2.2725399E+01
 1.1804750E+01  2.2763330E+01
 1.1816251E+01  2.2765762E+01
 1.1827750E+01  2.2758902E+01
 1.1839251E+01  2.2743315E+01
 1.1850751E+01  2.2708467E+01
 1.1862250E+01  2.2732584E+01
 1.1873751E+01  2.2728245E+01
 1.1885251E+01  2.2735136E+01
 1.1896750E+01  2.2729494E+01
 1.1908251E+01  2.2763165E+01
 1.1919750E+01  2.2905586E+01
 1.1931251E+01  2.3048351E+01
 1.1942751E+01  2.3280519E+01
 1.1954250E+01  2.3507656E+01
 1.1965751E+01  2.3785240E+01
 1.1977251E+01  2.4245029E+01
 1.1988750E+01  2.4708582E+01
 1.2000251E+01  2.5121155E+01
 1.2011750E+01  2.5255508E+01
 1.2023251E+01  2.5259619E+01
 1.2034751E+01  2.5080612E+01
 1.2046250E+01  2.4909836E+01
 1.2057751E+01  2.4825144E+01
 1.2069251E+01  2.4999641E+01
 1.2080750E+01  2.5267248E+01
 1.2092251E+01  2.5683056E+01
 1.2103750E+01  2.5726479E+01
 1.2115251E+01  2.5542599E+01
 1.2126751E+01  2.4954170E+01
 1.2138250E+01  2.4426426E+01
 1.2149751E+01  2.3890720E+01
 1.2161251E+01  2.3522514E+01
 1.2172750E+01  2.3264812E+01
 1.2184251E+01  2.3116833E+01
 1.2195750E+01  2.2989281E+01
 1.2207251E+01  2.2909277E+01
 1.2218751E+01  2.2844311E+01
 1.2230250E+01  2.2820881E+01
 1.2241751E+01  2.2769243E+01
 1.2253251E+01  2.2761850E+01
 1.2264750E+01  2.2727581E+01
 1.2276251E+01  2.2716286E+01
 1.2287750E+01  2.2679567E+01
 1.2299251E+01  2.2651081E+01
 1.2310751E+01  2.2687157E+01
 1.2322250E+01  2.2670389E+01
 1.2333751E+01  2.2751953E+01
 1.2345250E+01  2.2751921E+01
 1.2356750E+01  2.2863997E+01
 1.2368251E+01  2.2876425E+01
 1.2379750E+01  2.2959059E+01
 1.2391251E+01  2.2942345E+01
 1.2402751E+01  2.2960711E+01
 1.2414250E+01  2.2951841E+01
 1.2425751E+01  2.2956312E+01
 1.2437250E+01  2.2990850E+01
 1.2448750E+01  2.2983686E+01
 1.2460251E+01  2.3029947E+01
 1.2471750E+01  2.3029171E+01
 1.2483251E+01  2.3075251E+01
 1.2494751E+01  2.3024706E+01
 1.2506250E+01  2.2973343E+01
 1.2517751E+01  2.2927475E+01
 1.2529250E+01  2.2963572E+01
 1.2540751E+01  2.2998785E+01
 1.2552251E+01  2.2994341E+01
 1.2563750E+01  2.2950968E+01
 1.2575251E+01  2.2943817E+01
 1.2586751E+01  2.2947945E+01
 1.2598250E+01  2.2932953E+01
 1.2609751E+01  2.2881781E+01
 1.2621250E+01  2.2879478E+01
 1.2632751E+01  2.2886112E+01
 1.2644251E+01  2.2901932E+01
 1.2655750E+01  2.2916340E+01
 1.2667251E+01  2.2971575E+01
 1.2678751E+01  2.3028923E+01
 1.2690250E+01  2.3107231E+01
 1.2701751E+01  2.3174677E+01
 1.2713250E+01  2.3223000E+01
 1.2724751E+01  2.3174397E+01
 1.2736251E+01  2.3143362E+01
 1.2747750E+01  2.3167036E+01
 1.2759251E+01  2.3262972E+01
 1.2770751E+01  2.3321117E+01
 1.2782250E+01  2.3377207E+01
 1.2793751E+01  2.3381969E+01
 1.2805250E+01  2.3387672E+01
 1.2816751E+01  2.3410864E+01
 1.2828251E+01  2.3448015E+01
 1.2839750E+01  2.3469000E+01
 1.2851251E+01  2.3476667E+01
 1.2862751E+01  2.3536442E+01
 1.2874250E+01  2.3635519E+01
 1.2885751E+01  2.3650723E+01
 1.2897250E+01  2.3626663E+01
 1.2908751E+01  2.3653151E+01
 1.2920251E+01  2.3717243E+01
 1.2931750E+01  2.3802275E+01
 1.2943251E+01  2.3861422E+01
 1.2954751E+01  2.3938192E+01
 1.2966250E+01  2.4030693E+01
 1.2977751E+01  2.4104544E+01
 1.2989250E+01  2.4140875E+01
 1.3000751E+01  2.4225279E+01
 1.3012251E+01  2.4276108E+01
 1.3023750E+01  2.4341667E+01
 1.3035251E+01  2.4376966E+01
 1.3046751E+01  2.4429457E+01
 1.3058250E+01  2.4495350E+01
 1.3069751E+01  2.4553528E+01
 1.3081250E+01  2.4637352E+01
 1.3092751E+01  2.4763567E+01
 1.3104251E+01  2.4889420E+01
 1.3115750E+01  2.5053164E+01
 1.3127251E+01  2.5147364E+01
 1.3138751E+01  2.5223253E+01
 1.3150250E+01  2.5272751E+01
 1.3161751E+01  2.5355064E+01
 1.3173250E+01  2.5520132E+01
 1.3184751E+01  2.5692522E+01
 1.3196251E+01  2.5852980E+01
 1.3207750E+01  2.5961208E+01
 1.3219251E+01  2.6110983E+01
 1.3230751E+01  2.6326878E+01
 1.3242250E+01  2.6526407E+01
 1.3253751E+01  2.6672325E+01
 1.3265250E+01  2.6819677E+01
 1.3276751E+01  2.6935646E+01
 1.3288251E+01  2.7052458E+01
 1.3299750E+01  2.7167061E+01
 1.3311251E+01  2.7290005E+01
 1.3322751E+01  2.7430052E+01
 1.3334250E+01  2.7570894E+01
 1.3345751E+01  2.7727777E+01
 1.3357250E+01  2.7896969E+01
 1.3368751E+01  2.7994953E+01
 1.3380251E+01  2.8116690E+01
 1.3391750E+01  2.8228674E+01
 1.3403251E+01  2.8345768E+01
 1.3414751E+01  2.8399155E+01
 1.3426250E+01  2.8506653E+01
 1.3437751E+01  2.8627298E+01
 1.3449250E+01  2.8760586E+01
 1.3460751E+01  2.8860302E+01
 1.3472251E+01  2.8957876E+01
 1.3483750E+01  2.9172947E+01
 1.3495251E+01  2.9295527E+01
 1.3506751E+01  2.9475727E+01
 1.3518250E+01  2.9512693E+01
 1.3529751E+01  2.9591476E+01
 1.3541250E+01  2.9699171E+01
 1.3552751E+01  2.9806023E+01
 1.3564251E+01  2.9907261E+01
 1.3575750E+01  2.9944040E+01
 1.3587251E+01  2.9982256E+01
 1.3598751E+01  2.9991074E+01
 1.3610250E+01  2.9931244E+01
 1.3621751E+01  2.9936634E+01
 1.3633250E+01  2.9964716E+01
 1.3644751E+01  2.9956989E+01
 1.3656251E+01  2.9959452E+01
 1.3667750E+01  2.9947721E+01
 1.3679251E+01  3.0010242E+01
 1.3690751E+01  3.0002741E+01
 1.3702250E+01  2.9978037E+01
 1.3713751E+01  2.9933603E+01
 1.3725250E+01  2.9913980E+01
 1.3736751E+01  2.9883945E+01
 1.3748251E+01  2.9914484E+01
 1.3759750E+01  2.9925165E+01
 1.3771251E+01  2.9989300E+01
 1.3782751E+01  2.9996199E+01
 1.3794250E+01  3.0002260E+01
 1.3805751E+01  2.9992508E+01
 1.3817250E+01  2.9999214E+01
 1.3828751E+01  3.0072592E+01
 1.3840251E+01  3.0234636E+01
 1.3851750E+01  3.0556971E+01
 1.3863251E+01  3.1095514E+01
 1.3874751E+01  3.1859919E+01
 1.3886250E+01  3.3372093E+01
 1.3897751E+01  3.5438442E+01
 1.3909250E+01  3.8126030E+01
 1.3920751E+01  4.1235691E+01
 1.3932251E+01  4.3853123E+01
 1.3943750E+01  4.6425125E+01
 1.3955251E+01  4.7556877E+01
 1.3966751E+01  4.6439236E+01
 1.3978251E+01  4.3408653E+01
 1.3989751E+01  3.9253166E+01
 1.4001250E+01  3.6201405E+01
 1.4012751E+01  3.3032833E+01
 1.4024251E+01  3.1214624E+01
 1.4035750E+01  3.0159174E+01
 1.4047251E+01  2.9470848E+01
 1.4058751E+01  2.9100080E+01
 1.4070251E+01  2.8850420E+01
 1.4081751E+01  2.8646784E+01
 1.4093250E+01  2.8457806E+01
 1.4104751E+01  2.8212437E+01
 1.4116251E+01  2.8069016E+01
 1.4127750E+01  2.7903702E+01
 1.4139251E+01  2.7836159E+01
 1.4150751E+01  2.7669111E+01
 1.4162251E+01  2.7537373E+01
 1.4173751E+01  2.7332037E+01
 1.4185250E+01  2.7233204E+01
 1.4196751E+01  2.7188540E+01
 1.4208251E+01  2.7133257E+01
 1.4219750E+01  2.7092659E+01
 1.4231251E+01  2.7007889E+01
 1.4242751E+01  2.6975777E+01
 1.4254251E+01  2.6839382E+01
 1.4265751E+01  2.6795710E+01
 1.4277250E+01  2.6702715E+01
 1.4288751E+01  2.6717726E+01
 1.4300251E+01  2.6612072E+01
 1.4311750E+01  2.6550772E+01
 1.4323251E+01  2.6428511E+01
 1.4334751E+01  2.6375982E+01
 1.4346251E+01  2.6348310E+01
 1.4357751E+01  2.6340343E+01
 1.4369250E+01  2.6309202E+01
 1.4380751E+01  2.6289061E+01
 1.4392251E+01  2.6257984E+01
 1.4403750E+01  2.6247480E+01
 1.4415251E+01  2.6231918E+01
 1.4426751E+01  2.6202536E+01
 1.4438251E+01  2.6202641E+01
 1.4449751E+01  2.6136763E+01
 1.4461250E+01  2.6078098E+01
 1.4472751E+01  2.5974760E+01
 1.4484251E+01  2.5949385E+01
 1.4495750E+01  2.5948006E+01
 1.4507251E+01  2.5967489E+01
 1.4518751E+01  2.5943666E+01
 1.4530251E+01  2.5944212E+01
 1.4541751E+01  2.5905727E+01
 1.4553250E+01  2.5882931E+01
 1.4564751E+01  2.5852238E+01
 1.4576251E+01  2.5850491E+01
 1.4587750E+01  2.5787838E+01
 1.4599251E+01  2.5725712E+01
 1.4610751E+01  2.5633722E+01
 1.4622251E+01  2.5618540E+01
 1.4633751E+01  2.5540442E+01
 1.4645250E+01  2.5501183E+01
 1.4656751E+01  2.5448132E+01
 1.4668251E+01  2.5482105E+01
 1.4679750E+01  2.5511335E+01
 1.4691251E+01  2.5530109E+01
 1.4702751E+01  2.5504917E+01
 1.4714251E+01  2.5469828E+01
 1.4725751E+01  2.5424852E+01
 1.4737250E+01  2.5349670E+01
 1.4748751E+01  2.5301741E+01
 1.4760251E+01  2.5250914E+01
 1.4771750E+01  2.5287996E+01
 1.4783251E+01  2.5299776E+01
 1.4794751E+01  2.5332664E+01
 1.4806251E+01  2.5292028E+01
 1.4817751E+01  2.5239305E+01
 1.4829250E+01  2.5145960E+01
 1.4840751E+01  2.5067846E+01
 1.4852251E+01  2.5011292E+01
 1.4863750E+01  2.5008524E+01
 1.4875251E+01  2.4999964E+01
 1.4886751E+01  2.5041595E+01
 1.4898251E+01  2.5112253E+01
 1.4909751E+01  2.5181849E+01
 1.4921250E+01  2.5194649E+01
 1.4932751E+01  2.5182446E+01
 1.4944251E+01  2.5130354E+01
 1.4955750E+01  2.5095251E+01
 1.4967251E+01  2.5092787E+01
 1.4978751E+01  2.5105791E+01
 1.4990251E+01  2.5066889E+01
 1.5001751E+01  2.5030231E+01
 1.5013250E+01  2.5043465E+01
 1.5024751E+01  2.5097141E+01
 1.5036251E+01  2.5053066E+01
 1.5047750E+01  2.5050383E+01
 1.5059251E+01  2.5032516E+01
 1.5070751E+01  2.5070225E+01
 1.5082251E+01  2.5067221E+01
 1.5093751E+01  2.5054655E+01
 1.5105250E+01  2.5132607E+01
 1.5116751E+01  2.5239594E+01
 1.5128251E+01  2.5373116E+01
 1.5139750E+01  2.5528664E+01
 1.5151251E+01  2.5802422E+01
 1.5162751E+01  2.6110285E+01
 1.5174251E+01  2.6419064E+01
 1.5185751E+01  2.6702343E+01
 1.5197250E+01  2.6799370E+01
 1.5208751E+01  2.6908974E+01
 1.5220251E+01  2.6654306E+01
 1.5231750E+01  2.6416309E+01
 1.5243251E+01  2.5980017E+01
 1.5254751E+01  2.5670172E+01
 1.5266251E+01  2.5338711E+01
 1.5277751E+01  2.5082436E+01
 1.5289250E+01  2.4949522E+01
 1.5300751E+01  2.4872337E+01
 1.5312251E+01  2.4814653E+01
 1.5323750E+01  2.4801794E+01
 1.5335251E+01  2.4789007E+01
 1.5346751E+01  2.4833405E+01
 1.5358251E+01  2.4862659E+01
 1.5369751E+01  2.4862303E+01
 1.5381250E+01  2.4787912E+01
 1.5392751E+01  2.4691978E+01
 1.5404251E+01  2.4667065E+01
 1.5415751E+01  2.4646429E+01
 1.5427251E+01  2.4658489E+01
 1.5438751E+01  2.4692152E+01
 1.5450251E+01  2.4727192E+01
 1.5461751E+01  2.4784473E+01
 1.5473250E+01  2.4829573E+01
 1.5484751E+01  2.4902607E+01
 1.5496251E+01  2.4923624E+01
 1.5507751E+01  2.4901705E+01
 1.5519251E+01  2.4887730E+01
 1.5530751E+01  2.4831137E+01
 1.5542251E+01  2.4829361E+01
 1.5553751E+01  2.4808475E+01
 1.5565250E+01  2.4850950E+01
 1.5576751E+01  2.4774380E+01
 1.5588251E+01  2.4777786E+01
 1.5599751E+01  2.4745453E+01
 1.5611251E+01  2.4778120E+01
 1.5622751E+01  2.4728397E+01
 1.5634251E+01  2.4748289E+01
 1.5645751E+01  2.4741497E+01
 1.5657250E+01  2.4747675E+01
 1.5668751E+01  2.4719505E+01
 1.5680251E+01  2.4719305E+01
 1.5691751E+01  2.4788530E+01
 1.5703251E+01  2.4865444E+01
 1.5714751E+01  2.4906015E+01
 1.5726251E+01  2.4884745E+01
 1.5737751E+01  2.4829994E+01
 1.5749250E+01  2.4796242E+01
 1.5760751E+01  2.4792505E+01
 1.5772251E+01  2.4812038E+01
 1.5783751E+01  2.4798725E+01
 1.5795251E+01  2.4770882E+01
 1.5806751E+01  2.4754889E+01
 1.5818251E+01  2.4737570E+01
 1.5829751E+01  2.4711412E+01
 1.5841250E+01  2.4748550E+01
 1.5852751E+01  2.4804045E+01
 1.5864251E+01  2.4798006E+01
 1.5875751E+01  2.4811766E+01
 1.5887251E+01  2.4796963E+01
 1.5898750E+01  2.4815378E+01
 1.5910251E+01  2.4827784E+01
 1.5921751E+01  2.4826109E+01
 1.5933250E+01  2.4849049E+01
 1.5944751E+01  2.4775198E+01
 1.5956251E+01  2.4810308E+01
 1.5967751E+01  2.4829268E+01
 1.5979251E+01  2.4909435E+01
 1.5990750E+01  2.4946140E+01
 1.6002251E+01  2.4947416E+01
 1.6013750E+01  2.4926901E+01
 1.6025251E+01  2.4939920E+01
 1.6036751E+01  2.4957411E+01
 1.6048250E+01  2.4979343E+01
 1.6059752E+01  2.4918760E+01
 1.6071251E+01  2.4870577E+01
 1.6082750E+01  2.4865555E+01
 1.6094252E+01  2.4875248E+01
 1.6105751E+01  2.4928324E+01
 1.6117250E+01  2.4983311E+01
 1.6128750E+01  2.5031345E+01
 1.6140251E+01  2.5115635E+01
 1.6151751E+01  2.5119925E+01
 1.6163250E+01  2.5157335E+01
 1.6174751E+01  2.5132883E+01
 1.6186251E+01  2.5275515E+01
 1.6197750E+01  2.5271193E+01
 1.6209251E+01  2.5455891E+01
 1.6220751E+01  2.5384787E+01
 1.6232250E+01  2.5533386E+01
 1.6243752E+01  2.5565483E+01
 1.6255251E+01  2.5661898E+01
 1.6266750E+01  2.5808514E+01
 1.6278252E+01  2.5695486E+01
 1.6289751E+01  2.5847101E+01
 1.6301250E+01  2.5475798E+01
 1.6312750E+01  2.5575737E+01
 1.6324251E+01  2.5273552E+01
 1.6335751E+01  2.5273111E+01
 1.6347250E+01  2.5009720E+01
 1.6358751E+01  2.4923798E+01
 1.6370251E+01  2.4863314E+01
 1.6381750E+01  2.4852697E+01
 1.6393251E+01  2.4843990E+01
 1.6404751E+01  2.4852945E+01
 1.6416250E+01  2.4884956E+01
 1.6427752E+01  2.4871923E+01
 1.6439251E+01  2.4885136E+01
 1.6450750E+01  2.4924486E+01
 1.6462252E+01  2.4950130E+01
 1.6473751E+01  2.4954836E+01
 1.6485250E+01  2.4926987E+01
 1.6496750E+01  2.4940546E+01
 1.6508251E+01  2.4922899E+01
 1.6519751E+01  2.4928020E+01
 1.6531250E+01  2.4928219E+01
 1.6542751E+01  2.4964539E+01
 1.6554251E+01  2.4963083E+01
 1.6565750E+01  2.4967934E+01
 1.6577251E+01  2.4923479E+01
 1.6588751E+01  2.4879000E+01
 1.6600250E+01  2.4846840E+01
 1.6611752E+01  2.4821711E+01
 1.6623251E+01  2.4775763E+01
 1.6634750E+01  2.4783533E+01
 1.6646252E+01  2.4791920E+01
 1.6657751E+01  2.4758244E+01
 1.6669250E+01  2.4745749E+01
 1.6680750E+01  2.4758289E+01
 1.6692251E+01  2.4825512E+01
 1.6703751E+01  2.4813154E+01
 1.6715250E+01  2.4801746E+01
 1.6726751E+01  2.4748436E+01
 1.6738251E+01  2.4719147E+01
 1.6749750E+01  2.4694777E+01
 1.6761251E+01  2.4616268E+01
 1.6772751E+01  2.4550331E+01
 1.6784250E+01  2.4481112E+01
 1.6795752E+01  2.4459478E+01
 1.6807251E+01  2.4468512E+01
 1.6818750E+01  2.4497246E+01
 1.6830252E+01  2.4540138E+01
 1.6841751E+01  2.4551060E+01
 1.6853251E+01  2.4577187E+01
 1.6864750E+01  2.4569973E+01
 1.6876251E+01  2.4552425E+01
 1.6887751E+01  2.4528793E+01
 1.6899250E+01  2.4504845E+01
 1.6910751E+01  2.4504164E+01
 1.6922251E+01  2.4538538E+01
 1.6933750E+01  2.4545040E+01
 1.6945251E+01  2.4537777E+01
 1.6956751E+01  2.4492231E+01
 1.6968250E+01  2.4481838E+01
 1.6979752E+01  2.4476564E+01
 1.6991251E+01  2.4446121E+01
 1.7002750E+01  2.4424175E+01
 1.7014252E+01  2.4432388E+01
 1.7025751E+01  2.4487560E+01
 1.7037251E+01  2.4429779E+01
 1.7048750E+01  2.4379082E+01
 1.7060251E+01  2.4340242E+01
 1.7071751E+01  2.4385908E+01
 1.7083250E+01  2.4405552E+01
 1.7094751E+01  2.4390280E+01
 1.7106251E+01  2.4394058E+01
 1.7117750E+01  2.4376701E+01
 1.7129251E+01  2.4377375E+01
 1.7140751E+01  2.4392361E+01
 1.7152250E+01  2.4441162E+01
 1.7163752E+01  2.4503998E+01
 1.7175251E+01  2.4561779E+01
 1.7186750E+01  2.4536900E+01
 1.7198252E+01  2.4537354E+01
 1.7209751E+01  2.4496490E+01
 1.7221251E+01  2.4414511E+01
 1.7232750E+01  2.4321699E+01
 1.7244251E+01  2.4308918E+01
 1.7255751E+01  2.4257706E+01
 1.7267250E+01  2.4217239E+01
 1.7278751E+01  2.4205709E+01
 1.7290251E+01  2.4262272E+01
 1.7301750E+01  2.4276350E+01
 1.7313251E+01  2.4271461E+01
 1.7324751E+01  2.4251289E+01
 1.7336250E+01  2.4260935E+01
 1.7347752E+01  2.4233427E+01
 1.7359251E+01  2.4268490E+01
 1.7370750E+01  2.4200352E+01
 1.7382252E+01  2.4167652E+01
 1.7393751E+01  2.4095341E+01
 1.7405251E+01  2.4084185E+01
 1.7416750E+01  2.4067945E+01
 1.7428251E+01  2.4107689E+01
 1.7439751E+01  2.4143520E+01
 1.7451250E+01  2.4147881E+01
 1.7462751E+01  2.4202810E+01
 1.7474251E+01  2.4176374E+01
 1.7485750E+01  2.4220551E+01
 1.7497252E+01  2.4147829E+01
 1.7508751E+01  2.4163397E+01
 1.7520250E+01  2.4099150E+01
 1.7531752E+01  2.4106445E+01
 1.7543251E+01  2.4130945E+01
 1.7554750E+01  2.4111446E+01
 1.7566252E+01  2.4088291E+01
 1.7577751E+01  2.4058830E+01
 1.7589251E+01  2.4042908E+01
 1.7600750E+01  2.4034229E+01
 1.7612251E+01  2.4027344E+01
 1.7623751E+01  2.4088615E+01
 1.7635250E+01  2.4047100E+01
 1.7646751E+01  2.4012833E+01
 1.7658251E+01  2.3929768E+01
 1.7669750E+01  2.3970005E+01
 1.7681252E+01  2.4011600E+01
 1.7692751E+01  2.4105946E+01
 1.7704250E+01  2.4117189E+01
 1.7715752E+01  2.4109228E+01
 1.7727251E+01  2.4045963E+01
 1.7738750E+01  2.3989372E+01
 1.7750252E+01  2.3950054E+01
 1.7761751E+01  2.3943796E+01
 1.7773251E+01  2.3968624E+01
 1.7784750E+01  2.3996988E+01
 1.7796251E+01  2.4031132E+01
 1.7807751E+01  2.4031382E+01
 1.7819250E+01  2.4022961E+01
 1.7830751E+01  2.4026798E+01
 1.7842251E+01  2.4032646E+01
 1.7853750E+01  2.4007931E+01
 1.7865252E+01  2.4011106E+01
 1.7876751E+01  2.3958212E+01
 1.7888250E+01  2.3880154E+01
 1.7899752E+01  2.3842628E+01
 1.7911251E+01  2.3902075E+01
 1.7922750E+01  2.3999025E+01
 1.7934252E+01  2.4045923E+01
 1.7945751E+01  2.4090473E+01
 1.7957251E+01  2.4076832E+01
 1.7968750E+01  2.4183151E+01
 1.7980251E+01  2.4253967E+01
 1.7991751E+01  2.4413116E+01
 1.8003250E+01  2.4464388E+01
 1.8014751E+01  2.4508701E+01
 1.8026251E+01  2.4566013E+01
 1.8037750E+01  2.4569427E+01
 1.8049252E+01  2.4634413E+01
 1.8060751E+01  2.4658863E+01
 1.8072250E+01  2.4755230E+01
 1.8083752E+01  2.4819950E+01
 1.8095251E+01  2.4890209E+01
 1.8106750E+01  2.4961296E+01
 1.8118252E+01  2.4938608E+01
 1.8129751E+01  2.4897335E+01
 1.8141251E+01  2.4746365E+01
 1.8152750E+01  2.4610533E+01
 1.8164251E+01  2.4465986E+01
 1.8175751E+01  2.4308380E+01
 1.8187250E+01  2.4157381E+01
 1.8198751E+01  2.4019232E+01
 1.8210251E+01  2.3959604E+01
 1.8221750E+01  2.3896162E+01
 1.8233252E+01  2.3851412E+01
 1.8244751E+01  2.3796207E+01
 1.8256250E+01  2.3766668E+01
 1.8267752E+01  2.3746134E+01
 1.8279251E+01  2.3787601E+01
 1.8290751E+01  2.3834888E+01
 1.8302252E+01  2.3872881E+01
 1.8313751E+01  2.3897924E+01
 1.8325251E+01  2.3912939E+01
 1.8336750E+01  2.3924364E+01
 1.8348251E+01  2.3903927E+01
 1.8359751E+01  2.3889475E+01
 1.8371250E+01  2.3883520E+01
 1.8382751E+01  2.3850111E+01
 1.8394251E+01  2.3860353E+01
 1.8405750E+01  2.3883610E+01
 1.8417252E+01  2.3879498E+01
 1.8428751E+01  2.3793331E+01
 1.8440250E+01  2.3755175E+01
 1.8451752E+01  2.3757175E+01
 1.8463251E+01  2.3826460E+01
 1.8474751E+01  2.3848423E+01
 1.8486252E+01  2.3813593E+01
 1.8497751E+01  2.3775698E+01
 1.8509251E+01  2.3741901E+01
 1.8520750E+01  2.3764303E+01
 1.8532251E+01  2.3793518E+01
 1.8543751E+01  2.3797428E+01
 1.8555250E+01  2.3786516E+01
 1.8566751E+01  2.3718372E+01
 1.8578251E+01  2.3737553E+01
 1.8589750E+01  2.3765968E+01
 1.8601252E+01  2.3784613E+01
 1.8612751E+01  2.3730875E+01
 1.8624250E+01  2.3653513E+01
 1.8635752E+01  2.3676075E+01
 1.8647251E+01  2.3649172E+01
 1.8658751E+01  2.3676918E+01
 1.8670252E+01  2.3718107E+01
 1.8681751E+01  2.3779524E+01
 1.8693251E+01  2.3782429E+01
 1.8704750E+01  2.3689466E+01
 1.8716251E+01  2.3626177E+01
 1.8727751E+01  2.3596096E+01
 1.8739250E+01  2.3600183E+01
 1.8750751E+01  2.3589529E+01
 1.8762251E+01  2.3583879E+01
 1.8773750E+01  2.3611677E+01
 1.8785252E+01  2.3654003E+01
 1.8796751E+01  2.3667425E+01
 1.8808250E+01  2.3665533E+01
 1.8819752E+01  2.3635302E+01
 1.8831251E+01  2.3574093E+01
 1.8842751E+01  2.3559505E+01
 1.8854252E+01  2.3524052E+01
 1.8865751E+01  2.3561394E+01
 1.8877251E+01  2.3553980E+01
 1.8888750E+01  2.3618628E+01
 1.8900251E+01  2.3670078E+01
 1.8911751E+01  2.3739750E+01
 1.8923250E+01  2.3804956E+01
 1.8934752E+01  2.3836185E+01
 1.8946251E+01  2.3868847E+01
 1.8957750E+01  2.3795099E+01
 1.8969252E+01  2.3704250E+01
 1.8980751E+01  2.3659588E+01
 1.8992250E+01  2.3699001E+01
 1.9003752E+01  2.3750265E+01
 1.9015251E+01  2.3788475E+01
 1.9026751E+01  2.3820566E+01
 1.9038252E+01  2.3820526E+01
 1.9049751E+01  2.3786402E+01
 1.9061251E+01  2.3790594E+01
 1.9072750E+01  2.3799904E+01
 1.9084251E+01  2.3801086E+01
 1.9095751E+01  2.3799383E+01
 1.9107250E+01  2.3749466E+01
 1.9118752E+01  2.3713760E+01
 1.9130251E+01  2.3714355E+01
 1.9141750E+01  2.3754219E+01
 1.9153252E+01  2.3841246E+01
 1.9164751E+01  2.3874552E+01
 1.9176250E+01  2.3873213E+01
 1.9187752E+01  2.3859802E+01
 1.9199251E+01  2.3870556E+01
 1.9210751E+01  2.3851721E+01
 1.9222252E+01  2.3801140E+01
 1.9233751E+01  2.3753950E+01
 1.9245251E+01  2.3742624E+01
 1.9256750E+01  2.3723900E+01
 1.9268251E+01  2.3723280E+01
 1.9279751E+01  2.3718979E+01
 1.9291250E+01  2.3767023E+01
 1.9302752E+01  2.3798912E+01
 1.9314251E+01  2.3827585E+01
 1.9325750E+01  2.3825249E+01
 1.9337252E+01  2.3871273E+01
 1.9348751E+01  2.3921749E+01
 1.9360250E+01  2.3915928E+01
 1.9371752E+01  2.3944210E+01
 1.9383251E+01  2.3935837E+01
 1.9394751E+01  2.4007956E+01
 1.9406250E+01  2.3979864E+01
 1.9417751E+01  2.4005850E+01
 1.9429251E+01  2.3953274E+01
 1.9440750E+01  2.3946154E+01
 1.9452251E+01  2.3934586E+01
 1.9463751E+01  2.3922428E+01
 1.9475250E+01  2.3952829E+01
 1.9486752E+01  2.3979656E+01
 1.9498251E+01  2.4072025E+01
 1.9509750E+01  2.4040129E+01
 1.9521252E+01  2.4087862E+01
 1.9532751E+01  2.4127327E+01
 1.9544250E+01  2.4164713E+01
 1.9555752E+01  2.4164349E+01
 1.9567251E+01  2.4133841E+01
 1.9578751E+01  2.4215502E+01
 1.9590250E+01  2.4309532E+01
 1.9601751E+01  2.4390482E+01
 1.9613251E+01  2.4612556E+01
 1.9624750E+01  2.4733936E+01
 1.9636251E+01  2.5226744E+01
 1.9647751E+01  2.5538189E+01
 1.9659250E+01  2.6448200E+01
 1.9670752E+01  2.7388950E+01
 1.9682251E+01  2.8471527E+01
 1.9693750E+01  3.0430170E+01
 1.9705252E+01  3.0647190E+01
 1.9716751E+01  3.2744431E+01
 1.9728251E+01  3.1045231E+01
 1.9739752E+01  3.1017927E+01
 1.9751251E+01  2.8970076E+01
 1.9762751E+01  2.7826805E+01
 1.9774250E+01  2.7063726E+01
 1.9785751E+01  2.6457178E+01
 1.9797251E+01  2.6763662E+01
 1.9808750E+01  2.7561861E+01
 1.9820251E+01  2.8419518E+01
 1.9831751E+01  3.1625723E+01
 1.9843250E+01  3.4696198E+01
 1.9854752E+01  3.7113949E+01
 1.9866251E+01  3.6447769E+01
 1.9877750E+01  3.6476067E+01
 1.9889252E+01  3.4365211E+01
 1.9900751E+01  3.1571880E+01
 1.9912251E+01  2.9010929E+01
 1.9923752E+01  2.7224939E+01
 1.9935251E+01  2.5948528E+01
 1.9946751E+01  2.5276648E+01
 1.9958250E+01  2.4942413E+01
 1.9969751E+01  2.4742510E+01
 1.9981251E+01  2.4579288E+01
 1.9992750E+01  2.4527517E+01
 2.0004251E+01  2.4385038E+01
 2.0015751E+01  2.4338366E+01
 2.0027250E+01  2.4301262E+01
 2.0038752E+01  2.4295366E+01
 2.0050251E+01  2.4295456E+01
 2.0061750E+01  2.4243986E+01
 2.0073252E+01  2.4191128E+01
 2.0084751E+01  2.4122873E+01
 2.0096251E+01  2.4139708E+01
 2.0107752E+01  2.4125681E+01
 2.0119251E+01  2.4122496E+01
 2.0130751E+01  2.4113785E+01
 2.0142250E+01  2.4145168E+01
 2.0153751E+01  2.4099466E+01
 2.0165251E+01  2.4086020E+01
 2.0176750E+01  2.4093510E+01
 2.0188251E+01  2.4055609E+01
 2.0199751E+01  2.4036289E+01
 2.0211250E+01  2.3995720E+01
 2.0222752E+01  2.3984797E+01
 2.0234251E+01  2.3977919E+01
 2.0245750E+01  2.3990873E+01
 2.0257252E+01  2.4001005E+01
 2.0268751E+01  2.3967434E+01
 2.0280251E+01  2.3959558E+01
 2.0291752E+01  2.3927105E+01
 2.0303251E+01  2.3862030E+01
 2.0314751E+01  2.3816839E+01
 2.0326250E+01  2.3843470E+01
 2.0337751E+01  2.3867916E+01
 2.0349251E+01  2.3868956E+01
 2.0360750E+01  2.3850336E+01
 2.0372252E+01  2.3831190E+01
 2.0383751E+01  2.3811157E+01
 2.0395250E+01  2.3852207E+01
 2.0406752E+01  2.3922224E+01
 2.0418251E+01  2.3984165E+01
 2.0429750E+01  2.4008173E+01
 2.0441252E+01  2.3984285E+01
 2.0452751E+01  2.3966829E+01
 2.0464251E+01  2.3935862E+01
 2.0475752E+01  2.3985836E+01
 2.0487251E+01  2.4015488E+01
 2.0498751E+01  2.4056540E+01
 2.0510250E+01  2.3986597E+01
 2.0521751E+01  2.3980856E+01
 2.0533251E+01  2.3931465E+01
 2.0544750E+01  2.3958973E+01
 2.0556252E+01  2.3966562E+01
 2.0567751E+01  2.3963253E+01
 2.0579250E+01  2.3968670E+01
 2.0590752E+01  2.4003134E+01
 2.0602251E+01  2.4105768E+01
 2.0613750E+01  2.4195332E+01
 2.0625252E+01  2.4310524E+01
 2.0636751E+01  2.4374994E+01
 2.0648251E+01  2.4431379E+01
 2.0659752E+01  2.4450373E+01
 2.0671251E+01  2.4510107E+01
 2.0682751E+01  2.4669870E+01
 2.0694250E+01  2.4899441E+01
 2.0705751E+01  2.5240973E+01
 2.0717251E+01  2.5743925E+01
 2.0728750E+01  2.6193279E+01
 2.0740252E+01  2.6651493E+01
 2.0751751E+01  2.6914415E+01
 2.0763250E+01  2.7020107E+01
 2.0774752E+01  2.6661989E+01
 2.0786251E+01  2.6223053E+01
 2.0797750E+01  2.5695002E+01
 2.0809252E+01  2.5213959E+01
 2.0820751E+01  2.4846584E+01
 2.0832251E+01  2.4591917E+01
 2.0843752E+01  2.4455107E+01
 2.0855251E+01  2.4378477E+01
 2.0866751E+01  2.4336746E+01
 2.0878250E+01  2.4333015E+01
 2.0889751E+01  2.4371225E+01
 2.0901251E+01  2.4414820E+01
 2.0912750E+01  2.4436291E+01
 2.0924252E+01  2.4393885E+01
 2.0935751E+01  2.4376659E+01
 2.0947250E+01  2.4306166E+01
 2.0958752E+01  2.4250553E+01
 2.0970251E+01  2.4195913E+01
 2.0981750E+01  2.4194998E+01
 2.0993252E+01  2.4179665E+01
 2.1004751E+01  2.4164051E+01
 2.1016251E+01  2.4130259E+01
 2.1027752E+01  2.4112461E+01
 2.1039251E+01  2.4071609E+01
 2.1050751E+01  2.4011276E+01
 2.1062250E+01  2.4023306E+01
 2.1073751E+01  2.4058968E+01
 2.1085251E+01  2.4115070E+01
 2.1096750E+01  2.4078789E+01
 2.1108252E+01  2.4148760E+01
 2.1119751E+01  2.4269522E+01
 2.1131250E+01  2.4394062E+01
 2.1142752E+01  2.4382938E+01
 2.1154251E+01  2.4289150E+01
 2.1165751E+01  2.4169577E+01
 2.1177252E+01  2.4137247E+01
 2.1188751E+01  2.4134481E+01
 2.1200251E+01  2.4223898E+01
 2.1211752E+01  2.4284021E+01
 2.1223251E+01  2.4290121E+01
 2.1234751E+01  2.4258495E+01
 2.1246250E+01  2.4294542E+01
 2.1257751E+01  2.4307751E+01
 2.1269251E+01  2.4246668E+01
 2.1280750E+01  2.4189310E+01
 2.1292252E+01  2.4166090E+01
 2.1303751E+01  2.4109831E+01
 2.1315250E+01  2.4051220E+01
 2.1326752E+01  2.4063824E+01
 2.1338251E+01  2.4088528E+01
 2.1349751E+01  2.4108013E+01
 2.1361252E+01  2.4144968E+01
 2.1372751E+01  2.4143499E+01
 2.1384251E+01  2.4121572E+01
 2.1395752E+01  2.4103550E+01
 2.1407251E+01  2.4078217E+01
 2.1418751E+01  2.4110502E+01
 2.1430250E+01  2.4135965E+01
 2.1441751E+01  2.4134075E+01
 2.1453251E+01  2.4094227E+01
 2.1464750E+01  2.4072538E+01
 2.1476252E+01  2.4102011E+01
 2.1487751E+01  2.4159998E+01
 2.1499250E+01  2.4159948E+01
 2.1510752E+01  2.4126686E+01
 2.1522251E+01  2.4106026E+01
 2.1533751E+01  2.4121943E+01
 2.1545252E+01  2.4171215E+01
 2.1556751E+01  2.4190313E+01
 2.1568251E+01  2.4235363E+01
 2.1579752E+01  2.4279737E+01
 2.1591251E+01  2.4369898E+01
 2.1602751E+01  2.4369919E+01
 2.1614250E+01  2.4366936E+01
 2.1625751E+01  2.4340534E+01
 2.1637251E+01  2.4327204E+01
 2.1648750E+01  2.4289484E+01
 2.1660252E+01  2.4299587E+01
 2.1671751E+01  2.4301804E+01
 2.1683250E+01  2.4307495E+01
 2.1694752E+01  2.4272177E+01
 2.1706251E+01  2.4240873E+01
 2.1717751E+01  2.4260853E+01
 2.1729252E+01  2.4248726E+01
 2.1740751E+01  2.4292278E+01
 2.1752251E+01  2.4239197E+01
 2.1763752E+01  2.4246237E+01
 2.1775251E+01  2.4249481E+01
 2.1786751E+01  2.4311373E+01
 2.1798250E+01  2.4342741E+01
 2.1809752E+01  2.4399160E+01
 2.1821251E+01  2.4374754E+01
 2.1832750E+01  2.4335838E+01
 2.1844252E+01  2.4336447E+01
 2.1855751E+01  2.4372540E+01
 2.1867250E+01  2.4409782E+01
 2.1878752E+01  2.4427561E+01
 2.1890251E+01  2.4402596E+01
 2.1901751E+01  2.4395267E+01
 2.1913252E+01  2.4407953E+01
 2.1924751E+01  2.4412451E+01
 2.1936251E+01  2.4399254E+01
 2.1947752E+01  2.4397417E+01
 2.1959251E+01  2.4357351E+01
 2.1970751E+01  2.4324232E+01
 2.1982250E+01  2.4302387E+01
 2.1993752E+01  2.4347662E+01
 2.2005251E+01  2.4372349E+01
 2.2016750E+01  2.4413555E+01
 2.2028252E+01  2.4436253E+01
 2.2039751E+01  2.4455030E+01
 2.2051250E+01  2.4453245E+01
 2.2062752E+01  2.4468760E+01
 2.2074251E+01  2.4493477E+01
 2.2085751E+01  2.4495686E+01
 2.2097252E+01  2.4478704E+01
 2.2108751E+01  2.4516006E+01
 2.2120251E+01  2.4597080E+01
 2.2131752E+01  2.4620844E+01
 2.2143251E+01  2.4563742E+01
 2.2154751E+01  2.4531710E+01
 2.2166250E+01  2.4550154E+01
 2.2177752E+01  2.4586895E+01
 2.2189251E+01  2.4616102E+01
 2.2200750E+01  2.4637270E+01
 2.2212252E+01  2.4591663E+01
 2.2223751E+01  2.4609217E+01
 2.2235250E+01  2.4636003E+01
 2.2246752E+01  2.4666492E+01
 2.2258251E+01  2.4649298E+01
 2.2269751E+01  2.4629368E+01
 2.2281252E+01  2.4643423E+01
 2.2292751E+01  2.4688894E+01
 2.2304251E+01  2.4741371E+01
 2.2315752E+01  2.4757280E+01
 2.2327251E+01  2.4706675E+01
 2.2338751E+01  2.4714855E+01
 2.2350250E+01  2.4746738E+01
 2.2361752E+01  2.4740831E+01
 2.2373251E+01  2.4750118E+01
 2.2384750E+01  2.4708891E+01
 2.2396252E+01  2.4712828E+01
 2.2407751E+01  2.4674131E+01
 2.2419250E+01  2.4691221E+01
 2.2430752E+01  2.4746635E+01
 2.2442251E+01  2.4826696E+01
 2.2453751E+01  2.4952772E+01
 2.2465252E+01  2.4991693E+01
 2.2476751E+01  2.4974434E+01
 2.2488251E+01  2.4990904E+01
 2.2499752E+01  2.5039553E+01
 2.2511251E+01  2.5057175E+01
 2.2522751E+01  2.5065676E+01
 2.2534250E+01  2.5076870E+01
 2.2545752E+01  2.5056911E+01
 2.2557251E+01  2.5081957E+01
 2.2568750E+01  2.5079773E+01
 2.2580252E+01  2.5129253E+01
 2.2591751E+01  2.5157585E+01
 2.2603251E+01  2.5190535E+01
 2.2614752E+01  2.5196730E+01
 2.2626251E+01  2.5193027E+01
 2.2637751E+01  2.5171972E+01
 2.2649252E+01  2.5163282E+01
 2.2660751E+01  2.5143282E+01
 2.2672251E+01  2.5174665E+01
 2.2683752E+01  2.5246311E+01
 2.2695251E+01  2.5372677E+01
 2.2706751E+01  2.5395142E+01
 2.2718250E+01  2.5441120E+01
 2.2729752E+01  2.5478428E+01
 2.2741251E+01  2.5536804E+01
 2.2752750E+01  2.5592819E+01
 2.2764252E+01  2.5648863E+01
 2.2775751E+01  2.5680986E+01
 2.2787251E+01  2.5645870E+01
 2.2798752E+01  2.5706247E+01
 2.2810251E+01  2.5787661E+01
 2.2821751E+01  2.5850370E+01
 2.2833252E+01  2.5910460E+01
 2.2844751E+01  2.5902273E+01
 2.2856251E+01  2.5886961E+01
 2.2867750E+01  2.5952156E+01
 2.2879251E+01  2.6129757E+01
 2.2890751E+01  2.6298622E+01
 2.2902250E+01  2.6411062E+01
 2.2913752E+01  2.6523220E+01
 2.2925251E+01  2.6622063E+01
 2.2936750E+01  2.6610405E+01
 2.2948252E+01  2.6655054E+01
 2.2959751E+01  2.6791672E+01
 2.2971251E+01  2.7186455E+01
 2.2982752E+01  2.7771837E+01
 2.2994251E+01  2.8374855E+01
