F:\20151113_APS_34IDE\\Brian\Particle1\OCV\Data_0139.tif
2-Theta Angle (Degrees)
Intensity
       2000
 5.7500005E-03  0.0000000E+00
 1.7250001E-02  0.0000000E+00
 2.8750001E-02  0.0000000E+00
 4.0250003E-02  0.0000000E+00
 5.1750004E-02  0.0000000E+00
 6.3250005E-02  0.0000000E+00
 7.4750006E-02  0.0000000E+00
 8.6250007E-02  0.0000000E+00
 9.7750008E-02  0.0000000E+00
 1.0925001E-01  0.0000000E+00
 1.2075000E-01  0.0000000E+00
 1.3225001E-01  0.0000000E+00
 1.4375001E-01  0.0000000E+00
 1.5525001E-01  0.0000000E+00
 1.6675001E-01  0.0000000E+00
 1.7825001E-01  0.0000000E+00
 1.8975002E-01  0.0000000E+00
 2.0125002E-01  0.0000000E+00
 2.1275002E-01  0.0000000E+00
 2.2425000E-01  0.0000000E+00
 2.3575000E-01  0.0000000E+00
 2.4725001E-01  0.0000000E+00
 2.5875002E-01  0.0000000E+00
 2.7025002E-01  0.0000000E+00
 2.8175002E-01  0.0000000E+00
 2.9325002E-01  0.0000000E+00
 3.0475003E-01  0.0000000E+00
 3.1625003E-01  0.0000000E+00
 3.2775003E-01  0.0000000E+00
 3.3925003E-01  0.0000000E+00
 3.5075003E-01  0.0000000E+00
 3.6225003E-01  0.0000000E+00
 3.7375003E-01  0.0000000E+00
 3.8525003E-01  0.0000000E+00
 3.9675003E-01  0.0000000E+00
 4.0825003E-01  0.0000000E+00
 4.1975003E-01  0.0000000E+00
 4.3125004E-01  0.0000000E+00
 4.4275001E-01  0.0000000E+00
 4.5425001E-01  0.0000000E+00
 4.6575001E-01  0.0000000E+00
 4.7725001E-01  0.0000000E+00
 4.8875001E-01  0.0000000E+00
 5.0025004E-01  0.0000000E+00
 5.1175004E-01  0.0000000E+00
 5.2325004E-01  0.0000000E+00
 5.3475004E-01  0.0000000E+00
 5.4625005E-01  0.0000000E+00
 5.5775005E-01  0.0000000E+00
 5.6925005E-01  0.0000000E+00
 5.8075005E-01  0.0000000E+00
 5.9225005E-01  0.0000000E+00
 6.0375005E-01  0.0000000E+00
 6.1525005E-01  0.0000000E+00
 6.2675005E-01  0.0000000E+00
 6.3825005E-01  0.0000000E+00
 6.4975005E-01  0.0000000E+00
 6.6125005E-01  0.0000000E+00
 6.7275006E-01  0.0000000E+00
 6.8425006E-01  0.0000000E+00
 6.9575006E-01  0.0000000E+00
 7.0725006E-01  0.0000000E+00
 7.1875006E-01  0.0000000E+00
 7.3025006E-01  0.0000000E+00
 7.4175006E-01  0.0000000E+00
 7.5325006E-01  0.0000000E+00
 7.6475006E-01  0.0000000E+00
 7.7625006E-01  0.0000000E+00
 7.8775007E-01  0.0000000E+00
 7.9925007E-01  0.0000000E+00
 8.1075007E-01  0.0000000E+00
 8.2225007E-01  0.0000000E+00
 8.3375007E-01  0.0000000E+00
 8.4525007E-01  0.0000000E+00
 8.5675007E-01  0.0000000E+00
 8.6825007E-01  0.0000000E+00
 8.7975001E-01  0.0000000E+00
 8.9125001E-01  0.0000000E+00
 9.0275002E-01  0.0000000E+00
 9.1425002E-01  0.0000000E+00
 9.2575002E-01  0.0000000E+00
 9.3725002E-01  0.0000000E+00
 9.4875002E-01  0.0000000E+00
 9.6025002E-01  0.0000000E+00
 9.7175002E-01  0.0000000E+00
 9.8325002E-01  0.0000000E+00
 9.9475002E-01  0.0000000E+00
 1.0062500E+00  0.0000000E+00
 1.0177500E+00  0.0000000E+00
 1.0292500E+00  0.0000000E+00
 1.0407500E+00  0.0000000E+00
 1.0522500E+00  0.0000000E+00
 1.0637500E+00  0.0000000E+00
 1.0752500E+00  0.0000000E+00
 1.0867500E+00  0.0000000E+00
 1.0982500E+00  0.0000000E+00
 1.1097500E+00  0.0000000E+00
 1.1212500E+00  0.0000000E+00
 1.1327500E+00  0.0000000E+00
 1.1442500E+00  0.0000000E+00
 1.1557500E+00  0.0000000E+00
 1.1672500E+00  0.0000000E+00
 1.1787500E+00  0.0000000E+00
 1.1902500E+00  0.0000000E+00
 1.2017500E+00  0.0000000E+00
 1.2132500E+00  0.0000000E+00
 1.2247500E+00  0.0000000E+00
 1.2362500E+00  0.0000000E+00
 1.2477500E+00  0.0000000E+00
 1.2592500E+00  0.0000000E+00
 1.2707500E+00  0.0000000E+00
 1.2822500E+00  0.0000000E+00
 1.2937500E+00  0.0000000E+00
 1.3052500E+00  0.0000000E+00
 1.3167500E+00  0.0000000E+00
 1.3282501E+00  0.0000000E+00
 1.3397501E+00  0.0000000E+00
 1.3512501E+00  0.0000000E+00
 1.3627501E+00  0.0000000E+00
 1.3742501E+00  0.0000000E+00
 1.3857501E+00  0.0000000E+00
 1.3972501E+00  0.0000000E+00
 1.4087501E+00  0.0000000E+00
 1.4202501E+00  0.0000000E+00
 1.4317501E+00  0.0000000E+00
 1.4432501E+00  0.0000000E+00
 1.4547501E+00  0.0000000E+00
 1.4662501E+00  0.0000000E+00
 1.4777501E+00  0.0000000E+00
 1.4892501E+00  0.0000000E+00
 1.5007501E+00  0.0000000E+00
 1.5122501E+00  0.0000000E+00
 1.5237501E+00  0.0000000E+00
 1.5352501E+00  0.0000000E+00
 1.5467501E+00  0.0000000E+00
 1.5582501E+00  0.0000000E+00
 1.5697501E+00  0.0000000E+00
 1.5812501E+00  0.0000000E+00
 1.5927501E+00  0.0000000E+00
 1.6042501E+00  0.0000000E+00
 1.6157501E+00  0.0000000E+00
 1.6272501E+00  0.0000000E+00
 1.6387501E+00  0.0000000E+00
 1.6502501E+00  0.0000000E+00
 1.6617501E+00  0.0000000E+00
 1.6732501E+00  0.0000000E+00
 1.6847501E+00  0.0000000E+00
 1.6962501E+00  0.0000000E+00
 1.7077501E+00  0.0000000E+00
 1.7192501E+00  0.0000000E+00
 1.7307501E+00  0.0000000E+00
 1.7422501E+00  0.0000000E+00
 1.7537501E+00  0.0000000E+00
 1.7652501E+00  0.0000000E+00
 1.7767501E+00  0.0000000E+00
 1.7882501E+00  0.0000000E+00
 1.7997501E+00  0.0000000E+00
 1.8112501E+00  0.0000000E+00
 1.8227501E+00  0.0000000E+00
 1.8342501E+00  0.0000000E+00
 1.8457501E+00  0.0000000E+00
 1.8572501E+00  0.0000000E+00
 1.8687501E+00  0.0000000E+00
 1.8802501E+00  0.0000000E+00
 1.8917501E+00  0.0000000E+00
 1.9032501E+00  0.0000000E+00
 1.9147501E+00  0.0000000E+00
 1.9262501E+00  0.0000000E+00
 1.9377501E+00  0.0000000E+00
 1.9492501E+00  0.0000000E+00
 1.9607501E+00  0.0000000E+00
 1.9722501E+00  0.0000000E+00
 1.9837501E+00  0.0000000E+00
 1.9952501E+00  0.0000000E+00
 2.0067501E+00  0.0000000E+00
 2.0182500E+00  0.0000000E+00
 2.0297501E+00  0.0000000E+00
 2.0412500E+00  0.0000000E+00
 2.0527501E+00  0.0000000E+00
 2.0642500E+00  0.0000000E+00
 2.0757501E+00  0.0000000E+00
 2.0872500E+00  0.0000000E+00
 2.0987501E+00  0.0000000E+00
 2.1102500E+00  0.0000000E+00
 2.1217501E+00  0.0000000E+00
 2.1332500E+00  0.0000000E+00
 2.1447501E+00  0.0000000E+00
 2.1562500E+00  0.0000000E+00
 2.1677501E+00  0.0000000E+00
 2.1792500E+00  0.0000000E+00
 2.1907501E+00  0.0000000E+00
 2.2022500E+00  0.0000000E+00
 2.2137501E+00  0.0000000E+00
 2.2252500E+00  0.0000000E+00
 2.2367501E+00  0.0000000E+00
 2.2482500E+00  0.0000000E+00
 2.2597501E+00  0.0000000E+00
 2.2712500E+00  0.0000000E+00
 2.2827501E+00  0.0000000E+00
 2.2942500E+00  0.0000000E+00
 2.3057501E+00  0.0000000E+00
 2.3172500E+00  0.0000000E+00
 2.3287501E+00  0.0000000E+00
 2.3402500E+00  0.0000000E+00
 2.3517501E+00  0.0000000E+00
 2.3632500E+00  0.0000000E+00
 2.3747501E+00  0.0000000E+00
 2.3862500E+00  0.0000000E+00
 2.3977501E+00  0.0000000E+00
 2.4092500E+00  0.0000000E+00
 2.4207501E+00  0.0000000E+00
 2.4322500E+00  0.0000000E+00
 2.4437501E+00  0.0000000E+00
 2.4552500E+00  0.0000000E+00
 2.4667501E+00  0.0000000E+00
 2.4782500E+00  0.0000000E+00
 2.4897501E+00  0.0000000E+00
 2.5012500E+00  0.0000000E+00
 2.5127501E+00  0.0000000E+00
 2.5242500E+00  0.0000000E+00
 2.5357502E+00  0.0000000E+00
 2.5472500E+00  0.0000000E+00
 2.5587502E+00  0.0000000E+00
 2.5702500E+00  0.0000000E+00
 2.5817502E+00  0.0000000E+00
 2.5932500E+00  0.0000000E+00
 2.6047502E+00  0.0000000E+00
 2.6162500E+00  0.0000000E+00
 2.6277502E+00  0.0000000E+00
 2.6392500E+00  0.0000000E+00
 2.6507502E+00  0.0000000E+00
 2.6622500E+00  0.0000000E+00
 2.6737502E+00  0.0000000E+00
 2.6852500E+00  0.0000000E+00
 2.6967502E+00  0.0000000E+00
 2.7082500E+00  0.0000000E+00
 2.7197502E+00  0.0000000E+00
 2.7312500E+00  0.0000000E+00
 2.7427502E+00  0.0000000E+00
 2.7542500E+00  0.0000000E+00
 2.7657502E+00  0.0000000E+00
 2.7772501E+00  0.0000000E+00
 2.7887502E+00  0.0000000E+00
 2.8002501E+00  0.0000000E+00
 2.8117502E+00  0.0000000E+00
 2.8232501E+00  3.1337154E+01
 2.8347502E+00  3.3123592E+01
 2.8462501E+00  3.4017994E+01
 2.8577502E+00  3.5089645E+01
 2.8692501E+00  3.5706978E+01
 2.8807502E+00  3.5879574E+01
 2.8922501E+00  3.5988380E+01
 2.9037502E+00  3.5725327E+01
 2.9152501E+00  3.5470127E+01
 2.9267502E+00  3.4517570E+01
 2.9382501E+00  3.4170273E+01
 2.9497502E+00  3.3819420E+01
 2.9612501E+00  3.3765842E+01
 2.9727502E+00  3.3800480E+01
 2.9842501E+00  3.3984146E+01
 2.9957502E+00  3.4717827E+01
 3.0072501E+00  3.4903419E+01
 3.0187502E+00  3.5127926E+01
 3.0302501E+00  3.5070927E+01
 3.0417502E+00  3.5231060E+01
 3.0532501E+00  3.5416836E+01
 3.0647502E+00  3.5250286E+01
 3.0762501E+00  3.5467106E+01
 3.0877502E+00  3.5527580E+01
 3.0992501E+00  3.5849991E+01
 3.1107502E+00  3.5651356E+01
 3.1222501E+00  3.5471199E+01
 3.1337502E+00  3.5160946E+01
 3.1452501E+00  3.5286602E+01
 3.1567502E+00  3.5262554E+01
 3.1682501E+00  3.5341225E+01
 3.1797502E+00  3.5118446E+01
 3.1912501E+00  3.5320942E+01
 3.2027502E+00  3.5417339E+01
 3.2142501E+00  3.5584702E+01
 3.2257502E+00  3.5086323E+01
 3.2372501E+00  3.4833221E+01
 3.2487502E+00  3.4471855E+01
 3.2602501E+00  3.4419945E+01
 3.2717502E+00  3.4536594E+01
 3.2832501E+00  3.4385128E+01
 3.2947502E+00  3.4575726E+01
 3.3062501E+00  3.4514713E+01
 3.3177502E+00  3.5139343E+01
 3.3292501E+00  3.5117973E+01
 3.3407502E+00  3.5302139E+01
 3.3522501E+00  3.4894115E+01
 3.3637502E+00  3.4719292E+01
 3.3752501E+00  3.4392330E+01
 3.3867502E+00  3.4282608E+01
 3.3982501E+00  3.4035049E+01
 3.4097502E+00  3.4284725E+01
 3.4212501E+00  3.4064983E+01
 3.4327502E+00  3.4057896E+01
 3.4442501E+00  3.3964920E+01
 3.4557502E+00  3.4181530E+01
 3.4672501E+00  3.4682491E+01
 3.4787502E+00  3.4905804E+01
 3.4902501E+00  3.4906521E+01
 3.5017502E+00  3.4819450E+01
 3.5132501E+00  3.4507301E+01
 3.5247502E+00  3.4330906E+01
 3.5362501E+00  3.4200413E+01
 3.5477502E+00  3.3899296E+01
 3.5592501E+00  3.3790913E+01
 3.5707502E+00  3.3312153E+01
 3.5822501E+00  3.3248699E+01
 3.5937502E+00  3.2962231E+01
 3.6052501E+00  3.2958958E+01
 3.6167502E+00  3.2891907E+01
 3.6282501E+00  3.2942852E+01
 3.6397502E+00  3.3160107E+01
 3.6512501E+00  3.3245270E+01
 3.6627502E+00  3.3187588E+01
 3.6742501E+00  3.3063728E+01
 3.6857502E+00  3.2964378E+01
 3.6972501E+00  3.3109261E+01
 3.7087502E+00  3.2967579E+01
 3.7202501E+00  3.3175510E+01
 3.7317502E+00  3.3046680E+01
 3.7432501E+00  3.3329643E+01
 3.7547503E+00  3.3345634E+01
 3.7662501E+00  3.3447922E+01
 3.7777503E+00  3.3467461E+01
 3.7892501E+00  3.3316555E+01
 3.8007503E+00  3.3182766E+01
 3.8122501E+00  3.2965202E+01
 3.8237503E+00  3.2982170E+01
 3.8352501E+00  3.2845840E+01
 3.8467503E+00  3.2845177E+01
 3.8582501E+00  3.2871944E+01
 3.8697503E+00  3.3012054E+01
 3.8812501E+00  3.2880486E+01
 3.8927503E+00  3.2731300E+01
 3.9042501E+00  3.2534180E+01
 3.9157503E+00  3.2392910E+01
 3.9272501E+00  3.2284752E+01
 3.9387503E+00  3.2300480E+01
 3.9502501E+00  3.2335217E+01
 3.9617503E+00  3.2372211E+01
 3.9732502E+00  3.2518448E+01
 3.9847503E+00  3.2712231E+01
 3.9962502E+00  3.2829865E+01
 4.0077500E+00  3.2923862E+01
 4.0192504E+00  3.2926105E+01
 4.0307503E+00  3.3082264E+01
 4.0422502E+00  3.2992737E+01
 4.0537500E+00  3.2976284E+01
 4.0652504E+00  3.2798920E+01
 4.0767503E+00  3.2626202E+01
 4.0882502E+00  3.2664059E+01
 4.0997500E+00  3.2715801E+01
 4.1112504E+00  3.2717869E+01
 4.1227503E+00  3.2757977E+01
 4.1342502E+00  3.2734131E+01
 4.1457500E+00  3.2871536E+01
 4.1572504E+00  3.2736935E+01
 4.1687503E+00  3.2546558E+01
 4.1802502E+00  3.2367374E+01
 4.1917500E+00  3.2210915E+01
 4.2032504E+00  3.2095387E+01
 4.2147503E+00  3.2088055E+01
 4.2262502E+00  3.2138634E+01
 4.2377501E+00  3.2219318E+01
 4.2492504E+00  3.2147594E+01
 4.2607503E+00  3.2113491E+01
 4.2722502E+00  3.2124928E+01
 4.2837501E+00  3.2247807E+01
 4.2952504E+00  3.2163212E+01
 4.3067503E+00  3.2211914E+01
 4.3182502E+00  3.2104622E+01
 4.3297501E+00  3.2100933E+01
 4.3412504E+00  3.2135265E+01
 4.3527503E+00  3.2206909E+01
 4.3642502E+00  3.2266655E+01
 4.3757501E+00  3.2163918E+01
 4.3872504E+00  3.2110611E+01
 4.3987503E+00  3.2067955E+01
 4.4102502E+00  3.2159351E+01
 4.4217501E+00  3.2174297E+01
 4.4332504E+00  3.2361839E+01
 4.4447503E+00  3.2392815E+01
 4.4562502E+00  3.2548103E+01
 4.4677501E+00  3.2580307E+01
 4.4792504E+00  3.2645100E+01
 4.4907503E+00  3.2580540E+01
 4.5022502E+00  3.2471172E+01
 4.5137501E+00  3.2438244E+01
 4.5252504E+00  3.2457878E+01
 4.5367503E+00  3.2493145E+01
 4.5482502E+00  3.2392281E+01
 4.5597501E+00  3.2297142E+01
 4.5712504E+00  3.2198044E+01
 4.5827503E+00  3.2298054E+01
 4.5942502E+00  3.2324280E+01
 4.6057501E+00  3.2494091E+01
 4.6172504E+00  3.2593998E+01
 4.6287503E+00  3.2648483E+01
 4.6402502E+00  3.2788330E+01
 4.6517501E+00  3.2862328E+01
 4.6632504E+00  3.2950230E+01
 4.6747503E+00  3.2919743E+01
 4.6862502E+00  3.2754196E+01
 4.6977501E+00  3.2728249E+01
 4.7092505E+00  3.2681149E+01
 4.7207503E+00  3.2743881E+01
 4.7322502E+00  3.2630627E+01
 4.7437501E+00  3.2613335E+01
 4.7552505E+00  3.2571083E+01
 4.7667503E+00  3.2719658E+01
 4.7782502E+00  3.2593716E+01
 4.7897501E+00  3.2532772E+01
 4.8012505E+00  3.2378628E+01
 4.8127503E+00  3.2461674E+01
 4.8242502E+00  3.2481621E+01
 4.8357501E+00  3.2647697E+01
 4.8472505E+00  3.2814323E+01
 4.8587503E+00  3.3083900E+01
 4.8702502E+00  3.3198887E+01
 4.8817501E+00  3.3249306E+01
 4.8932505E+00  3.3165794E+01
 4.9047503E+00  3.3104862E+01
 4.9162502E+00  3.3077187E+01
 4.9277501E+00  3.2913433E+01
 4.9392505E+00  3.2927273E+01
 4.9507504E+00  3.2875610E+01
 4.9622502E+00  3.2920380E+01
 4.9737501E+00  3.2904480E+01
 4.9852505E+00  3.2916225E+01
 4.9967504E+00  3.2898243E+01
 5.0082502E+00  3.2978489E+01
 5.0197501E+00  3.2959270E+01
 5.0312505E+00  3.3113331E+01
 5.0427504E+00  3.3059326E+01
 5.0542502E+00  3.2983364E+01
 5.0657501E+00  3.2988079E+01
 5.0772505E+00  3.2887600E+01
 5.0887504E+00  3.3002548E+01
 5.1002502E+00  3.3052673E+01
 5.1117501E+00  3.3019527E+01
 5.1232505E+00  3.3114555E+01
 5.1347504E+00  3.3076939E+01
 5.1462502E+00  3.3207306E+01
 5.1577501E+00  3.3261902E+01
 5.1692505E+00  3.3516556E+01
 5.1807504E+00  3.3740944E+01
 5.1922503E+00  3.3916958E+01
 5.2037501E+00  3.3945820E+01
 5.2152505E+00  3.4002251E+01
 5.2267504E+00  3.4080090E+01
 5.2382503E+00  3.4068611E+01
 5.2497501E+00  3.4150982E+01
 5.2612505E+00  3.4144550E+01
 5.2727504E+00  3.4104885E+01
 5.2842503E+00  3.4088062E+01
 5.2957501E+00  3.4123718E+01
 5.3072500E+00  3.4098541E+01
 5.3187504E+00  3.4224838E+01
 5.3302503E+00  3.4179729E+01
 5.3417501E+00  3.4310966E+01
 5.3532500E+00  3.4275944E+01
 5.3647504E+00  3.4236404E+01
 5.3762503E+00  3.4300377E+01
 5.3877501E+00  3.4377922E+01
 5.3992500E+00  3.4452477E+01
 5.4107504E+00  3.4434910E+01
 5.4222503E+00  3.4396564E+01
 5.4337502E+00  3.4394058E+01
 5.4452500E+00  3.4478645E+01
 5.4567504E+00  3.4526775E+01
 5.4682503E+00  3.4683857E+01
 5.4797502E+00  3.4780994E+01
 5.4912500E+00  3.4795845E+01
 5.5027504E+00  3.4865200E+01
 5.5142503E+00  3.4907761E+01
 5.5257502E+00  3.4881508E+01
 5.5372500E+00  3.4760086E+01
 5.5487504E+00  3.4731899E+01
 5.5602503E+00  3.4774933E+01
 5.5717502E+00  3.4925922E+01
 5.5832500E+00  3.5008366E+01
 5.5947504E+00  3.5172249E+01
 5.6062503E+00  3.5271069E+01
 5.6177502E+00  3.5394730E+01
 5.6292500E+00  3.5344837E+01
 5.6407504E+00  3.5383106E+01
 5.6522503E+00  3.5408970E+01
 5.6637502E+00  3.5602074E+01
 5.6752501E+00  3.5732052E+01
 5.6867504E+00  3.5734318E+01
 5.6982503E+00  3.5658573E+01
 5.7097502E+00  3.5493134E+01
 5.7212501E+00  3.5309002E+01
 5.7327504E+00  3.5185432E+01
 5.7442503E+00  3.5239925E+01
 5.7557502E+00  3.5221741E+01
 5.7672501E+00  3.5330620E+01
 5.7787504E+00  3.5400303E+01
 5.7902503E+00  3.5583603E+01
 5.8017502E+00  3.5782837E+01
 5.8132501E+00  3.5808689E+01
 5.8247504E+00  3.5932121E+01
 5.8362503E+00  3.5927807E+01
 5.8477502E+00  3.5942478E+01
 5.8592501E+00  3.5877579E+01
 5.8707504E+00  3.5859112E+01
 5.8822503E+00  3.5892822E+01
 5.8937502E+00  3.5980331E+01
 5.9052501E+00  3.6162842E+01
 5.9167504E+00  3.6249557E+01
 5.9282503E+00  3.6520374E+01
 5.9397502E+00  3.6627308E+01
 5.9512501E+00  3.7266731E+01
 5.9627504E+00  3.7631409E+01
 5.9742503E+00  3.8396992E+01
 5.9857502E+00  3.8465065E+01
 5.9972501E+00  3.8896957E+01
 6.0087504E+00  3.8457283E+01
 6.0202503E+00  3.8261375E+01
 6.0317502E+00  3.7524342E+01
 6.0432501E+00  3.7193851E+01
 6.0547504E+00  3.6877411E+01
 6.0662503E+00  3.6877243E+01
 6.0777502E+00  3.6799744E+01
 6.0892501E+00  3.6851101E+01
 6.1007504E+00  3.6806805E+01
 6.1122503E+00  3.6760113E+01
 6.1237502E+00  3.6763966E+01
 6.1352501E+00  3.6680763E+01
 6.1467505E+00  3.6760914E+01
 6.1582503E+00  3.6767593E+01
 6.1697502E+00  3.6803093E+01
 6.1812501E+00  3.6885071E+01
 6.1927505E+00  3.6919670E+01
 6.2042503E+00  3.6947872E+01
 6.2157502E+00  3.6941990E+01
 6.2272501E+00  3.6902550E+01
 6.2387505E+00  3.6879520E+01
 6.2502503E+00  3.6927986E+01
 6.2617502E+00  3.7023285E+01
 6.2732501E+00  3.7178150E+01
 6.2847505E+00  3.7346584E+01
 6.2962503E+00  3.7445560E+01
 6.3077502E+00  3.7539467E+01
 6.3192501E+00  3.7579868E+01
 6.3307505E+00  3.7726006E+01
 6.3422503E+00  3.7799011E+01
 6.3537502E+00  3.7841335E+01
 6.3652501E+00  3.7760429E+01
 6.3767505E+00  3.7846153E+01
 6.3882504E+00  3.7906765E+01
 6.3997502E+00  3.8023228E+01
 6.4112501E+00  3.8184982E+01
 6.4227505E+00  3.8245102E+01
 6.4342504E+00  3.8397404E+01
 6.4457502E+00  3.8466393E+01
 6.4572501E+00  3.8528538E+01
 6.4687505E+00  3.8652008E+01
 6.4802504E+00  3.8640087E+01
 6.4917502E+00  3.8833004E+01
 6.5032501E+00  3.9031208E+01
 6.5147505E+00  3.9256844E+01
 6.5262504E+00  3.9402840E+01
 6.5377502E+00  3.9495472E+01
 6.5492501E+00  3.9523602E+01
 6.5607505E+00  3.9660183E+01
 6.5722504E+00  3.9667076E+01
 6.5837502E+00  3.9678638E+01
 6.5952501E+00  3.9571354E+01
 6.6067505E+00  3.9524014E+01
 6.6182504E+00  3.9641476E+01
 6.6297503E+00  3.9710201E+01
 6.6412501E+00  3.9865673E+01
 6.6527505E+00  3.9987896E+01
 6.6642504E+00  4.0196011E+01
 6.6757503E+00  4.0248333E+01
 6.6872501E+00  4.0291199E+01
 6.6987505E+00  4.0332962E+01
 6.7102504E+00  4.0381809E+01
 6.7217503E+00  4.0431503E+01
 6.7332501E+00  4.0500050E+01
 6.7447505E+00  4.0577221E+01
 6.7562504E+00  4.0728706E+01
 6.7677503E+00  4.0799717E+01
 6.7792501E+00  4.0953842E+01
 6.7907505E+00  4.1078773E+01
 6.8022504E+00  4.1293205E+01
 6.8137503E+00  4.1532848E+01
 6.8252501E+00  4.1594513E+01
 6.8367505E+00  4.1579689E+01
 6.8482504E+00  4.1616222E+01
 6.8597503E+00  4.1704437E+01
 6.8712502E+00  4.1831703E+01
 6.8827505E+00  4.1880951E+01
 6.8942504E+00  4.1982029E+01
 6.9057503E+00  4.2018650E+01
 6.9172502E+00  4.2069191E+01
 6.9287505E+00  4.2007408E+01
 6.9402504E+00  4.2081749E+01
 6.9517503E+00  4.1990047E+01
 6.9632502E+00  4.2021667E+01
 6.9747505E+00  4.2018436E+01
 6.9862504E+00  4.2082699E+01
 6.9977503E+00  4.2108826E+01
 7.0092502E+00  4.2100967E+01
 7.0207505E+00  4.2169922E+01
 7.0322504E+00  4.2263912E+01
 7.0437503E+00  4.2360142E+01
 7.0552502E+00  4.2440575E+01
 7.0667505E+00  4.2618374E+01
 7.0782504E+00  4.2662392E+01
 7.0897503E+00  4.2858032E+01
 7.1012502E+00  4.3004147E+01
 7.1127505E+00  4.3166103E+01
 7.1242504E+00  4.3224354E+01
 7.1357503E+00  4.3135208E+01
 7.1472502E+00  4.3173981E+01
 7.1587505E+00  4.3203205E+01
 7.1702504E+00  4.3301445E+01
 7.1817503E+00  4.3276665E+01
 7.1932502E+00  4.3438786E+01
 7.2047505E+00  4.3456032E+01
 7.2162504E+00  4.3573814E+01
 7.2277503E+00  4.3581268E+01
 7.2392502E+00  4.3681412E+01
 7.2507505E+00  4.3815781E+01
 7.2622504E+00  4.3782494E+01
 7.2737503E+00  4.3753445E+01
 7.2852502E+00  4.3736687E+01
 7.2967505E+00  4.3713997E+01
 7.3082504E+00  4.3738514E+01
 7.3197503E+00  4.3633114E+01
 7.3312502E+00  4.3726696E+01
 7.3427505E+00  4.3791351E+01
 7.3542504E+00  4.3907494E+01
 7.3657503E+00  4.3952896E+01
 7.3772502E+00  4.3980026E+01
 7.3887506E+00  4.4067219E+01
 7.4002504E+00  4.4125603E+01
 7.4117503E+00  4.4339264E+01
 7.4232502E+00  4.4401516E+01
 7.4347506E+00  4.4474312E+01
 7.4462504E+00  4.4418247E+01
 7.4577503E+00  4.4423912E+01
 7.4692502E+00  4.4403797E+01
 7.4807506E+00  4.4358269E+01
 7.4922504E+00  4.4319302E+01
 7.5037503E+00  4.4356380E+01
 7.5152502E+00  4.4358612E+01
 7.5267506E+00  4.4331879E+01
 7.5382504E+00  4.4378212E+01
 7.5497503E+00  4.4575893E+01
 7.5612502E+00  4.4724522E+01
 7.5727506E+00  4.4876232E+01
 7.5842505E+00  4.4863388E+01
 7.5957503E+00  4.4802406E+01
 7.6072502E+00  4.4739517E+01
 7.6187506E+00  4.4640282E+01
 7.6302505E+00  4.4714100E+01
 7.6417503E+00  4.4719463E+01
 7.6532502E+00  4.4736507E+01
 7.6647506E+00  4.4719112E+01
 7.6762505E+00  4.4584660E+01
 7.6877503E+00  4.4518417E+01
 7.6992502E+00  4.4334671E+01
 7.7107506E+00  4.4373081E+01
 7.7222505E+00  4.4318619E+01
 7.7337503E+00  4.4372417E+01
 7.7452502E+00  4.4287056E+01
 7.7567506E+00  4.4299980E+01
 7.7682505E+00  4.4243294E+01
 7.7797503E+00  4.4271523E+01
 7.7912502E+00  4.4252903E+01
 7.8027506E+00  4.4254738E+01
 7.8142505E+00  4.4313374E+01
 7.8257504E+00  4.4224228E+01
 7.8372502E+00  4.4112743E+01
 7.8487506E+00  4.3999657E+01
 7.8602505E+00  4.3941036E+01
 7.8717504E+00  4.3929932E+01
 7.8832502E+00  4.3837948E+01
 7.8947506E+00  4.3816952E+01
 7.9062505E+00  4.3945660E+01
 7.9177504E+00  4.4040787E+01
 7.9292502E+00  4.4094234E+01
 7.9407506E+00  4.4063076E+01
 7.9522505E+00  4.3959660E+01
 7.9637504E+00  4.3851509E+01
 7.9752502E+00  4.3684265E+01
 7.9867506E+00  4.3603065E+01
 7.9982505E+00  4.3587681E+01
 8.0097504E+00  4.3502922E+01
 8.0212507E+00  4.3477505E+01
 8.0327501E+00  4.3366905E+01
 8.0442505E+00  4.3337662E+01
 8.0557508E+00  4.3251369E+01
 8.0672503E+00  4.3101967E+01
 8.0787506E+00  4.2956249E+01
 8.0902500E+00  4.2828533E+01
 8.1017504E+00  4.2748997E+01
 8.1132507E+00  4.2692913E+01
 8.1247501E+00  4.2499660E+01
 8.1362505E+00  4.2422134E+01
 8.1477509E+00  4.2447083E+01
 8.1592503E+00  4.2486942E+01
 8.1707506E+00  4.2459877E+01
 8.1822500E+00  4.2313278E+01
 8.1937504E+00  4.2299480E+01
 8.2052507E+00  4.2180687E+01
 8.2167501E+00  4.2036076E+01
 8.2282505E+00  4.1890114E+01
 8.2397509E+00  4.1733097E+01
 8.2512503E+00  4.1686134E+01
 8.2627506E+00  4.1576542E+01
 8.2742500E+00  4.1530533E+01
 8.2857504E+00  4.1335770E+01
 8.2972507E+00  4.1060314E+01
 8.3087502E+00  4.0764828E+01
 8.3202505E+00  4.0538040E+01
 8.3317509E+00  4.0374046E+01
 8.3432503E+00  4.0307545E+01
 8.3547506E+00  4.0162113E+01
 8.3662500E+00  4.0074146E+01
 8.3777504E+00  3.9972347E+01
 8.3892508E+00  3.9830780E+01
 8.4007502E+00  3.9676308E+01
 8.4122505E+00  3.9437767E+01
 8.4237509E+00  3.9274590E+01
 8.4352503E+00  3.9045250E+01
 8.4467506E+00  3.8899498E+01
 8.4582500E+00  3.8708485E+01
 8.4697504E+00  3.8664215E+01
 8.4812508E+00  3.8526707E+01
 8.4927502E+00  3.8493538E+01
 8.5042505E+00  3.8360352E+01
 8.5157509E+00  3.8258366E+01
 8.5272503E+00  3.8053562E+01
 8.5387506E+00  3.7905857E+01
 8.5502501E+00  3.7647953E+01
 8.5617504E+00  3.7335270E+01
 8.5732508E+00  3.7075039E+01
 8.5847502E+00  3.6779900E+01
 8.5962505E+00  3.6611248E+01
 8.6077509E+00  3.6368530E+01
 8.6192503E+00  3.6318508E+01
 8.6307507E+00  3.6189716E+01
 8.6422501E+00  3.6037895E+01
 8.6537504E+00  3.5780449E+01
 8.6652508E+00  3.5660698E+01
 8.6767502E+00  3.5451332E+01
 8.6882505E+00  3.5352436E+01
 8.6997509E+00  3.5138016E+01
 8.7112503E+00  3.5030567E+01
 8.7227507E+00  3.4883282E+01
 8.7342501E+00  3.4698212E+01
 8.7457504E+00  3.4466633E+01
 8.7572508E+00  3.4197300E+01
 8.7687502E+00  3.3953220E+01
 8.7802505E+00  3.3825195E+01
 8.7917500E+00  3.3656883E+01
 8.8032503E+00  3.3464787E+01
 8.8147507E+00  3.3315742E+01
 8.8262501E+00  3.3135548E+01
 8.8377504E+00  3.2990780E+01
 8.8492508E+00  3.2740112E+01
 8.8607502E+00  3.2576530E+01
 8.8722506E+00  3.2403168E+01
 8.8837500E+00  3.2296429E+01
 8.8952503E+00  3.2150993E+01
 8.9067507E+00  3.2093578E+01
 8.9182501E+00  3.1945639E+01
 8.9297504E+00  3.1782766E+01
 8.9412508E+00  3.1657207E+01
 8.9527502E+00  3.1515543E+01
 8.9642506E+00  3.1417818E+01
 8.9757500E+00  3.1296200E+01
 8.9872503E+00  3.1231129E+01
 8.9987507E+00  3.1024645E+01
 9.0102501E+00  3.0872149E+01
 9.0217505E+00  3.0581289E+01
 9.0332508E+00  3.0483971E+01
 9.0447502E+00  3.0326754E+01
 9.0562506E+00  3.0307188E+01
 9.0677500E+00  3.0195297E+01
 9.0792503E+00  3.0130758E+01
 9.0907507E+00  2.9967480E+01
 9.1022501E+00  2.9830894E+01
 9.1137505E+00  2.9697399E+01
 9.1252508E+00  2.9559919E+01
 9.1367502E+00  2.9544403E+01
 9.1482506E+00  2.9448214E+01
 9.1597500E+00  2.9369776E+01
 9.1712503E+00  2.9228552E+01
 9.1827507E+00  2.9099747E+01
 9.1942501E+00  2.8975649E+01
 9.2057505E+00  2.8833237E+01
 9.2172508E+00  2.8638796E+01
 9.2287502E+00  2.8513630E+01
 9.2402506E+00  2.8405130E+01
 9.2517500E+00  2.8358803E+01
 9.2632504E+00  2.8240658E+01
 9.2747507E+00  2.8137341E+01
 9.2862501E+00  2.7949793E+01
 9.2977505E+00  2.7833101E+01
 9.3092508E+00  2.7625713E+01
 9.3207502E+00  2.7476820E+01
 9.3322506E+00  2.7342428E+01
 9.3437500E+00  2.7253431E+01
 9.3552504E+00  2.7203356E+01
 9.3667507E+00  2.7155487E+01
 9.3782501E+00  2.7130821E+01
 9.3897505E+00  2.7146166E+01
 9.4012508E+00  2.7095139E+01
 9.4127502E+00  2.7092579E+01
 9.4242506E+00  2.7006699E+01
 9.4357500E+00  2.6974186E+01
 9.4472504E+00  2.6826527E+01
 9.4587507E+00  2.6728960E+01
 9.4702501E+00  2.6600220E+01
 9.4817505E+00  2.6570372E+01
 9.4932508E+00  2.6452854E+01
 9.5047503E+00  2.6388763E+01
 9.5162506E+00  2.6302929E+01
 9.5277500E+00  2.6216377E+01
 9.5392504E+00  2.6148481E+01
 9.5507507E+00  2.6014214E+01
 9.5622501E+00  2.5939484E+01
 9.5737505E+00  2.5810663E+01
 9.5852509E+00  2.5735956E+01
 9.5967503E+00  2.5708595E+01
 9.6082506E+00  2.5701136E+01
 9.6197500E+00  2.5708761E+01
 9.6312504E+00  2.5702633E+01
 9.6427507E+00  2.5670963E+01
 9.6542501E+00  2.5635416E+01
 9.6657505E+00  2.5516251E+01
 9.6772509E+00  2.5413597E+01
 9.6887503E+00  2.5343332E+01
 9.7002506E+00  2.5327074E+01
 9.7117500E+00  2.5304546E+01
 9.7232504E+00  2.5280491E+01
 9.7347507E+00  2.5249249E+01
 9.7462502E+00  2.5278456E+01
 9.7577505E+00  2.5221228E+01
 9.7692509E+00  2.5221437E+01
 9.7807503E+00  2.5162485E+01
 9.7922506E+00  2.5174843E+01
 9.8037500E+00  2.5207609E+01
 9.8152504E+00  2.5167555E+01
 9.8267508E+00  2.5058847E+01
 9.8382502E+00  2.4945850E+01
 9.8497505E+00  2.4879292E+01
 9.8612509E+00  2.4767042E+01
 9.8727503E+00  2.4628571E+01
 9.8842506E+00  2.4509781E+01
 9.8957500E+00  2.4490425E+01
 9.9072504E+00  2.4490583E+01
 9.9187508E+00  2.4474245E+01
 9.9302502E+00  2.4451719E+01
 9.9417505E+00  2.4385397E+01
 9.9532509E+00  2.4332684E+01
 9.9647503E+00  2.4346298E+01
 9.9762506E+00  2.4354036E+01
 9.9877501E+00  2.4394651E+01
 9.9992504E+00  2.4395494E+01
 1.0010751E+01  2.4329941E+01
 1.0022250E+01  2.4313620E+01
 1.0033751E+01  2.4243431E+01
 1.0045251E+01  2.4244135E+01
 1.0056750E+01  2.4210018E+01
 1.0068251E+01  2.4191021E+01
 1.0079750E+01  2.4098709E+01
 1.0091250E+01  2.4044868E+01
 1.0102751E+01  2.3983856E+01
 1.0114250E+01  2.4010067E+01
 1.0125751E+01  2.4005562E+01
 1.0137251E+01  2.3975210E+01
 1.0148750E+01  2.3940434E+01
 1.0160251E+01  2.3915373E+01
 1.0171750E+01  2.3890932E+01
 1.0183250E+01  2.3865782E+01
 1.0194751E+01  2.3787682E+01
 1.0206250E+01  2.3755133E+01
 1.0217751E+01  2.3728046E+01
 1.0229251E+01  2.3733053E+01
 1.0240750E+01  2.3740944E+01
 1.0252251E+01  2.3733192E+01
 1.0263750E+01  2.3717161E+01
 1.0275250E+01  2.3712980E+01
 1.0286751E+01  2.3697010E+01
 1.0298250E+01  2.3689888E+01
 1.0309751E+01  2.3613968E+01
 1.0321251E+01  2.3544430E+01
 1.0332750E+01  2.3482729E+01
 1.0344251E+01  2.3440796E+01
 1.0355750E+01  2.3393194E+01
 1.0367250E+01  2.3367769E+01
 1.0378751E+01  2.3364443E+01
 1.0390250E+01  2.3369318E+01
 1.0401751E+01  2.3380461E+01
 1.0413251E+01  2.3344059E+01
 1.0424750E+01  2.3324326E+01
 1.0436251E+01  2.3246931E+01
 1.0447750E+01  2.3212557E+01
 1.0459250E+01  2.3174404E+01
 1.0470751E+01  2.3119995E+01
 1.0482250E+01  2.3102282E+01
 1.0493751E+01  2.3088676E+01
 1.0505251E+01  2.3080597E+01
 1.0516750E+01  2.3065983E+01
 1.0528251E+01  2.3015284E+01
 1.0539750E+01  2.2952681E+01
 1.0551250E+01  2.2935186E+01
 1.0562751E+01  2.3000322E+01
 1.0574250E+01  2.3008085E+01
 1.0585751E+01  2.2958126E+01
 1.0597251E+01  2.2866913E+01
 1.0608750E+01  2.2922800E+01
 1.0620251E+01  2.2985172E+01
 1.0631750E+01  2.3042923E+01
 1.0643250E+01  2.3037556E+01
 1.0654751E+01  2.3032078E+01
 1.0666250E+01  2.2993912E+01
 1.0677751E+01  2.2917568E+01
 1.0689251E+01  2.2771902E+01
 1.0700750E+01  2.2694206E+01
 1.0712251E+01  2.2658297E+01
 1.0723750E+01  2.2709711E+01
 1.0735250E+01  2.2737616E+01
 1.0746751E+01  2.2775703E+01
 1.0758250E+01  2.2819479E+01
 1.0769751E+01  2.2855652E+01
 1.0781251E+01  2.2854507E+01
 1.0792750E+01  2.2785402E+01
 1.0804251E+01  2.2726885E+01
 1.0815750E+01  2.2700188E+01
 1.0827250E+01  2.2726616E+01
 1.0838751E+01  2.2727173E+01
 1.0850250E+01  2.2696590E+01
 1.0861751E+01  2.2644855E+01
 1.0873251E+01  2.2591158E+01
 1.0884750E+01  2.2579426E+01
 1.0896251E+01  2.2551115E+01
 1.0907750E+01  2.2526766E+01
 1.0919250E+01  2.2515272E+01
 1.0930751E+01  2.2515133E+01
 1.0942250E+01  2.2502520E+01
 1.0953751E+01  2.2529528E+01
 1.0965251E+01  2.2518192E+01
 1.0976750E+01  2.2573229E+01
 1.0988251E+01  2.2554976E+01
 1.0999750E+01  2.2615494E+01
 1.1011250E+01  2.2607767E+01
 1.1022751E+01  2.2566996E+01
 1.1034250E+01  2.2517973E+01
 1.1045751E+01  2.2478455E+01
 1.1057251E+01  2.2500227E+01
 1.1068750E+01  2.2473627E+01
 1.1080251E+01  2.2484159E+01
 1.1091750E+01  2.2451374E+01
 1.1103251E+01  2.2471243E+01
 1.1114751E+01  2.2442883E+01
 1.1126250E+01  2.2424080E+01
 1.1137751E+01  2.2393501E+01
 1.1149251E+01  2.2429245E+01
 1.1160750E+01  2.2462778E+01
 1.1172251E+01  2.2485706E+01
 1.1183750E+01  2.2479618E+01
 1.1195251E+01  2.2486446E+01
 1.1206751E+01  2.2461136E+01
 1.1218250E+01  2.2422136E+01
 1.1229751E+01  2.2363131E+01
 1.1241251E+01  2.2359144E+01
 1.1252750E+01  2.2347342E+01
 1.1264251E+01  2.2383167E+01
 1.1275750E+01  2.2378088E+01
 1.1287251E+01  2.2344198E+01
 1.1298751E+01  2.2294336E+01
 1.1310250E+01  2.2307812E+01
 1.1321751E+01  2.2352518E+01
 1.1333251E+01  2.2425209E+01
 1.1344750E+01  2.2429235E+01
 1.1356251E+01  2.2475643E+01
 1.1367750E+01  2.2496056E+01
 1.1379251E+01  2.2475796E+01
 1.1390751E+01  2.2469261E+01
 1.1402250E+01  2.2522699E+01
 1.1413751E+01  2.2520464E+01
 1.1425251E+01  2.2503565E+01
 1.1436750E+01  2.2437555E+01
 1.1448251E+01  2.2446154E+01
 1.1459750E+01  2.2452419E+01
 1.1471251E+01  2.2453304E+01
 1.1482751E+01  2.2458941E+01
 1.1494250E+01  2.2439392E+01
 1.1505751E+01  2.2398470E+01
 1.1517251E+01  2.2428141E+01
 1.1528750E+01  2.2503597E+01
 1.1540251E+01  2.2627197E+01
 1.1551750E+01  2.2713318E+01
 1.1563251E+01  2.2849628E+01
 1.1574751E+01  2.2948479E+01
 1.1586250E+01  2.3085941E+01
 1.1597751E+01  2.3142338E+01
 1.1609251E+01  2.3053576E+01
 1.1620750E+01  2.2925011E+01
 1.1632251E+01  2.2681646E+01
 1.1643750E+01  2.2572235E+01
 1.1655251E+01  2.2463840E+01
 1.1666751E+01  2.2420034E+01
 1.1678250E+01  2.2395533E+01
 1.1689751E+01  2.2351982E+01
 1.1701251E+01  2.2363894E+01
 1.1712750E+01  2.2325361E+01
 1.1724251E+01  2.2293152E+01
 1.1735750E+01  2.2285881E+01
 1.1747251E+01  2.2267801E+01
 1.1758751E+01  2.2298826E+01
 1.1770250E+01  2.2300688E+01
 1.1781751E+01  2.2341154E+01
 1.1793251E+01  2.2356077E+01
 1.1804750E+01  2.2329353E+01
 1.1816251E+01  2.2328310E+01
 1.1827750E+01  2.2323879E+01
 1.1839251E+01  2.2335489E+01
 1.1850751E+01  2.2323956E+01
 1.1862250E+01  2.2336199E+01
 1.1873751E+01  2.2312275E+01
 1.1885251E+01  2.2317169E+01
 1.1896750E+01  2.2393688E+01
 1.1908251E+01  2.2478104E+01
 1.1919750E+01  2.2647072E+01
 1.1931251E+01  2.2750130E+01
 1.1942751E+01  2.2916130E+01
 1.1954250E+01  2.3079758E+01
 1.1965751E+01  2.3258253E+01
 1.1977251E+01  2.3467054E+01
 1.1988750E+01  2.3575577E+01
 1.2000251E+01  2.3601936E+01
 1.2011750E+01  2.3541054E+01
 1.2023251E+01  2.3389584E+01
 1.2034751E+01  2.3228781E+01
 1.2046250E+01  2.3013651E+01
 1.2057751E+01  2.2870949E+01
 1.2069251E+01  2.2821930E+01
 1.2080750E+01  2.2869303E+01
 1.2092251E+01  2.2849873E+01
 1.2103750E+01  2.2820906E+01
 1.2115251E+01  2.2755259E+01
 1.2126751E+01  2.2682461E+01
 1.2138250E+01  2.2641470E+01
 1.2149751E+01  2.2566996E+01
 1.2161251E+01  2.2580845E+01
 1.2172750E+01  2.2484550E+01
 1.2184251E+01  2.2490623E+01
 1.2195750E+01  2.2495102E+01
 1.2207251E+01  2.2501444E+01
 1.2218751E+01  2.2458488E+01
 1.2230250E+01  2.2452953E+01
 1.2241751E+01  2.2452507E+01
 1.2253251E+01  2.2440575E+01
 1.2264750E+01  2.2434204E+01
 1.2276251E+01  2.2406134E+01
 1.2287750E+01  2.2391773E+01
 1.2299251E+01  2.2356352E+01
 1.2310751E+01  2.2372885E+01
 1.2322250E+01  2.2354143E+01
 1.2333751E+01  2.2370991E+01
 1.2345250E+01  2.2413710E+01
 1.2356750E+01  2.2502211E+01
 1.2368251E+01  2.2516699E+01
 1.2379750E+01  2.2521679E+01
 1.2391251E+01  2.2527149E+01
 1.2402751E+01  2.2522448E+01
 1.2414250E+01  2.2484541E+01
 1.2425751E+01  2.2437370E+01
 1.2437250E+01  2.2471251E+01
 1.2448750E+01  2.2429819E+01
 1.2460251E+01  2.2488777E+01
 1.2471750E+01  2.2477880E+01
 1.2483251E+01  2.2564928E+01
 1.2494751E+01  2.2505901E+01
 1.2506250E+01  2.2485090E+01
 1.2517751E+01  2.2413132E+01
 1.2529250E+01  2.2424459E+01
 1.2540751E+01  2.2395611E+01
 1.2552251E+01  2.2462051E+01
 1.2563750E+01  2.2442747E+01
 1.2575251E+01  2.2528881E+01
 1.2586751E+01  2.2562317E+01
 1.2598250E+01  2.2623116E+01
 1.2609751E+01  2.2663597E+01
 1.2621250E+01  2.2699768E+01
 1.2632751E+01  2.2723173E+01
 1.2644251E+01  2.2658585E+01
 1.2655750E+01  2.2608295E+01
 1.2667251E+01  2.2607098E+01
 1.2678751E+01  2.2629757E+01
 1.2690250E+01  2.2713795E+01
 1.2701751E+01  2.2767006E+01
 1.2713250E+01  2.2851234E+01
 1.2724751E+01  2.2820290E+01
 1.2736251E+01  2.2843744E+01
 1.2747750E+01  2.2884296E+01
 1.2759251E+01  2.2983305E+01
 1.2770751E+01  2.3009977E+01
 1.2782250E+01  2.3076334E+01
 1.2793751E+01  2.3088135E+01
 1.2805250E+01  2.3123613E+01
 1.2816751E+01  2.3077505E+01
 1.2828251E+01  2.3106037E+01
 1.2839750E+01  2.3106438E+01
 1.2851251E+01  2.3189699E+01
 1.2862751E+01  2.3196680E+01
 1.2874250E+01  2.3258884E+01
 1.2885751E+01  2.3254290E+01
 1.2897250E+01  2.3307871E+01
 1.2908751E+01  2.3396214E+01
 1.2920251E+01  2.3459332E+01
 1.2931750E+01  2.3551878E+01
 1.2943251E+01  2.3612911E+01
 1.2954751E+01  2.3667997E+01
 1.2966250E+01  2.3769262E+01
 1.2977751E+01  2.3791986E+01
 1.2989250E+01  2.3832476E+01
 1.3000751E+01  2.3835365E+01
 1.3012251E+01  2.3890324E+01
 1.3023750E+01  2.3978168E+01
 1.3035251E+01  2.4015266E+01
 1.3046751E+01  2.4069532E+01
 1.3058250E+01  2.4096102E+01
 1.3069751E+01  2.4173635E+01
 1.3081250E+01  2.4305311E+01
 1.3092751E+01  2.4461502E+01
 1.3104251E+01  2.4665703E+01
 1.3115750E+01  2.4788036E+01
 1.3127251E+01  2.4884638E+01
 1.3138751E+01  2.4939882E+01
 1.3150250E+01  2.5000225E+01
 1.3161751E+01  2.5055944E+01
 1.3173250E+01  2.5160616E+01
 1.3184751E+01  2.5313946E+01
 1.3196251E+01  2.5489651E+01
 1.3207750E+01  2.5626625E+01
 1.3219251E+01  2.5759806E+01
 1.3230751E+01  2.5929598E+01
 1.3242250E+01  2.6061050E+01
 1.3253751E+01  2.6181934E+01
 1.3265250E+01  2.6235395E+01
 1.3276751E+01  2.6373405E+01
 1.3288251E+01  2.6522758E+01
 1.3299750E+01  2.6736105E+01
 1.3311251E+01  2.6856436E+01
 1.3322751E+01  2.7062294E+01
 1.3334250E+01  2.7278566E+01
 1.3345751E+01  2.7483053E+01
 1.3357250E+01  2.7659540E+01
 1.3368751E+01  2.7682959E+01
 1.3380251E+01  2.7803473E+01
 1.3391750E+01  2.7893030E+01
 1.3403251E+01  2.8111328E+01
 1.3414751E+01  2.8216742E+01
 1.3426250E+01  2.8315466E+01
 1.3437751E+01  2.8420401E+01
 1.3449250E+01  2.8545982E+01
 1.3460751E+01  2.8696218E+01
 1.3472251E+01  2.8809359E+01
 1.3483750E+01  2.8986708E+01
 1.3495251E+01  2.9093050E+01
 1.3506751E+01  2.9199558E+01
 1.3518250E+01  2.9245142E+01
 1.3529751E+01  2.9299625E+01
 1.3541250E+01  2.9313540E+01
 1.3552751E+01  2.9358276E+01
 1.3564251E+01  2.9400980E+01
 1.3575750E+01  2.9499395E+01
 1.3587251E+01  2.9593788E+01
 1.3598751E+01  2.9686016E+01
 1.3610250E+01  2.9691105E+01
 1.3621751E+01  2.9686859E+01
 1.3633250E+01  2.9675171E+01
 1.3644751E+01  2.9657209E+01
 1.3656251E+01  2.9662210E+01
 1.3667750E+01  2.9715796E+01
 1.3679251E+01  2.9790066E+01
 1.3690751E+01  2.9707024E+01
 1.3702250E+01  2.9603926E+01
 1.3713751E+01  2.9470320E+01
 1.3725250E+01  2.9400570E+01
 1.3736751E+01  2.9340235E+01
 1.3748251E+01  2.9316780E+01
 1.3759750E+01  2.9304670E+01
 1.3771251E+01  2.9280588E+01
 1.3782751E+01  2.9277758E+01
 1.3794250E+01  2.9257908E+01
 1.3805751E+01  2.9228474E+01
 1.3817250E+01  2.9131487E+01
 1.3828751E+01  2.9037100E+01
 1.3840251E+01  2.8962025E+01
 1.3851750E+01  2.8963528E+01
 1.3863251E+01  2.8916767E+01
 1.3874751E+01  2.8911278E+01
 1.3886250E+01  2.8875029E+01
 1.3897751E+01  2.9000717E+01
 1.3909250E+01  2.9141653E+01
 1.3920751E+01  2.9461878E+01
 1.3932251E+01  2.9806746E+01
 1.3943750E+01  3.0146610E+01
 1.3955251E+01  3.0424604E+01
 1.3966751E+01  3.0348383E+01
 1.3978251E+01  3.0238024E+01
 1.3989751E+01  2.9715944E+01
 1.4001250E+01  2.9318197E+01
 1.4012751E+01  2.8704411E+01
 1.4024251E+01  2.8296410E+01
 1.4035750E+01  2.7910042E+01
 1.4047251E+01  2.7711716E+01
 1.4058751E+01  2.7549299E+01
 1.4070251E+01  2.7450825E+01
 1.4081751E+01  2.7279388E+01
 1.4093250E+01  2.7236347E+01
 1.4104751E+01  2.7177069E+01
 1.4116251E+01  2.7175859E+01
 1.4127750E+01  2.7115959E+01
 1.4139251E+01  2.7052711E+01
 1.4150751E+01  2.6969936E+01
 1.4162251E+01  2.6890129E+01
 1.4173751E+01  2.6814257E+01
 1.4185250E+01  2.6724194E+01
 1.4196751E+01  2.6605988E+01
 1.4208251E+01  2.6502552E+01
 1.4219750E+01  2.6459951E+01
 1.4231251E+01  2.6394602E+01
 1.4242751E+01  2.6348070E+01
 1.4254251E+01  2.6242617E+01
 1.4265751E+01  2.6188824E+01
 1.4277250E+01  2.6130419E+01
 1.4288751E+01  2.6101189E+01
 1.4300251E+01  2.6123466E+01
 1.4311750E+01  2.6151031E+01
 1.4323251E+01  2.6142902E+01
 1.4334751E+01  2.6119440E+01
 1.4346251E+01  2.6087305E+01
 1.4357751E+01  2.6105824E+01
 1.4369250E+01  2.6082809E+01
 1.4380751E+01  2.6001482E+01
 1.4392251E+01  2.5928440E+01
 1.4403750E+01  2.5884336E+01
 1.4415251E+01  2.5880032E+01
 1.4426751E+01  2.5876890E+01
 1.4438251E+01  2.5819269E+01
 1.4449751E+01  2.5780273E+01
 1.4461250E+01  2.5691759E+01
 1.4472751E+01  2.5691401E+01
 1.4484251E+01  2.5658945E+01
 1.4495750E+01  2.5672905E+01
 1.4507251E+01  2.5686102E+01
 1.4518751E+01  2.5647663E+01
 1.4530251E+01  2.5617859E+01
 1.4541751E+01  2.5489334E+01
 1.4553250E+01  2.5441053E+01
 1.4564751E+01  2.5380608E+01
 1.4576251E+01  2.5425156E+01
 1.4587750E+01  2.5429121E+01
 1.4599251E+01  2.5423246E+01
 1.4610751E+01  2.5369801E+01
 1.4622251E+01  2.5309267E+01
 1.4633751E+01  2.5242739E+01
 1.4645250E+01  2.5162191E+01
 1.4656751E+01  2.5129631E+01
 1.4668251E+01  2.5078751E+01
 1.4679750E+01  2.5069061E+01
 1.4691251E+01  2.5095747E+01
 1.4702751E+01  2.5122620E+01
 1.4714251E+01  2.5153938E+01
 1.4725751E+01  2.5073608E+01
 1.4737250E+01  2.5010559E+01
 1.4748751E+01  2.4947721E+01
 1.4760251E+01  2.4912519E+01
 1.4771750E+01  2.4928581E+01
 1.4783251E+01  2.4877136E+01
 1.4794751E+01  2.4895607E+01
 1.4806251E+01  2.4845123E+01
 1.4817751E+01  2.4825600E+01
 1.4829250E+01  2.4762264E+01
 1.4840751E+01  2.4735565E+01
 1.4852251E+01  2.4753395E+01
 1.4863750E+01  2.4705053E+01
 1.4875251E+01  2.4651838E+01
 1.4886751E+01  2.4646236E+01
 1.4898251E+01  2.4705334E+01
 1.4909751E+01  2.4777615E+01
 1.4921250E+01  2.4743641E+01
 1.4932751E+01  2.4771132E+01
 1.4944251E+01  2.4753176E+01
 1.4955750E+01  2.4767775E+01
 1.4967251E+01  2.4739458E+01
 1.4978751E+01  2.4750622E+01
 1.4990251E+01  2.4732506E+01
 1.5001751E+01  2.4732988E+01
 1.5013250E+01  2.4740049E+01
 1.5024751E+01  2.4787489E+01
 1.5036251E+01  2.4751019E+01
 1.5047750E+01  2.4708181E+01
 1.5059251E+01  2.4713404E+01
 1.5070751E+01  2.4717413E+01
 1.5082251E+01  2.4698048E+01
 1.5093751E+01  2.4631983E+01
 1.5105250E+01  2.4593353E+01
 1.5116751E+01  2.4506212E+01
 1.5128251E+01  2.4495071E+01
 1.5139750E+01  2.4524218E+01
 1.5151251E+01  2.4677448E+01
 1.5162751E+01  2.4747456E+01
 1.5174251E+01  2.4813293E+01
 1.5185751E+01  2.4794092E+01
 1.5197250E+01  2.4813770E+01
 1.5208751E+01  2.4821184E+01
 1.5220251E+01  2.4835922E+01
 1.5231750E+01  2.4686703E+01
 1.5243251E+01  2.4566315E+01
 1.5254751E+01  2.4464382E+01
 1.5266251E+01  2.4442137E+01
 1.5277751E+01  2.4438791E+01
 1.5289250E+01  2.4473484E+01
 1.5300751E+01  2.4525717E+01
 1.5312251E+01  2.4545782E+01
 1.5323750E+01  2.4452009E+01
 1.5335251E+01  2.4391556E+01
 1.5346751E+01  2.4316196E+01
 1.5358251E+01  2.4324539E+01
 1.5369751E+01  2.4303755E+01
 1.5381250E+01  2.4284071E+01
 1.5392751E+01  2.4280928E+01
 1.5404251E+01  2.4334526E+01
 1.5415751E+01  2.4386820E+01
 1.5427251E+01  2.4371931E+01
 1.5438751E+01  2.4383844E+01
 1.5450251E+01  2.4372562E+01
 1.5461751E+01  2.4396906E+01
 1.5473250E+01  2.4382158E+01
 1.5484751E+01  2.4407928E+01
 1.5496251E+01  2.4450432E+01
 1.5507751E+01  2.4466965E+01
 1.5519251E+01  2.4492929E+01
 1.5530751E+01  2.4459391E+01
 1.5542251E+01  2.4447563E+01
 1.5553751E+01  2.4408974E+01
 1.5565250E+01  2.4385990E+01
 1.5576751E+01  2.4335688E+01
 1.5588251E+01  2.4286360E+01
 1.5599751E+01  2.4248127E+01
 1.5611251E+01  2.4249222E+01
 1.5622751E+01  2.4280777E+01
 1.5634251E+01  2.4342686E+01
 1.5645751E+01  2.4428560E+01
 1.5657250E+01  2.4445055E+01
 1.5668751E+01  2.4490637E+01
 1.5680251E+01  2.4482382E+01
 1.5691751E+01  2.4497419E+01
 1.5703251E+01  2.4435421E+01
 1.5714751E+01  2.4355364E+01
 1.5726251E+01  2.4298409E+01
 1.5737751E+01  2.4235254E+01
 1.5749250E+01  2.4249414E+01
 1.5760751E+01  2.4281626E+01
 1.5772251E+01  2.4367325E+01
 1.5783751E+01  2.4412743E+01
 1.5795251E+01  2.4474220E+01
 1.5806751E+01  2.4550524E+01
 1.5818251E+01  2.4585546E+01
 1.5829751E+01  2.4564566E+01
 1.5841250E+01  2.4562378E+01
 1.5852751E+01  2.4549685E+01
 1.5864251E+01  2.4543842E+01
 1.5875751E+01  2.4517832E+01
 1.5887251E+01  2.4566628E+01
 1.5898750E+01  2.4577700E+01
 1.5910251E+01  2.4565773E+01
 1.5921751E+01  2.4513145E+01
 1.5933250E+01  2.4511927E+01
 1.5944751E+01  2.4458061E+01
 1.5956251E+01  2.4502098E+01
 1.5967751E+01  2.4480761E+01
 1.5979251E+01  2.4501421E+01
 1.5990750E+01  2.4478394E+01
 1.6002251E+01  2.4484154E+01
 1.6013750E+01  2.4485147E+01
 1.6025251E+01  2.4451982E+01
 1.6036751E+01  2.4449547E+01
 1.6048250E+01  2.4452484E+01
 1.6059752E+01  2.4449287E+01
 1.6071251E+01  2.4430145E+01
 1.6082750E+01  2.4479528E+01
 1.6094252E+01  2.4503105E+01
 1.6105751E+01  2.4545639E+01
 1.6117250E+01  2.4540579E+01
 1.6128750E+01  2.4532986E+01
 1.6140251E+01  2.4607988E+01
 1.6151751E+01  2.4624264E+01
 1.6163250E+01  2.4780348E+01
 1.6174751E+01  2.4734964E+01
 1.6186251E+01  2.4912035E+01
 1.6197750E+01  2.4855795E+01
 1.6209251E+01  2.5301044E+01
 1.6220751E+01  2.5396976E+01
 1.6232250E+01  2.5982075E+01
 1.6243752E+01  2.6118662E+01
 1.6255251E+01  2.6340412E+01
 1.6266750E+01  2.6339054E+01
 1.6278252E+01  2.5932007E+01
 1.6289751E+01  2.5865118E+01
 1.6301250E+01  2.5181746E+01
 1.6312750E+01  2.5193151E+01
 1.6324251E+01  2.4715517E+01
 1.6335751E+01  2.4757828E+01
 1.6347250E+01  2.4536221E+01
 1.6358751E+01  2.4547070E+01
 1.6370251E+01  2.4493343E+01
 1.6381750E+01  2.4507868E+01
 1.6393251E+01  2.4525198E+01
 1.6404751E+01  2.4493910E+01
 1.6416250E+01  2.4557051E+01
 1.6427752E+01  2.4561401E+01
 1.6439251E+01  2.4589655E+01
 1.6450750E+01  2.4524258E+01
 1.6462252E+01  2.4505259E+01
 1.6473751E+01  2.4494257E+01
 1.6485250E+01  2.4499418E+01
 1.6496750E+01  2.4490578E+01
 1.6508251E+01  2.4425991E+01
 1.6519751E+01  2.4410313E+01
 1.6531250E+01  2.4360258E+01
 1.6542751E+01  2.4470238E+01
 1.6554251E+01  2.4455217E+01
 1.6565750E+01  2.4484934E+01
 1.6577251E+01  2.4441269E+01
 1.6588751E+01  2.4486717E+01
 1.6600250E+01  2.4491667E+01
 1.6611752E+01  2.4525789E+01
 1.6623251E+01  2.4466665E+01
 1.6634750E+01  2.4462391E+01
 1.6646252E+01  2.4419903E+01
 1.6657751E+01  2.4464956E+01
 1.6669250E+01  2.4512211E+01
 1.6680750E+01  2.4535578E+01
 1.6692251E+01  2.4578888E+01
 1.6703751E+01  2.4470884E+01
 1.6715250E+01  2.4432013E+01
 1.6726751E+01  2.4333546E+01
 1.6738251E+01  2.4343306E+01
 1.6749750E+01  2.4327684E+01
 1.6761251E+01  2.4337852E+01
 1.6772751E+01  2.4294552E+01
 1.6784250E+01  2.4225971E+01
 1.6795752E+01  2.4148882E+01
 1.6807251E+01  2.4151596E+01
 1.6818750E+01  2.4122149E+01
 1.6830252E+01  2.4149611E+01
 1.6841751E+01  2.4138939E+01
 1.6853251E+01  2.4200312E+01
 1.6864750E+01  2.4226748E+01
 1.6876251E+01  2.4219748E+01
 1.6887751E+01  2.4196125E+01
 1.6899250E+01  2.4188425E+01
 1.6910751E+01  2.4165262E+01
 1.6922251E+01  2.4169693E+01
 1.6933750E+01  2.4122547E+01
 1.6945251E+01  2.4165657E+01
 1.6956751E+01  2.4144207E+01
 1.6968250E+01  2.4183615E+01
 1.6979752E+01  2.4190386E+01
 1.6991251E+01  2.4181404E+01
 1.7002750E+01  2.4158218E+01
 1.7014252E+01  2.4151995E+01
 1.7025751E+01  2.4165188E+01
 1.7037251E+01  2.4208559E+01
 1.7048750E+01  2.4218473E+01
 1.7060251E+01  2.4217205E+01
 1.7071751E+01  2.4202085E+01
 1.7083250E+01  2.4188753E+01
 1.7094751E+01  2.4141600E+01
 1.7106251E+01  2.4086569E+01
 1.7117750E+01  2.4033709E+01
 1.7129251E+01  2.4071012E+01
 1.7140751E+01  2.4048109E+01
 1.7152250E+01  2.4084553E+01
 1.7163752E+01  2.4087379E+01
 1.7175251E+01  2.4172510E+01
 1.7186750E+01  2.4200771E+01
 1.7198252E+01  2.4208605E+01
 1.7209751E+01  2.4179163E+01
 1.7221251E+01  2.4145090E+01
 1.7232750E+01  2.4058844E+01
 1.7244251E+01  2.3974115E+01
 1.7255751E+01  2.3906445E+01
 1.7267250E+01  2.3899704E+01
 1.7278751E+01  2.3863781E+01
 1.7290251E+01  2.3864597E+01
 1.7301750E+01  2.3875341E+01
 1.7313251E+01  2.3915150E+01
 1.7324751E+01  2.3980747E+01
 1.7336250E+01  2.4021950E+01
 1.7347752E+01  2.3939445E+01
 1.7359251E+01  2.3874525E+01
 1.7370750E+01  2.3804411E+01
 1.7382252E+01  2.3788681E+01
 1.7393751E+01  2.3760126E+01
 1.7405251E+01  2.3788790E+01
 1.7416750E+01  2.3779921E+01
 1.7428251E+01  2.3774586E+01
 1.7439751E+01  2.3739208E+01
 1.7451250E+01  2.3797102E+01
 1.7462751E+01  2.3847252E+01
 1.7474251E+01  2.3903316E+01
 1.7485750E+01  2.3886370E+01
 1.7497252E+01  2.3851042E+01
 1.7508751E+01  2.3810318E+01
 1.7520250E+01  2.3800621E+01
 1.7531752E+01  2.3774361E+01
 1.7543251E+01  2.3823503E+01
 1.7554750E+01  2.3797050E+01
 1.7566252E+01  2.3774031E+01
 1.7577751E+01  2.3723213E+01
 1.7589251E+01  2.3704664E+01
 1.7600750E+01  2.3732027E+01
 1.7612251E+01  2.3702106E+01
 1.7623751E+01  2.3704994E+01
 1.7635250E+01  2.3647440E+01
 1.7646751E+01  2.3619715E+01
 1.7658251E+01  2.3615284E+01
 1.7669750E+01  2.3674551E+01
 1.7681252E+01  2.3738455E+01
 1.7692751E+01  2.3761726E+01
 1.7704250E+01  2.3735153E+01
 1.7715752E+01  2.3722416E+01
 1.7727251E+01  2.3678106E+01
 1.7738750E+01  2.3630608E+01
 1.7750252E+01  2.3622665E+01
 1.7761751E+01  2.3592056E+01
 1.7773251E+01  2.3614443E+01
 1.7784750E+01  2.3609095E+01
 1.7796251E+01  2.3674616E+01
 1.7807751E+01  2.3628212E+01
 1.7819250E+01  2.3559381E+01
 1.7830751E+01  2.3473644E+01
 1.7842251E+01  2.3479858E+01
 1.7853750E+01  2.3528172E+01
 1.7865252E+01  2.3561237E+01
 1.7876751E+01  2.3599119E+01
 1.7888250E+01  2.3545082E+01
 1.7899752E+01  2.3497927E+01
 1.7911251E+01  2.3464945E+01
 1.7922750E+01  2.3485798E+01
 1.7934252E+01  2.3473850E+01
 1.7945751E+01  2.3462305E+01
 1.7957251E+01  2.3430105E+01
 1.7968750E+01  2.3435349E+01
 1.7980251E+01  2.3481419E+01
 1.7991751E+01  2.3528681E+01
 1.8003250E+01  2.3596306E+01
 1.8014751E+01  2.3623547E+01
 1.8026251E+01  2.3664032E+01
 1.8037750E+01  2.3699089E+01
 1.8049252E+01  2.3731647E+01
 1.8060751E+01  2.3713451E+01
 1.8072250E+01  2.3670843E+01
 1.8083752E+01  2.3644480E+01
 1.8095251E+01  2.3644983E+01
 1.8106750E+01  2.3667654E+01
 1.8118252E+01  2.3657654E+01
 1.8129751E+01  2.3645546E+01
 1.8141251E+01  2.3631706E+01
 1.8152750E+01  2.3606642E+01
 1.8164251E+01  2.3613861E+01
 1.8175751E+01  2.3552193E+01
 1.8187250E+01  2.3483484E+01
 1.8198751E+01  2.3405848E+01
 1.8210251E+01  2.3384039E+01
 1.8221750E+01  2.3368599E+01
 1.8233252E+01  2.3373768E+01
 1.8244751E+01  2.3348179E+01
 1.8256250E+01  2.3330305E+01
 1.8267752E+01  2.3295368E+01
 1.8279251E+01  2.3326681E+01
 1.8290751E+01  2.3354284E+01
 1.8302252E+01  2.3376808E+01
 1.8313751E+01  2.3359604E+01
 1.8325251E+01  2.3375933E+01
 1.8336750E+01  2.3411123E+01
 1.8348251E+01  2.3449820E+01
 1.8359751E+01  2.3437382E+01
 1.8371250E+01  2.3436771E+01
 1.8382751E+01  2.3435984E+01
 1.8394251E+01  2.3459732E+01
 1.8405750E+01  2.3446472E+01
 1.8417252E+01  2.3483799E+01
 1.8428751E+01  2.3468069E+01
 1.8440250E+01  2.3437347E+01
 1.8451752E+01  2.3396585E+01
 1.8463251E+01  2.3378181E+01
 1.8474751E+01  2.3376493E+01
 1.8486252E+01  2.3325569E+01
 1.8497751E+01  2.3321663E+01
 1.8509251E+01  2.3311449E+01
 1.8520750E+01  2.3328905E+01
 1.8532251E+01  2.3299957E+01
 1.8543751E+01  2.3299782E+01
 1.8555250E+01  2.3358562E+01
 1.8566751E+01  2.3379265E+01
 1.8578251E+01  2.3391159E+01
 1.8589750E+01  2.3361626E+01
 1.8601252E+01  2.3386490E+01
 1.8612751E+01  2.3391336E+01
 1.8624250E+01  2.3359030E+01
 1.8635752E+01  2.3313358E+01
 1.8647251E+01  2.3275969E+01
 1.8658751E+01  2.3313681E+01
 1.8670252E+01  2.3341150E+01
 1.8681751E+01  2.3387653E+01
 1.8693251E+01  2.3423155E+01
 1.8704750E+01  2.3441395E+01
 1.8716251E+01  2.3427732E+01
 1.8727751E+01  2.3430901E+01
 1.8739250E+01  2.3393917E+01
 1.8750751E+01  2.3363966E+01
 1.8762251E+01  2.3315161E+01
 1.8773750E+01  2.3312359E+01
 1.8785252E+01  2.3294252E+01
 1.8796751E+01  2.3265125E+01
 1.8808250E+01  2.3245449E+01
 1.8819752E+01  2.3247547E+01
 1.8831251E+01  2.3303892E+01
 1.8842751E+01  2.3304964E+01
 1.8854252E+01  2.3336538E+01
 1.8865751E+01  2.3291611E+01
 1.8877251E+01  2.3309963E+01
 1.8888750E+01  2.3295706E+01
 1.8900251E+01  2.3348131E+01
 1.8911751E+01  2.3355410E+01
 1.8923250E+01  2.3362211E+01
 1.8934752E+01  2.3331568E+01
 1.8946251E+01  2.3361292E+01
 1.8957750E+01  2.3331671E+01
 1.8969252E+01  2.3340965E+01
 1.8980751E+01  2.3318419E+01
 1.8992250E+01  2.3330196E+01
 1.9003752E+01  2.3328953E+01
 1.9015251E+01  2.3293713E+01
 1.9026751E+01  2.3322962E+01
 1.9038252E+01  2.3334007E+01
 1.9049751E+01  2.3338045E+01
 1.9061251E+01  2.3353947E+01
 1.9072750E+01  2.3396940E+01
 1.9084251E+01  2.3450026E+01
 1.9095751E+01  2.3441582E+01
 1.9107250E+01  2.3423237E+01
 1.9118752E+01  2.3361210E+01
 1.9130251E+01  2.3361078E+01
 1.9141750E+01  2.3359276E+01
 1.9153252E+01  2.3348816E+01
 1.9164751E+01  2.3314499E+01
 1.9176250E+01  2.3268011E+01
 1.9187752E+01  2.3244791E+01
 1.9199251E+01  2.3217083E+01
 1.9210751E+01  2.3232586E+01
 1.9222252E+01  2.3236748E+01
 1.9233751E+01  2.3231859E+01
 1.9245251E+01  2.3268120E+01
 1.9256750E+01  2.3306438E+01
 1.9268251E+01  2.3330099E+01
 1.9279751E+01  2.3279827E+01
 1.9291250E+01  2.3314375E+01
 1.9302752E+01  2.3369268E+01
 1.9314251E+01  2.3387747E+01
 1.9325750E+01  2.3393812E+01
 1.9337252E+01  2.3395864E+01
 1.9348751E+01  2.3424824E+01
 1.9360250E+01  2.3428146E+01
 1.9371752E+01  2.3473461E+01
 1.9383251E+01  2.3508398E+01
 1.9394751E+01  2.3545931E+01
 1.9406250E+01  2.3553022E+01
 1.9417751E+01  2.3522861E+01
 1.9429251E+01  2.3450935E+01
 1.9440750E+01  2.3339165E+01
 1.9452251E+01  2.3263670E+01
 1.9463751E+01  2.3255480E+01
 1.9475250E+01  2.3330486E+01
 1.9486752E+01  2.3390036E+01
 1.9498251E+01  2.3434841E+01
 1.9509750E+01  2.3425232E+01
 1.9521252E+01  2.3424023E+01
 1.9532751E+01  2.3405472E+01
 1.9544250E+01  2.3430840E+01
 1.9555752E+01  2.3392693E+01
 1.9567251E+01  2.3376806E+01
 1.9578751E+01  2.3394073E+01
 1.9590250E+01  2.3410181E+01
 1.9601751E+01  2.3426136E+01
 1.9613251E+01  2.3411839E+01
 1.9624750E+01  2.3459738E+01
 1.9636251E+01  2.3471954E+01
 1.9647751E+01  2.3483257E+01
 1.9659250E+01  2.3594267E+01
 1.9670752E+01  2.3702606E+01
 1.9682251E+01  2.3844488E+01
 1.9693750E+01  2.3932030E+01
 1.9705252E+01  2.4055494E+01
 1.9716751E+01  2.4059715E+01
 1.9728251E+01  2.4009153E+01
 1.9739752E+01  2.3930269E+01
 1.9751251E+01  2.3847853E+01
 1.9762751E+01  2.3751839E+01
 1.9774250E+01  2.3706469E+01
 1.9785751E+01  2.3717802E+01
 1.9797251E+01  2.3777716E+01
 1.9808750E+01  2.3862066E+01
 1.9820251E+01  2.3921425E+01
 1.9831751E+01  2.3953047E+01
 1.9843250E+01  2.3928085E+01
 1.9854752E+01  2.3908688E+01
 1.9866251E+01  2.3845291E+01
 1.9877750E+01  2.3812265E+01
 1.9889252E+01  2.3718830E+01
 1.9900751E+01  2.3716846E+01
 1.9912251E+01  2.3677675E+01
 1.9923752E+01  2.3604977E+01
 1.9935251E+01  2.3467020E+01
 1.9946751E+01  2.3370386E+01
 1.9958250E+01  2.3328314E+01
 1.9969751E+01  2.3312376E+01
 1.9981251E+01  2.3325794E+01
 1.9992750E+01  2.3339556E+01
 2.0004251E+01  2.3364723E+01
 2.0015751E+01  2.3408215E+01
 2.0027250E+01  2.3466015E+01
 2.0038752E+01  2.3499838E+01
 2.0050251E+01  2.3502806E+01
 2.0061750E+01  2.3466114E+01
 2.0073252E+01  2.3413340E+01
 2.0084751E+01  2.3382431E+01
 2.0096251E+01  2.3431072E+01
 2.0107752E+01  2.3458414E+01
 2.0119251E+01  2.3505928E+01
 2.0130751E+01  2.3480293E+01
 2.0142250E+01  2.3461672E+01
 2.0153751E+01  2.3388493E+01
 2.0165251E+01  2.3372622E+01
 2.0176750E+01  2.3405352E+01
 2.0188251E+01  2.3411665E+01
 2.0199751E+01  2.3479696E+01
 2.0211250E+01  2.3493767E+01
 2.0222752E+01  2.3551125E+01
 2.0234251E+01  2.3533762E+01
 2.0245750E+01  2.3521912E+01
 2.0257252E+01  2.3486380E+01
 2.0268751E+01  2.3457062E+01
 2.0280251E+01  2.3524811E+01
 2.0291752E+01  2.3540182E+01
 2.0303251E+01  2.3514828E+01
 2.0314751E+01  2.3463799E+01
 2.0326250E+01  2.3486258E+01
 2.0337751E+01  2.3564234E+01
 2.0349251E+01  2.3559412E+01
 2.0360750E+01  2.3548361E+01
 2.0372252E+01  2.3484976E+01
 2.0383751E+01  2.3417633E+01
 2.0395250E+01  2.3395077E+01
 2.0406752E+01  2.3416265E+01
 2.0418251E+01  2.3518606E+01
 2.0429750E+01  2.3577055E+01
 2.0441252E+01  2.3598293E+01
 2.0452751E+01  2.3565292E+01
 2.0464251E+01  2.3501919E+01
 2.0475752E+01  2.3472315E+01
 2.0487251E+01  2.3455080E+01
 2.0498751E+01  2.3504896E+01
 2.0510250E+01  2.3495008E+01
 2.0521751E+01  2.3462591E+01
 2.0533251E+01  2.3407192E+01
 2.0544750E+01  2.3430790E+01
 2.0556252E+01  2.3496107E+01
 2.0567751E+01  2.3505383E+01
 2.0579250E+01  2.3509367E+01
 2.0590752E+01  2.3533421E+01
 2.0602251E+01  2.3625063E+01
 2.0613750E+01  2.3591389E+01
 2.0625252E+01  2.3584028E+01
 2.0636751E+01  2.3582720E+01
 2.0648251E+01  2.3626476E+01
 2.0659752E+01  2.3652042E+01
 2.0671251E+01  2.3697792E+01
 2.0682751E+01  2.3793165E+01
 2.0694250E+01  2.3852379E+01
 2.0705751E+01  2.3961052E+01
 2.0717251E+01  2.4012302E+01
 2.0728750E+01  2.4083912E+01
 2.0740252E+01  2.4113914E+01
 2.0751751E+01  2.4185101E+01
 2.0763250E+01  2.4230867E+01
 2.0774752E+01  2.4231247E+01
 2.0786251E+01  2.4189276E+01
 2.0797750E+01  2.4064119E+01
 2.0809252E+01  2.3954369E+01
 2.0820751E+01  2.3761135E+01
 2.0832251E+01  2.3633795E+01
 2.0843752E+01  2.3554106E+01
 2.0855251E+01  2.3601227E+01
 2.0866751E+01  2.3647398E+01
 2.0878250E+01  2.3681253E+01
 2.0889751E+01  2.3687037E+01
 2.0901251E+01  2.3706739E+01
 2.0912750E+01  2.3708658E+01
 2.0924252E+01  2.3733606E+01
 2.0935751E+01  2.3742435E+01
 2.0947250E+01  2.3764166E+01
 2.0958752E+01  2.3739988E+01
 2.0970251E+01  2.3727842E+01
 2.0981750E+01  2.3716923E+01
 2.0993252E+01  2.3714205E+01
 2.1004751E+01  2.3755646E+01
 2.1016251E+01  2.3769524E+01
 2.1027752E+01  2.3780970E+01
 2.1039251E+01  2.3731422E+01
 2.1050751E+01  2.3709513E+01
 2.1062250E+01  2.3696623E+01
 2.1073751E+01  2.3706007E+01
 2.1085251E+01  2.3699566E+01
 2.1096750E+01  2.3651970E+01
 2.1108252E+01  2.3686211E+01
 2.1119751E+01  2.3706841E+01
 2.1131250E+01  2.3750851E+01
 2.1142752E+01  2.3728130E+01
 2.1154251E+01  2.3660000E+01
 2.1165751E+01  2.3631622E+01
 2.1177252E+01  2.3665186E+01
 2.1188751E+01  2.3710018E+01
 2.1200251E+01  2.3705408E+01
 2.1211752E+01  2.3710344E+01
 2.1223251E+01  2.3703348E+01
 2.1234751E+01  2.3671535E+01
 2.1246250E+01  2.3665949E+01
 2.1257751E+01  2.3669144E+01
 2.1269251E+01  2.3700424E+01
 2.1280750E+01  2.3712934E+01
 2.1292252E+01  2.3740936E+01
 2.1303751E+01  2.3706886E+01
 2.1315250E+01  2.3724072E+01
 2.1326752E+01  2.3716599E+01
 2.1338251E+01  2.3716848E+01
 2.1349751E+01  2.3707060E+01
 2.1361252E+01  2.3759989E+01
 2.1372751E+01  2.3848604E+01
 2.1384251E+01  2.3801403E+01
 2.1395752E+01  2.3765415E+01
 2.1407251E+01  2.3712267E+01
 2.1418751E+01  2.3754196E+01
 2.1430250E+01  2.3762146E+01
 2.1441751E+01  2.3719727E+01
 2.1453251E+01  2.3698612E+01
 2.1464750E+01  2.3725449E+01
 2.1476252E+01  2.3751301E+01
 2.1487751E+01  2.3785938E+01
 2.1499250E+01  2.3809288E+01
 2.1510752E+01  2.3820911E+01
 2.1522251E+01  2.3799904E+01
 2.1533751E+01  2.3786133E+01
 2.1545252E+01  2.3772114E+01
 2.1556751E+01  2.3768261E+01
 2.1568251E+01  2.3841393E+01
 2.1579752E+01  2.3896376E+01
 2.1591251E+01  2.3923788E+01
 2.1602751E+01  2.3880095E+01
 2.1614250E+01  2.3861906E+01
 2.1625751E+01  2.3859337E+01
 2.1637251E+01  2.3856018E+01
 2.1648750E+01  2.3868490E+01
 2.1660252E+01  2.3877747E+01
 2.1671751E+01  2.3847248E+01
 2.1683250E+01  2.3806124E+01
 2.1694752E+01  2.3804491E+01
 2.1706251E+01  2.3834530E+01
 2.1717751E+01  2.3848541E+01
 2.1729252E+01  2.3839746E+01
 2.1740751E+01  2.3835613E+01
 2.1752251E+01  2.3841385E+01
 2.1763752E+01  2.3867235E+01
 2.1775251E+01  2.3911419E+01
 2.1786751E+01  2.3944080E+01
 2.1798250E+01  2.3981236E+01
 2.1809752E+01  2.3993696E+01
 2.1821251E+01  2.4005503E+01
 2.1832750E+01  2.4016415E+01
 2.1844252E+01  2.4011856E+01
 2.1855751E+01  2.3983473E+01
 2.1867250E+01  2.4032356E+01
 2.1878752E+01  2.4044119E+01
 2.1890251E+01  2.4083525E+01
 2.1901751E+01  2.4110416E+01
 2.1913252E+01  2.4145830E+01
 2.1924751E+01  2.4104866E+01
 2.1936251E+01  2.4041685E+01
 2.1947752E+01  2.4022070E+01
 2.1959251E+01  2.4033228E+01
 2.1970751E+01  2.4080130E+01
 2.1982250E+01  2.4130798E+01
 2.1993752E+01  2.4169987E+01
 2.2005251E+01  2.4133308E+01
 2.2016750E+01  2.4179857E+01
 2.2028252E+01  2.4130547E+01
 2.2039751E+01  2.4066494E+01
 2.2051250E+01  2.4016352E+01
 2.2062752E+01  2.3994497E+01
 2.2074251E+01  2.3998806E+01
 2.2085751E+01  2.4036415E+01
 2.2097252E+01  2.4086718E+01
 2.2108751E+01  2.4178709E+01
 2.2120251E+01  2.4239431E+01
 2.2131752E+01  2.4242861E+01
 2.2143251E+01  2.4382851E+01
 2.2154751E+01  2.4444752E+01
 2.2166250E+01  2.4483515E+01
 2.2177752E+01  2.4423166E+01
 2.2189251E+01  2.4403208E+01
 2.2200750E+01  2.4417995E+01
 2.2212252E+01  2.4375088E+01
 2.2223751E+01  2.4309238E+01
 2.2235250E+01  2.4276234E+01
 2.2246752E+01  2.4248291E+01
 2.2258251E+01  2.4234879E+01
 2.2269751E+01  2.4219719E+01
 2.2281252E+01  2.4252533E+01
 2.2292751E+01  2.4243858E+01
 2.2304251E+01  2.4275084E+01
 2.2315752E+01  2.4257488E+01
 2.2327251E+01  2.4250351E+01
 2.2338751E+01  2.4232332E+01
 2.2350250E+01  2.4275908E+01
 2.2361752E+01  2.4302378E+01
 2.2373251E+01  2.4346241E+01
 2.2384750E+01  2.4313686E+01
 2.2396252E+01  2.4334583E+01
 2.2407751E+01  2.4311979E+01
 2.2419250E+01  2.4326481E+01
 2.2430752E+01  2.4332476E+01
 2.2442251E+01  2.4375629E+01
 2.2453751E+01  2.4422480E+01
 2.2465252E+01  2.4396719E+01
 2.2476751E+01  2.4359800E+01
 2.2488251E+01  2.4317266E+01
 2.2499752E+01  2.4345325E+01
 2.2511251E+01  2.4402000E+01
 2.2522751E+01  2.4482203E+01
 2.2534250E+01  2.4510866E+01
 2.2545752E+01  2.4532572E+01
 2.2557251E+01  2.4540401E+01
 2.2568750E+01  2.4544481E+01
 2.2580252E+01  2.4548998E+01
 2.2591751E+01  2.4595722E+01
 2.2603251E+01  2.4663120E+01
 2.2614752E+01  2.4766148E+01
 2.2626251E+01  2.4822697E+01
 2.2637751E+01  2.4808599E+01
 2.2649252E+01  2.4750750E+01
 2.2660751E+01  2.4773220E+01
 2.2672251E+01  2.4847799E+01
 2.2683752E+01  2.4905350E+01
 2.2695251E+01  2.5015358E+01
 2.2706751E+01  2.5057259E+01
 2.2718250E+01  2.5102213E+01
 2.2729752E+01  2.5093767E+01
 2.2741251E+01  2.5077820E+01
 2.2752750E+01  2.5053715E+01
 2.2764252E+01  2.4999235E+01
 2.2775751E+01  2.4992592E+01
 2.2787251E+01  2.4961615E+01
 2.2798752E+01  2.5006603E+01
 2.2810251E+01  2.5052649E+01
 2.2821751E+01  2.5116270E+01
 2.2833252E+01  2.5167761E+01
 2.2844751E+01  2.5259090E+01
 2.2856251E+01  2.5274099E+01
 2.2867750E+01  2.5353422E+01
 2.2879251E+01  2.5359806E+01
 2.2890751E+01  2.5453793E+01
 2.2902250E+01  2.5452070E+01
 2.2913752E+01  2.5533949E+01
 2.2925251E+01  2.5577129E+01
 2.2936750E+01  2.5618143E+01
 2.2948252E+01  2.5699690E+01
 2.2959751E+01  2.5719076E+01
 2.2971251E+01  2.5816786E+01
 2.2982752E+01  2.5871908E+01
 2.2994251E+01  2.5971943E+01
