F:\20151113_APS_34IDE\\Brian\Particle1\OCV\Data_0131.tif
2-Theta Angle (Degrees)
Intensity
       2000
 5.7500005E-03  0.0000000E+00
 1.7250001E-02  0.0000000E+00
 2.8750001E-02  0.0000000E+00
 4.0250003E-02  0.0000000E+00
 5.1750004E-02  0.0000000E+00
 6.3250005E-02  0.0000000E+00
 7.4750006E-02  0.0000000E+00
 8.6250007E-02  0.0000000E+00
 9.7750008E-02  0.0000000E+00
 1.0925001E-01  0.0000000E+00
 1.2075000E-01  0.0000000E+00
 1.3225001E-01  0.0000000E+00
 1.4375001E-01  0.0000000E+00
 1.5525001E-01  0.0000000E+00
 1.6675001E-01  0.0000000E+00
 1.7825001E-01  0.0000000E+00
 1.8975002E-01  0.0000000E+00
 2.0125002E-01  0.0000000E+00
 2.1275002E-01  0.0000000E+00
 2.2425000E-01  0.0000000E+00
 2.3575000E-01  0.0000000E+00
 2.4725001E-01  0.0000000E+00
 2.5875002E-01  0.0000000E+00
 2.7025002E-01  0.0000000E+00
 2.8175002E-01  0.0000000E+00
 2.9325002E-01  0.0000000E+00
 3.0475003E-01  0.0000000E+00
 3.1625003E-01  0.0000000E+00
 3.2775003E-01  0.0000000E+00
 3.3925003E-01  0.0000000E+00
 3.5075003E-01  0.0000000E+00
 3.6225003E-01  0.0000000E+00
 3.7375003E-01  0.0000000E+00
 3.8525003E-01  0.0000000E+00
 3.9675003E-01  0.0000000E+00
 4.0825003E-01  0.0000000E+00
 4.1975003E-01  0.0000000E+00
 4.3125004E-01  0.0000000E+00
 4.4275001E-01  0.0000000E+00
 4.5425001E-01  0.0000000E+00
 4.6575001E-01  0.0000000E+00
 4.7725001E-01  0.0000000E+00
 4.8875001E-01  0.0000000E+00
 5.0025004E-01  0.0000000E+00
 5.1175004E-01  0.0000000E+00
 5.2325004E-01  0.0000000E+00
 5.3475004E-01  0.0000000E+00
 5.4625005E-01  0.0000000E+00
 5.5775005E-01  0.0000000E+00
 5.6925005E-01  0.0000000E+00
 5.8075005E-01  0.0000000E+00
 5.9225005E-01  0.0000000E+00
 6.0375005E-01  0.0000000E+00
 6.1525005E-01  0.0000000E+00
 6.2675005E-01  0.0000000E+00
 6.3825005E-01  0.0000000E+00
 6.4975005E-01  0.0000000E+00
 6.6125005E-01  0.0000000E+00
 6.7275006E-01  0.0000000E+00
 6.8425006E-01  0.0000000E+00
 6.9575006E-01  0.0000000E+00
 7.0725006E-01  0.0000000E+00
 7.1875006E-01  0.0000000E+00
 7.3025006E-01  0.0000000E+00
 7.4175006E-01  0.0000000E+00
 7.5325006E-01  0.0000000E+00
 7.6475006E-01  0.0000000E+00
 7.7625006E-01  0.0000000E+00
 7.8775007E-01  0.0000000E+00
 7.9925007E-01  0.0000000E+00
 8.1075007E-01  0.0000000E+00
 8.2225007E-01  0.0000000E+00
 8.3375007E-01  0.0000000E+00
 8.4525007E-01  0.0000000E+00
 8.5675007E-01  0.0000000E+00
 8.6825007E-01  0.0000000E+00
 8.7975001E-01  0.0000000E+00
 8.9125001E-01  0.0000000E+00
 9.0275002E-01  0.0000000E+00
 9.1425002E-01  0.0000000E+00
 9.2575002E-01  0.0000000E+00
 9.3725002E-01  0.0000000E+00
 9.4875002E-01  0.0000000E+00
 9.6025002E-01  0.0000000E+00
 9.7175002E-01  0.0000000E+00
 9.8325002E-01  0.0000000E+00
 9.9475002E-01  0.0000000E+00
 1.0062500E+00  0.0000000E+00
 1.0177500E+00  0.0000000E+00
 1.0292500E+00  0.0000000E+00
 1.0407500E+00  0.0000000E+00
 1.0522500E+00  0.0000000E+00
 1.0637500E+00  0.0000000E+00
 1.0752500E+00  0.0000000E+00
 1.0867500E+00  0.0000000E+00
 1.0982500E+00  0.0000000E+00
 1.1097500E+00  0.0000000E+00
 1.1212500E+00  0.0000000E+00
 1.1327500E+00  0.0000000E+00
 1.1442500E+00  0.0000000E+00
 1.1557500E+00  0.0000000E+00
 1.1672500E+00  0.0000000E+00
 1.1787500E+00  0.0000000E+00
 1.1902500E+00  0.0000000E+00
 1.2017500E+00  0.0000000E+00
 1.2132500E+00  0.0000000E+00
 1.2247500E+00  0.0000000E+00
 1.2362500E+00  0.0000000E+00
 1.2477500E+00  0.0000000E+00
 1.2592500E+00  0.0000000E+00
 1.2707500E+00  0.0000000E+00
 1.2822500E+00  0.0000000E+00
 1.2937500E+00  0.0000000E+00
 1.3052500E+00  0.0000000E+00
 1.3167500E+00  0.0000000E+00
 1.3282501E+00  0.0000000E+00
 1.3397501E+00  0.0000000E+00
 1.3512501E+00  0.0000000E+00
 1.3627501E+00  0.0000000E+00
 1.3742501E+00  0.0000000E+00
 1.3857501E+00  0.0000000E+00
 1.3972501E+00  0.0000000E+00
 1.4087501E+00  0.0000000E+00
 1.4202501E+00  0.0000000E+00
 1.4317501E+00  0.0000000E+00
 1.4432501E+00  0.0000000E+00
 1.4547501E+00  0.0000000E+00
 1.4662501E+00  0.0000000E+00
 1.4777501E+00  0.0000000E+00
 1.4892501E+00  0.0000000E+00
 1.5007501E+00  0.0000000E+00
 1.5122501E+00  0.0000000E+00
 1.5237501E+00  0.0000000E+00
 1.5352501E+00  0.0000000E+00
 1.5467501E+00  0.0000000E+00
 1.5582501E+00  0.0000000E+00
 1.5697501E+00  0.0000000E+00
 1.5812501E+00  0.0000000E+00
 1.5927501E+00  0.0000000E+00
 1.6042501E+00  0.0000000E+00
 1.6157501E+00  0.0000000E+00
 1.6272501E+00  0.0000000E+00
 1.6387501E+00  0.0000000E+00
 1.6502501E+00  0.0000000E+00
 1.6617501E+00  0.0000000E+00
 1.6732501E+00  0.0000000E+00
 1.6847501E+00  0.0000000E+00
 1.6962501E+00  0.0000000E+00
 1.7077501E+00  0.0000000E+00
 1.7192501E+00  0.0000000E+00
 1.7307501E+00  0.0000000E+00
 1.7422501E+00  0.0000000E+00
 1.7537501E+00  0.0000000E+00
 1.7652501E+00  0.0000000E+00
 1.7767501E+00  0.0000000E+00
 1.7882501E+00  0.0000000E+00
 1.7997501E+00  0.0000000E+00
 1.8112501E+00  0.0000000E+00
 1.8227501E+00  0.0000000E+00
 1.8342501E+00  0.0000000E+00
 1.8457501E+00  0.0000000E+00
 1.8572501E+00  0.0000000E+00
 1.8687501E+00  0.0000000E+00
 1.8802501E+00  0.0000000E+00
 1.8917501E+00  0.0000000E+00
 1.9032501E+00  0.0000000E+00
 1.9147501E+00  0.0000000E+00
 1.9262501E+00  0.0000000E+00
 1.9377501E+00  0.0000000E+00
 1.9492501E+00  0.0000000E+00
 1.9607501E+00  0.0000000E+00
 1.9722501E+00  0.0000000E+00
 1.9837501E+00  0.0000000E+00
 1.9952501E+00  0.0000000E+00
 2.0067501E+00  0.0000000E+00
 2.0182500E+00  0.0000000E+00
 2.0297501E+00  0.0000000E+00
 2.0412500E+00  0.0000000E+00
 2.0527501E+00  0.0000000E+00
 2.0642500E+00  0.0000000E+00
 2.0757501E+00  0.0000000E+00
 2.0872500E+00  0.0000000E+00
 2.0987501E+00  0.0000000E+00
 2.1102500E+00  0.0000000E+00
 2.1217501E+00  0.0000000E+00
 2.1332500E+00  0.0000000E+00
 2.1447501E+00  0.0000000E+00
 2.1562500E+00  0.0000000E+00
 2.1677501E+00  0.0000000E+00
 2.1792500E+00  0.0000000E+00
 2.1907501E+00  0.0000000E+00
 2.2022500E+00  0.0000000E+00
 2.2137501E+00  0.0000000E+00
 2.2252500E+00  0.0000000E+00
 2.2367501E+00  0.0000000E+00
 2.2482500E+00  0.0000000E+00
 2.2597501E+00  0.0000000E+00
 2.2712500E+00  0.0000000E+00
 2.2827501E+00  0.0000000E+00
 2.2942500E+00  0.0000000E+00
 2.3057501E+00  0.0000000E+00
 2.3172500E+00  0.0000000E+00
 2.3287501E+00  0.0000000E+00
 2.3402500E+00  0.0000000E+00
 2.3517501E+00  0.0000000E+00
 2.3632500E+00  0.0000000E+00
 2.3747501E+00  0.0000000E+00
 2.3862500E+00  0.0000000E+00
 2.3977501E+00  0.0000000E+00
 2.4092500E+00  0.0000000E+00
 2.4207501E+00  0.0000000E+00
 2.4322500E+00  0.0000000E+00
 2.4437501E+00  0.0000000E+00
 2.4552500E+00  0.0000000E+00
 2.4667501E+00  0.0000000E+00
 2.4782500E+00  0.0000000E+00
 2.4897501E+00  0.0000000E+00
 2.5012500E+00  0.0000000E+00
 2.5127501E+00  0.0000000E+00
 2.5242500E+00  0.0000000E+00
 2.5357502E+00  0.0000000E+00
 2.5472500E+00  0.0000000E+00
 2.5587502E+00  0.0000000E+00
 2.5702500E+00  0.0000000E+00
 2.5817502E+00  0.0000000E+00
 2.5932500E+00  0.0000000E+00
 2.6047502E+00  0.0000000E+00
 2.6162500E+00  0.0000000E+00
 2.6277502E+00  0.0000000E+00
 2.6392500E+00  0.0000000E+00
 2.6507502E+00  0.0000000E+00
 2.6622500E+00  0.0000000E+00
 2.6737502E+00  0.0000000E+00
 2.6852500E+00  0.0000000E+00
 2.6967502E+00  0.0000000E+00
 2.7082500E+00  0.0000000E+00
 2.7197502E+00  0.0000000E+00
 2.7312500E+00  0.0000000E+00
 2.7427502E+00  0.0000000E+00
 2.7542500E+00  0.0000000E+00
 2.7657502E+00  0.0000000E+00
 2.7772501E+00  0.0000000E+00
 2.7887502E+00  0.0000000E+00
 2.8002501E+00  0.0000000E+00
 2.8117502E+00  0.0000000E+00
 2.8232501E+00  2.6723574E+01
 2.8347502E+00  2.8752014E+01
 2.8462501E+00  3.1344170E+01
 2.8577502E+00  3.2651375E+01
 2.8692501E+00  3.4020897E+01
 2.8807502E+00  3.4437592E+01
 2.8922501E+00  3.4660145E+01
 2.9037502E+00  3.5015129E+01
 2.9152501E+00  3.5175442E+01
 2.9267502E+00  3.5512783E+01
 2.9382501E+00  3.5707977E+01
 2.9497502E+00  3.5834908E+01
 2.9612501E+00  3.5762669E+01
 2.9727502E+00  3.5718285E+01
 2.9842501E+00  3.5565746E+01
 2.9957502E+00  3.5881046E+01
 3.0072501E+00  3.6005047E+01
 3.0187502E+00  3.6197495E+01
 3.0302501E+00  3.6364811E+01
 3.0417502E+00  3.6318459E+01
 3.0532501E+00  3.6015186E+01
 3.0647502E+00  3.5629528E+01
 3.0762501E+00  3.5546371E+01
 3.0877502E+00  3.5654648E+01
 3.0992501E+00  3.5771103E+01
 3.1107502E+00  3.5650791E+01
 3.1222501E+00  3.5584995E+01
 3.1337502E+00  3.5523746E+01
 3.1452501E+00  3.5682285E+01
 3.1567502E+00  3.5580135E+01
 3.1682501E+00  3.5273029E+01
 3.1797502E+00  3.4806896E+01
 3.1912501E+00  3.4552025E+01
 3.2027502E+00  3.4556381E+01
 3.2142501E+00  3.4170860E+01
 3.2257502E+00  3.4449242E+01
 3.2372501E+00  3.4662872E+01
 3.2487502E+00  3.4861710E+01
 3.2602501E+00  3.5161205E+01
 3.2717502E+00  3.5229866E+01
 3.2832501E+00  3.5360718E+01
 3.2947502E+00  3.5310265E+01
 3.3062501E+00  3.5306679E+01
 3.3177502E+00  3.5158440E+01
 3.3292501E+00  3.5066647E+01
 3.3407502E+00  3.4950771E+01
 3.3522501E+00  3.5145363E+01
 3.3637502E+00  3.5223003E+01
 3.3752501E+00  3.4822575E+01
 3.3867502E+00  3.4647518E+01
 3.3982501E+00  3.4311047E+01
 3.4097502E+00  3.4067604E+01
 3.4212501E+00  3.3898762E+01
 3.4327502E+00  3.3834942E+01
 3.4442501E+00  3.3843609E+01
 3.4557502E+00  3.4106224E+01
 3.4672501E+00  3.4317978E+01
 3.4787502E+00  3.4452045E+01
 3.4902501E+00  3.4516457E+01
 3.5017502E+00  3.4184860E+01
 3.5132501E+00  3.3990173E+01
 3.5247502E+00  3.3890972E+01
 3.5362501E+00  3.3978901E+01
 3.5477502E+00  3.4181343E+01
 3.5592501E+00  3.4318169E+01
 3.5707502E+00  3.4119568E+01
 3.5822501E+00  3.3996906E+01
 3.5937502E+00  3.3762653E+01
 3.6052501E+00  3.3830620E+01
 3.6167502E+00  3.3867733E+01
 3.6282501E+00  3.3671890E+01
 3.6397502E+00  3.3577232E+01
 3.6512501E+00  3.3477364E+01
 3.6627502E+00  3.3413288E+01
 3.6742501E+00  3.3217659E+01
 3.6857502E+00  3.3176201E+01
 3.6972501E+00  3.3106445E+01
 3.7087502E+00  3.3165798E+01
 3.7202501E+00  3.2978016E+01
 3.7317502E+00  3.3170280E+01
 3.7432501E+00  3.3497196E+01
 3.7547503E+00  3.3492195E+01
 3.7662501E+00  3.3545620E+01
 3.7777503E+00  3.3136955E+01
 3.7892501E+00  3.2806065E+01
 3.8007503E+00  3.2376625E+01
 3.8122501E+00  3.2355377E+01
 3.8237503E+00  3.2414551E+01
 3.8352501E+00  3.2520859E+01
 3.8467503E+00  3.2417374E+01
 3.8582501E+00  3.2483166E+01
 3.8697503E+00  3.2597984E+01
 3.8812501E+00  3.2604134E+01
 3.8927503E+00  3.2600887E+01
 3.9042501E+00  3.2481396E+01
 3.9157503E+00  3.2547077E+01
 3.9272501E+00  3.2677055E+01
 3.9387503E+00  3.2845192E+01
 3.9502501E+00  3.3051586E+01
 3.9617503E+00  3.3196262E+01
 3.9732502E+00  3.3312572E+01
 3.9847503E+00  3.3249405E+01
 3.9962502E+00  3.3040115E+01
 4.0077500E+00  3.2665535E+01
 4.0192504E+00  3.2592705E+01
 4.0307503E+00  3.2493420E+01
 4.0422502E+00  3.2439247E+01
 4.0537500E+00  3.2219177E+01
 4.0652504E+00  3.2276466E+01
 4.0767503E+00  3.2208389E+01
 4.0882502E+00  3.2327751E+01
 4.0997500E+00  3.2281837E+01
 4.1112504E+00  3.2514381E+01
 4.1227503E+00  3.2643066E+01
 4.1342502E+00  3.2727882E+01
 4.1457500E+00  3.2968632E+01
 4.1572504E+00  3.2863510E+01
 4.1687503E+00  3.2746624E+01
 4.1802502E+00  3.2587357E+01
 4.1917500E+00  3.2578930E+01
 4.2032504E+00  3.2538647E+01
 4.2147503E+00  3.2533569E+01
 4.2262502E+00  3.2496700E+01
 4.2377501E+00  3.2554783E+01
 4.2492504E+00  3.2344551E+01
 4.2607503E+00  3.2306225E+01
 4.2722502E+00  3.2208607E+01
 4.2837501E+00  3.2260242E+01
 4.2952504E+00  3.2215130E+01
 4.3067503E+00  3.2217514E+01
 4.3182502E+00  3.2364548E+01
 4.3297501E+00  3.2395748E+01
 4.3412504E+00  3.2505905E+01
 4.3527503E+00  3.2421196E+01
 4.3642502E+00  3.2512505E+01
 4.3757501E+00  3.2561501E+01
 4.3872504E+00  3.2603870E+01
 4.3987503E+00  3.2624489E+01
 4.4102502E+00  3.2593147E+01
 4.4217501E+00  3.2618065E+01
 4.4332504E+00  3.2506775E+01
 4.4447503E+00  3.2480095E+01
 4.4562502E+00  3.2414722E+01
 4.4677501E+00  3.2510254E+01
 4.4792504E+00  3.2553669E+01
 4.4907503E+00  3.2657490E+01
 4.5022502E+00  3.2657875E+01
 4.5137501E+00  3.2724991E+01
 4.5252504E+00  3.2665764E+01
 4.5367503E+00  3.2680660E+01
 4.5482502E+00  3.2611000E+01
 4.5597501E+00  3.2606205E+01
 4.5712504E+00  3.2581741E+01
 4.5827503E+00  3.2563381E+01
 4.5942502E+00  3.2614616E+01
 4.6057501E+00  3.2668644E+01
 4.6172504E+00  3.2721291E+01
 4.6287503E+00  3.2677441E+01
 4.6402502E+00  3.2685768E+01
 4.6517501E+00  3.2791336E+01
 4.6632504E+00  3.3049290E+01
 4.6747503E+00  3.3237606E+01
 4.6862502E+00  3.3318302E+01
 4.6977501E+00  3.3410770E+01
 4.7092505E+00  3.3364281E+01
 4.7207503E+00  3.3231682E+01
 4.7322502E+00  3.2929501E+01
 4.7437501E+00  3.2748592E+01
 4.7552505E+00  3.2621548E+01
 4.7667503E+00  3.2654324E+01
 4.7782502E+00  3.2726398E+01
 4.7897501E+00  3.2808704E+01
 4.8012505E+00  3.2780689E+01
 4.8127503E+00  3.2685364E+01
 4.8242502E+00  3.2548523E+01
 4.8357501E+00  3.2528145E+01
 4.8472505E+00  3.2498898E+01
 4.8587503E+00  3.2611603E+01
 4.8702502E+00  3.2696049E+01
 4.8817501E+00  3.2754009E+01
 4.8932505E+00  3.2762054E+01
 4.9047503E+00  3.2676670E+01
 4.9162502E+00  3.2655613E+01
 4.9277501E+00  3.2594334E+01
 4.9392505E+00  3.2694046E+01
 4.9507504E+00  3.2653023E+01
 4.9622502E+00  3.2821423E+01
 4.9737501E+00  3.2807755E+01
 4.9852505E+00  3.3020821E+01
 4.9967504E+00  3.3006638E+01
 5.0082502E+00  3.3144253E+01
 5.0197501E+00  3.3116024E+01
 5.0312505E+00  3.3257420E+01
 5.0427504E+00  3.3205853E+01
 5.0542502E+00  3.3381863E+01
 5.0657501E+00  3.3444786E+01
 5.0772505E+00  3.3613323E+01
 5.0887504E+00  3.3448059E+01
 5.1002502E+00  3.3276077E+01
 5.1117501E+00  3.3052326E+01
 5.1232505E+00  3.3050995E+01
 5.1347504E+00  3.3242081E+01
 5.1462502E+00  3.3432117E+01
 5.1577501E+00  3.3537304E+01
 5.1692505E+00  3.3661316E+01
 5.1807504E+00  3.3804745E+01
 5.1922503E+00  3.4005730E+01
 5.2037501E+00  3.4084892E+01
 5.2152505E+00  3.4055729E+01
 5.2267504E+00  3.3979980E+01
 5.2382503E+00  3.3900730E+01
 5.2497501E+00  3.3858044E+01
 5.2612505E+00  3.3780167E+01
 5.2727504E+00  3.3691418E+01
 5.2842503E+00  3.3729088E+01
 5.2957501E+00  3.3958561E+01
 5.3072500E+00  3.4011124E+01
 5.3187504E+00  3.4115677E+01
 5.3302503E+00  3.4014702E+01
 5.3417501E+00  3.4061451E+01
 5.3532500E+00  3.3990696E+01
 5.3647504E+00  3.4067081E+01
 5.3762503E+00  3.4141205E+01
 5.3877501E+00  3.4375443E+01
 5.3992500E+00  3.4450413E+01
 5.4107504E+00  3.4408867E+01
 5.4222503E+00  3.4260906E+01
 5.4337502E+00  3.4224052E+01
 5.4452500E+00  3.4332912E+01
 5.4567504E+00  3.4480133E+01
 5.4682503E+00  3.4566196E+01
 5.4797502E+00  3.4655151E+01
 5.4912500E+00  3.4676353E+01
 5.5027504E+00  3.4715553E+01
 5.5142503E+00  3.4654301E+01
 5.5257502E+00  3.4717949E+01
 5.5372500E+00  3.4718197E+01
 5.5487504E+00  3.4723972E+01
 5.5602503E+00  3.4731155E+01
 5.5717502E+00  3.4751255E+01
 5.5832500E+00  3.4847843E+01
 5.5947504E+00  3.5036839E+01
 5.6062503E+00  3.5187916E+01
 5.6177502E+00  3.5345432E+01
 5.6292500E+00  3.5351856E+01
 5.6407504E+00  3.5330643E+01
 5.6522503E+00  3.5338459E+01
 5.6637502E+00  3.5293385E+01
 5.6752501E+00  3.5218357E+01
 5.6867504E+00  3.5135284E+01
 5.6982503E+00  3.5145107E+01
 5.7097502E+00  3.5157040E+01
 5.7212501E+00  3.5332809E+01
 5.7327504E+00  3.5342979E+01
 5.7442503E+00  3.5517273E+01
 5.7557502E+00  3.5557240E+01
 5.7672501E+00  3.5638016E+01
 5.7787504E+00  3.5623470E+01
 5.7902503E+00  3.5539036E+01
 5.8017502E+00  3.5398575E+01
 5.8132501E+00  3.5252979E+01
 5.8247504E+00  3.5171276E+01
 5.8362503E+00  3.5143127E+01
 5.8477502E+00  3.5177372E+01
 5.8592501E+00  3.5299835E+01
 5.8707504E+00  3.5434566E+01
 5.8822503E+00  3.5581642E+01
 5.8937502E+00  3.5773224E+01
 5.9052501E+00  3.5889183E+01
 5.9167504E+00  3.6028057E+01
 5.9282503E+00  3.5946289E+01
 5.9397502E+00  3.5999928E+01
 5.9512501E+00  3.6155239E+01
 5.9627504E+00  3.6408203E+01
 5.9742503E+00  3.6657913E+01
 5.9857502E+00  3.6794201E+01
 5.9972501E+00  3.6893044E+01
 6.0087504E+00  3.6807224E+01
 6.0202503E+00  3.6648941E+01
 6.0317502E+00  3.6489021E+01
 6.0432501E+00  3.6358257E+01
 6.0547504E+00  3.6290611E+01
 6.0662503E+00  3.6348927E+01
 6.0777502E+00  3.6308201E+01
 6.0892501E+00  3.6371452E+01
 6.1007504E+00  3.6420506E+01
 6.1122503E+00  3.6563652E+01
 6.1237502E+00  3.6632133E+01
 6.1352501E+00  3.6548149E+01
 6.1467505E+00  3.6522373E+01
 6.1582503E+00  3.6621792E+01
 6.1697502E+00  3.6656467E+01
 6.1812501E+00  3.6748753E+01
 6.1927505E+00  3.6773178E+01
 6.2042503E+00  3.6768158E+01
 6.2157502E+00  3.6850857E+01
 6.2272501E+00  3.6848320E+01
 6.2387505E+00  3.6990578E+01
 6.2502503E+00  3.7041046E+01
 6.2617502E+00  3.7161308E+01
 6.2732501E+00  3.7330208E+01
 6.2847505E+00  3.7527290E+01
 6.2962503E+00  3.7626663E+01
 6.3077502E+00  3.7776436E+01
 6.3192501E+00  3.7804279E+01
 6.3307505E+00  3.7895573E+01
 6.3422503E+00  3.7931057E+01
 6.3537502E+00  3.8083084E+01
 6.3652501E+00  3.8150280E+01
 6.3767505E+00  3.8208820E+01
 6.3882504E+00  3.8335201E+01
 6.3997502E+00  3.8361977E+01
 6.4112501E+00  3.8579189E+01
 6.4227505E+00  3.8619728E+01
 6.4342504E+00  3.8803406E+01
 6.4457502E+00  3.8829597E+01
 6.4572501E+00  3.8803612E+01
 6.4687505E+00  3.8869354E+01
 6.4802504E+00  3.8851826E+01
 6.4917502E+00  3.8910229E+01
 6.5032501E+00  3.8974354E+01
 6.5147505E+00  3.9078331E+01
 6.5262504E+00  3.9138432E+01
 6.5377502E+00  3.9241669E+01
 6.5492501E+00  3.9194855E+01
 6.5607505E+00  3.9306381E+01
 6.5722504E+00  3.9333351E+01
 6.5837502E+00  3.9437683E+01
 6.5952501E+00  3.9560738E+01
 6.6067505E+00  3.9665295E+01
 6.6182504E+00  3.9827553E+01
 6.6297503E+00  3.9991280E+01
 6.6412501E+00  4.0118866E+01
 6.6527505E+00  4.0311420E+01
 6.6642504E+00  4.0379490E+01
 6.6757503E+00  4.0342781E+01
 6.6872501E+00  4.0324806E+01
 6.6987505E+00  4.0207748E+01
 6.7102504E+00  4.0273094E+01
 6.7217503E+00  4.0269703E+01
 6.7332501E+00  4.0379585E+01
 6.7447505E+00  4.0542408E+01
 6.7562504E+00  4.0710926E+01
 6.7677503E+00  4.0875820E+01
 6.7792501E+00  4.0914776E+01
 6.7907505E+00  4.0898056E+01
 6.8022504E+00  4.0914642E+01
 6.8137503E+00  4.1013058E+01
 6.8252501E+00  4.1116611E+01
 6.8367505E+00  4.1294903E+01
 6.8482504E+00  4.1442848E+01
 6.8597503E+00  4.1606831E+01
 6.8712502E+00  4.1637665E+01
 6.8827505E+00  4.1707977E+01
 6.8942504E+00  4.1743496E+01
 6.9057503E+00  4.1815933E+01
 6.9172502E+00  4.1882454E+01
 6.9287505E+00  4.1828712E+01
 6.9402504E+00  4.1930103E+01
 6.9517503E+00  4.1953804E+01
 6.9632502E+00  4.2025700E+01
 6.9747505E+00  4.2041691E+01
 6.9862504E+00  4.1938805E+01
 6.9977503E+00  4.1989620E+01
 7.0092502E+00  4.1948112E+01
 7.0207505E+00  4.2075684E+01
 7.0322504E+00  4.2221954E+01
 7.0437503E+00  4.2420631E+01
 7.0552502E+00  4.2595383E+01
 7.0667505E+00  4.2575050E+01
 7.0782504E+00  4.2588654E+01
 7.0897503E+00  4.2631237E+01
 7.1012502E+00  4.2809582E+01
 7.1127505E+00  4.2910816E+01
 7.1242504E+00  4.2991085E+01
 7.1357503E+00  4.3030479E+01
 7.1472502E+00  4.3167164E+01
 7.1587505E+00  4.3244869E+01
 7.1702504E+00  4.3385956E+01
 7.1817503E+00  4.3462063E+01
 7.1932502E+00  4.3546665E+01
 7.2047505E+00  4.3574261E+01
 7.2162504E+00  4.3560917E+01
 7.2277503E+00  4.3599609E+01
 7.2392502E+00  4.3620918E+01
 7.2507505E+00  4.3658360E+01
 7.2622504E+00  4.3655865E+01
 7.2737503E+00  4.3666992E+01
 7.2852502E+00  4.3728382E+01
 7.2967505E+00  4.3846962E+01
 7.3082504E+00  4.3906971E+01
 7.3197503E+00  4.3950748E+01
 7.3312502E+00  4.3912739E+01
 7.3427505E+00  4.3890015E+01
 7.3542504E+00  4.3893696E+01
 7.3657503E+00  4.3976398E+01
 7.3772502E+00  4.4055458E+01
 7.3887506E+00  4.4117226E+01
 7.4002504E+00  4.4186840E+01
 7.4117503E+00  4.4349293E+01
 7.4232502E+00  4.4342094E+01
 7.4347506E+00  4.4338013E+01
 7.4462504E+00  4.4343960E+01
 7.4577503E+00  4.4338875E+01
 7.4692502E+00  4.4242466E+01
 7.4807506E+00  4.4125420E+01
 7.4922504E+00  4.4085056E+01
 7.5037503E+00  4.4044258E+01
 7.5152502E+00  4.3924316E+01
 7.5267506E+00  4.3898193E+01
 7.5382504E+00  4.3908886E+01
 7.5497503E+00  4.3995434E+01
 7.5612502E+00  4.4081680E+01
 7.5727506E+00  4.4146610E+01
 7.5842505E+00  4.4286613E+01
 7.5957503E+00  4.4303276E+01
 7.6072502E+00  4.4394173E+01
 7.6187506E+00  4.4347858E+01
 7.6302505E+00  4.4319950E+01
 7.6417503E+00  4.4299267E+01
 7.6532502E+00  4.4261330E+01
 7.6647506E+00  4.4260139E+01
 7.6762505E+00  4.4238327E+01
 7.6877503E+00  4.4180546E+01
 7.6992502E+00  4.4146984E+01
 7.7107506E+00  4.4143650E+01
 7.7222505E+00  4.4317871E+01
 7.7337503E+00  4.4318039E+01
 7.7452502E+00  4.4332870E+01
 7.7567506E+00  4.4251656E+01
 7.7682505E+00  4.4220459E+01
 7.7797503E+00  4.4211353E+01
 7.7912502E+00  4.4220142E+01
 7.8027506E+00  4.4187969E+01
 7.8142505E+00  4.4107349E+01
 7.8257504E+00  4.4027794E+01
 7.8372502E+00  4.3982281E+01
 7.8487506E+00  4.4073463E+01
 7.8602505E+00  4.4051121E+01
 7.8717504E+00  4.4060539E+01
 7.8832502E+00  4.4030910E+01
 7.8947506E+00  4.3918736E+01
 7.9062505E+00  4.3871700E+01
 7.9177504E+00  4.3755390E+01
 7.9292502E+00  4.3706657E+01
 7.9407506E+00  4.3738804E+01
 7.9522505E+00  4.3719662E+01
 7.9637504E+00  4.3614513E+01
 7.9752502E+00  4.3499554E+01
 7.9867506E+00  4.3412022E+01
 7.9982505E+00  4.3426113E+01
 8.0097504E+00  4.3336540E+01
 8.0212507E+00  4.3335979E+01
 8.0327501E+00  4.3316971E+01
 8.0442505E+00  4.3286049E+01
 8.0557508E+00  4.3181885E+01
 8.0672503E+00  4.3003487E+01
 8.0787506E+00  4.2897446E+01
 8.0902500E+00  4.2899487E+01
 8.1017504E+00  4.2922935E+01
 8.1132507E+00  4.2948807E+01
 8.1247501E+00  4.2793083E+01
 8.1362505E+00  4.2559948E+01
 8.1477509E+00  4.2338528E+01
 8.1592503E+00  4.2192947E+01
 8.1707506E+00  4.2085381E+01
 8.1822500E+00  4.2047947E+01
 8.1937504E+00  4.1973820E+01
 8.2052507E+00  4.1992886E+01
 8.2167501E+00  4.1871449E+01
 8.2282505E+00  4.1768070E+01
 8.2397509E+00  4.1595345E+01
 8.2512503E+00  4.1486046E+01
 8.2627506E+00  4.1237167E+01
 8.2742500E+00  4.1007446E+01
 8.2857504E+00  4.0849358E+01
 8.2972507E+00  4.0737335E+01
 8.3087502E+00  4.0696327E+01
 8.3202505E+00  4.0598938E+01
 8.3317509E+00  4.0458431E+01
 8.3432503E+00  4.0338310E+01
 8.3547506E+00  4.0159584E+01
 8.3662500E+00  3.9973526E+01
 8.3777504E+00  3.9743328E+01
 8.3892508E+00  3.9518852E+01
 8.4007502E+00  3.9323895E+01
 8.4122505E+00  3.9206299E+01
 8.4237509E+00  3.9034790E+01
 8.4352503E+00  3.8851845E+01
 8.4467506E+00  3.8695717E+01
 8.4582500E+00  3.8498657E+01
 8.4697504E+00  3.8352604E+01
 8.4812508E+00  3.8107643E+01
 8.4927502E+00  3.7929440E+01
 8.5042505E+00  3.7779926E+01
 8.5157509E+00  3.7673458E+01
 8.5272503E+00  3.7527557E+01
 8.5387506E+00  3.7362373E+01
 8.5502501E+00  3.7075157E+01
 8.5617504E+00  3.6892986E+01
 8.5732508E+00  3.6689686E+01
 8.5847502E+00  3.6514290E+01
 8.5962505E+00  3.6375332E+01
 8.6077509E+00  3.6178192E+01
 8.6192503E+00  3.6130913E+01
 8.6307507E+00  3.5993565E+01
 8.6422501E+00  3.5906845E+01
 8.6537504E+00  3.5743553E+01
 8.6652508E+00  3.5609669E+01
 8.6767502E+00  3.5423153E+01
 8.6882505E+00  3.5275314E+01
 8.6997509E+00  3.5086060E+01
 8.7112503E+00  3.4911743E+01
 8.7227507E+00  3.4707550E+01
 8.7342501E+00  3.4526630E+01
 8.7457504E+00  3.4270092E+01
 8.7572508E+00  3.4033047E+01
 8.7687502E+00  3.3794289E+01
 8.7802505E+00  3.3722210E+01
 8.7917500E+00  3.3618477E+01
 8.8032503E+00  3.3509705E+01
 8.8147507E+00  3.3333759E+01
 8.8262501E+00  3.3184223E+01
 8.8377504E+00  3.2987732E+01
 8.8492508E+00  3.2855770E+01
 8.8607502E+00  3.2647865E+01
 8.8722506E+00  3.2489460E+01
 8.8837500E+00  3.2299305E+01
 8.8952503E+00  3.2094841E+01
 8.9067507E+00  3.1929848E+01
 8.9182501E+00  3.1760744E+01
 8.9297504E+00  3.1624660E+01
 8.9412508E+00  3.1445293E+01
 8.9527502E+00  3.1350750E+01
 8.9642506E+00  3.1210815E+01
 8.9757500E+00  3.1125879E+01
 8.9872503E+00  3.0949621E+01
 8.9987507E+00  3.0764126E+01
 9.0102501E+00  3.0640692E+01
 9.0217505E+00  3.0406488E+01
 9.0332508E+00  3.0307312E+01
 9.0447502E+00  3.0186096E+01
 9.0562506E+00  3.0085369E+01
 9.0677500E+00  3.0014257E+01
 9.0792503E+00  2.9890507E+01
 9.0907507E+00  2.9825586E+01
 9.1022501E+00  2.9785673E+01
 9.1137505E+00  2.9627384E+01
 9.1252508E+00  2.9543406E+01
 9.1367502E+00  2.9365122E+01
 9.1482506E+00  2.9230619E+01
 9.1597500E+00  2.9040377E+01
 9.1712503E+00  2.8837484E+01
 9.1827507E+00  2.8731596E+01
 9.1942501E+00  2.8598906E+01
 9.2057505E+00  2.8507006E+01
 9.2172508E+00  2.8411234E+01
 9.2287502E+00  2.8318846E+01
 9.2402506E+00  2.8203659E+01
 9.2517500E+00  2.8081457E+01
 9.2632504E+00  2.8024124E+01
 9.2747507E+00  2.7924822E+01
 9.2862501E+00  2.7797369E+01
 9.2977505E+00  2.7687902E+01
 9.3092508E+00  2.7605833E+01
 9.3207502E+00  2.7579554E+01
 9.3322506E+00  2.7464951E+01
 9.3437500E+00  2.7357161E+01
 9.3552504E+00  2.7275038E+01
 9.3667507E+00  2.7259237E+01
 9.3782501E+00  2.7193800E+01
 9.3897505E+00  2.7121250E+01
 9.4012508E+00  2.6968208E+01
 9.4127502E+00  2.6872967E+01
 9.4242506E+00  2.6708204E+01
 9.4357500E+00  2.6660484E+01
 9.4472504E+00  2.6589956E+01
 9.4587507E+00  2.6642841E+01
 9.4702501E+00  2.6601992E+01
 9.4817505E+00  2.6624859E+01
 9.4932508E+00  2.6498455E+01
 9.5047503E+00  2.6425121E+01
 9.5162506E+00  2.6300627E+01
 9.5277500E+00  2.6268110E+01
 9.5392504E+00  2.6201126E+01
 9.5507507E+00  2.6143112E+01
 9.5622501E+00  2.6050266E+01
 9.5737505E+00  2.5950027E+01
 9.5852509E+00  2.5853361E+01
 9.5967503E+00  2.5802826E+01
 9.6082506E+00  2.5722002E+01
 9.6197500E+00  2.5666782E+01
 9.6312504E+00  2.5557936E+01
 9.6427507E+00  2.5523695E+01
 9.6542501E+00  2.5425095E+01
 9.6657505E+00  2.5391970E+01
 9.6772509E+00  2.5310415E+01
 9.6887503E+00  2.5313591E+01
 9.7002506E+00  2.5287111E+01
 9.7117500E+00  2.5249870E+01
 9.7232504E+00  2.5221676E+01
 9.7347507E+00  2.5103350E+01
 9.7462502E+00  2.5042292E+01
 9.7577505E+00  2.4976686E+01
 9.7692509E+00  2.5011162E+01
 9.7807503E+00  2.5016838E+01
 9.7922506E+00  2.4966444E+01
 9.8037500E+00  2.4970091E+01
 9.8152504E+00  2.4863750E+01
 9.8267508E+00  2.4827164E+01
 9.8382502E+00  2.4647102E+01
 9.8497505E+00  2.4564592E+01
 9.8612509E+00  2.4483189E+01
 9.8727503E+00  2.4445162E+01
 9.8842506E+00  2.4468300E+01
 9.8957500E+00  2.4470778E+01
 9.9072504E+00  2.4462154E+01
 9.9187508E+00  2.4386515E+01
 9.9302502E+00  2.4322456E+01
 9.9417505E+00  2.4221317E+01
 9.9532509E+00  2.4138535E+01
 9.9647503E+00  2.4086246E+01
 9.9762506E+00  2.4064621E+01
 9.9877501E+00  2.4070339E+01
 9.9992504E+00  2.4068604E+01
 1.0010751E+01  2.4070942E+01
 1.0022250E+01  2.4105639E+01
 1.0033751E+01  2.4156771E+01
 1.0045251E+01  2.4226164E+01
 1.0056750E+01  2.4208307E+01
 1.0068251E+01  2.4122890E+01
 1.0079750E+01  2.4039959E+01
 1.0091250E+01  2.3981279E+01
 1.0102751E+01  2.3883987E+01
 1.0114250E+01  2.3829706E+01
 1.0125751E+01  2.3824366E+01
 1.0137251E+01  2.3810472E+01
 1.0148750E+01  2.3813686E+01
 1.0160251E+01  2.3771774E+01
 1.0171750E+01  2.3815496E+01
 1.0183250E+01  2.3802841E+01
 1.0194751E+01  2.3812826E+01
 1.0206250E+01  2.3769377E+01
 1.0217751E+01  2.3764851E+01
 1.0229251E+01  2.3736021E+01
 1.0240750E+01  2.3669399E+01
 1.0252251E+01  2.3552219E+01
 1.0263750E+01  2.3432747E+01
 1.0275250E+01  2.3390312E+01
 1.0286751E+01  2.3330185E+01
 1.0298250E+01  2.3366617E+01
 1.0309751E+01  2.3383909E+01
 1.0321251E+01  2.3410742E+01
 1.0332750E+01  2.3372715E+01
 1.0344251E+01  2.3284817E+01
 1.0355750E+01  2.3211748E+01
 1.0367250E+01  2.3148870E+01
 1.0378751E+01  2.3149954E+01
 1.0390250E+01  2.3271738E+01
 1.0401751E+01  2.3324194E+01
 1.0413251E+01  2.3372812E+01
 1.0424750E+01  2.3306391E+01
 1.0436251E+01  2.3264223E+01
 1.0447750E+01  2.3208275E+01
 1.0459250E+01  2.3186077E+01
 1.0470751E+01  2.3204643E+01
 1.0482250E+01  2.3224430E+01
 1.0493751E+01  2.3231049E+01
 1.0505251E+01  2.3165709E+01
 1.0516750E+01  2.3145559E+01
 1.0528251E+01  2.3076313E+01
 1.0539750E+01  2.3062546E+01
 1.0551250E+01  2.3069929E+01
 1.0562751E+01  2.3069746E+01
 1.0574250E+01  2.3022875E+01
 1.0585751E+01  2.2948442E+01
 1.0597251E+01  2.2890160E+01
 1.0608750E+01  2.2835310E+01
 1.0620251E+01  2.2781120E+01
 1.0631750E+01  2.2786787E+01
 1.0643250E+01  2.2836317E+01
 1.0654751E+01  2.2843315E+01
 1.0666250E+01  2.2886442E+01
 1.0677751E+01  2.2816406E+01
 1.0689251E+01  2.2758448E+01
 1.0700750E+01  2.2685894E+01
 1.0712251E+01  2.2667387E+01
 1.0723750E+01  2.2675259E+01
 1.0735250E+01  2.2650393E+01
 1.0746751E+01  2.2673590E+01
 1.0758250E+01  2.2628689E+01
 1.0769751E+01  2.2609922E+01
 1.0781251E+01  2.2617636E+01
 1.0792750E+01  2.2631447E+01
 1.0804251E+01  2.2630781E+01
 1.0815750E+01  2.2601217E+01
 1.0827250E+01  2.2658865E+01
 1.0838751E+01  2.2657080E+01
 1.0850250E+01  2.2603283E+01
 1.0861751E+01  2.2556559E+01
 1.0873251E+01  2.2520376E+01
 1.0884750E+01  2.2464710E+01
 1.0896251E+01  2.2443621E+01
 1.0907750E+01  2.2445465E+01
 1.0919250E+01  2.2497358E+01
 1.0930751E+01  2.2462561E+01
 1.0942250E+01  2.2433937E+01
 1.0953751E+01  2.2441479E+01
 1.0965251E+01  2.2436245E+01
 1.0976750E+01  2.2454779E+01
 1.0988251E+01  2.2419071E+01
 1.0999750E+01  2.2383232E+01
 1.1011250E+01  2.2339090E+01
 1.1022751E+01  2.2342886E+01
 1.1034250E+01  2.2383366E+01
 1.1045751E+01  2.2352839E+01
 1.1057251E+01  2.2314188E+01
 1.1068750E+01  2.2295441E+01
 1.1080251E+01  2.2292786E+01
 1.1091750E+01  2.2302084E+01
 1.1103251E+01  2.2269350E+01
 1.1114751E+01  2.2237234E+01
 1.1126250E+01  2.2237778E+01
 1.1137751E+01  2.2217386E+01
 1.1149251E+01  2.2268656E+01
 1.1160750E+01  2.2248125E+01
 1.1172251E+01  2.2218941E+01
 1.1183750E+01  2.2175631E+01
 1.1195251E+01  2.2149885E+01
 1.1206751E+01  2.2098282E+01
 1.1218250E+01  2.2074606E+01
 1.1229751E+01  2.2038240E+01
 1.1241251E+01  2.2135944E+01
 1.1252750E+01  2.2162371E+01
 1.1264251E+01  2.2194849E+01
 1.1275750E+01  2.2177198E+01
 1.1287251E+01  2.2168005E+01
 1.1298751E+01  2.2183580E+01
 1.1310250E+01  2.2166418E+01
 1.1321751E+01  2.2166800E+01
 1.1333251E+01  2.2123619E+01
 1.1344750E+01  2.2144670E+01
 1.1356251E+01  2.2169428E+01
 1.1367750E+01  2.2302931E+01
 1.1379251E+01  2.2362282E+01
 1.1390751E+01  2.2429670E+01
 1.1402250E+01  2.2517929E+01
 1.1413751E+01  2.2456713E+01
 1.1425251E+01  2.2446877E+01
 1.1436750E+01  2.2329174E+01
 1.1448251E+01  2.2358393E+01
 1.1459750E+01  2.2341341E+01
 1.1471251E+01  2.2315619E+01
 1.1482751E+01  2.2256895E+01
 1.1494250E+01  2.2267752E+01
 1.1505751E+01  2.2260681E+01
 1.1517251E+01  2.2339523E+01
 1.1528750E+01  2.2367809E+01
 1.1540251E+01  2.2420645E+01
 1.1551750E+01  2.2497568E+01
 1.1563251E+01  2.2581692E+01
 1.1574751E+01  2.2695957E+01
 1.1586250E+01  2.2763094E+01
 1.1597751E+01  2.2709534E+01
 1.1609251E+01  2.2654505E+01
 1.1620750E+01  2.2560474E+01
 1.1632251E+01  2.2546728E+01
 1.1643750E+01  2.2492687E+01
 1.1655251E+01  2.2395721E+01
 1.1666751E+01  2.2317650E+01
 1.1678250E+01  2.2220739E+01
 1.1689751E+01  2.2204393E+01
 1.1701251E+01  2.2164003E+01
 1.1712750E+01  2.2132627E+01
 1.1724251E+01  2.2108997E+01
 1.1735750E+01  2.2038126E+01
 1.1747251E+01  2.2051825E+01
 1.1758751E+01  2.2044291E+01
 1.1770250E+01  2.2086645E+01
 1.1781751E+01  2.2128181E+01
 1.1793251E+01  2.2174919E+01
 1.1804750E+01  2.2229689E+01
 1.1816251E+01  2.2281979E+01
 1.1827750E+01  2.2308783E+01
 1.1839251E+01  2.2329088E+01
 1.1850751E+01  2.2232176E+01
 1.1862250E+01  2.2171780E+01
 1.1873751E+01  2.2135704E+01
 1.1885251E+01  2.2162277E+01
 1.1896750E+01  2.2238379E+01
 1.1908251E+01  2.2240814E+01
 1.1919750E+01  2.2272846E+01
 1.1931251E+01  2.2258051E+01
 1.1942751E+01  2.2236765E+01
 1.1954250E+01  2.2218157E+01
 1.1965751E+01  2.2206797E+01
 1.1977251E+01  2.2254377E+01
 1.1988750E+01  2.2294407E+01
 1.2000251E+01  2.2281254E+01
 1.2011750E+01  2.2263306E+01
 1.2023251E+01  2.2213810E+01
 1.2034751E+01  2.2226240E+01
 1.2046250E+01  2.2196478E+01
 1.2057751E+01  2.2229616E+01
 1.2069251E+01  2.2245338E+01
 1.2080750E+01  2.2309589E+01
 1.2092251E+01  2.2342066E+01
 1.2103750E+01  2.2411106E+01
 1.2115251E+01  2.2374979E+01
 1.2126751E+01  2.2394192E+01
 1.2138250E+01  2.2335938E+01
 1.2149751E+01  2.2338272E+01
 1.2161251E+01  2.2286568E+01
 1.2172750E+01  2.2291594E+01
 1.2184251E+01  2.2318054E+01
 1.2195750E+01  2.2350397E+01
 1.2207251E+01  2.2329073E+01
 1.2218751E+01  2.2339739E+01
 1.2230250E+01  2.2315432E+01
 1.2241751E+01  2.2325441E+01
 1.2253251E+01  2.2346743E+01
 1.2264750E+01  2.2365995E+01
 1.2276251E+01  2.2334536E+01
 1.2287750E+01  2.2301884E+01
 1.2299251E+01  2.2301554E+01
 1.2310751E+01  2.2351002E+01
 1.2322250E+01  2.2365139E+01
 1.2333751E+01  2.2359806E+01
 1.2345250E+01  2.2310730E+01
 1.2356750E+01  2.2316082E+01
 1.2368251E+01  2.2322815E+01
 1.2379750E+01  2.2386007E+01
 1.2391251E+01  2.2410204E+01
 1.2402751E+01  2.2400833E+01
 1.2414250E+01  2.2401064E+01
 1.2425751E+01  2.2371101E+01
 1.2437250E+01  2.2349133E+01
 1.2448750E+01  2.2381516E+01
 1.2460251E+01  2.2409811E+01
 1.2471750E+01  2.2443325E+01
 1.2483251E+01  2.2405930E+01
 1.2494751E+01  2.2373167E+01
 1.2506250E+01  2.2396877E+01
 1.2517751E+01  2.2407368E+01
 1.2529250E+01  2.2444527E+01
 1.2540751E+01  2.2492500E+01
 1.2552251E+01  2.2564833E+01
 1.2563750E+01  2.2568903E+01
 1.2575251E+01  2.2594969E+01
 1.2586751E+01  2.2546665E+01
 1.2598250E+01  2.2627527E+01
 1.2609751E+01  2.2634399E+01
 1.2621250E+01  2.2679449E+01
 1.2632751E+01  2.2656336E+01
 1.2644251E+01  2.2615608E+01
 1.2655750E+01  2.2643612E+01
 1.2667251E+01  2.2648352E+01
 1.2678751E+01  2.2694912E+01
 1.2690250E+01  2.2695951E+01
 1.2701751E+01  2.2726797E+01
 1.2713250E+01  2.2745279E+01
 1.2724751E+01  2.2769926E+01
 1.2736251E+01  2.2779928E+01
 1.2747750E+01  2.2831900E+01
 1.2759251E+01  2.2857830E+01
 1.2770751E+01  2.2910963E+01
 1.2782250E+01  2.2953016E+01
 1.2793751E+01  2.2979565E+01
 1.2805250E+01  2.2997417E+01
 1.2816751E+01  2.2992954E+01
 1.2828251E+01  2.3068808E+01
 1.2839750E+01  2.3089815E+01
 1.2851251E+01  2.3173466E+01
 1.2862751E+01  2.3210125E+01
 1.2874250E+01  2.3241669E+01
 1.2885751E+01  2.3243328E+01
 1.2897250E+01  2.3222364E+01
 1.2908751E+01  2.3279760E+01
 1.2920251E+01  2.3325964E+01
 1.2931750E+01  2.3452637E+01
 1.2943251E+01  2.3508284E+01
 1.2954751E+01  2.3581266E+01
 1.2966250E+01  2.3598042E+01
 1.2977751E+01  2.3710678E+01
 1.2989250E+01  2.3709053E+01
 1.3000751E+01  2.3727743E+01
 1.3012251E+01  2.3741119E+01
 1.3023750E+01  2.3841547E+01
 1.3035251E+01  2.4008850E+01
 1.3046751E+01  2.4184006E+01
 1.3058250E+01  2.4330521E+01
 1.3069751E+01  2.4416590E+01
 1.3081250E+01  2.4432627E+01
 1.3092751E+01  2.4497734E+01
 1.3104251E+01  2.4586552E+01
 1.3115750E+01  2.4733694E+01
 1.3127251E+01  2.4856657E+01
 1.3138751E+01  2.4912889E+01
 1.3150250E+01  2.4990042E+01
 1.3161751E+01  2.5099983E+01
 1.3173250E+01  2.5243898E+01
 1.3184751E+01  2.5368280E+01
 1.3196251E+01  2.5493044E+01
 1.3207750E+01  2.5632244E+01
 1.3219251E+01  2.5756317E+01
 1.3230751E+01  2.5941519E+01
 1.3242250E+01  2.6125282E+01
 1.3253751E+01  2.6284266E+01
 1.3265250E+01  2.6414282E+01
 1.3276751E+01  2.6578779E+01
 1.3288251E+01  2.6740082E+01
 1.3299750E+01  2.6848558E+01
 1.3311251E+01  2.6883526E+01
 1.3322751E+01  2.6965191E+01
 1.3334250E+01  2.7102665E+01
 1.3345751E+01  2.7274570E+01
 1.3357250E+01  2.7472158E+01
 1.3368751E+01  2.7630505E+01
 1.3380251E+01  2.7823948E+01
 1.3391750E+01  2.7938240E+01
 1.3403251E+01  2.8045912E+01
 1.3414751E+01  2.8126730E+01
 1.3426250E+01  2.8170980E+01
 1.3437751E+01  2.8235308E+01
 1.3449250E+01  2.8296688E+01
 1.3460751E+01  2.8469856E+01
 1.3472251E+01  2.8571712E+01
 1.3483750E+01  2.8742592E+01
 1.3495251E+01  2.8814413E+01
 1.3506751E+01  2.8976294E+01
 1.3518250E+01  2.9097954E+01
 1.3529751E+01  2.9191025E+01
 1.3541250E+01  2.9293158E+01
 1.3552751E+01  2.9306969E+01
 1.3564251E+01  2.9436504E+01
 1.3575750E+01  2.9471643E+01
 1.3587251E+01  2.9575027E+01
 1.3598751E+01  2.9598255E+01
 1.3610250E+01  2.9631922E+01
 1.3621751E+01  2.9604771E+01
 1.3633250E+01  2.9561010E+01
 1.3644751E+01  2.9491104E+01
 1.3656251E+01  2.9432426E+01
 1.3667750E+01  2.9407217E+01
 1.3679251E+01  2.9355124E+01
 1.3690751E+01  2.9324814E+01
 1.3702250E+01  2.9279705E+01
 1.3713751E+01  2.9288919E+01
 1.3725250E+01  2.9289791E+01
 1.3736751E+01  2.9294056E+01
 1.3748251E+01  2.9254082E+01
 1.3759750E+01  2.9154388E+01
 1.3771251E+01  2.9088051E+01
 1.3782751E+01  2.9021515E+01
 1.3794250E+01  2.9044643E+01
 1.3805751E+01  2.8965479E+01
 1.3817250E+01  2.8877087E+01
 1.3828751E+01  2.8729982E+01
 1.3840251E+01  2.8654585E+01
 1.3851750E+01  2.8545004E+01
 1.3863251E+01  2.8495050E+01
 1.3874751E+01  2.8434937E+01
 1.3886250E+01  2.8483253E+01
 1.3897751E+01  2.8521065E+01
 1.3909250E+01  2.8588455E+01
 1.3920751E+01  2.8616003E+01
 1.3932251E+01  2.8608593E+01
 1.3943750E+01  2.8595196E+01
 1.3955251E+01  2.8527662E+01
 1.3966751E+01  2.8438025E+01
 1.3978251E+01  2.8306658E+01
 1.3989751E+01  2.8107122E+01
 1.4001250E+01  2.7934937E+01
 1.4012751E+01  2.7745518E+01
 1.4024251E+01  2.7614983E+01
 1.4035750E+01  2.7433170E+01
 1.4047251E+01  2.7358444E+01
 1.4058751E+01  2.7305820E+01
 1.4070251E+01  2.7294994E+01
 1.4081751E+01  2.7221516E+01
 1.4093250E+01  2.7167089E+01
 1.4104751E+01  2.7085548E+01
 1.4116251E+01  2.6957325E+01
 1.4127750E+01  2.6868708E+01
 1.4139251E+01  2.6742575E+01
 1.4150751E+01  2.6656258E+01
 1.4162251E+01  2.6585192E+01
 1.4173751E+01  2.6516470E+01
 1.4185250E+01  2.6510883E+01
 1.4196751E+01  2.6489916E+01
 1.4208251E+01  2.6463362E+01
 1.4219750E+01  2.6401604E+01
 1.4231251E+01  2.6291105E+01
 1.4242751E+01  2.6209349E+01
 1.4254251E+01  2.6139570E+01
 1.4265751E+01  2.6137934E+01
 1.4277250E+01  2.6135887E+01
 1.4288751E+01  2.6178776E+01
 1.4300251E+01  2.6159739E+01
 1.4311750E+01  2.6157475E+01
 1.4323251E+01  2.6098637E+01
 1.4334751E+01  2.6086239E+01
 1.4346251E+01  2.6075596E+01
 1.4357751E+01  2.6076992E+01
 1.4369250E+01  2.6039516E+01
 1.4380751E+01  2.5953787E+01
 1.4392251E+01  2.5882133E+01
 1.4403750E+01  2.5829494E+01
 1.4415251E+01  2.5780560E+01
 1.4426751E+01  2.5680151E+01
 1.4438251E+01  2.5596983E+01
 1.4449751E+01  2.5488739E+01
 1.4461250E+01  2.5405273E+01
 1.4472751E+01  2.5367188E+01
 1.4484251E+01  2.5390926E+01
 1.4495750E+01  2.5443510E+01
 1.4507251E+01  2.5464214E+01
 1.4518751E+01  2.5423460E+01
 1.4530251E+01  2.5413029E+01
 1.4541751E+01  2.5410328E+01
 1.4553250E+01  2.5436155E+01
 1.4564751E+01  2.5461203E+01
 1.4576251E+01  2.5425806E+01
 1.4587750E+01  2.5403772E+01
 1.4599251E+01  2.5298853E+01
 1.4610751E+01  2.5271578E+01
 1.4622251E+01  2.5239775E+01
 1.4633751E+01  2.5199894E+01
 1.4645250E+01  2.5218271E+01
 1.4656751E+01  2.5184660E+01
 1.4668251E+01  2.5185783E+01
 1.4679750E+01  2.5129900E+01
 1.4691251E+01  2.5140211E+01
 1.4702751E+01  2.5117022E+01
 1.4714251E+01  2.5112476E+01
 1.4725751E+01  2.5058254E+01
 1.4737250E+01  2.5005056E+01
 1.4748751E+01  2.4896944E+01
 1.4760251E+01  2.4809193E+01
 1.4771750E+01  2.4750698E+01
 1.4783251E+01  2.4731449E+01
 1.4794751E+01  2.4743399E+01
 1.4806251E+01  2.4756159E+01
 1.4817751E+01  2.4740032E+01
 1.4829250E+01  2.4769352E+01
 1.4840751E+01  2.4809557E+01
 1.4852251E+01  2.4827688E+01
 1.4863750E+01  2.4795221E+01
 1.4875251E+01  2.4742765E+01
 1.4886751E+01  2.4745699E+01
 1.4898251E+01  2.4758892E+01
 1.4909751E+01  2.4771063E+01
 1.4921250E+01  2.4716953E+01
 1.4932751E+01  2.4656731E+01
 1.4944251E+01  2.4566334E+01
 1.4955750E+01  2.4535744E+01
 1.4967251E+01  2.4523764E+01
 1.4978751E+01  2.4599197E+01
 1.4990251E+01  2.4671661E+01
 1.5001751E+01  2.4705702E+01
 1.5013250E+01  2.4723400E+01
 1.5024751E+01  2.4758881E+01
 1.5036251E+01  2.4754536E+01
 1.5047750E+01  2.4721977E+01
 1.5059251E+01  2.4656483E+01
 1.5070751E+01  2.4620363E+01
 1.5082251E+01  2.4544668E+01
 1.5093751E+01  2.4457041E+01
 1.5105250E+01  2.4445751E+01
 1.5116751E+01  2.4462179E+01
 1.5128251E+01  2.4447245E+01
 1.5139750E+01  2.4460812E+01
 1.5151251E+01  2.4468960E+01
 1.5162751E+01  2.4490156E+01
 1.5174251E+01  2.4475948E+01
 1.5185751E+01  2.4512135E+01
 1.5197250E+01  2.4532385E+01
 1.5208751E+01  2.4594358E+01
 1.5220251E+01  2.4592205E+01
 1.5231750E+01  2.4589939E+01
 1.5243251E+01  2.4520359E+01
 1.5254751E+01  2.4491491E+01
 1.5266251E+01  2.4424774E+01
 1.5277751E+01  2.4408859E+01
 1.5289250E+01  2.4429152E+01
 1.5300751E+01  2.4510857E+01
 1.5312251E+01  2.4560411E+01
 1.5323750E+01  2.4550840E+01
 1.5335251E+01  2.4518435E+01
 1.5346751E+01  2.4505156E+01
 1.5358251E+01  2.4502346E+01
 1.5369751E+01  2.4476744E+01
 1.5381250E+01  2.4370350E+01
 1.5392751E+01  2.4287975E+01
 1.5404251E+01  2.4263962E+01
 1.5415751E+01  2.4275969E+01
 1.5427251E+01  2.4285376E+01
 1.5438751E+01  2.4241060E+01
 1.5450251E+01  2.4266830E+01
 1.5461751E+01  2.4258274E+01
 1.5473250E+01  2.4256672E+01
 1.5484751E+01  2.4241318E+01
 1.5496251E+01  2.4271244E+01
 1.5507751E+01  2.4339767E+01
 1.5519251E+01  2.4410116E+01
 1.5530751E+01  2.4442177E+01
 1.5542251E+01  2.4455959E+01
 1.5553751E+01  2.4433157E+01
 1.5565250E+01  2.4477901E+01
 1.5576751E+01  2.4479748E+01
 1.5588251E+01  2.4503134E+01
 1.5599751E+01  2.4448139E+01
 1.5611251E+01  2.4437868E+01
 1.5622751E+01  2.4390020E+01
 1.5634251E+01  2.4419685E+01
 1.5645751E+01  2.4452568E+01
 1.5657250E+01  2.4534410E+01
 1.5668751E+01  2.4549335E+01
 1.5680251E+01  2.4532541E+01
 1.5691751E+01  2.4483213E+01
 1.5703251E+01  2.4459679E+01
 1.5714751E+01  2.4423281E+01
 1.5726251E+01  2.4410063E+01
 1.5737751E+01  2.4334991E+01
 1.5749250E+01  2.4288361E+01
 1.5760751E+01  2.4287374E+01
 1.5772251E+01  2.4375877E+01
 1.5783751E+01  2.4439173E+01
 1.5795251E+01  2.4485588E+01
 1.5806751E+01  2.4526440E+01
 1.5818251E+01  2.4547064E+01
 1.5829751E+01  2.4558372E+01
 1.5841250E+01  2.4485279E+01
 1.5852751E+01  2.4465414E+01
 1.5864251E+01  2.4409838E+01
 1.5875751E+01  2.4486971E+01
 1.5887251E+01  2.4512836E+01
 1.5898750E+01  2.4581726E+01
 1.5910251E+01  2.4559881E+01
 1.5921751E+01  2.4527998E+01
 1.5933250E+01  2.4529221E+01
 1.5944751E+01  2.4500187E+01
 1.5956251E+01  2.4536512E+01
 1.5967751E+01  2.4505049E+01
 1.5979251E+01  2.4506636E+01
 1.5990750E+01  2.4523855E+01
 1.6002251E+01  2.4501083E+01
 1.6013750E+01  2.4524702E+01
 1.6025251E+01  2.4506330E+01
 1.6036751E+01  2.4554213E+01
 1.6048250E+01  2.4555006E+01
 1.6059752E+01  2.4592876E+01
 1.6071251E+01  2.4610876E+01
 1.6082750E+01  2.4640173E+01
 1.6094252E+01  2.4692719E+01
 1.6105751E+01  2.4761900E+01
 1.6117250E+01  2.4769520E+01
 1.6128750E+01  2.4730930E+01
 1.6140251E+01  2.4702757E+01
 1.6151751E+01  2.4719843E+01
 1.6163250E+01  2.4754042E+01
 1.6174751E+01  2.4669132E+01
 1.6186251E+01  2.4667786E+01
 1.6197750E+01  2.4527449E+01
 1.6209251E+01  2.4660446E+01
 1.6220751E+01  2.4607714E+01
 1.6232250E+01  2.4800621E+01
 1.6243752E+01  2.4833572E+01
 1.6255251E+01  2.4966700E+01
 1.6266750E+01  2.5135612E+01
 1.6278252E+01  2.5120279E+01
 1.6289751E+01  2.5246277E+01
 1.6301250E+01  2.4957195E+01
 1.6312750E+01  2.5016605E+01
 1.6324251E+01  2.4713280E+01
 1.6335751E+01  2.4739130E+01
 1.6347250E+01  2.4551712E+01
 1.6358751E+01  2.4527359E+01
 1.6370251E+01  2.4425615E+01
 1.6381750E+01  2.4425209E+01
 1.6393251E+01  2.4484596E+01
 1.6404751E+01  2.4523670E+01
 1.6416250E+01  2.4562237E+01
 1.6427752E+01  2.4498774E+01
 1.6439251E+01  2.4486355E+01
 1.6450750E+01  2.4442936E+01
 1.6462252E+01  2.4452694E+01
 1.6473751E+01  2.4439793E+01
 1.6485250E+01  2.4451012E+01
 1.6496750E+01  2.4380007E+01
 1.6508251E+01  2.4349768E+01
 1.6519751E+01  2.4284338E+01
 1.6531250E+01  2.4281549E+01
 1.6542751E+01  2.4260149E+01
 1.6554251E+01  2.4276144E+01
 1.6565750E+01  2.4279211E+01
 1.6577251E+01  2.4280090E+01
 1.6588751E+01  2.4322418E+01
 1.6600250E+01  2.4346611E+01
 1.6611752E+01  2.4396147E+01
 1.6623251E+01  2.4390213E+01
 1.6634750E+01  2.4373714E+01
 1.6646252E+01  2.4321283E+01
 1.6657751E+01  2.4274500E+01
 1.6669250E+01  2.4300797E+01
 1.6680750E+01  2.4314161E+01
 1.6692251E+01  2.4305420E+01
 1.6703751E+01  2.4261951E+01
 1.6715250E+01  2.4239672E+01
 1.6726751E+01  2.4224257E+01
 1.6738251E+01  2.4253904E+01
 1.6749750E+01  2.4313099E+01
 1.6761251E+01  2.4335022E+01
 1.6772751E+01  2.4364239E+01
 1.6784250E+01  2.4379395E+01
 1.6795752E+01  2.4399860E+01
 1.6807251E+01  2.4357513E+01
 1.6818750E+01  2.4350603E+01
 1.6830252E+01  2.4308243E+01
 1.6841751E+01  2.4279129E+01
 1.6853251E+01  2.4241734E+01
 1.6864750E+01  2.4226963E+01
 1.6876251E+01  2.4214933E+01
 1.6887751E+01  2.4158838E+01
 1.6899250E+01  2.4121265E+01
 1.6910751E+01  2.4091097E+01
 1.6922251E+01  2.4121956E+01
 1.6933750E+01  2.4132639E+01
 1.6945251E+01  2.4198248E+01
 1.6956751E+01  2.4237677E+01
 1.6968250E+01  2.4323738E+01
 1.6979752E+01  2.4329393E+01
 1.6991251E+01  2.4377138E+01
 1.7002750E+01  2.4357220E+01
 1.7014252E+01  2.4371838E+01
 1.7025751E+01  2.4289207E+01
 1.7037251E+01  2.4224800E+01
 1.7048750E+01  2.4069550E+01
 1.7060251E+01  2.4002716E+01
 1.7071751E+01  2.3976366E+01
 1.7083250E+01  2.4072086E+01
 1.7094751E+01  2.4092754E+01
 1.7106251E+01  2.4105204E+01
 1.7117750E+01  2.4049770E+01
 1.7129251E+01  2.4058369E+01
 1.7140751E+01  2.4040257E+01
 1.7152250E+01  2.3998150E+01
 1.7163752E+01  2.3962929E+01
 1.7175251E+01  2.3930979E+01
 1.7186750E+01  2.3927675E+01
 1.7198252E+01  2.3922998E+01
 1.7209751E+01  2.3934763E+01
 1.7221251E+01  2.3922775E+01
 1.7232750E+01  2.3923079E+01
 1.7244251E+01  2.3905607E+01
 1.7255751E+01  2.3884060E+01
 1.7267250E+01  2.3856485E+01
 1.7278751E+01  2.3831602E+01
 1.7290251E+01  2.3812212E+01
 1.7301750E+01  2.3826311E+01
 1.7313251E+01  2.3839321E+01
 1.7324751E+01  2.3814392E+01
 1.7336250E+01  2.3830305E+01
 1.7347752E+01  2.3851694E+01
 1.7359251E+01  2.3913433E+01
 1.7370750E+01  2.3929279E+01
 1.7382252E+01  2.3935587E+01
 1.7393751E+01  2.3876581E+01
 1.7405251E+01  2.3808758E+01
 1.7416750E+01  2.3774050E+01
 1.7428251E+01  2.3734896E+01
 1.7439751E+01  2.3721214E+01
 1.7451250E+01  2.3693325E+01
 1.7462751E+01  2.3698092E+01
 1.7474251E+01  2.3701580E+01
 1.7485750E+01  2.3669893E+01
 1.7497252E+01  2.3671146E+01
 1.7508751E+01  2.3622408E+01
 1.7520250E+01  2.3641167E+01
 1.7531752E+01  2.3637611E+01
 1.7543251E+01  2.3695381E+01
 1.7554750E+01  2.3689495E+01
 1.7566252E+01  2.3705212E+01
 1.7577751E+01  2.3676163E+01
 1.7589251E+01  2.3641584E+01
 1.7600750E+01  2.3614418E+01
 1.7612251E+01  2.3613718E+01
 1.7623751E+01  2.3679111E+01
 1.7635250E+01  2.3621763E+01
 1.7646751E+01  2.3586752E+01
 1.7658251E+01  2.3458330E+01
 1.7669750E+01  2.3449038E+01
 1.7681252E+01  2.3457855E+01
 1.7692751E+01  2.3498713E+01
 1.7704250E+01  2.3516836E+01
 1.7715752E+01  2.3548758E+01
 1.7727251E+01  2.3573429E+01
 1.7738750E+01  2.3613802E+01
 1.7750252E+01  2.3625877E+01
 1.7761751E+01  2.3658287E+01
 1.7773251E+01  2.3668804E+01
 1.7784750E+01  2.3663624E+01
 1.7796251E+01  2.3648836E+01
 1.7807751E+01  2.3601299E+01
 1.7819250E+01  2.3584158E+01
 1.7830751E+01  2.3556993E+01
 1.7842251E+01  2.3537809E+01
 1.7853750E+01  2.3552790E+01
 1.7865252E+01  2.3536749E+01
 1.7876751E+01  2.3565924E+01
 1.7888250E+01  2.3538948E+01
 1.7899752E+01  2.3521374E+01
 1.7911251E+01  2.3543861E+01
 1.7922750E+01  2.3555143E+01
 1.7934252E+01  2.3562542E+01
 1.7945751E+01  2.3521889E+01
 1.7957251E+01  2.3501228E+01
 1.7968750E+01  2.3551521E+01
 1.7980251E+01  2.3559277E+01
 1.7991751E+01  2.3539198E+01
 1.8003250E+01  2.3524782E+01
 1.8014751E+01  2.3520042E+01
 1.8026251E+01  2.3517891E+01
 1.8037750E+01  2.3509777E+01
 1.8049252E+01  2.3547207E+01
 1.8060751E+01  2.3563923E+01
 1.8072250E+01  2.3529175E+01
 1.8083752E+01  2.3515648E+01
 1.8095251E+01  2.3530191E+01
 1.8106750E+01  2.3548573E+01
 1.8118252E+01  2.3533768E+01
 1.8129751E+01  2.3541737E+01
 1.8141251E+01  2.3504438E+01
 1.8152750E+01  2.3432894E+01
 1.8164251E+01  2.3425983E+01
 1.8175751E+01  2.3406672E+01
 1.8187250E+01  2.3378487E+01
 1.8198751E+01  2.3322649E+01
 1.8210251E+01  2.3349043E+01
 1.8221750E+01  2.3343607E+01
 1.8233252E+01  2.3373390E+01
 1.8244751E+01  2.3355577E+01
 1.8256250E+01  2.3371567E+01
 1.8267752E+01  2.3329773E+01
 1.8279251E+01  2.3323769E+01
 1.8290751E+01  2.3323013E+01
 1.8302252E+01  2.3359882E+01
 1.8313751E+01  2.3352924E+01
 1.8325251E+01  2.3358671E+01
 1.8336750E+01  2.3348648E+01
 1.8348251E+01  2.3335276E+01
 1.8359751E+01  2.3371353E+01
 1.8371250E+01  2.3329819E+01
 1.8382751E+01  2.3320499E+01
 1.8394251E+01  2.3305075E+01
 1.8405750E+01  2.3376003E+01
 1.8417252E+01  2.3392355E+01
 1.8428751E+01  2.3355364E+01
 1.8440250E+01  2.3304150E+01
 1.8451752E+01  2.3222204E+01
 1.8463251E+01  2.3222515E+01
 1.8474751E+01  2.3261889E+01
 1.8486252E+01  2.3259218E+01
 1.8497751E+01  2.3242031E+01
 1.8509251E+01  2.3226408E+01
 1.8520750E+01  2.3219057E+01
 1.8532251E+01  2.3202375E+01
 1.8543751E+01  2.3125349E+01
 1.8555250E+01  2.3160053E+01
 1.8566751E+01  2.3227617E+01
 1.8578251E+01  2.3343756E+01
 1.8589750E+01  2.3365278E+01
 1.8601252E+01  2.3374977E+01
 1.8612751E+01  2.3349110E+01
 1.8624250E+01  2.3291578E+01
 1.8635752E+01  2.3263456E+01
 1.8647251E+01  2.3248850E+01
 1.8658751E+01  2.3223843E+01
 1.8670252E+01  2.3187614E+01
 1.8681751E+01  2.3209845E+01
 1.8693251E+01  2.3238892E+01
 1.8704750E+01  2.3251604E+01
 1.8716251E+01  2.3283630E+01
 1.8727751E+01  2.3298872E+01
 1.8739250E+01  2.3269573E+01
 1.8750751E+01  2.3208668E+01
 1.8762251E+01  2.3158924E+01
 1.8773750E+01  2.3163221E+01
 1.8785252E+01  2.3194679E+01
 1.8796751E+01  2.3229626E+01
 1.8808250E+01  2.3188934E+01
 1.8819752E+01  2.3182667E+01
 1.8831251E+01  2.3169991E+01
 1.8842751E+01  2.3208801E+01
 1.8854252E+01  2.3211380E+01
 1.8865751E+01  2.3207291E+01
 1.8877251E+01  2.3215813E+01
 1.8888750E+01  2.3199728E+01
 1.8900251E+01  2.3182272E+01
 1.8911751E+01  2.3149067E+01
 1.8923250E+01  2.3165995E+01
 1.8934752E+01  2.3195883E+01
 1.8946251E+01  2.3229729E+01
 1.8957750E+01  2.3246128E+01
 1.8969252E+01  2.3207924E+01
 1.8980751E+01  2.3179047E+01
 1.8992250E+01  2.3154152E+01
 1.9003752E+01  2.3191860E+01
 1.9015251E+01  2.3255159E+01
 1.9026751E+01  2.3289257E+01
 1.9038252E+01  2.3324621E+01
 1.9049751E+01  2.3316977E+01
 1.9061251E+01  2.3351011E+01
 1.9072750E+01  2.3372126E+01
 1.9084251E+01  2.3352858E+01
 1.9095751E+01  2.3314209E+01
 1.9107250E+01  2.3264322E+01
 1.9118752E+01  2.3233877E+01
 1.9130251E+01  2.3245541E+01
 1.9141750E+01  2.3260996E+01
 1.9153252E+01  2.3318081E+01
 1.9164751E+01  2.3333984E+01
 1.9176250E+01  2.3343502E+01
 1.9187752E+01  2.3375917E+01
 1.9199251E+01  2.3331539E+01
 1.9210751E+01  2.3331257E+01
 1.9222252E+01  2.3281748E+01
 1.9233751E+01  2.3280222E+01
 1.9245251E+01  2.3289740E+01
 1.9256750E+01  2.3308065E+01
 1.9268251E+01  2.3310413E+01
 1.9279751E+01  2.3281113E+01
 1.9291250E+01  2.3304417E+01
 1.9302752E+01  2.3287708E+01
 1.9314251E+01  2.3255749E+01
 1.9325750E+01  2.3229637E+01
 1.9337252E+01  2.3285936E+01
 1.9348751E+01  2.3333494E+01
 1.9360250E+01  2.3345781E+01
 1.9371752E+01  2.3337151E+01
 1.9383251E+01  2.3310610E+01
 1.9394751E+01  2.3314653E+01
 1.9406250E+01  2.3323608E+01
 1.9417751E+01  2.3362724E+01
 1.9429251E+01  2.3366484E+01
 1.9440750E+01  2.3403114E+01
 1.9452251E+01  2.3390175E+01
 1.9463751E+01  2.3370279E+01
 1.9475250E+01  2.3341909E+01
 1.9486752E+01  2.3341845E+01
 1.9498251E+01  2.3355492E+01
 1.9509750E+01  2.3403839E+01
 1.9521252E+01  2.3459383E+01
 1.9532751E+01  2.3483616E+01
 1.9544250E+01  2.3504190E+01
 1.9555752E+01  2.3491745E+01
 1.9567251E+01  2.3460909E+01
 1.9578751E+01  2.3436655E+01
 1.9590250E+01  2.3389984E+01
 1.9601751E+01  2.3326548E+01
 1.9613251E+01  2.3309912E+01
 1.9624750E+01  2.3346466E+01
 1.9636251E+01  2.3367914E+01
 1.9647751E+01  2.3352606E+01
 1.9659250E+01  2.3363390E+01
 1.9670752E+01  2.3413294E+01
 1.9682251E+01  2.3491123E+01
 1.9693750E+01  2.3566675E+01
 1.9705252E+01  2.3600626E+01
 1.9716751E+01  2.3632584E+01
 1.9728251E+01  2.3630693E+01
 1.9739752E+01  2.3625153E+01
 1.9751251E+01  2.3618528E+01
 1.9762751E+01  2.3598886E+01
 1.9774250E+01  2.3577431E+01
 1.9785751E+01  2.3585085E+01
 1.9797251E+01  2.3608271E+01
 1.9808750E+01  2.3611553E+01
 1.9820251E+01  2.3585098E+01
 1.9831751E+01  2.3613768E+01
 1.9843250E+01  2.3549915E+01
 1.9854752E+01  2.3560816E+01
 1.9866251E+01  2.3530628E+01
 1.9877750E+01  2.3586496E+01
 1.9889252E+01  2.3543222E+01
 1.9900751E+01  2.3529383E+01
 1.9912251E+01  2.3454136E+01
 1.9923752E+01  2.3386593E+01
 1.9935251E+01  2.3346684E+01
 1.9946751E+01  2.3317469E+01
 1.9958250E+01  2.3288588E+01
 1.9969751E+01  2.3330788E+01
 1.9981251E+01  2.3370142E+01
 1.9992750E+01  2.3424679E+01
 2.0004251E+01  2.3419298E+01
 2.0015751E+01  2.3394287E+01
 2.0027250E+01  2.3359510E+01
 2.0038752E+01  2.3371454E+01
 2.0050251E+01  2.3405170E+01
 2.0061750E+01  2.3421494E+01
 2.0073252E+01  2.3429840E+01
 2.0084751E+01  2.3435900E+01
 2.0096251E+01  2.3468210E+01
 2.0107752E+01  2.3469271E+01
 2.0119251E+01  2.3487829E+01
 2.0130751E+01  2.3489164E+01
 2.0142250E+01  2.3485826E+01
 2.0153751E+01  2.3457182E+01
 2.0165251E+01  2.3463482E+01
 2.0176750E+01  2.3440496E+01
 2.0188251E+01  2.3418676E+01
 2.0199751E+01  2.3375906E+01
 2.0211250E+01  2.3375973E+01
 2.0222752E+01  2.3382454E+01
 2.0234251E+01  2.3431660E+01
 2.0245750E+01  2.3457504E+01
 2.0257252E+01  2.3439943E+01
 2.0268751E+01  2.3412603E+01
 2.0280251E+01  2.3414892E+01
 2.0291752E+01  2.3431108E+01
 2.0303251E+01  2.3384609E+01
 2.0314751E+01  2.3360033E+01
 2.0326250E+01  2.3342115E+01
 2.0337751E+01  2.3363775E+01
 2.0349251E+01  2.3386274E+01
 2.0360750E+01  2.3388416E+01
 2.0372252E+01  2.3361174E+01
 2.0383751E+01  2.3341820E+01
 2.0395250E+01  2.3363636E+01
 2.0406752E+01  2.3381603E+01
 2.0418251E+01  2.3465826E+01
 2.0429750E+01  2.3520050E+01
 2.0441252E+01  2.3505199E+01
 2.0452751E+01  2.3476547E+01
 2.0464251E+01  2.3435053E+01
 2.0475752E+01  2.3430723E+01
 2.0487251E+01  2.3410055E+01
 2.0498751E+01  2.3451908E+01
 2.0510250E+01  2.3436621E+01
 2.0521751E+01  2.3407883E+01
 2.0533251E+01  2.3360960E+01
 2.0544750E+01  2.3333622E+01
 2.0556252E+01  2.3389362E+01
 2.0567751E+01  2.3389256E+01
 2.0579250E+01  2.3430599E+01
 2.0590752E+01  2.3479412E+01
 2.0602251E+01  2.3537165E+01
 2.0613750E+01  2.3505856E+01
 2.0625252E+01  2.3492218E+01
 2.0636751E+01  2.3485769E+01
 2.0648251E+01  2.3442371E+01
 2.0659752E+01  2.3420856E+01
 2.0671251E+01  2.3406616E+01
 2.0682751E+01  2.3427990E+01
 2.0694250E+01  2.3457798E+01
 2.0705751E+01  2.3552649E+01
 2.0717251E+01  2.3634785E+01
 2.0728750E+01  2.3666681E+01
 2.0740252E+01  2.3701874E+01
 2.0751751E+01  2.3732748E+01
 2.0763250E+01  2.3753681E+01
 2.0774752E+01  2.3740068E+01
 2.0786251E+01  2.3737612E+01
 2.0797750E+01  2.3766090E+01
 2.0809252E+01  2.3728844E+01
 2.0820751E+01  2.3670933E+01
 2.0832251E+01  2.3584076E+01
 2.0843752E+01  2.3581175E+01
 2.0855251E+01  2.3555489E+01
 2.0866751E+01  2.3592354E+01
 2.0878250E+01  2.3625505E+01
 2.0889751E+01  2.3644604E+01
 2.0901251E+01  2.3650133E+01
 2.0912750E+01  2.3633102E+01
 2.0924252E+01  2.3656878E+01
 2.0935751E+01  2.3646402E+01
 2.0947250E+01  2.3653316E+01
 2.0958752E+01  2.3621883E+01
 2.0970251E+01  2.3602955E+01
 2.0981750E+01  2.3630930E+01
 2.0993252E+01  2.3626282E+01
 2.1004751E+01  2.3603636E+01
 2.1016251E+01  2.3536509E+01
 2.1027752E+01  2.3505026E+01
 2.1039251E+01  2.3493885E+01
 2.1050751E+01  2.3472403E+01
 2.1062250E+01  2.3508516E+01
 2.1073751E+01  2.3538019E+01
 2.1085251E+01  2.3534588E+01
 2.1096750E+01  2.3531107E+01
 2.1108252E+01  2.3567839E+01
 2.1119751E+01  2.3613375E+01
 2.1131250E+01  2.3574699E+01
 2.1142752E+01  2.3525129E+01
 2.1154251E+01  2.3446325E+01
 2.1165751E+01  2.3488176E+01
 2.1177252E+01  2.3497009E+01
 2.1188751E+01  2.3577133E+01
 2.1200251E+01  2.3633921E+01
 2.1211752E+01  2.3703815E+01
 2.1223251E+01  2.3678896E+01
 2.1234751E+01  2.3654064E+01
 2.1246250E+01  2.3704060E+01
 2.1257751E+01  2.3735338E+01
 2.1269251E+01  2.3748348E+01
 2.1280750E+01  2.3719427E+01
 2.1292252E+01  2.3690521E+01
 2.1303751E+01  2.3679024E+01
 2.1315250E+01  2.3641108E+01
 2.1326752E+01  2.3672609E+01
 2.1338251E+01  2.3684380E+01
 2.1349751E+01  2.3768362E+01
 2.1361252E+01  2.3808037E+01
 2.1372751E+01  2.3855040E+01
 2.1384251E+01  2.3738411E+01
 2.1395752E+01  2.3696764E+01
 2.1407251E+01  2.3629885E+01
 2.1418751E+01  2.3663532E+01
 2.1430250E+01  2.3645475E+01
 2.1441751E+01  2.3667774E+01
 2.1453251E+01  2.3627493E+01
 2.1464750E+01  2.3648861E+01
 2.1476252E+01  2.3628992E+01
 2.1487751E+01  2.3737513E+01
 2.1499250E+01  2.3776598E+01
 2.1510752E+01  2.3792894E+01
 2.1522251E+01  2.3748484E+01
 2.1533751E+01  2.3745609E+01
 2.1545252E+01  2.3731014E+01
 2.1556751E+01  2.3721199E+01
 2.1568251E+01  2.3730169E+01
 2.1579752E+01  2.3747013E+01
 2.1591251E+01  2.3807558E+01
 2.1602751E+01  2.3894581E+01
 2.1614250E+01  2.3937412E+01
 2.1625751E+01  2.4087103E+01
 2.1637251E+01  2.4150656E+01
 2.1648750E+01  2.4138544E+01
 2.1660252E+01  2.4006718E+01
 2.1671751E+01  2.3991074E+01
 2.1683250E+01  2.3957525E+01
 2.1694752E+01  2.3944931E+01
 2.1706251E+01  2.3960169E+01
 2.1717751E+01  2.4018919E+01
 2.1729252E+01  2.4057735E+01
 2.1740751E+01  2.4069130E+01
 2.1752251E+01  2.4024958E+01
 2.1763752E+01  2.4020977E+01
 2.1775251E+01  2.4035841E+01
 2.1786751E+01  2.4093039E+01
 2.1798250E+01  2.4065952E+01
 2.1809752E+01  2.4072222E+01
 2.1821251E+01  2.4078989E+01
 2.1832750E+01  2.4037540E+01
 2.1844252E+01  2.3978203E+01
 2.1855751E+01  2.3951403E+01
 2.1867250E+01  2.3973810E+01
 2.1878752E+01  2.4003061E+01
 2.1890251E+01  2.4053726E+01
 2.1901751E+01  2.4114393E+01
 2.1913252E+01  2.4128592E+01
 2.1924751E+01  2.4059116E+01
 2.1936251E+01  2.3948009E+01
 2.1947752E+01  2.3893166E+01
 2.1959251E+01  2.3899252E+01
 2.1970751E+01  2.3936739E+01
 2.1982250E+01  2.3964907E+01
 2.1993752E+01  2.3989019E+01
 2.2005251E+01  2.3981428E+01
 2.2016750E+01  2.4014971E+01
 2.2028252E+01  2.4052254E+01
 2.2039751E+01  2.4103514E+01
 2.2051250E+01  2.4141571E+01
 2.2062752E+01  2.4150030E+01
 2.2074251E+01  2.4199690E+01
 2.2085751E+01  2.4229477E+01
 2.2097252E+01  2.4219959E+01
 2.2108751E+01  2.4216038E+01
 2.2120251E+01  2.4202534E+01
 2.2131752E+01  2.4202108E+01
 2.2143251E+01  2.4141031E+01
 2.2154751E+01  2.4065622E+01
 2.2166250E+01  2.4074938E+01
 2.2177752E+01  2.4107658E+01
 2.2189251E+01  2.4131546E+01
 2.2200750E+01  2.4194025E+01
 2.2212252E+01  2.4249670E+01
 2.2223751E+01  2.4295422E+01
 2.2235250E+01  2.4266371E+01
 2.2246752E+01  2.4237637E+01
 2.2258251E+01  2.4184816E+01
 2.2269751E+01  2.4156851E+01
 2.2281252E+01  2.4142195E+01
 2.2292751E+01  2.4183420E+01
 2.2304251E+01  2.4249781E+01
 2.2315752E+01  2.4275080E+01
 2.2327251E+01  2.4250593E+01
 2.2338751E+01  2.4238064E+01
 2.2350250E+01  2.4214399E+01
 2.2361752E+01  2.4221405E+01
 2.2373251E+01  2.4227446E+01
 2.2384750E+01  2.4245798E+01
 2.2396252E+01  2.4239235E+01
 2.2407751E+01  2.4236317E+01
 2.2419250E+01  2.4266533E+01
 2.2430752E+01  2.4288092E+01
 2.2442251E+01  2.4365709E+01
 2.2453751E+01  2.4435839E+01
 2.2465252E+01  2.4452263E+01
 2.2476751E+01  2.4443789E+01
 2.2488251E+01  2.4487471E+01
 2.2499752E+01  2.4508160E+01
 2.2511251E+01  2.4530502E+01
 2.2522751E+01  2.4516470E+01
 2.2534250E+01  2.4492920E+01
 2.2545752E+01  2.4524996E+01
 2.2557251E+01  2.4574831E+01
 2.2568750E+01  2.4599262E+01
 2.2580252E+01  2.4591791E+01
 2.2591751E+01  2.4611784E+01
 2.2603251E+01  2.4635921E+01
 2.2614752E+01  2.4670582E+01
 2.2626251E+01  2.4726833E+01
 2.2637751E+01  2.4794024E+01
 2.2649252E+01  2.4815205E+01
 2.2660751E+01  2.4837402E+01
 2.2672251E+01  2.4829081E+01
 2.2683752E+01  2.4852919E+01
 2.2695251E+01  2.4908859E+01
 2.2706751E+01  2.4946156E+01
 2.2718250E+01  2.4947548E+01
 2.2729752E+01  2.4930531E+01
 2.2741251E+01  2.4947247E+01
 2.2752750E+01  2.4989872E+01
 2.2764252E+01  2.4962881E+01
 2.2775751E+01  2.4957224E+01
 2.2787251E+01  2.4890623E+01
 2.2798752E+01  2.4941656E+01
 2.2810251E+01  2.5030020E+01
 2.2821751E+01  2.5156080E+01
 2.2833252E+01  2.5241550E+01
 2.2844751E+01  2.5283987E+01
 2.2856251E+01  2.5281195E+01
 2.2867750E+01  2.5330048E+01
 2.2879251E+01  2.5314371E+01
 2.2890751E+01  2.5384874E+01
 2.2902250E+01  2.5422993E+01
 2.2913752E+01  2.5566540E+01
 2.2925251E+01  2.5646996E+01
 2.2936750E+01  2.5735725E+01
 2.2948252E+01  2.5758905E+01
 2.2959751E+01  2.5740410E+01
 2.2971251E+01  2.5822519E+01
 2.2982752E+01  2.5840240E+01
 2.2994251E+01  2.5901762E+01
