F:\20151113_APS_34IDE\\Brian\Particle1\OCV\Data_0126.tif
2-Theta Angle (Degrees)
Intensity
       2000
 5.7500005E-03  0.0000000E+00
 1.7250001E-02  0.0000000E+00
 2.8750001E-02  0.0000000E+00
 4.0250003E-02  0.0000000E+00
 5.1750004E-02  0.0000000E+00
 6.3250005E-02  0.0000000E+00
 7.4750006E-02  0.0000000E+00
 8.6250007E-02  0.0000000E+00
 9.7750008E-02  0.0000000E+00
 1.0925001E-01  0.0000000E+00
 1.2075000E-01  0.0000000E+00
 1.3225001E-01  0.0000000E+00
 1.4375001E-01  0.0000000E+00
 1.5525001E-01  0.0000000E+00
 1.6675001E-01  0.0000000E+00
 1.7825001E-01  0.0000000E+00
 1.8975002E-01  0.0000000E+00
 2.0125002E-01  0.0000000E+00
 2.1275002E-01  0.0000000E+00
 2.2425000E-01  0.0000000E+00
 2.3575000E-01  0.0000000E+00
 2.4725001E-01  0.0000000E+00
 2.5875002E-01  0.0000000E+00
 2.7025002E-01  0.0000000E+00
 2.8175002E-01  0.0000000E+00
 2.9325002E-01  0.0000000E+00
 3.0475003E-01  0.0000000E+00
 3.1625003E-01  0.0000000E+00
 3.2775003E-01  0.0000000E+00
 3.3925003E-01  0.0000000E+00
 3.5075003E-01  0.0000000E+00
 3.6225003E-01  0.0000000E+00
 3.7375003E-01  0.0000000E+00
 3.8525003E-01  0.0000000E+00
 3.9675003E-01  0.0000000E+00
 4.0825003E-01  0.0000000E+00
 4.1975003E-01  0.0000000E+00
 4.3125004E-01  0.0000000E+00
 4.4275001E-01  0.0000000E+00
 4.5425001E-01  0.0000000E+00
 4.6575001E-01  0.0000000E+00
 4.7725001E-01  0.0000000E+00
 4.8875001E-01  0.0000000E+00
 5.0025004E-01  0.0000000E+00
 5.1175004E-01  0.0000000E+00
 5.2325004E-01  0.0000000E+00
 5.3475004E-01  0.0000000E+00
 5.4625005E-01  0.0000000E+00
 5.5775005E-01  0.0000000E+00
 5.6925005E-01  0.0000000E+00
 5.8075005E-01  0.0000000E+00
 5.9225005E-01  0.0000000E+00
 6.0375005E-01  0.0000000E+00
 6.1525005E-01  0.0000000E+00
 6.2675005E-01  0.0000000E+00
 6.3825005E-01  0.0000000E+00
 6.4975005E-01  0.0000000E+00
 6.6125005E-01  0.0000000E+00
 6.7275006E-01  0.0000000E+00
 6.8425006E-01  0.0000000E+00
 6.9575006E-01  0.0000000E+00
 7.0725006E-01  0.0000000E+00
 7.1875006E-01  0.0000000E+00
 7.3025006E-01  0.0000000E+00
 7.4175006E-01  0.0000000E+00
 7.5325006E-01  0.0000000E+00
 7.6475006E-01  0.0000000E+00
 7.7625006E-01  0.0000000E+00
 7.8775007E-01  0.0000000E+00
 7.9925007E-01  0.0000000E+00
 8.1075007E-01  0.0000000E+00
 8.2225007E-01  0.0000000E+00
 8.3375007E-01  0.0000000E+00
 8.4525007E-01  0.0000000E+00
 8.5675007E-01  0.0000000E+00
 8.6825007E-01  0.0000000E+00
 8.7975001E-01  0.0000000E+00
 8.9125001E-01  0.0000000E+00
 9.0275002E-01  0.0000000E+00
 9.1425002E-01  0.0000000E+00
 9.2575002E-01  0.0000000E+00
 9.3725002E-01  0.0000000E+00
 9.4875002E-01  0.0000000E+00
 9.6025002E-01  0.0000000E+00
 9.7175002E-01  0.0000000E+00
 9.8325002E-01  0.0000000E+00
 9.9475002E-01  0.0000000E+00
 1.0062500E+00  0.0000000E+00
 1.0177500E+00  0.0000000E+00
 1.0292500E+00  0.0000000E+00
 1.0407500E+00  0.0000000E+00
 1.0522500E+00  0.0000000E+00
 1.0637500E+00  0.0000000E+00
 1.0752500E+00  0.0000000E+00
 1.0867500E+00  0.0000000E+00
 1.0982500E+00  0.0000000E+00
 1.1097500E+00  0.0000000E+00
 1.1212500E+00  0.0000000E+00
 1.1327500E+00  0.0000000E+00
 1.1442500E+00  0.0000000E+00
 1.1557500E+00  0.0000000E+00
 1.1672500E+00  0.0000000E+00
 1.1787500E+00  0.0000000E+00
 1.1902500E+00  0.0000000E+00
 1.2017500E+00  0.0000000E+00
 1.2132500E+00  0.0000000E+00
 1.2247500E+00  0.0000000E+00
 1.2362500E+00  0.0000000E+00
 1.2477500E+00  0.0000000E+00
 1.2592500E+00  0.0000000E+00
 1.2707500E+00  0.0000000E+00
 1.2822500E+00  0.0000000E+00
 1.2937500E+00  0.0000000E+00
 1.3052500E+00  0.0000000E+00
 1.3167500E+00  0.0000000E+00
 1.3282501E+00  0.0000000E+00
 1.3397501E+00  0.0000000E+00
 1.3512501E+00  0.0000000E+00
 1.3627501E+00  0.0000000E+00
 1.3742501E+00  0.0000000E+00
 1.3857501E+00  0.0000000E+00
 1.3972501E+00  0.0000000E+00
 1.4087501E+00  0.0000000E+00
 1.4202501E+00  0.0000000E+00
 1.4317501E+00  0.0000000E+00
 1.4432501E+00  0.0000000E+00
 1.4547501E+00  0.0000000E+00
 1.4662501E+00  0.0000000E+00
 1.4777501E+00  0.0000000E+00
 1.4892501E+00  0.0000000E+00
 1.5007501E+00  0.0000000E+00
 1.5122501E+00  0.0000000E+00
 1.5237501E+00  0.0000000E+00
 1.5352501E+00  0.0000000E+00
 1.5467501E+00  0.0000000E+00
 1.5582501E+00  0.0000000E+00
 1.5697501E+00  0.0000000E+00
 1.5812501E+00  0.0000000E+00
 1.5927501E+00  0.0000000E+00
 1.6042501E+00  0.0000000E+00
 1.6157501E+00  0.0000000E+00
 1.6272501E+00  0.0000000E+00
 1.6387501E+00  0.0000000E+00
 1.6502501E+00  0.0000000E+00
 1.6617501E+00  0.0000000E+00
 1.6732501E+00  0.0000000E+00
 1.6847501E+00  0.0000000E+00
 1.6962501E+00  0.0000000E+00
 1.7077501E+00  0.0000000E+00
 1.7192501E+00  0.0000000E+00
 1.7307501E+00  0.0000000E+00
 1.7422501E+00  0.0000000E+00
 1.7537501E+00  0.0000000E+00
 1.7652501E+00  0.0000000E+00
 1.7767501E+00  0.0000000E+00
 1.7882501E+00  0.0000000E+00
 1.7997501E+00  0.0000000E+00
 1.8112501E+00  0.0000000E+00
 1.8227501E+00  0.0000000E+00
 1.8342501E+00  0.0000000E+00
 1.8457501E+00  0.0000000E+00
 1.8572501E+00  0.0000000E+00
 1.8687501E+00  0.0000000E+00
 1.8802501E+00  0.0000000E+00
 1.8917501E+00  0.0000000E+00
 1.9032501E+00  0.0000000E+00
 1.9147501E+00  0.0000000E+00
 1.9262501E+00  0.0000000E+00
 1.9377501E+00  0.0000000E+00
 1.9492501E+00  0.0000000E+00
 1.9607501E+00  0.0000000E+00
 1.9722501E+00  0.0000000E+00
 1.9837501E+00  0.0000000E+00
 1.9952501E+00  0.0000000E+00
 2.0067501E+00  0.0000000E+00
 2.0182500E+00  0.0000000E+00
 2.0297501E+00  0.0000000E+00
 2.0412500E+00  0.0000000E+00
 2.0527501E+00  0.0000000E+00
 2.0642500E+00  0.0000000E+00
 2.0757501E+00  0.0000000E+00
 2.0872500E+00  0.0000000E+00
 2.0987501E+00  0.0000000E+00
 2.1102500E+00  0.0000000E+00
 2.1217501E+00  0.0000000E+00
 2.1332500E+00  0.0000000E+00
 2.1447501E+00  0.0000000E+00
 2.1562500E+00  0.0000000E+00
 2.1677501E+00  0.0000000E+00
 2.1792500E+00  0.0000000E+00
 2.1907501E+00  0.0000000E+00
 2.2022500E+00  0.0000000E+00
 2.2137501E+00  0.0000000E+00
 2.2252500E+00  0.0000000E+00
 2.2367501E+00  0.0000000E+00
 2.2482500E+00  0.0000000E+00
 2.2597501E+00  0.0000000E+00
 2.2712500E+00  0.0000000E+00
 2.2827501E+00  0.0000000E+00
 2.2942500E+00  0.0000000E+00
 2.3057501E+00  0.0000000E+00
 2.3172500E+00  0.0000000E+00
 2.3287501E+00  0.0000000E+00
 2.3402500E+00  0.0000000E+00
 2.3517501E+00  0.0000000E+00
 2.3632500E+00  0.0000000E+00
 2.3747501E+00  0.0000000E+00
 2.3862500E+00  0.0000000E+00
 2.3977501E+00  0.0000000E+00
 2.4092500E+00  0.0000000E+00
 2.4207501E+00  0.0000000E+00
 2.4322500E+00  0.0000000E+00
 2.4437501E+00  0.0000000E+00
 2.4552500E+00  0.0000000E+00
 2.4667501E+00  0.0000000E+00
 2.4782500E+00  0.0000000E+00
 2.4897501E+00  0.0000000E+00
 2.5012500E+00  0.0000000E+00
 2.5127501E+00  0.0000000E+00
 2.5242500E+00  0.0000000E+00
 2.5357502E+00  0.0000000E+00
 2.5472500E+00  0.0000000E+00
 2.5587502E+00  0.0000000E+00
 2.5702500E+00  0.0000000E+00
 2.5817502E+00  0.0000000E+00
 2.5932500E+00  0.0000000E+00
 2.6047502E+00  0.0000000E+00
 2.6162500E+00  0.0000000E+00
 2.6277502E+00  0.0000000E+00
 2.6392500E+00  0.0000000E+00
 2.6507502E+00  0.0000000E+00
 2.6622500E+00  0.0000000E+00
 2.6737502E+00  0.0000000E+00
 2.6852500E+00  0.0000000E+00
 2.6967502E+00  0.0000000E+00
 2.7082500E+00  0.0000000E+00
 2.7197502E+00  0.0000000E+00
 2.7312500E+00  0.0000000E+00
 2.7427502E+00  0.0000000E+00
 2.7542500E+00  0.0000000E+00
 2.7657502E+00  0.0000000E+00
 2.7772501E+00  0.0000000E+00
 2.7887502E+00  0.0000000E+00
 2.8002501E+00  0.0000000E+00
 2.8117502E+00  0.0000000E+00
 2.8232501E+00  3.2409206E+01
 2.8347502E+00  3.2836323E+01
 2.8462501E+00  3.3046318E+01
 2.8577502E+00  3.3543911E+01
 2.8692501E+00  3.4196896E+01
 2.8807502E+00  3.5227448E+01
 2.8922501E+00  3.5973560E+01
 2.9037502E+00  3.6118259E+01
 2.9152501E+00  3.6033985E+01
 2.9267502E+00  3.5610981E+01
 2.9382501E+00  3.5387527E+01
 2.9497502E+00  3.5031658E+01
 2.9612501E+00  3.4971020E+01
 2.9727502E+00  3.5431328E+01
 2.9842501E+00  3.5733463E+01
 2.9957502E+00  3.5833321E+01
 3.0072501E+00  3.6078812E+01
 3.0187502E+00  3.5832848E+01
 3.0302501E+00  3.5890503E+01
 3.0417502E+00  3.5311077E+01
 3.0532501E+00  3.5241528E+01
 3.0647502E+00  3.5302605E+01
 3.0762501E+00  3.5494896E+01
 3.0877502E+00  3.5553467E+01
 3.0992501E+00  3.5740753E+01
 3.1107502E+00  3.5388264E+01
 3.1222501E+00  3.5743587E+01
 3.1337502E+00  3.5652916E+01
 3.1452501E+00  3.6073650E+01
 3.1567502E+00  3.6160999E+01
 3.1682501E+00  3.6279640E+01
 3.1797502E+00  3.6091579E+01
 3.1912501E+00  3.5889820E+01
 3.2027502E+00  3.5544460E+01
 3.2142501E+00  3.5659767E+01
 3.2257502E+00  3.5586163E+01
 3.2372501E+00  3.5613007E+01
 3.2487502E+00  3.5353283E+01
 3.2602501E+00  3.5621754E+01
 3.2717502E+00  3.5443455E+01
 3.2832501E+00  3.5357067E+01
 3.2947502E+00  3.4880051E+01
 3.3062501E+00  3.4769688E+01
 3.3177502E+00  3.4734318E+01
 3.3292501E+00  3.4920288E+01
 3.3407502E+00  3.5081451E+01
 3.3522501E+00  3.5341610E+01
 3.3637502E+00  3.5510101E+01
 3.3752501E+00  3.5327324E+01
 3.3867502E+00  3.5104885E+01
 3.3982501E+00  3.4689175E+01
 3.4097502E+00  3.4567211E+01
 3.4212501E+00  3.4383656E+01
 3.4327502E+00  3.4191574E+01
 3.4442501E+00  3.4282112E+01
 3.4557502E+00  3.4552410E+01
 3.4672501E+00  3.4699520E+01
 3.4787502E+00  3.4670334E+01
 3.4902501E+00  3.4676895E+01
 3.5017502E+00  3.4499985E+01
 3.5132501E+00  3.4431000E+01
 3.5247502E+00  3.4307320E+01
 3.5362501E+00  3.4269047E+01
 3.5477502E+00  3.3983173E+01
 3.5592501E+00  3.3694916E+01
 3.5707502E+00  3.3575947E+01
 3.5822501E+00  3.3423550E+01
 3.5937502E+00  3.3519691E+01
 3.6052501E+00  3.3284843E+01
 3.6167502E+00  3.3418827E+01
 3.6282501E+00  3.3273979E+01
 3.6397502E+00  3.3301296E+01
 3.6512501E+00  3.3451214E+01
 3.6627502E+00  3.3497688E+01
 3.6742501E+00  3.3413429E+01
 3.6857502E+00  3.3578354E+01
 3.6972501E+00  3.3472458E+01
 3.7087502E+00  3.3654121E+01
 3.7202501E+00  3.3490261E+01
 3.7317502E+00  3.3452847E+01
 3.7432501E+00  3.3470570E+01
 3.7547503E+00  3.3329891E+01
 3.7662501E+00  3.3366768E+01
 3.7777503E+00  3.3188251E+01
 3.7892501E+00  3.3143013E+01
 3.8007503E+00  3.3007397E+01
 3.8122501E+00  3.2747288E+01
 3.8237503E+00  3.2543186E+01
 3.8352501E+00  3.2298626E+01
 3.8467503E+00  3.2341599E+01
 3.8582501E+00  3.2329494E+01
 3.8697503E+00  3.2357342E+01
 3.8812501E+00  3.2326794E+01
 3.8927503E+00  3.2312336E+01
 3.9042501E+00  3.2245163E+01
 3.9157503E+00  3.2306610E+01
 3.9272501E+00  3.2340065E+01
 3.9387503E+00  3.2405609E+01
 3.9502501E+00  3.2418095E+01
 3.9617503E+00  3.2284023E+01
 3.9732502E+00  3.2230030E+01
 3.9847503E+00  3.2344482E+01
 3.9962502E+00  3.2418953E+01
 4.0077500E+00  3.2745766E+01
 4.0192504E+00  3.2734074E+01
 4.0307503E+00  3.2874123E+01
 4.0422502E+00  3.2997845E+01
 4.0537500E+00  3.3074444E+01
 4.0652504E+00  3.3156128E+01
 4.0767503E+00  3.3051098E+01
 4.0882502E+00  3.2899792E+01
 4.0997500E+00  3.2797050E+01
 4.1112504E+00  3.2670872E+01
 4.1227503E+00  3.2495155E+01
 4.1342502E+00  3.2324562E+01
 4.1457500E+00  3.2248291E+01
 4.1572504E+00  3.2313564E+01
 4.1687503E+00  3.2490650E+01
 4.1802502E+00  3.2431889E+01
 4.1917500E+00  3.2615124E+01
 4.2032504E+00  3.2483379E+01
 4.2147503E+00  3.2498238E+01
 4.2262502E+00  3.2512764E+01
 4.2377501E+00  3.2454021E+01
 4.2492504E+00  3.2463768E+01
 4.2607503E+00  3.2281685E+01
 4.2722502E+00  3.2142757E+01
 4.2837501E+00  3.2279949E+01
 4.2952504E+00  3.2334530E+01
 4.3067503E+00  3.2458500E+01
 4.3182502E+00  3.2572304E+01
 4.3297501E+00  3.2438713E+01
 4.3412504E+00  3.2387398E+01
 4.3527503E+00  3.2204441E+01
 4.3642502E+00  3.2089062E+01
 4.3757501E+00  3.2224518E+01
 4.3872504E+00  3.2210571E+01
 4.3987503E+00  3.2465317E+01
 4.4102502E+00  3.2581108E+01
 4.4217501E+00  3.2639614E+01
 4.4332504E+00  3.2656055E+01
 4.4447503E+00  3.2484070E+01
 4.4562502E+00  3.2607662E+01
 4.4677501E+00  3.2582664E+01
 4.4792504E+00  3.2801041E+01
 4.4907503E+00  3.2656857E+01
 4.5022502E+00  3.2701454E+01
 4.5137501E+00  3.2603752E+01
 4.5252504E+00  3.2642525E+01
 4.5367503E+00  3.2397549E+01
 4.5482502E+00  3.2183781E+01
 4.5597501E+00  3.2000435E+01
 4.5712504E+00  3.2037991E+01
 4.5827503E+00  3.2055042E+01
 4.5942502E+00  3.2091640E+01
 4.6057501E+00  3.2248695E+01
 4.6172504E+00  3.2358704E+01
 4.6287503E+00  3.2496044E+01
 4.6402502E+00  3.2527538E+01
 4.6517501E+00  3.2538338E+01
 4.6632504E+00  3.2544006E+01
 4.6747503E+00  3.2494724E+01
 4.6862502E+00  3.2367584E+01
 4.6977501E+00  3.2399765E+01
 4.7092505E+00  3.2428509E+01
 4.7207503E+00  3.2566845E+01
 4.7322502E+00  3.2486359E+01
 4.7437501E+00  3.2410183E+01
 4.7552505E+00  3.2231525E+01
 4.7667503E+00  3.2209156E+01
 4.7782502E+00  3.2094490E+01
 4.7897501E+00  3.2217022E+01
 4.8012505E+00  3.2220810E+01
 4.8127503E+00  3.2354908E+01
 4.8242502E+00  3.2509968E+01
 4.8357501E+00  3.2616291E+01
 4.8472505E+00  3.2705250E+01
 4.8587503E+00  3.2869434E+01
 4.8702502E+00  3.2995792E+01
 4.8817501E+00  3.3152554E+01
 4.8932505E+00  3.3129875E+01
 4.9047503E+00  3.3186169E+01
 4.9162502E+00  3.3312294E+01
 4.9277501E+00  3.3240719E+01
 4.9392505E+00  3.3159485E+01
 4.9507504E+00  3.3011055E+01
 4.9622502E+00  3.2930817E+01
 4.9737501E+00  3.2946995E+01
 4.9852505E+00  3.3014111E+01
 4.9967504E+00  3.3094715E+01
 5.0082502E+00  3.3290928E+01
 5.0197501E+00  3.3355419E+01
 5.0312505E+00  3.3457085E+01
 5.0427504E+00  3.3561401E+01
 5.0542502E+00  3.3653210E+01
 5.0657501E+00  3.3692120E+01
 5.0772505E+00  3.3666729E+01
 5.0887504E+00  3.3583748E+01
 5.1002502E+00  3.3590775E+01
 5.1117501E+00  3.3520927E+01
 5.1232505E+00  3.3447910E+01
 5.1347504E+00  3.3463272E+01
 5.1462502E+00  3.3474468E+01
 5.1577501E+00  3.3474537E+01
 5.1692505E+00  3.3487274E+01
 5.1807504E+00  3.3571587E+01
 5.1922503E+00  3.3659885E+01
 5.2037501E+00  3.3819820E+01
 5.2152505E+00  3.3937336E+01
 5.2267504E+00  3.3975780E+01
 5.2382503E+00  3.3969612E+01
 5.2497501E+00  3.4019947E+01
 5.2612505E+00  3.4150585E+01
 5.2727504E+00  3.4217556E+01
 5.2842503E+00  3.4244244E+01
 5.2957501E+00  3.4340504E+01
 5.3072500E+00  3.4492386E+01
 5.3187504E+00  3.4574451E+01
 5.3302503E+00  3.4654388E+01
 5.3417501E+00  3.4493343E+01
 5.3532500E+00  3.4466545E+01
 5.3647504E+00  3.4330811E+01
 5.3762503E+00  3.4280212E+01
 5.3877501E+00  3.4320278E+01
 5.3992500E+00  3.4305119E+01
 5.4107504E+00  3.4445862E+01
 5.4222503E+00  3.4547741E+01
 5.4337502E+00  3.4455322E+01
 5.4452500E+00  3.4528728E+01
 5.4567504E+00  3.4522194E+01
 5.4682503E+00  3.4642315E+01
 5.4797502E+00  3.4731464E+01
 5.4912500E+00  3.4701237E+01
 5.5027504E+00  3.4853821E+01
 5.5142503E+00  3.5022530E+01
 5.5257502E+00  3.5308693E+01
 5.5372500E+00  3.5447777E+01
 5.5487504E+00  3.5564812E+01
 5.5602503E+00  3.5527248E+01
 5.5717502E+00  3.5521492E+01
 5.5832500E+00  3.5355907E+01
 5.5947504E+00  3.5246429E+01
 5.6062503E+00  3.5186333E+01
 5.6177502E+00  3.5235607E+01
 5.6292500E+00  3.5244232E+01
 5.6407504E+00  3.5240147E+01
 5.6522503E+00  3.5262699E+01
 5.6637502E+00  3.5424393E+01
 5.6752501E+00  3.5536621E+01
 5.6867504E+00  3.5524185E+01
 5.6982503E+00  3.5505424E+01
 5.7097502E+00  3.5472488E+01
 5.7212501E+00  3.5556755E+01
 5.7327504E+00  3.5708870E+01
 5.7442503E+00  3.5679386E+01
 5.7557502E+00  3.5776268E+01
 5.7672501E+00  3.5697426E+01
 5.7787504E+00  3.5756897E+01
 5.7902503E+00  3.5832909E+01
 5.8017502E+00  3.5943027E+01
 5.8132501E+00  3.6119438E+01
 5.8247504E+00  3.6304405E+01
 5.8362503E+00  3.6420330E+01
 5.8477502E+00  3.6424747E+01
 5.8592501E+00  3.6592815E+01
 5.8707504E+00  3.6600441E+01
 5.8822503E+00  3.6934929E+01
 5.8937502E+00  3.7656212E+01
 5.9052501E+00  3.7874332E+01
 5.9167504E+00  4.0126568E+01
 5.9282503E+00  4.2757801E+01
 5.9397502E+00  4.4170826E+01
 5.9512501E+00  5.2013931E+01
 5.9627504E+00  5.4811543E+01
 5.9742503E+00  5.6871723E+01
 5.9857502E+00  6.0598122E+01
 5.9972501E+00  5.7038570E+01
 6.0087504E+00  5.6112541E+01
 6.0202503E+00  4.7093887E+01
 6.0317502E+00  4.3416874E+01
 6.0432501E+00  4.1577698E+01
 6.0547504E+00  3.8549740E+01
 6.0662503E+00  3.7795918E+01
 6.0777502E+00  3.7517944E+01
 6.0892501E+00  3.7176876E+01
 6.1007504E+00  3.7221569E+01
 6.1122503E+00  3.7286736E+01
 6.1237502E+00  3.7157692E+01
 6.1352501E+00  3.7159058E+01
 6.1467505E+00  3.6985352E+01
 6.1582503E+00  3.7073078E+01
 6.1697502E+00  3.7100853E+01
 6.1812501E+00  3.7250145E+01
 6.1927505E+00  3.7320248E+01
 6.2042503E+00  3.7425945E+01
 6.2157502E+00  3.7446381E+01
 6.2272501E+00  3.7435455E+01
 6.2387505E+00  3.7305656E+01
 6.2502503E+00  3.7323727E+01
 6.2617502E+00  3.7283428E+01
 6.2732501E+00  3.7493206E+01
 6.2847505E+00  3.7562771E+01
 6.2962503E+00  3.7697842E+01
 6.3077502E+00  3.7763203E+01
 6.3192501E+00  3.7758202E+01
 6.3307505E+00  3.7884647E+01
 6.3422503E+00  3.7974083E+01
 6.3537502E+00  3.8151344E+01
 6.3652501E+00  3.8204880E+01
 6.3767505E+00  3.8203838E+01
 6.3882504E+00  3.8213326E+01
 6.3997502E+00  3.8205173E+01
 6.4112501E+00  3.8267792E+01
 6.4227505E+00  3.8399162E+01
 6.4342504E+00  3.8502220E+01
 6.4457502E+00  3.8662739E+01
 6.4572501E+00  3.8651478E+01
 6.4687505E+00  3.8717983E+01
 6.4802504E+00  3.8762848E+01
 6.4917502E+00  3.8877571E+01
 6.5032501E+00  3.9049713E+01
 6.5147505E+00  3.9175861E+01
 6.5262504E+00  3.9219444E+01
 6.5377502E+00  3.9192188E+01
 6.5492501E+00  3.9154667E+01
 6.5607505E+00  3.9225105E+01
 6.5722504E+00  3.9243969E+01
 6.5837502E+00  3.9296383E+01
 6.5952501E+00  3.9378391E+01
 6.6067505E+00  3.9492184E+01
 6.6182504E+00  3.9637142E+01
 6.6297503E+00  3.9813957E+01
 6.6412501E+00  3.9912968E+01
 6.6527505E+00  4.0094254E+01
 6.6642504E+00  4.0185184E+01
 6.6757503E+00  4.0244961E+01
 6.6872501E+00  4.0289383E+01
 6.6987505E+00  4.0300587E+01
 6.7102504E+00  4.0347633E+01
 6.7217503E+00  4.0430538E+01
 6.7332501E+00  4.0541111E+01
 6.7447505E+00  4.0620369E+01
 6.7562504E+00  4.0742699E+01
 6.7677503E+00  4.0735840E+01
 6.7792501E+00  4.0828079E+01
 6.7907505E+00  4.0850342E+01
 6.8022504E+00  4.0957294E+01
 6.8137503E+00  4.1136890E+01
 6.8252501E+00  4.1295914E+01
 6.8367505E+00  4.1462059E+01
 6.8482504E+00  4.1489227E+01
 6.8597503E+00  4.1538998E+01
 6.8712502E+00  4.1519779E+01
 6.8827505E+00  4.1662868E+01
 6.8942504E+00  4.1753914E+01
 6.9057503E+00  4.1919502E+01
 6.9172502E+00  4.1963207E+01
 6.9287505E+00  4.1990620E+01
 6.9402504E+00  4.1975311E+01
 6.9517503E+00  4.1916061E+01
 6.9632502E+00  4.1940861E+01
 6.9747505E+00  4.2016666E+01
 6.9862504E+00  4.2141335E+01
 6.9977503E+00  4.2240322E+01
 7.0092502E+00  4.2347656E+01
 7.0207505E+00  4.2503693E+01
 7.0322504E+00  4.2527309E+01
 7.0437503E+00  4.2538319E+01
 7.0552502E+00  4.2612022E+01
 7.0667505E+00  4.2680893E+01
 7.0782504E+00  4.2722282E+01
 7.0897503E+00  4.2739079E+01
 7.1012502E+00  4.2787750E+01
 7.1127505E+00  4.2848331E+01
 7.1242504E+00  4.2883194E+01
 7.1357503E+00  4.2963280E+01
 7.1472502E+00  4.3060257E+01
 7.1587505E+00  4.3157806E+01
 7.1702504E+00  4.3203110E+01
 7.1817503E+00  4.3272690E+01
 7.1932502E+00  4.3358524E+01
 7.2047505E+00  4.3512630E+01
 7.2162504E+00  4.3671303E+01
 7.2277503E+00  4.3830894E+01
 7.2392502E+00  4.3896332E+01
 7.2507505E+00  4.3918385E+01
 7.2622504E+00  4.3923256E+01
 7.2737503E+00  4.3854038E+01
 7.2852502E+00  4.3827118E+01
 7.2967505E+00  4.3707767E+01
 7.3082504E+00  4.3609161E+01
 7.3197503E+00  4.3611347E+01
 7.3312502E+00  4.3689148E+01
 7.3427505E+00  4.3795238E+01
 7.3542504E+00  4.3777000E+01
 7.3657503E+00  4.3737534E+01
 7.3772502E+00  4.3717670E+01
 7.3887506E+00  4.3843018E+01
 7.4002504E+00  4.3801903E+01
 7.4117503E+00  4.3939758E+01
 7.4232502E+00  4.3922287E+01
 7.4347506E+00  4.3949329E+01
 7.4462504E+00  4.3947918E+01
 7.4577503E+00  4.4039867E+01
 7.4692502E+00  4.4110489E+01
 7.4807506E+00  4.4188747E+01
 7.4922504E+00  4.4215069E+01
 7.5037503E+00  4.4287476E+01
 7.5152502E+00  4.4354240E+01
 7.5267506E+00  4.4409889E+01
 7.5382504E+00  4.4535679E+01
 7.5497503E+00  4.4598454E+01
 7.5612502E+00  4.4715012E+01
 7.5727506E+00  4.4750664E+01
 7.5842505E+00  4.4794422E+01
 7.5957503E+00  4.4711731E+01
 7.6072502E+00  4.4650299E+01
 7.6187506E+00  4.4544781E+01
 7.6302505E+00  4.4528831E+01
 7.6417503E+00  4.4482716E+01
 7.6532502E+00  4.4375175E+01
 7.6647506E+00  4.4284435E+01
 7.6762505E+00  4.4210873E+01
 7.6877503E+00  4.4251640E+01
 7.6992502E+00  4.4139671E+01
 7.7107506E+00  4.4142010E+01
 7.7222505E+00  4.4133312E+01
 7.7337503E+00  4.4172119E+01
 7.7452502E+00  4.4212303E+01
 7.7567506E+00  4.4151825E+01
 7.7682505E+00  4.4200214E+01
 7.7797503E+00  4.4152225E+01
 7.7912502E+00  4.4093945E+01
 7.8027506E+00  4.4072170E+01
 7.8142505E+00  4.4039639E+01
 7.8257504E+00  4.4073563E+01
 7.8372502E+00  4.4136051E+01
 7.8487506E+00  4.4051010E+01
 7.8602505E+00  4.4125072E+01
 7.8717504E+00  4.4056023E+01
 7.8832502E+00  4.4063953E+01
 7.8947506E+00  4.3980209E+01
 7.9062505E+00  4.3972881E+01
 7.9177504E+00  4.4034443E+01
 7.9292502E+00  4.4059971E+01
 7.9407506E+00  4.3999310E+01
 7.9522505E+00  4.3870640E+01
 7.9637504E+00  4.3742531E+01
 7.9752502E+00  4.3581821E+01
 7.9867506E+00  4.3492226E+01
 7.9982505E+00  4.3429470E+01
 8.0097504E+00  4.3415970E+01
 8.0212507E+00  4.3300205E+01
 8.0327501E+00  4.3169186E+01
 8.0442505E+00  4.3029560E+01
 8.0557508E+00  4.3019840E+01
 8.0672503E+00  4.2997799E+01
 8.0787506E+00  4.2973698E+01
 8.0902500E+00  4.2995941E+01
 8.1017504E+00  4.2968876E+01
 8.1132507E+00  4.2882980E+01
 8.1247501E+00  4.2774876E+01
 8.1362505E+00  4.2751965E+01
 8.1477509E+00  4.2765305E+01
 8.1592503E+00  4.2622440E+01
 8.1707506E+00  4.2412987E+01
 8.1822500E+00  4.2236500E+01
 8.1937504E+00  4.2163040E+01
 8.2052507E+00  4.2027309E+01
 8.2167501E+00  4.1867222E+01
 8.2282505E+00  4.1715572E+01
 8.2397509E+00  4.1529552E+01
 8.2512503E+00  4.1421906E+01
 8.2627506E+00  4.1244209E+01
 8.2742500E+00  4.1116707E+01
 8.2857504E+00  4.0991383E+01
 8.2972507E+00  4.0736710E+01
 8.3087502E+00  4.0571873E+01
 8.3202505E+00  4.0241821E+01
 8.3317509E+00  4.0116684E+01
 8.3432503E+00  3.9978024E+01
 8.3547506E+00  3.9941605E+01
 8.3662500E+00  3.9849945E+01
 8.3777504E+00  3.9699577E+01
 8.3892508E+00  3.9540462E+01
 8.4007502E+00  3.9380375E+01
 8.4122505E+00  3.9302029E+01
 8.4237509E+00  3.9087288E+01
 8.4352503E+00  3.8888844E+01
 8.4467506E+00  3.8679020E+01
 8.4582500E+00  3.8408298E+01
 8.4697504E+00  3.8269138E+01
 8.4812508E+00  3.8033375E+01
 8.4927502E+00  3.7968700E+01
 8.5042505E+00  3.7779091E+01
 8.5157509E+00  3.7578472E+01
 8.5272503E+00  3.7377911E+01
 8.5387506E+00  3.7203693E+01
 8.5502501E+00  3.7067284E+01
 8.5617504E+00  3.6920898E+01
 8.5732508E+00  3.6819324E+01
 8.5847502E+00  3.6616276E+01
 8.5962505E+00  3.6412441E+01
 8.6077509E+00  3.6222755E+01
 8.6192503E+00  3.6082325E+01
 8.6307507E+00  3.5938709E+01
 8.6422501E+00  3.5770027E+01
 8.6537504E+00  3.5566170E+01
 8.6652508E+00  3.5469349E+01
 8.6767502E+00  3.5360317E+01
 8.6882505E+00  3.5344612E+01
 8.6997509E+00  3.5188095E+01
 8.7112503E+00  3.5000660E+01
 8.7227507E+00  3.4729782E+01
 8.7342501E+00  3.4513603E+01
 8.7457504E+00  3.4246101E+01
 8.7572508E+00  3.4024719E+01
 8.7687502E+00  3.3824097E+01
 8.7802505E+00  3.3630013E+01
 8.7917500E+00  3.3470531E+01
 8.8032503E+00  3.3289944E+01
 8.8147507E+00  3.3152203E+01
 8.8262501E+00  3.2992035E+01
 8.8377504E+00  3.2790554E+01
 8.8492508E+00  3.2571747E+01
 8.8607502E+00  3.2415924E+01
 8.8722506E+00  3.2320152E+01
 8.8837500E+00  3.2171196E+01
 8.8952503E+00  3.1986820E+01
 8.9067507E+00  3.1882580E+01
 8.9182501E+00  3.1812954E+01
 8.9297504E+00  3.1785727E+01
 8.9412508E+00  3.1599838E+01
 8.9527502E+00  3.1477262E+01
 8.9642506E+00  3.1255243E+01
 8.9757500E+00  3.1103600E+01
 8.9872503E+00  3.0936235E+01
 8.9987507E+00  3.0757446E+01
 9.0102501E+00  3.0582964E+01
 9.0217505E+00  3.0352680E+01
 9.0332508E+00  3.0227724E+01
 9.0447502E+00  3.0027950E+01
 9.0562506E+00  2.9951267E+01
 9.0677500E+00  2.9857838E+01
 9.0792503E+00  2.9859112E+01
 9.0907507E+00  2.9759451E+01
 9.1022501E+00  2.9642664E+01
 9.1137505E+00  2.9528946E+01
 9.1252508E+00  2.9434029E+01
 9.1367502E+00  2.9306807E+01
 9.1482506E+00  2.9184771E+01
 9.1597500E+00  2.9061844E+01
 9.1712503E+00  2.8888365E+01
 9.1827507E+00  2.8704828E+01
 9.1942501E+00  2.8492161E+01
 9.2057505E+00  2.8362915E+01
 9.2172508E+00  2.8301336E+01
 9.2287502E+00  2.8181335E+01
 9.2402506E+00  2.8124569E+01
 9.2517500E+00  2.7983070E+01
 9.2632504E+00  2.7907822E+01
 9.2747507E+00  2.7798111E+01
 9.2862501E+00  2.7687296E+01
 9.2977505E+00  2.7604246E+01
 9.3092508E+00  2.7488165E+01
 9.3207502E+00  2.7459826E+01
 9.3322506E+00  2.7367546E+01
 9.3437500E+00  2.7341766E+01
 9.3552504E+00  2.7227560E+01
 9.3667507E+00  2.7178873E+01
 9.3782501E+00  2.7152863E+01
 9.3897505E+00  2.7089718E+01
 9.4012508E+00  2.7020424E+01
 9.4127502E+00  2.6908098E+01
 9.4242506E+00  2.6846430E+01
 9.4357500E+00  2.6775063E+01
 9.4472504E+00  2.6656199E+01
 9.4587507E+00  2.6593241E+01
 9.4702501E+00  2.6449051E+01
 9.4817505E+00  2.6360769E+01
 9.4932508E+00  2.6160650E+01
 9.5047503E+00  2.6129580E+01
 9.5162506E+00  2.6013449E+01
 9.5277500E+00  2.5960655E+01
 9.5392504E+00  2.5871914E+01
 9.5507507E+00  2.5808950E+01
 9.5622501E+00  2.5710251E+01
 9.5737505E+00  2.5657070E+01
 9.5852509E+00  2.5558250E+01
 9.5967503E+00  2.5553169E+01
 9.6082506E+00  2.5478964E+01
 9.6197500E+00  2.5526876E+01
 9.6312504E+00  2.5555279E+01
 9.6427507E+00  2.5586401E+01
 9.6542501E+00  2.5586422E+01
 9.6657505E+00  2.5506811E+01
 9.6772509E+00  2.5385145E+01
 9.6887503E+00  2.5247200E+01
 9.7002506E+00  2.5160179E+01
 9.7117500E+00  2.5174137E+01
 9.7232504E+00  2.5188803E+01
 9.7347507E+00  2.5202951E+01
 9.7462502E+00  2.5204885E+01
 9.7577505E+00  2.5131533E+01
 9.7692509E+00  2.5068813E+01
 9.7807503E+00  2.4980366E+01
 9.7922506E+00  2.4921911E+01
 9.8037500E+00  2.4889589E+01
 9.8152504E+00  2.4834261E+01
 9.8267508E+00  2.4771185E+01
 9.8382502E+00  2.4681641E+01
 9.8497505E+00  2.4598661E+01
 9.8612509E+00  2.4546240E+01
 9.8727503E+00  2.4504324E+01
 9.8842506E+00  2.4472206E+01
 9.8957500E+00  2.4502014E+01
 9.9072504E+00  2.4526026E+01
 9.9187508E+00  2.4575588E+01
 9.9302502E+00  2.4553535E+01
 9.9417505E+00  2.4544043E+01
 9.9532509E+00  2.4508596E+01
 9.9647503E+00  2.4465782E+01
 9.9762506E+00  2.4432493E+01
 9.9877501E+00  2.4359013E+01
 9.9992504E+00  2.4279705E+01
 1.0010751E+01  2.4194660E+01
 1.0022250E+01  2.4172436E+01
 1.0033751E+01  2.4192381E+01
 1.0045251E+01  2.4188660E+01
 1.0056750E+01  2.4143005E+01
 1.0068251E+01  2.4064768E+01
 1.0079750E+01  2.4026960E+01
 1.0091250E+01  2.3982607E+01
 1.0102751E+01  2.3956610E+01
 1.0114250E+01  2.3925491E+01
 1.0125751E+01  2.3941637E+01
 1.0137251E+01  2.3910732E+01
 1.0148750E+01  2.3942924E+01
 1.0160251E+01  2.3922045E+01
 1.0171750E+01  2.3923409E+01
 1.0183250E+01  2.3828896E+01
 1.0194751E+01  2.3734184E+01
 1.0206250E+01  2.3688341E+01
 1.0217751E+01  2.3652740E+01
 1.0229251E+01  2.3708538E+01
 1.0240750E+01  2.3706619E+01
 1.0252251E+01  2.3621632E+01
 1.0263750E+01  2.3468977E+01
 1.0275250E+01  2.3365156E+01
 1.0286751E+01  2.3338694E+01
 1.0298250E+01  2.3341732E+01
 1.0309751E+01  2.3382486E+01
 1.0321251E+01  2.3425215E+01
 1.0332750E+01  2.3447498E+01
 1.0344251E+01  2.3497686E+01
 1.0355750E+01  2.3503580E+01
 1.0367250E+01  2.3513792E+01
 1.0378751E+01  2.3433308E+01
 1.0390250E+01  2.3468119E+01
 1.0401751E+01  2.3459209E+01
 1.0413251E+01  2.3443581E+01
 1.0424750E+01  2.3399197E+01
 1.0436251E+01  2.3389479E+01
 1.0447750E+01  2.3343079E+01
 1.0459250E+01  2.3253387E+01
 1.0470751E+01  2.3198092E+01
 1.0482250E+01  2.3207878E+01
 1.0493751E+01  2.3236956E+01
 1.0505251E+01  2.3260912E+01
 1.0516750E+01  2.3256653E+01
 1.0528251E+01  2.3178171E+01
 1.0539750E+01  2.3095772E+01
 1.0551250E+01  2.3043045E+01
 1.0562751E+01  2.3034451E+01
 1.0574250E+01  2.2977825E+01
 1.0585751E+01  2.2907360E+01
 1.0597251E+01  2.2937189E+01
 1.0608750E+01  2.2997175E+01
 1.0620251E+01  2.3007095E+01
 1.0631750E+01  2.2967976E+01
 1.0643250E+01  2.2847435E+01
 1.0654751E+01  2.2825600E+01
 1.0666250E+01  2.2738371E+01
 1.0677751E+01  2.2727251E+01
 1.0689251E+01  2.2711363E+01
 1.0700750E+01  2.2743050E+01
 1.0712251E+01  2.2812618E+01
 1.0723750E+01  2.2840776E+01
 1.0735250E+01  2.2869463E+01
 1.0746751E+01  2.2828821E+01
 1.0758250E+01  2.2789627E+01
 1.0769751E+01  2.2738279E+01
 1.0781251E+01  2.2757261E+01
 1.0792750E+01  2.2782509E+01
 1.0804251E+01  2.2802870E+01
 1.0815750E+01  2.2812731E+01
 1.0827250E+01  2.2805365E+01
 1.0838751E+01  2.2740955E+01
 1.0850250E+01  2.2675478E+01
 1.0861751E+01  2.2655468E+01
 1.0873251E+01  2.2661619E+01
 1.0884750E+01  2.2670895E+01
 1.0896251E+01  2.2647676E+01
 1.0907750E+01  2.2702675E+01
 1.0919250E+01  2.2750814E+01
 1.0930751E+01  2.2767548E+01
 1.0942250E+01  2.2767031E+01
 1.0953751E+01  2.2769939E+01
 1.0965251E+01  2.2755251E+01
 1.0976750E+01  2.2772972E+01
 1.0988251E+01  2.2630445E+01
 1.0999750E+01  2.2586924E+01
 1.1011250E+01  2.2462868E+01
 1.1022751E+01  2.2492102E+01
 1.1034250E+01  2.2472128E+01
 1.1045751E+01  2.2461666E+01
 1.1057251E+01  2.2466377E+01
 1.1068750E+01  2.2475325E+01
 1.1080251E+01  2.2462105E+01
 1.1091750E+01  2.2443777E+01
 1.1103251E+01  2.2415627E+01
 1.1114751E+01  2.2400990E+01
 1.1126250E+01  2.2362127E+01
 1.1137751E+01  2.2301807E+01
 1.1149251E+01  2.2316164E+01
 1.1160750E+01  2.2337534E+01
 1.1172251E+01  2.2331621E+01
 1.1183750E+01  2.2286598E+01
 1.1195251E+01  2.2248531E+01
 1.1206751E+01  2.2254387E+01
 1.1218250E+01  2.2272686E+01
 1.1229751E+01  2.2245249E+01
 1.1241251E+01  2.2261965E+01
 1.1252750E+01  2.2262821E+01
 1.1264251E+01  2.2331373E+01
 1.1275750E+01  2.2357723E+01
 1.1287251E+01  2.2337700E+01
 1.1298751E+01  2.2324005E+01
 1.1310250E+01  2.2314383E+01
 1.1321751E+01  2.2358887E+01
 1.1333251E+01  2.2313902E+01
 1.1344750E+01  2.2348467E+01
 1.1356251E+01  2.2372284E+01
 1.1367750E+01  2.2429447E+01
 1.1379251E+01  2.2460417E+01
 1.1390751E+01  2.2452177E+01
 1.1402250E+01  2.2511967E+01
 1.1413751E+01  2.2471355E+01
 1.1425251E+01  2.2492666E+01
 1.1436750E+01  2.2509016E+01
 1.1448251E+01  2.2540524E+01
 1.1459750E+01  2.2598534E+01
 1.1471251E+01  2.2603270E+01
 1.1482751E+01  2.2629377E+01
 1.1494250E+01  2.2640446E+01
 1.1505751E+01  2.2746412E+01
 1.1517251E+01  2.2933308E+01
 1.1528750E+01  2.3327091E+01
 1.1540251E+01  2.4001741E+01
 1.1551750E+01  2.4620323E+01
 1.1563251E+01  2.5569075E+01
 1.1574751E+01  2.6140306E+01
 1.1586250E+01  2.6450720E+01
 1.1597751E+01  2.6380653E+01
 1.1609251E+01  2.5769920E+01
 1.1620750E+01  2.5293690E+01
 1.1632251E+01  2.4434835E+01
 1.1643750E+01  2.3907494E+01
 1.1655251E+01  2.3430859E+01
 1.1666751E+01  2.3032974E+01
 1.1678250E+01  2.2818642E+01
 1.1689751E+01  2.2624807E+01
 1.1701251E+01  2.2499153E+01
 1.1712750E+01  2.2421221E+01
 1.1724251E+01  2.2350492E+01
 1.1735750E+01  2.2368361E+01
 1.1747251E+01  2.2365101E+01
 1.1758751E+01  2.2361946E+01
 1.1770250E+01  2.2283476E+01
 1.1781751E+01  2.2240644E+01
 1.1793251E+01  2.2245058E+01
 1.1804750E+01  2.2289711E+01
 1.1816251E+01  2.2328085E+01
 1.1827750E+01  2.2342348E+01
 1.1839251E+01  2.2328930E+01
 1.1850751E+01  2.2287605E+01
 1.1862250E+01  2.2270449E+01
 1.1873751E+01  2.2282272E+01
 1.1885251E+01  2.2297359E+01
 1.1896750E+01  2.2352365E+01
 1.1908251E+01  2.2373682E+01
 1.1919750E+01  2.2455297E+01
 1.1931251E+01  2.2488728E+01
 1.1942751E+01  2.2542376E+01
 1.1954250E+01  2.2573257E+01
 1.1965751E+01  2.2606405E+01
 1.1977251E+01  2.2627604E+01
 1.1988750E+01  2.2663723E+01
 1.2000251E+01  2.2686859E+01
 1.2011750E+01  2.2741343E+01
 1.2023251E+01  2.2791735E+01
 1.2034751E+01  2.2935904E+01
 1.2046250E+01  2.3091537E+01
 1.2057751E+01  2.3246624E+01
 1.2069251E+01  2.3513554E+01
 1.2080750E+01  2.3750456E+01
 1.2092251E+01  2.4052872E+01
 1.2103750E+01  2.4154736E+01
 1.2115251E+01  2.4042082E+01
 1.2126751E+01  2.3865580E+01
 1.2138250E+01  2.3522810E+01
 1.2149751E+01  2.3247395E+01
 1.2161251E+01  2.2873394E+01
 1.2172750E+01  2.2694178E+01
 1.2184251E+01  2.2583241E+01
 1.2195750E+01  2.2534040E+01
 1.2207251E+01  2.2432499E+01
 1.2218751E+01  2.2409552E+01
 1.2230250E+01  2.2354294E+01
 1.2241751E+01  2.2377823E+01
 1.2253251E+01  2.2379078E+01
 1.2264750E+01  2.2453310E+01
 1.2276251E+01  2.2455202E+01
 1.2287750E+01  2.2494186E+01
 1.2299251E+01  2.2469448E+01
 1.2310751E+01  2.2541582E+01
 1.2322250E+01  2.2518553E+01
 1.2333751E+01  2.2503567E+01
 1.2345250E+01  2.2452410E+01
 1.2356750E+01  2.2423044E+01
 1.2368251E+01  2.2415188E+01
 1.2379750E+01  2.2408581E+01
 1.2391251E+01  2.2465582E+01
 1.2402751E+01  2.2487110E+01
 1.2414250E+01  2.2537516E+01
 1.2425751E+01  2.2508175E+01
 1.2437250E+01  2.2481449E+01
 1.2448750E+01  2.2399700E+01
 1.2460251E+01  2.2362160E+01
 1.2471750E+01  2.2406689E+01
 1.2483251E+01  2.2484022E+01
 1.2494751E+01  2.2516573E+01
 1.2506250E+01  2.2473658E+01
 1.2517751E+01  2.2456039E+01
 1.2529250E+01  2.2491451E+01
 1.2540751E+01  2.2543760E+01
 1.2552251E+01  2.2583422E+01
 1.2563750E+01  2.2618214E+01
 1.2575251E+01  2.2630131E+01
 1.2586751E+01  2.2646574E+01
 1.2598250E+01  2.2685776E+01
 1.2609751E+01  2.2729958E+01
 1.2621250E+01  2.2726568E+01
 1.2632751E+01  2.2730917E+01
 1.2644251E+01  2.2644039E+01
 1.2655750E+01  2.2602879E+01
 1.2667251E+01  2.2621147E+01
 1.2678751E+01  2.2688196E+01
 1.2690250E+01  2.2751753E+01
 1.2701751E+01  2.2743397E+01
 1.2713250E+01  2.2792461E+01
 1.2724751E+01  2.2865404E+01
 1.2736251E+01  2.2943342E+01
 1.2747750E+01  2.2989088E+01
 1.2759251E+01  2.2977051E+01
 1.2770751E+01  2.2945333E+01
 1.2782250E+01  2.2941210E+01
 1.2793751E+01  2.2890129E+01
 1.2805250E+01  2.2942480E+01
 1.2816751E+01  2.2952755E+01
 1.2828251E+01  2.3013744E+01
 1.2839750E+01  2.3068417E+01
 1.2851251E+01  2.3158926E+01
 1.2862751E+01  2.3187979E+01
 1.2874250E+01  2.3154215E+01
 1.2885751E+01  2.3147123E+01
 1.2897250E+01  2.3207781E+01
 1.2908751E+01  2.3308786E+01
 1.2920251E+01  2.3450340E+01
 1.2931750E+01  2.3595776E+01
 1.2943251E+01  2.3675611E+01
 1.2954751E+01  2.3695814E+01
 1.2966250E+01  2.3708279E+01
 1.2977751E+01  2.3696640E+01
 1.2989250E+01  2.3692963E+01
 1.3000751E+01  2.3685061E+01
 1.3012251E+01  2.3758236E+01
 1.3023750E+01  2.3868906E+01
 1.3035251E+01  2.3996902E+01
 1.3046751E+01  2.4090368E+01
 1.3058250E+01  2.4062559E+01
 1.3069751E+01  2.4055010E+01
 1.3081250E+01  2.4084782E+01
 1.3092751E+01  2.4231344E+01
 1.3104251E+01  2.4401438E+01
 1.3115750E+01  2.4595833E+01
 1.3127251E+01  2.4714834E+01
 1.3138751E+01  2.4768600E+01
 1.3150250E+01  2.4828430E+01
 1.3161751E+01  2.4922386E+01
 1.3173250E+01  2.5068468E+01
 1.3184751E+01  2.5209097E+01
 1.3196251E+01  2.5399200E+01
 1.3207750E+01  2.5595596E+01
 1.3219251E+01  2.5793829E+01
 1.3230751E+01  2.5926949E+01
 1.3242250E+01  2.6008251E+01
 1.3253751E+01  2.6092276E+01
 1.3265250E+01  2.6212849E+01
 1.3276751E+01  2.6364801E+01
 1.3288251E+01  2.6500401E+01
 1.3299750E+01  2.6676466E+01
 1.3311251E+01  2.6827719E+01
 1.3322751E+01  2.7002251E+01
 1.3334250E+01  2.7205740E+01
 1.3345751E+01  2.7420244E+01
 1.3357250E+01  2.7612371E+01
 1.3368751E+01  2.7685694E+01
 1.3380251E+01  2.7794249E+01
 1.3391750E+01  2.7855310E+01
 1.3403251E+01  2.8010122E+01
 1.3414751E+01  2.8105814E+01
 1.3426250E+01  2.8258701E+01
 1.3437751E+01  2.8396547E+01
 1.3449250E+01  2.8546305E+01
 1.3460751E+01  2.8631727E+01
 1.3472251E+01  2.8662691E+01
 1.3483750E+01  2.8775274E+01
 1.3495251E+01  2.8868465E+01
 1.3506751E+01  2.9011745E+01
 1.3518250E+01  2.9101168E+01
 1.3529751E+01  2.9158712E+01
 1.3541250E+01  2.9274736E+01
 1.3552751E+01  2.9301195E+01
 1.3564251E+01  2.9430613E+01
 1.3575750E+01  2.9443243E+01
 1.3587251E+01  2.9463926E+01
 1.3598751E+01  2.9459585E+01
 1.3610250E+01  2.9405079E+01
 1.3621751E+01  2.9445702E+01
 1.3633250E+01  2.9476477E+01
 1.3644751E+01  2.9497358E+01
 1.3656251E+01  2.9514479E+01
 1.3667750E+01  2.9583063E+01
 1.3679251E+01  2.9609419E+01
 1.3690751E+01  2.9621168E+01
 1.3702250E+01  2.9485424E+01
 1.3713751E+01  2.9519714E+01
 1.3725250E+01  2.9488203E+01
 1.3736751E+01  2.9537764E+01
 1.3748251E+01  2.9465641E+01
 1.3759750E+01  2.9421328E+01
 1.3771251E+01  2.9344599E+01
 1.3782751E+01  2.9242174E+01
 1.3794250E+01  2.9106237E+01
 1.3805751E+01  2.8965437E+01
 1.3817250E+01  2.8948132E+01
 1.3828751E+01  2.8924006E+01
 1.3840251E+01  2.8948486E+01
 1.3851750E+01  2.8962936E+01
 1.3863251E+01  2.9090790E+01
 1.3874751E+01  2.9164923E+01
 1.3886250E+01  2.9343828E+01
 1.3897751E+01  2.9811312E+01
 1.3909250E+01  3.0205978E+01
 1.3920751E+01  3.0986467E+01
 1.3932251E+01  3.1479826E+01
 1.3943750E+01  3.1796635E+01
 1.3955251E+01  3.1913376E+01
 1.3966751E+01  3.1664217E+01
 1.3978251E+01  3.1283510E+01
 1.3989751E+01  3.0419394E+01
 1.4001250E+01  2.9755732E+01
 1.4012751E+01  2.9107872E+01
 1.4024251E+01  2.8479429E+01
 1.4035750E+01  2.8036629E+01
 1.4047251E+01  2.7794739E+01
 1.4058751E+01  2.7661318E+01
 1.4070251E+01  2.7582449E+01
 1.4081751E+01  2.7446095E+01
 1.4093250E+01  2.7358982E+01
 1.4104751E+01  2.7235991E+01
 1.4116251E+01  2.7193230E+01
 1.4127750E+01  2.7093668E+01
 1.4139251E+01  2.7057480E+01
 1.4150751E+01  2.6993176E+01
 1.4162251E+01  2.6982510E+01
 1.4173751E+01  2.6900114E+01
 1.4185250E+01  2.6814760E+01
 1.4196751E+01  2.6726383E+01
 1.4208251E+01  2.6646048E+01
 1.4219750E+01  2.6566841E+01
 1.4231251E+01  2.6463726E+01
 1.4242751E+01  2.6413258E+01
 1.4254251E+01  2.6325644E+01
 1.4265751E+01  2.6268188E+01
 1.4277250E+01  2.6196991E+01
 1.4288751E+01  2.6147409E+01
 1.4300251E+01  2.6052166E+01
 1.4311750E+01  2.5974319E+01
 1.4323251E+01  2.5924950E+01
 1.4334751E+01  2.5880226E+01
 1.4346251E+01  2.5858997E+01
 1.4357751E+01  2.5855104E+01
 1.4369250E+01  2.5899448E+01
 1.4380751E+01  2.5908903E+01
 1.4392251E+01  2.5900391E+01
 1.4403750E+01  2.5902195E+01
 1.4415251E+01  2.5877380E+01
 1.4426751E+01  2.5896563E+01
 1.4438251E+01  2.5764261E+01
 1.4449751E+01  2.5713814E+01
 1.4461250E+01  2.5625620E+01
 1.4472751E+01  2.5598059E+01
 1.4484251E+01  2.5535007E+01
 1.4495750E+01  2.5502398E+01
 1.4507251E+01  2.5513123E+01
 1.4518751E+01  2.5475170E+01
 1.4530251E+01  2.5473404E+01
 1.4541751E+01  2.5451569E+01
 1.4553250E+01  2.5452232E+01
 1.4564751E+01  2.5424778E+01
 1.4576251E+01  2.5411549E+01
 1.4587750E+01  2.5364952E+01
 1.4599251E+01  2.5297249E+01
 1.4610751E+01  2.5227152E+01
 1.4622251E+01  2.5210711E+01
 1.4633751E+01  2.5163946E+01
 1.4645250E+01  2.5162958E+01
 1.4656751E+01  2.5148104E+01
 1.4668251E+01  2.5106970E+01
 1.4679750E+01  2.5123663E+01
 1.4691251E+01  2.5093712E+01
 1.4702751E+01  2.5125320E+01
 1.4714251E+01  2.5070822E+01
 1.4725751E+01  2.5076286E+01
 1.4737250E+01  2.5045078E+01
 1.4748751E+01  2.5057671E+01
 1.4760251E+01  2.5038010E+01
 1.4771750E+01  2.5049076E+01
 1.4783251E+01  2.4958155E+01
 1.4794751E+01  2.4861124E+01
 1.4806251E+01  2.4792545E+01
 1.4817751E+01  2.4742807E+01
 1.4829250E+01  2.4773746E+01
 1.4840751E+01  2.4765669E+01
 1.4852251E+01  2.4794971E+01
 1.4863750E+01  2.4716261E+01
 1.4875251E+01  2.4687511E+01
 1.4886751E+01  2.4692139E+01
 1.4898251E+01  2.4725000E+01
 1.4909751E+01  2.4772991E+01
 1.4921250E+01  2.4780163E+01
 1.4932751E+01  2.4809744E+01
 1.4944251E+01  2.4746597E+01
 1.4955750E+01  2.4721956E+01
 1.4967251E+01  2.4667107E+01
 1.4978751E+01  2.4649055E+01
 1.4990251E+01  2.4631641E+01
 1.5001751E+01  2.4645973E+01
 1.5013250E+01  2.4717136E+01
 1.5024751E+01  2.4738365E+01
 1.5036251E+01  2.4707848E+01
 1.5047750E+01  2.4676670E+01
 1.5059251E+01  2.4667894E+01
 1.5070751E+01  2.4699539E+01
 1.5082251E+01  2.4647581E+01
 1.5093751E+01  2.4606211E+01
 1.5105250E+01  2.4570190E+01
 1.5116751E+01  2.4571131E+01
 1.5128251E+01  2.4573053E+01
 1.5139750E+01  2.4608765E+01
 1.5151251E+01  2.4712566E+01
 1.5162751E+01  2.4807579E+01
 1.5174251E+01  2.4931059E+01
 1.5185751E+01  2.4984194E+01
 1.5197250E+01  2.5101044E+01
 1.5208751E+01  2.5166273E+01
 1.5220251E+01  2.5151323E+01
 1.5231750E+01  2.5023741E+01
 1.5243251E+01  2.4862106E+01
 1.5254751E+01  2.4731251E+01
 1.5266251E+01  2.4591137E+01
 1.5277751E+01  2.4533016E+01
 1.5289250E+01  2.4511261E+01
 1.5300751E+01  2.4487488E+01
 1.5312251E+01  2.4449532E+01
 1.5323750E+01  2.4454653E+01
 1.5335251E+01  2.4422411E+01
 1.5346751E+01  2.4388807E+01
 1.5358251E+01  2.4362478E+01
 1.5369751E+01  2.4426750E+01
 1.5381250E+01  2.4436867E+01
 1.5392751E+01  2.4441317E+01
 1.5404251E+01  2.4425072E+01
 1.5415751E+01  2.4388624E+01
 1.5427251E+01  2.4366404E+01
 1.5438751E+01  2.4327185E+01
 1.5450251E+01  2.4315313E+01
 1.5461751E+01  2.4272190E+01
 1.5473250E+01  2.4245182E+01
 1.5484751E+01  2.4270649E+01
 1.5496251E+01  2.4295874E+01
 1.5507751E+01  2.4294571E+01
 1.5519251E+01  2.4292046E+01
 1.5530751E+01  2.4265841E+01
 1.5542251E+01  2.4269768E+01
 1.5553751E+01  2.4330257E+01
 1.5565250E+01  2.4420105E+01
 1.5576751E+01  2.4484383E+01
 1.5588251E+01  2.4454561E+01
 1.5599751E+01  2.4415493E+01
 1.5611251E+01  2.4387033E+01
 1.5622751E+01  2.4368256E+01
 1.5634251E+01  2.4342146E+01
 1.5645751E+01  2.4324911E+01
 1.5657250E+01  2.4353474E+01
 1.5668751E+01  2.4391996E+01
 1.5680251E+01  2.4458303E+01
 1.5691751E+01  2.4491592E+01
 1.5703251E+01  2.4577034E+01
 1.5714751E+01  2.4577181E+01
 1.5726251E+01  2.4602345E+01
 1.5737751E+01  2.4538803E+01
 1.5749250E+01  2.4574255E+01
 1.5760751E+01  2.4554773E+01
 1.5772251E+01  2.4562963E+01
 1.5783751E+01  2.4497663E+01
 1.5795251E+01  2.4427176E+01
 1.5806751E+01  2.4400658E+01
 1.5818251E+01  2.4389959E+01
 1.5829751E+01  2.4395630E+01
 1.5841250E+01  2.4416857E+01
 1.5852751E+01  2.4427837E+01
 1.5864251E+01  2.4425657E+01
 1.5875751E+01  2.4403753E+01
 1.5887251E+01  2.4447212E+01
 1.5898750E+01  2.4463058E+01
 1.5910251E+01  2.4545597E+01
 1.5921751E+01  2.4538088E+01
 1.5933250E+01  2.4526054E+01
 1.5944751E+01  2.4389170E+01
 1.5956251E+01  2.4311745E+01
 1.5967751E+01  2.4280874E+01
 1.5979251E+01  2.4286161E+01
 1.5990750E+01  2.4355608E+01
 1.6002251E+01  2.4416124E+01
 1.6013750E+01  2.4465075E+01
 1.6025251E+01  2.4518969E+01
 1.6036751E+01  2.4579576E+01
 1.6048250E+01  2.4633383E+01
 1.6059752E+01  2.4665073E+01
 1.6071251E+01  2.4673326E+01
 1.6082750E+01  2.4711575E+01
 1.6094252E+01  2.4669720E+01
 1.6105751E+01  2.4763882E+01
 1.6117250E+01  2.4792505E+01
 1.6128750E+01  2.4796610E+01
 1.6140251E+01  2.4810575E+01
 1.6151751E+01  2.4810619E+01
 1.6163250E+01  2.4883144E+01
 1.6174751E+01  2.4805176E+01
 1.6186251E+01  2.5004812E+01
 1.6197750E+01  2.4911505E+01
 1.6209251E+01  2.5351223E+01
 1.6220751E+01  2.5388065E+01
 1.6232250E+01  2.6017344E+01
 1.6243752E+01  2.6262583E+01
 1.6255251E+01  2.6627911E+01
 1.6266750E+01  2.6796259E+01
 1.6278252E+01  2.6311195E+01
 1.6289751E+01  2.6243029E+01
 1.6301250E+01  2.5440548E+01
 1.6312750E+01  2.5482800E+01
 1.6324251E+01  2.4881725E+01
 1.6335751E+01  2.4922459E+01
 1.6347250E+01  2.4661566E+01
 1.6358751E+01  2.4693573E+01
 1.6370251E+01  2.4615145E+01
 1.6381750E+01  2.4653215E+01
 1.6393251E+01  2.4679298E+01
 1.6404751E+01  2.4659327E+01
 1.6416250E+01  2.4630312E+01
 1.6427752E+01  2.4565830E+01
 1.6439251E+01  2.4560154E+01
 1.6450750E+01  2.4546238E+01
 1.6462252E+01  2.4566631E+01
 1.6473751E+01  2.4549141E+01
 1.6485250E+01  2.4574793E+01
 1.6496750E+01  2.4569698E+01
 1.6508251E+01  2.4585970E+01
 1.6519751E+01  2.4555586E+01
 1.6531250E+01  2.4566179E+01
 1.6542751E+01  2.4554411E+01
 1.6554251E+01  2.4530815E+01
 1.6565750E+01  2.4472397E+01
 1.6577251E+01  2.4441153E+01
 1.6588751E+01  2.4438408E+01
 1.6600250E+01  2.4430071E+01
 1.6611752E+01  2.4405039E+01
 1.6623251E+01  2.4355949E+01
 1.6634750E+01  2.4357548E+01
 1.6646252E+01  2.4363136E+01
 1.6657751E+01  2.4399466E+01
 1.6669250E+01  2.4398235E+01
 1.6680750E+01  2.4415190E+01
 1.6692251E+01  2.4446135E+01
 1.6703751E+01  2.4463379E+01
 1.6715250E+01  2.4444860E+01
 1.6726751E+01  2.4393223E+01
 1.6738251E+01  2.4353613E+01
 1.6749750E+01  2.4348579E+01
 1.6761251E+01  2.4314785E+01
 1.6772751E+01  2.4341972E+01
 1.6784250E+01  2.4295332E+01
 1.6795752E+01  2.4277655E+01
 1.6807251E+01  2.4242802E+01
 1.6818750E+01  2.4207312E+01
 1.6830252E+01  2.4197874E+01
 1.6841751E+01  2.4189806E+01
 1.6853251E+01  2.4190277E+01
 1.6864750E+01  2.4205589E+01
 1.6876251E+01  2.4198343E+01
 1.6887751E+01  2.4237213E+01
 1.6899250E+01  2.4176655E+01
 1.6910751E+01  2.4164801E+01
 1.6922251E+01  2.4114775E+01
 1.6933750E+01  2.4099131E+01
 1.6945251E+01  2.4082056E+01
 1.6956751E+01  2.4070091E+01
 1.6968250E+01  2.4057894E+01
 1.6979752E+01  2.4059790E+01
 1.6991251E+01  2.4037193E+01
 1.7002750E+01  2.4032837E+01
 1.7014252E+01  2.4044861E+01
 1.7025751E+01  2.4073709E+01
 1.7037251E+01  2.4041985E+01
 1.7048750E+01  2.4003836E+01
 1.7060251E+01  2.3997492E+01
 1.7071751E+01  2.4025301E+01
 1.7083250E+01  2.4036095E+01
 1.7094751E+01  2.4072596E+01
 1.7106251E+01  2.4106833E+01
 1.7117750E+01  2.4060154E+01
 1.7129251E+01  2.4090654E+01
 1.7140751E+01  2.4066261E+01
 1.7152250E+01  2.4061178E+01
 1.7163752E+01  2.4008638E+01
 1.7175251E+01  2.3989874E+01
 1.7186750E+01  2.4023249E+01
 1.7198252E+01  2.4013596E+01
 1.7209751E+01  2.4046581E+01
 1.7221251E+01  2.3997311E+01
 1.7232750E+01  2.4007103E+01
 1.7244251E+01  2.3992189E+01
 1.7255751E+01  2.3951920E+01
 1.7267250E+01  2.3885769E+01
 1.7278751E+01  2.3829201E+01
 1.7290251E+01  2.3857073E+01
 1.7301750E+01  2.3906769E+01
 1.7313251E+01  2.3942347E+01
 1.7324751E+01  2.3969936E+01
 1.7336250E+01  2.3978853E+01
 1.7347752E+01  2.3958784E+01
 1.7359251E+01  2.3932573E+01
 1.7370750E+01  2.3920626E+01
 1.7382252E+01  2.3899311E+01
 1.7393751E+01  2.3860310E+01
 1.7405251E+01  2.3802853E+01
 1.7416750E+01  2.3764563E+01
 1.7428251E+01  2.3736889E+01
 1.7439751E+01  2.3756426E+01
 1.7451250E+01  2.3756384E+01
 1.7462751E+01  2.3755634E+01
 1.7474251E+01  2.3753363E+01
 1.7485750E+01  2.3768513E+01
 1.7497252E+01  2.3787218E+01
 1.7508751E+01  2.3766390E+01
 1.7520250E+01  2.3765125E+01
 1.7531752E+01  2.3761539E+01
 1.7543251E+01  2.3782314E+01
 1.7554750E+01  2.3706984E+01
 1.7566252E+01  2.3656452E+01
 1.7577751E+01  2.3562777E+01
 1.7589251E+01  2.3615637E+01
 1.7600750E+01  2.3696466E+01
 1.7612251E+01  2.3759655E+01
 1.7623751E+01  2.3796665E+01
 1.7635250E+01  2.3743570E+01
 1.7646751E+01  2.3763521E+01
 1.7658251E+01  2.3671745E+01
 1.7669750E+01  2.3679541E+01
 1.7681252E+01  2.3661886E+01
 1.7692751E+01  2.3664799E+01
 1.7704250E+01  2.3613495E+01
 1.7715752E+01  2.3597542E+01
 1.7727251E+01  2.3605074E+01
 1.7738750E+01  2.3633102E+01
 1.7750252E+01  2.3646696E+01
 1.7761751E+01  2.3633188E+01
 1.7773251E+01  2.3655863E+01
 1.7784750E+01  2.3610586E+01
 1.7796251E+01  2.3635628E+01
 1.7807751E+01  2.3566391E+01
 1.7819250E+01  2.3573160E+01
 1.7830751E+01  2.3585407E+01
 1.7842251E+01  2.3637777E+01
 1.7853750E+01  2.3646063E+01
 1.7865252E+01  2.3635048E+01
 1.7876751E+01  2.3657553E+01
 1.7888250E+01  2.3698835E+01
 1.7899752E+01  2.3703243E+01
 1.7911251E+01  2.3737745E+01
 1.7922750E+01  2.3762489E+01
 1.7934252E+01  2.3779974E+01
 1.7945751E+01  2.3815187E+01
 1.7957251E+01  2.3835197E+01
 1.7968750E+01  2.3947685E+01
 1.7980251E+01  2.4058157E+01
 1.7991751E+01  2.4253639E+01
 1.8003250E+01  2.4373211E+01
 1.8014751E+01  2.4554487E+01
 1.8026251E+01  2.4699833E+01
 1.8037750E+01  2.4828032E+01
 1.8049252E+01  2.5091490E+01
 1.8060751E+01  2.5766346E+01
 1.8072250E+01  2.6346237E+01
 1.8083752E+01  2.7588472E+01
 1.8095251E+01  2.8582872E+01
 1.8106750E+01  2.9144131E+01
 1.8118252E+01  2.8836729E+01
 1.8129751E+01  2.8637962E+01
 1.8141251E+01  2.8066151E+01
 1.8152750E+01  2.7170685E+01
 1.8164251E+01  2.6046648E+01
 1.8175751E+01  2.5410021E+01
 1.8187250E+01  2.4716127E+01
 1.8198751E+01  2.4335957E+01
 1.8210251E+01  2.4117746E+01
 1.8221750E+01  2.4052084E+01
 1.8233252E+01  2.3959290E+01
 1.8244751E+01  2.3910852E+01
 1.8256250E+01  2.3817581E+01
 1.8267752E+01  2.3765053E+01
 1.8279251E+01  2.3730270E+01
 1.8290751E+01  2.3700768E+01
 1.8302252E+01  2.3634548E+01
 1.8313751E+01  2.3568768E+01
 1.8325251E+01  2.3480877E+01
 1.8336750E+01  2.3496717E+01
 1.8348251E+01  2.3481789E+01
 1.8359751E+01  2.3523331E+01
 1.8371250E+01  2.3468557E+01
 1.8382751E+01  2.3425900E+01
 1.8394251E+01  2.3427677E+01
 1.8405750E+01  2.3483385E+01
 1.8417252E+01  2.3532974E+01
 1.8428751E+01  2.3525661E+01
 1.8440250E+01  2.3561693E+01
 1.8451752E+01  2.3472332E+01
 1.8463251E+01  2.3428335E+01
 1.8474751E+01  2.3368509E+01
 1.8486252E+01  2.3395311E+01
 1.8497751E+01  2.3427286E+01
 1.8509251E+01  2.3416277E+01
 1.8520750E+01  2.3421791E+01
 1.8532251E+01  2.3372326E+01
 1.8543751E+01  2.3368332E+01
 1.8555250E+01  2.3373568E+01
 1.8566751E+01  2.3391211E+01
 1.8578251E+01  2.3382820E+01
 1.8589750E+01  2.3367065E+01
 1.8601252E+01  2.3349659E+01
 1.8612751E+01  2.3318281E+01
 1.8624250E+01  2.3244324E+01
 1.8635752E+01  2.3239195E+01
 1.8647251E+01  2.3258305E+01
 1.8658751E+01  2.3322714E+01
 1.8670252E+01  2.3363747E+01
 1.8681751E+01  2.3367157E+01
 1.8693251E+01  2.3375786E+01
 1.8704750E+01  2.3354521E+01
 1.8716251E+01  2.3375076E+01
 1.8727751E+01  2.3355350E+01
 1.8739250E+01  2.3318001E+01
 1.8750751E+01  2.3271240E+01
 1.8762251E+01  2.3255964E+01
 1.8773750E+01  2.3251926E+01
 1.8785252E+01  2.3249025E+01
 1.8796751E+01  2.3277660E+01
 1.8808250E+01  2.3279097E+01
 1.8819752E+01  2.3289507E+01
 1.8831251E+01  2.3255085E+01
 1.8842751E+01  2.3281145E+01
 1.8854252E+01  2.3299049E+01
 1.8865751E+01  2.3292486E+01
 1.8877251E+01  2.3267895E+01
 1.8888750E+01  2.3232393E+01
 1.8900251E+01  2.3202444E+01
 1.8911751E+01  2.3193352E+01
 1.8923250E+01  2.3225740E+01
 1.8934752E+01  2.3254923E+01
 1.8946251E+01  2.3330273E+01
 1.8957750E+01  2.3369310E+01
 1.8969252E+01  2.3387392E+01
 1.8980751E+01  2.3346577E+01
 1.8992250E+01  2.3324123E+01
 1.9003752E+01  2.3318165E+01
 1.9015251E+01  2.3344210E+01
 1.9026751E+01  2.3331615E+01
 1.9038252E+01  2.3360044E+01
 1.9049751E+01  2.3347933E+01
 1.9061251E+01  2.3418671E+01
 1.9072750E+01  2.3446198E+01
 1.9084251E+01  2.3439732E+01
 1.9095751E+01  2.3393333E+01
 1.9107250E+01  2.3372984E+01
 1.9118752E+01  2.3396635E+01
 1.9130251E+01  2.3433565E+01
 1.9141750E+01  2.3446566E+01
 1.9153252E+01  2.3471897E+01
 1.9164751E+01  2.3472971E+01
 1.9176250E+01  2.3488132E+01
 1.9187752E+01  2.3498432E+01
 1.9199251E+01  2.3487904E+01
 1.9210751E+01  2.3476910E+01
 1.9222252E+01  2.3473158E+01
 1.9233751E+01  2.3445557E+01
 1.9245251E+01  2.3427303E+01
 1.9256750E+01  2.3394745E+01
 1.9268251E+01  2.3376369E+01
 1.9279751E+01  2.3334375E+01
 1.9291250E+01  2.3353746E+01
 1.9302752E+01  2.3403908E+01
 1.9314251E+01  2.3408457E+01
 1.9325750E+01  2.3402088E+01
 1.9337252E+01  2.3390106E+01
 1.9348751E+01  2.3426249E+01
 1.9360250E+01  2.3423540E+01
 1.9371752E+01  2.3430038E+01
 1.9383251E+01  2.3448816E+01
 1.9394751E+01  2.3531796E+01
 1.9406250E+01  2.3563974E+01
 1.9417751E+01  2.3602331E+01
 1.9429251E+01  2.3616610E+01
 1.9440750E+01  2.3617418E+01
 1.9452251E+01  2.3584854E+01
 1.9463751E+01  2.3595858E+01
 1.9475250E+01  2.3597456E+01
 1.9486752E+01  2.3541258E+01
 1.9498251E+01  2.3453627E+01
 1.9509750E+01  2.3446178E+01
 1.9521252E+01  2.3508146E+01
 1.9532751E+01  2.3597021E+01
 1.9544250E+01  2.3663166E+01
 1.9555752E+01  2.3638575E+01
 1.9567251E+01  2.3578817E+01
 1.9578751E+01  2.3499041E+01
 1.9590250E+01  2.3504185E+01
 1.9601751E+01  2.3533831E+01
 1.9613251E+01  2.3636049E+01
 1.9624750E+01  2.3741903E+01
 1.9636251E+01  2.3866056E+01
 1.9647751E+01  2.4048424E+01
 1.9659250E+01  2.4257641E+01
 1.9670752E+01  2.4526253E+01
 1.9682251E+01  2.4726074E+01
 1.9693750E+01  2.5023594E+01
 1.9705252E+01  2.5296000E+01
 1.9716751E+01  2.5519970E+01
 1.9728251E+01  2.5644192E+01
 1.9739752E+01  2.5642481E+01
 1.9751251E+01  2.5551374E+01
 1.9762751E+01  2.5303169E+01
 1.9774250E+01  2.5071407E+01
 1.9785751E+01  2.4938467E+01
 1.9797251E+01  2.4810759E+01
 1.9808750E+01  2.4900330E+01
 1.9820251E+01  2.4991009E+01
 1.9831751E+01  2.5343395E+01
 1.9843250E+01  2.5654802E+01
 1.9854752E+01  2.5844528E+01
 1.9866251E+01  2.5973314E+01
 1.9877750E+01  2.5804905E+01
 1.9889252E+01  2.5695127E+01
 1.9900751E+01  2.5250397E+01
 1.9912251E+01  2.4978994E+01
 1.9923752E+01  2.4632893E+01
 1.9935251E+01  2.4313641E+01
 1.9946751E+01  2.4102879E+01
 1.9958250E+01  2.3942802E+01
 1.9969751E+01  2.3872648E+01
 1.9981251E+01  2.3735161E+01
 1.9992750E+01  2.3674538E+01
 2.0004251E+01  2.3614382E+01
 2.0015751E+01  2.3606829E+01
 2.0027250E+01  2.3624382E+01
 2.0038752E+01  2.3668413E+01
 2.0050251E+01  2.3714884E+01
 2.0061750E+01  2.3665140E+01
 2.0073252E+01  2.3595148E+01
 2.0084751E+01  2.3549789E+01
 2.0096251E+01  2.3616531E+01
 2.0107752E+01  2.3607924E+01
 2.0119251E+01  2.3619217E+01
 2.0130751E+01  2.3549984E+01
 2.0142250E+01  2.3577890E+01
 2.0153751E+01  2.3551367E+01
 2.0165251E+01  2.3562296E+01
 2.0176750E+01  2.3579525E+01
 2.0188251E+01  2.3565361E+01
 2.0199751E+01  2.3571077E+01
 2.0211250E+01  2.3555670E+01
 2.0222752E+01  2.3579351E+01
 2.0234251E+01  2.3597063E+01
 2.0245750E+01  2.3601892E+01
 2.0257252E+01  2.3570795E+01
 2.0268751E+01  2.3547302E+01
 2.0280251E+01  2.3508953E+01
 2.0291752E+01  2.3460997E+01
 2.0303251E+01  2.3372368E+01
 2.0314751E+01  2.3361303E+01
 2.0326250E+01  2.3375795E+01
 2.0337751E+01  2.3451876E+01
 2.0349251E+01  2.3522211E+01
 2.0360750E+01  2.3527727E+01
 2.0372252E+01  2.3502897E+01
 2.0383751E+01  2.3474146E+01
 2.0395250E+01  2.3492899E+01
 2.0406752E+01  2.3502396E+01
 2.0418251E+01  2.3515965E+01
 2.0429750E+01  2.3527590E+01
 2.0441252E+01  2.3522020E+01
 2.0452751E+01  2.3601009E+01
 2.0464251E+01  2.3633446E+01
 2.0475752E+01  2.3672373E+01
 2.0487251E+01  2.3574631E+01
 2.0498751E+01  2.3603111E+01
 2.0510250E+01  2.3534967E+01
 2.0521751E+01  2.3514725E+01
 2.0533251E+01  2.3471842E+01
 2.0544750E+01  2.3478979E+01
 2.0556252E+01  2.3542454E+01
 2.0567751E+01  2.3580780E+01
 2.0579250E+01  2.3605564E+01
 2.0590752E+01  2.3637548E+01
 2.0602251E+01  2.3690613E+01
 2.0613750E+01  2.3711079E+01
 2.0625252E+01  2.3704447E+01
 2.0636751E+01  2.3741146E+01
 2.0648251E+01  2.3723206E+01
 2.0659752E+01  2.3778217E+01
 2.0671251E+01  2.3881950E+01
 2.0682751E+01  2.4102051E+01
 2.0694250E+01  2.4276476E+01
 2.0705751E+01  2.4494537E+01
 2.0717251E+01  2.4653719E+01
 2.0728750E+01  2.4765135E+01
 2.0740252E+01  2.4765991E+01
 2.0751751E+01  2.4783401E+01
 2.0763250E+01  2.4717644E+01
 2.0774752E+01  2.4596125E+01
 2.0786251E+01  2.4468639E+01
 2.0797750E+01  2.4329578E+01
 2.0809252E+01  2.4169584E+01
 2.0820751E+01  2.4026844E+01
 2.0832251E+01  2.3906918E+01
 2.0843752E+01  2.3832293E+01
 2.0855251E+01  2.3801432E+01
 2.0866751E+01  2.3782207E+01
 2.0878250E+01  2.3780069E+01
 2.0889751E+01  2.3796511E+01
 2.0901251E+01  2.3807335E+01
 2.0912750E+01  2.3795742E+01
 2.0924252E+01  2.3810928E+01
 2.0935751E+01  2.3813362E+01
 2.0947250E+01  2.3797508E+01
 2.0958752E+01  2.3717236E+01
 2.0970251E+01  2.3679859E+01
 2.0981750E+01  2.3659376E+01
 2.0993252E+01  2.3675482E+01
 2.1004751E+01  2.3698648E+01
 2.1016251E+01  2.3676638E+01
 2.1027752E+01  2.3691454E+01
 2.1039251E+01  2.3730272E+01
 2.1050751E+01  2.3754591E+01
 2.1062250E+01  2.3758156E+01
 2.1073751E+01  2.3766701E+01
 2.1085251E+01  2.3759552E+01
 2.1096750E+01  2.3726381E+01
 2.1108252E+01  2.3725796E+01
 2.1119751E+01  2.3747318E+01
 2.1131250E+01  2.3746748E+01
 2.1142752E+01  2.3713558E+01
 2.1154251E+01  2.3688385E+01
 2.1165751E+01  2.3653763E+01
 2.1177252E+01  2.3685738E+01
 2.1188751E+01  2.3649471E+01
 2.1200251E+01  2.3662191E+01
 2.1211752E+01  2.3673742E+01
 2.1223251E+01  2.3680420E+01
 2.1234751E+01  2.3657589E+01
 2.1246250E+01  2.3663805E+01
 2.1257751E+01  2.3691166E+01
 2.1269251E+01  2.3695017E+01
 2.1280750E+01  2.3740404E+01
 2.1292252E+01  2.3774433E+01
 2.1303751E+01  2.3768164E+01
 2.1315250E+01  2.3730541E+01
 2.1326752E+01  2.3723383E+01
 2.1338251E+01  2.3710220E+01
 2.1349751E+01  2.3762735E+01
 2.1361252E+01  2.3826935E+01
 2.1372751E+01  2.3879602E+01
 2.1384251E+01  2.3808889E+01
 2.1395752E+01  2.3747833E+01
 2.1407251E+01  2.3689627E+01
 2.1418751E+01  2.3681080E+01
 2.1430250E+01  2.3700375E+01
 2.1441751E+01  2.3778229E+01
 2.1453251E+01  2.3802307E+01
 2.1464750E+01  2.3832478E+01
 2.1476252E+01  2.3795115E+01
 2.1487751E+01  2.3901037E+01
 2.1499250E+01  2.3885172E+01
 2.1510752E+01  2.3826191E+01
 2.1522251E+01  2.3837917E+01
 2.1533751E+01  2.3875505E+01
 2.1545252E+01  2.3919090E+01
 2.1556751E+01  2.3895874E+01
 2.1568251E+01  2.3915396E+01
 2.1579752E+01  2.3912685E+01
 2.1591251E+01  2.3951323E+01
 2.1602751E+01  2.3909389E+01
 2.1614250E+01  2.3902832E+01
 2.1625751E+01  2.3880856E+01
 2.1637251E+01  2.3866041E+01
 2.1648750E+01  2.3866180E+01
 2.1660252E+01  2.3885225E+01
 2.1671751E+01  2.3892836E+01
 2.1683250E+01  2.3839310E+01
 2.1694752E+01  2.3851002E+01
 2.1706251E+01  2.3923830E+01
 2.1717751E+01  2.3963057E+01
 2.1729252E+01  2.3917702E+01
 2.1740751E+01  2.3895285E+01
 2.1752251E+01  2.3863279E+01
 2.1763752E+01  2.3869213E+01
 2.1775251E+01  2.3862539E+01
 2.1786751E+01  2.3885071E+01
 2.1798250E+01  2.3912573E+01
 2.1809752E+01  2.3966970E+01
 2.1821251E+01  2.4004061E+01
 2.1832750E+01  2.3996222E+01
 2.1844252E+01  2.3977882E+01
 2.1855751E+01  2.3956249E+01
 2.1867250E+01  2.3976257E+01
 2.1878752E+01  2.4019526E+01
 2.1890251E+01  2.4043056E+01
 2.1901751E+01  2.4029257E+01
 2.1913252E+01  2.4001762E+01
 2.1924751E+01  2.4002123E+01
 2.1936251E+01  2.4035229E+01
 2.1947752E+01  2.4072821E+01
 2.1959251E+01  2.4062342E+01
 2.1970751E+01  2.4055180E+01
 2.1982250E+01  2.4014719E+01
 2.1993752E+01  2.4020569E+01
 2.2005251E+01  2.4018911E+01
 2.2016750E+01  2.4099363E+01
 2.2028252E+01  2.4151081E+01
 2.2039751E+01  2.4116093E+01
 2.2051250E+01  2.4122692E+01
 2.2062752E+01  2.4099127E+01
 2.2074251E+01  2.4092283E+01
 2.2085751E+01  2.4036446E+01
 2.2097252E+01  2.4063217E+01
 2.2108751E+01  2.4070293E+01
 2.2120251E+01  2.4149139E+01
 2.2131752E+01  2.4199158E+01
 2.2143251E+01  2.4244202E+01
 2.2154751E+01  2.4221746E+01
 2.2166250E+01  2.4207527E+01
 2.2177752E+01  2.4175938E+01
 2.2189251E+01  2.4152285E+01
 2.2200750E+01  2.4135263E+01
 2.2212252E+01  2.4114222E+01
 2.2223751E+01  2.4152905E+01
 2.2235250E+01  2.4186356E+01
 2.2246752E+01  2.4235388E+01
 2.2258251E+01  2.4253792E+01
 2.2269751E+01  2.4276693E+01
 2.2281252E+01  2.4270716E+01
 2.2292751E+01  2.4303272E+01
 2.2304251E+01  2.4340706E+01
 2.2315752E+01  2.4390306E+01
 2.2327251E+01  2.4385490E+01
 2.2338751E+01  2.4436502E+01
 2.2350250E+01  2.4422123E+01
 2.2361752E+01  2.4399628E+01
 2.2373251E+01  2.4363913E+01
 2.2384750E+01  2.4326830E+01
 2.2396252E+01  2.4256538E+01
 2.2407751E+01  2.4205002E+01
 2.2419250E+01  2.4210749E+01
 2.2430752E+01  2.4254589E+01
 2.2442251E+01  2.4323202E+01
 2.2453751E+01  2.4419903E+01
 2.2465252E+01  2.4504526E+01
 2.2476751E+01  2.4465799E+01
 2.2488251E+01  2.4457308E+01
 2.2499752E+01  2.4466251E+01
 2.2511251E+01  2.4501986E+01
 2.2522751E+01  2.4529388E+01
 2.2534250E+01  2.4550175E+01
 2.2545752E+01  2.4638729E+01
 2.2557251E+01  2.4604450E+01
 2.2568750E+01  2.4577633E+01
 2.2580252E+01  2.4531189E+01
 2.2591751E+01  2.4605074E+01
 2.2603251E+01  2.4704796E+01
 2.2614752E+01  2.4889788E+01
 2.2626251E+01  2.4960876E+01
 2.2637751E+01  2.5000463E+01
 2.2649252E+01  2.4916449E+01
 2.2660751E+01  2.4875536E+01
 2.2672251E+01  2.4838724E+01
 2.2683752E+01  2.4900856E+01
 2.2695251E+01  2.4924799E+01
 2.2706751E+01  2.4935333E+01
 2.2718250E+01  2.4906586E+01
 2.2729752E+01  2.4950186E+01
 2.2741251E+01  2.4973562E+01
 2.2752750E+01  2.4969135E+01
 2.2764252E+01  2.4982416E+01
 2.2775751E+01  2.4994400E+01
 2.2787251E+01  2.4950989E+01
 2.2798752E+01  2.5030504E+01
 2.2810251E+01  2.5142853E+01
 2.2821751E+01  2.5270092E+01
 2.2833252E+01  2.5324060E+01
 2.2844751E+01  2.5388287E+01
 2.2856251E+01  2.5424507E+01
 2.2867750E+01  2.5485878E+01
 2.2879251E+01  2.5526192E+01
 2.2890751E+01  2.5587002E+01
 2.2902250E+01  2.5568506E+01
 2.2913752E+01  2.5652935E+01
 2.2925251E+01  2.5688301E+01
 2.2936750E+01  2.5746056E+01
 2.2948252E+01  2.5764982E+01
 2.2959751E+01  2.5772055E+01
 2.2971251E+01  2.5881536E+01
 2.2982752E+01  2.5988039E+01
 2.2994251E+01  2.6095676E+01
