F:\20151113_APS_34IDE\\Brian\Particle1\OCV\Data_0132.tif
2-Theta Angle (Degrees)
Intensity
       2000
 5.7500005E-03  0.0000000E+00
 1.7250001E-02  0.0000000E+00
 2.8750001E-02  0.0000000E+00
 4.0250003E-02  0.0000000E+00
 5.1750004E-02  0.0000000E+00
 6.3250005E-02  0.0000000E+00
 7.4750006E-02  0.0000000E+00
 8.6250007E-02  0.0000000E+00
 9.7750008E-02  0.0000000E+00
 1.0925001E-01  0.0000000E+00
 1.2075000E-01  0.0000000E+00
 1.3225001E-01  0.0000000E+00
 1.4375001E-01  0.0000000E+00
 1.5525001E-01  0.0000000E+00
 1.6675001E-01  0.0000000E+00
 1.7825001E-01  0.0000000E+00
 1.8975002E-01  0.0000000E+00
 2.0125002E-01  0.0000000E+00
 2.1275002E-01  0.0000000E+00
 2.2425000E-01  0.0000000E+00
 2.3575000E-01  0.0000000E+00
 2.4725001E-01  0.0000000E+00
 2.5875002E-01  0.0000000E+00
 2.7025002E-01  0.0000000E+00
 2.8175002E-01  0.0000000E+00
 2.9325002E-01  0.0000000E+00
 3.0475003E-01  0.0000000E+00
 3.1625003E-01  0.0000000E+00
 3.2775003E-01  0.0000000E+00
 3.3925003E-01  0.0000000E+00
 3.5075003E-01  0.0000000E+00
 3.6225003E-01  0.0000000E+00
 3.7375003E-01  0.0000000E+00
 3.8525003E-01  0.0000000E+00
 3.9675003E-01  0.0000000E+00
 4.0825003E-01  0.0000000E+00
 4.1975003E-01  0.0000000E+00
 4.3125004E-01  0.0000000E+00
 4.4275001E-01  0.0000000E+00
 4.5425001E-01  0.0000000E+00
 4.6575001E-01  0.0000000E+00
 4.7725001E-01  0.0000000E+00
 4.8875001E-01  0.0000000E+00
 5.0025004E-01  0.0000000E+00
 5.1175004E-01  0.0000000E+00
 5.2325004E-01  0.0000000E+00
 5.3475004E-01  0.0000000E+00
 5.4625005E-01  0.0000000E+00
 5.5775005E-01  0.0000000E+00
 5.6925005E-01  0.0000000E+00
 5.8075005E-01  0.0000000E+00
 5.9225005E-01  0.0000000E+00
 6.0375005E-01  0.0000000E+00
 6.1525005E-01  0.0000000E+00
 6.2675005E-01  0.0000000E+00
 6.3825005E-01  0.0000000E+00
 6.4975005E-01  0.0000000E+00
 6.6125005E-01  0.0000000E+00
 6.7275006E-01  0.0000000E+00
 6.8425006E-01  0.0000000E+00
 6.9575006E-01  0.0000000E+00
 7.0725006E-01  0.0000000E+00
 7.1875006E-01  0.0000000E+00
 7.3025006E-01  0.0000000E+00
 7.4175006E-01  0.0000000E+00
 7.5325006E-01  0.0000000E+00
 7.6475006E-01  0.0000000E+00
 7.7625006E-01  0.0000000E+00
 7.8775007E-01  0.0000000E+00
 7.9925007E-01  0.0000000E+00
 8.1075007E-01  0.0000000E+00
 8.2225007E-01  0.0000000E+00
 8.3375007E-01  0.0000000E+00
 8.4525007E-01  0.0000000E+00
 8.5675007E-01  0.0000000E+00
 8.6825007E-01  0.0000000E+00
 8.7975001E-01  0.0000000E+00
 8.9125001E-01  0.0000000E+00
 9.0275002E-01  0.0000000E+00
 9.1425002E-01  0.0000000E+00
 9.2575002E-01  0.0000000E+00
 9.3725002E-01  0.0000000E+00
 9.4875002E-01  0.0000000E+00
 9.6025002E-01  0.0000000E+00
 9.7175002E-01  0.0000000E+00
 9.8325002E-01  0.0000000E+00
 9.9475002E-01  0.0000000E+00
 1.0062500E+00  0.0000000E+00
 1.0177500E+00  0.0000000E+00
 1.0292500E+00  0.0000000E+00
 1.0407500E+00  0.0000000E+00
 1.0522500E+00  0.0000000E+00
 1.0637500E+00  0.0000000E+00
 1.0752500E+00  0.0000000E+00
 1.0867500E+00  0.0000000E+00
 1.0982500E+00  0.0000000E+00
 1.1097500E+00  0.0000000E+00
 1.1212500E+00  0.0000000E+00
 1.1327500E+00  0.0000000E+00
 1.1442500E+00  0.0000000E+00
 1.1557500E+00  0.0000000E+00
 1.1672500E+00  0.0000000E+00
 1.1787500E+00  0.0000000E+00
 1.1902500E+00  0.0000000E+00
 1.2017500E+00  0.0000000E+00
 1.2132500E+00  0.0000000E+00
 1.2247500E+00  0.0000000E+00
 1.2362500E+00  0.0000000E+00
 1.2477500E+00  0.0000000E+00
 1.2592500E+00  0.0000000E+00
 1.2707500E+00  0.0000000E+00
 1.2822500E+00  0.0000000E+00
 1.2937500E+00  0.0000000E+00
 1.3052500E+00  0.0000000E+00
 1.3167500E+00  0.0000000E+00
 1.3282501E+00  0.0000000E+00
 1.3397501E+00  0.0000000E+00
 1.3512501E+00  0.0000000E+00
 1.3627501E+00  0.0000000E+00
 1.3742501E+00  0.0000000E+00
 1.3857501E+00  0.0000000E+00
 1.3972501E+00  0.0000000E+00
 1.4087501E+00  0.0000000E+00
 1.4202501E+00  0.0000000E+00
 1.4317501E+00  0.0000000E+00
 1.4432501E+00  0.0000000E+00
 1.4547501E+00  0.0000000E+00
 1.4662501E+00  0.0000000E+00
 1.4777501E+00  0.0000000E+00
 1.4892501E+00  0.0000000E+00
 1.5007501E+00  0.0000000E+00
 1.5122501E+00  0.0000000E+00
 1.5237501E+00  0.0000000E+00
 1.5352501E+00  0.0000000E+00
 1.5467501E+00  0.0000000E+00
 1.5582501E+00  0.0000000E+00
 1.5697501E+00  0.0000000E+00
 1.5812501E+00  0.0000000E+00
 1.5927501E+00  0.0000000E+00
 1.6042501E+00  0.0000000E+00
 1.6157501E+00  0.0000000E+00
 1.6272501E+00  0.0000000E+00
 1.6387501E+00  0.0000000E+00
 1.6502501E+00  0.0000000E+00
 1.6617501E+00  0.0000000E+00
 1.6732501E+00  0.0000000E+00
 1.6847501E+00  0.0000000E+00
 1.6962501E+00  0.0000000E+00
 1.7077501E+00  0.0000000E+00
 1.7192501E+00  0.0000000E+00
 1.7307501E+00  0.0000000E+00
 1.7422501E+00  0.0000000E+00
 1.7537501E+00  0.0000000E+00
 1.7652501E+00  0.0000000E+00
 1.7767501E+00  0.0000000E+00
 1.7882501E+00  0.0000000E+00
 1.7997501E+00  0.0000000E+00
 1.8112501E+00  0.0000000E+00
 1.8227501E+00  0.0000000E+00
 1.8342501E+00  0.0000000E+00
 1.8457501E+00  0.0000000E+00
 1.8572501E+00  0.0000000E+00
 1.8687501E+00  0.0000000E+00
 1.8802501E+00  0.0000000E+00
 1.8917501E+00  0.0000000E+00
 1.9032501E+00  0.0000000E+00
 1.9147501E+00  0.0000000E+00
 1.9262501E+00  0.0000000E+00
 1.9377501E+00  0.0000000E+00
 1.9492501E+00  0.0000000E+00
 1.9607501E+00  0.0000000E+00
 1.9722501E+00  0.0000000E+00
 1.9837501E+00  0.0000000E+00
 1.9952501E+00  0.0000000E+00
 2.0067501E+00  0.0000000E+00
 2.0182500E+00  0.0000000E+00
 2.0297501E+00  0.0000000E+00
 2.0412500E+00  0.0000000E+00
 2.0527501E+00  0.0000000E+00
 2.0642500E+00  0.0000000E+00
 2.0757501E+00  0.0000000E+00
 2.0872500E+00  0.0000000E+00
 2.0987501E+00  0.0000000E+00
 2.1102500E+00  0.0000000E+00
 2.1217501E+00  0.0000000E+00
 2.1332500E+00  0.0000000E+00
 2.1447501E+00  0.0000000E+00
 2.1562500E+00  0.0000000E+00
 2.1677501E+00  0.0000000E+00
 2.1792500E+00  0.0000000E+00
 2.1907501E+00  0.0000000E+00
 2.2022500E+00  0.0000000E+00
 2.2137501E+00  0.0000000E+00
 2.2252500E+00  0.0000000E+00
 2.2367501E+00  0.0000000E+00
 2.2482500E+00  0.0000000E+00
 2.2597501E+00  0.0000000E+00
 2.2712500E+00  0.0000000E+00
 2.2827501E+00  0.0000000E+00
 2.2942500E+00  0.0000000E+00
 2.3057501E+00  0.0000000E+00
 2.3172500E+00  0.0000000E+00
 2.3287501E+00  0.0000000E+00
 2.3402500E+00  0.0000000E+00
 2.3517501E+00  0.0000000E+00
 2.3632500E+00  0.0000000E+00
 2.3747501E+00  0.0000000E+00
 2.3862500E+00  0.0000000E+00
 2.3977501E+00  0.0000000E+00
 2.4092500E+00  0.0000000E+00
 2.4207501E+00  0.0000000E+00
 2.4322500E+00  0.0000000E+00
 2.4437501E+00  0.0000000E+00
 2.4552500E+00  0.0000000E+00
 2.4667501E+00  0.0000000E+00
 2.4782500E+00  0.0000000E+00
 2.4897501E+00  0.0000000E+00
 2.5012500E+00  0.0000000E+00
 2.5127501E+00  0.0000000E+00
 2.5242500E+00  0.0000000E+00
 2.5357502E+00  0.0000000E+00
 2.5472500E+00  0.0000000E+00
 2.5587502E+00  0.0000000E+00
 2.5702500E+00  0.0000000E+00
 2.5817502E+00  0.0000000E+00
 2.5932500E+00  0.0000000E+00
 2.6047502E+00  0.0000000E+00
 2.6162500E+00  0.0000000E+00
 2.6277502E+00  0.0000000E+00
 2.6392500E+00  0.0000000E+00
 2.6507502E+00  0.0000000E+00
 2.6622500E+00  0.0000000E+00
 2.6737502E+00  0.0000000E+00
 2.6852500E+00  0.0000000E+00
 2.6967502E+00  0.0000000E+00
 2.7082500E+00  0.0000000E+00
 2.7197502E+00  0.0000000E+00
 2.7312500E+00  0.0000000E+00
 2.7427502E+00  0.0000000E+00
 2.7542500E+00  0.0000000E+00
 2.7657502E+00  0.0000000E+00
 2.7772501E+00  0.0000000E+00
 2.7887502E+00  0.0000000E+00
 2.8002501E+00  0.0000000E+00
 2.8117502E+00  0.0000000E+00
 2.8232501E+00  3.3208389E+01
 2.8347502E+00  3.4015305E+01
 2.8462501E+00  3.4844772E+01
 2.8577502E+00  3.5037491E+01
 2.8692501E+00  3.4848621E+01
 2.8807502E+00  3.4391403E+01
 2.8922501E+00  3.3849533E+01
 2.9037502E+00  3.3577625E+01
 2.9152501E+00  3.3481567E+01
 2.9267502E+00  3.3764561E+01
 2.9382501E+00  3.4072845E+01
 2.9497502E+00  3.4657623E+01
 2.9612501E+00  3.5341454E+01
 2.9727502E+00  3.5742031E+01
 2.9842501E+00  3.6055710E+01
 2.9957502E+00  3.6275200E+01
 3.0072501E+00  3.6589825E+01
 3.0187502E+00  3.7069248E+01
 3.0302501E+00  3.7176891E+01
 3.0417502E+00  3.7178677E+01
 3.0532501E+00  3.6722439E+01
 3.0647502E+00  3.6388401E+01
 3.0762501E+00  3.6183834E+01
 3.0877502E+00  3.5905136E+01
 3.0992501E+00  3.5836990E+01
 3.1107502E+00  3.5435635E+01
 3.1222501E+00  3.5604237E+01
 3.1337502E+00  3.5468346E+01
 3.1452501E+00  3.5673424E+01
 3.1567502E+00  3.5664448E+01
 3.1682501E+00  3.5668991E+01
 3.1797502E+00  3.5587620E+01
 3.1912501E+00  3.5386150E+01
 3.2027502E+00  3.5298252E+01
 3.2142501E+00  3.5133003E+01
 3.2257502E+00  3.4966648E+01
 3.2372501E+00  3.4810490E+01
 3.2487502E+00  3.4866615E+01
 3.2602501E+00  3.5072910E+01
 3.2717502E+00  3.5216850E+01
 3.2832501E+00  3.5055130E+01
 3.2947502E+00  3.4987263E+01
 3.3062501E+00  3.4864876E+01
 3.3177502E+00  3.4414505E+01
 3.3292501E+00  3.4255527E+01
 3.3407502E+00  3.3850147E+01
 3.3522501E+00  3.4028175E+01
 3.3637502E+00  3.3703453E+01
 3.3752501E+00  3.3720989E+01
 3.3867502E+00  3.3518013E+01
 3.3982501E+00  3.3882492E+01
 3.4097502E+00  3.3704380E+01
 3.4212501E+00  3.3743782E+01
 3.4327502E+00  3.3463467E+01
 3.4442501E+00  3.3699776E+01
 3.4557502E+00  3.3878395E+01
 3.4672501E+00  3.4005833E+01
 3.4787502E+00  3.4070019E+01
 3.4902501E+00  3.4153347E+01
 3.5017502E+00  3.3834988E+01
 3.5132501E+00  3.3792656E+01
 3.5247502E+00  3.3510582E+01
 3.5362501E+00  3.3948647E+01
 3.5477502E+00  3.3922009E+01
 3.5592501E+00  3.3951023E+01
 3.5707502E+00  3.3738350E+01
 3.5822501E+00  3.3585484E+01
 3.5937502E+00  3.3665337E+01
 3.6052501E+00  3.3570786E+01
 3.6167502E+00  3.3624687E+01
 3.6282501E+00  3.3531593E+01
 3.6397502E+00  3.3403534E+01
 3.6512501E+00  3.3441441E+01
 3.6627502E+00  3.3377094E+01
 3.6742501E+00  3.3337158E+01
 3.6857502E+00  3.3480461E+01
 3.6972501E+00  3.3643311E+01
 3.7087502E+00  3.3783966E+01
 3.7202501E+00  3.3661644E+01
 3.7317502E+00  3.3293491E+01
 3.7432501E+00  3.3143684E+01
 3.7547503E+00  3.2969414E+01
 3.7662501E+00  3.2931911E+01
 3.7777503E+00  3.2980152E+01
 3.7892501E+00  3.2756279E+01
 3.8007503E+00  3.2697346E+01
 3.8122501E+00  3.2512096E+01
 3.8237503E+00  3.2732811E+01
 3.8352501E+00  3.2764534E+01
 3.8467503E+00  3.2906494E+01
 3.8582501E+00  3.2839699E+01
 3.8697503E+00  3.2873882E+01
 3.8812501E+00  3.3037781E+01
 3.8927503E+00  3.2935867E+01
 3.9042501E+00  3.3127487E+01
 3.9157503E+00  3.2954277E+01
 3.9272501E+00  3.3003368E+01
 3.9387503E+00  3.2809589E+01
 3.9502501E+00  3.2835808E+01
 3.9617503E+00  3.2858356E+01
 3.9732502E+00  3.2896477E+01
 3.9847503E+00  3.2774708E+01
 3.9962502E+00  3.2833656E+01
 4.0077500E+00  3.2821495E+01
 4.0192504E+00  3.2830502E+01
 4.0307503E+00  3.2789955E+01
 4.0422502E+00  3.2703453E+01
 4.0537500E+00  3.2776321E+01
 4.0652504E+00  3.2731487E+01
 4.0767503E+00  3.2790592E+01
 4.0882502E+00  3.2893116E+01
 4.0997500E+00  3.2739449E+01
 4.1112504E+00  3.2842640E+01
 4.1227503E+00  3.2643291E+01
 4.1342502E+00  3.2657452E+01
 4.1457500E+00  3.2540764E+01
 4.1572504E+00  3.2512913E+01
 4.1687503E+00  3.2519878E+01
 4.1802502E+00  3.2360863E+01
 4.1917500E+00  3.2396858E+01
 4.2032504E+00  3.2531601E+01
 4.2147503E+00  3.2740364E+01
 4.2262502E+00  3.2835995E+01
 4.2377501E+00  3.2809181E+01
 4.2492504E+00  3.2655102E+01
 4.2607503E+00  3.2394840E+01
 4.2722502E+00  3.2107681E+01
 4.2837501E+00  3.2203850E+01
 4.2952504E+00  3.2237141E+01
 4.3067503E+00  3.2410286E+01
 4.3182502E+00  3.2519497E+01
 4.3297501E+00  3.2575310E+01
 4.3412504E+00  3.2639305E+01
 4.3527503E+00  3.2574398E+01
 4.3642502E+00  3.2625668E+01
 4.3757501E+00  3.2711094E+01
 4.3872504E+00  3.2807945E+01
 4.3987503E+00  3.2755825E+01
 4.4102502E+00  3.2722744E+01
 4.4217501E+00  3.2535053E+01
 4.4332504E+00  3.2610966E+01
 4.4447503E+00  3.2551292E+01
 4.4562502E+00  3.2575420E+01
 4.4677501E+00  3.2482803E+01
 4.4792504E+00  3.2589642E+01
 4.4907503E+00  3.2549633E+01
 4.5022502E+00  3.2843906E+01
 4.5137501E+00  3.2713844E+01
 4.5252504E+00  3.2828457E+01
 4.5367503E+00  3.2731564E+01
 4.5482502E+00  3.2590858E+01
 4.5597501E+00  3.2592350E+01
 4.5712504E+00  3.2445072E+01
 4.5827503E+00  3.2525883E+01
 4.5942502E+00  3.2638905E+01
 4.6057501E+00  3.2638626E+01
 4.6172504E+00  3.2671265E+01
 4.6287503E+00  3.2551182E+01
 4.6402502E+00  3.2540695E+01
 4.6517501E+00  3.2528736E+01
 4.6632504E+00  3.2590267E+01
 4.6747503E+00  3.2623375E+01
 4.6862502E+00  3.2852951E+01
 4.6977501E+00  3.2878002E+01
 4.7092505E+00  3.3004883E+01
 4.7207503E+00  3.3005367E+01
 4.7322502E+00  3.3005867E+01
 4.7437501E+00  3.2901287E+01
 4.7552505E+00  3.2682148E+01
 4.7667503E+00  3.2569122E+01
 4.7782502E+00  3.2445339E+01
 4.7897501E+00  3.2463749E+01
 4.8012505E+00  3.2319778E+01
 4.8127503E+00  3.2324390E+01
 4.8242502E+00  3.2247566E+01
 4.8357501E+00  3.2361614E+01
 4.8472505E+00  3.2468746E+01
 4.8587503E+00  3.2683605E+01
 4.8702502E+00  3.2828869E+01
 4.8817501E+00  3.3014439E+01
 4.8932505E+00  3.3094627E+01
 4.9047503E+00  3.3103493E+01
 4.9162502E+00  3.3048195E+01
 4.9277501E+00  3.2945217E+01
 4.9392505E+00  3.3015095E+01
 4.9507504E+00  3.2977856E+01
 4.9622502E+00  3.2877079E+01
 4.9737501E+00  3.2854950E+01
 4.9852505E+00  3.2855591E+01
 4.9967504E+00  3.2995911E+01
 5.0082502E+00  3.3111610E+01
 5.0197501E+00  3.3103291E+01
 5.0312505E+00  3.3246296E+01
 5.0427504E+00  3.3252247E+01
 5.0542502E+00  3.3368336E+01
 5.0657501E+00  3.3422421E+01
 5.0772505E+00  3.3406841E+01
 5.0887504E+00  3.3411247E+01
 5.1002502E+00  3.3503189E+01
 5.1117501E+00  3.3463032E+01
 5.1232505E+00  3.3531776E+01
 5.1347504E+00  3.3556274E+01
 5.1462502E+00  3.3651890E+01
 5.1577501E+00  3.3862896E+01
 5.1692505E+00  3.3999367E+01
 5.1807504E+00  3.4161537E+01
 5.1922503E+00  3.4194580E+01
 5.2037501E+00  3.4126080E+01
 5.2152505E+00  3.4038410E+01
 5.2267504E+00  3.3961445E+01
 5.2382503E+00  3.3995514E+01
 5.2497501E+00  3.3970810E+01
 5.2612505E+00  3.4039604E+01
 5.2727504E+00  3.3966286E+01
 5.2842503E+00  3.4136707E+01
 5.2957501E+00  3.4207310E+01
 5.3072500E+00  3.4298309E+01
 5.3187504E+00  3.4371777E+01
 5.3302503E+00  3.4431499E+01
 5.3417501E+00  3.4491463E+01
 5.3532500E+00  3.4569363E+01
 5.3647504E+00  3.4579994E+01
 5.3762503E+00  3.4640850E+01
 5.3877501E+00  3.4655483E+01
 5.3992500E+00  3.4490505E+01
 5.4107504E+00  3.4508492E+01
 5.4222503E+00  3.4431797E+01
 5.4337502E+00  3.4509052E+01
 5.4452500E+00  3.4556526E+01
 5.4567504E+00  3.4458218E+01
 5.4682503E+00  3.4489616E+01
 5.4797502E+00  3.4504608E+01
 5.4912500E+00  3.4449455E+01
 5.5027504E+00  3.4397057E+01
 5.5142503E+00  3.4427513E+01
 5.5257502E+00  3.4525642E+01
 5.5372500E+00  3.4653275E+01
 5.5487504E+00  3.4508469E+01
 5.5602503E+00  3.4460457E+01
 5.5717502E+00  3.4481922E+01
 5.5832500E+00  3.4536152E+01
 5.5947504E+00  3.4611038E+01
 5.6062503E+00  3.4700066E+01
 5.6177502E+00  3.4730274E+01
 5.6292500E+00  3.4802750E+01
 5.6407504E+00  3.4758305E+01
 5.6522503E+00  3.4859131E+01
 5.6637502E+00  3.5016258E+01
 5.6752501E+00  3.5106323E+01
 5.6867504E+00  3.5172215E+01
 5.6982503E+00  3.5207500E+01
 5.7097502E+00  3.5245102E+01
 5.7212501E+00  3.5275051E+01
 5.7327504E+00  3.5271523E+01
 5.7442503E+00  3.5321926E+01
 5.7557502E+00  3.5319366E+01
 5.7672501E+00  3.5274319E+01
 5.7787504E+00  3.5261780E+01
 5.7902503E+00  3.5271618E+01
 5.8017502E+00  3.5289612E+01
 5.8132501E+00  3.5299397E+01
 5.8247504E+00  3.5326096E+01
 5.8362503E+00  3.5400734E+01
 5.8477502E+00  3.5445480E+01
 5.8592501E+00  3.5441959E+01
 5.8707504E+00  3.5523014E+01
 5.8822503E+00  3.5703262E+01
 5.8937502E+00  3.5842194E+01
 5.9052501E+00  3.5997860E+01
 5.9167504E+00  3.5929928E+01
 5.9282503E+00  3.6031670E+01
 5.9397502E+00  3.6181137E+01
 5.9512501E+00  3.6471195E+01
 5.9627504E+00  3.6928680E+01
 5.9742503E+00  3.7017868E+01
 5.9857502E+00  3.7152973E+01
 5.9972501E+00  3.6854912E+01
 6.0087504E+00  3.6786175E+01
 6.0202503E+00  3.6556335E+01
 6.0317502E+00  3.6579098E+01
 6.0432501E+00  3.6494434E+01
 6.0547504E+00  3.6420147E+01
 6.0662503E+00  3.6316299E+01
 6.0777502E+00  3.6370529E+01
 6.0892501E+00  3.6448792E+01
 6.1007504E+00  3.6569054E+01
 6.1122503E+00  3.6556297E+01
 6.1237502E+00  3.6595264E+01
 6.1352501E+00  3.6493652E+01
 6.1467505E+00  3.6391850E+01
 6.1582503E+00  3.6353760E+01
 6.1697502E+00  3.6360191E+01
 6.1812501E+00  3.6492249E+01
 6.1927505E+00  3.6483658E+01
 6.2042503E+00  3.6582527E+01
 6.2157502E+00  3.6725838E+01
 6.2272501E+00  3.6924667E+01
 6.2387505E+00  3.7084927E+01
 6.2502503E+00  3.7253521E+01
 6.2617502E+00  3.7405281E+01
 6.2732501E+00  3.7643257E+01
 6.2847505E+00  3.7832039E+01
 6.2962503E+00  3.7935207E+01
 6.3077502E+00  3.7963345E+01
 6.3192501E+00  3.7982525E+01
 6.3307505E+00  3.8036976E+01
 6.3422503E+00  3.8106224E+01
 6.3537502E+00  3.8144379E+01
 6.3652501E+00  3.8262840E+01
 6.3767505E+00  3.8339355E+01
 6.3882504E+00  3.8469242E+01
 6.3997502E+00  3.8563419E+01
 6.4112501E+00  3.8642544E+01
 6.4227505E+00  3.8708908E+01
 6.4342504E+00  3.8730480E+01
 6.4457502E+00  3.8790756E+01
 6.4572501E+00  3.8750858E+01
 6.4687505E+00  3.8770191E+01
 6.4802504E+00  3.8812496E+01
 6.4917502E+00  3.9045147E+01
 6.5032501E+00  3.9109692E+01
 6.5147505E+00  3.9305466E+01
 6.5262504E+00  3.9236069E+01
 6.5377502E+00  3.9387337E+01
 6.5492501E+00  3.9384098E+01
 6.5607505E+00  3.9517349E+01
 6.5722504E+00  3.9606274E+01
 6.5837502E+00  3.9700443E+01
 6.5952501E+00  3.9711906E+01
 6.6067505E+00  3.9712883E+01
 6.6182504E+00  3.9781265E+01
 6.6297503E+00  3.9938354E+01
 6.6412501E+00  4.0101143E+01
 6.6527505E+00  4.0265976E+01
 6.6642504E+00  4.0390808E+01
 6.6757503E+00  4.0393379E+01
 6.6872501E+00  4.0306461E+01
 6.6987505E+00  4.0200016E+01
 6.7102504E+00  4.0216354E+01
 6.7217503E+00  4.0264668E+01
 6.7332501E+00  4.0396130E+01
 6.7447505E+00  4.0588314E+01
 6.7562504E+00  4.0853024E+01
 6.7677503E+00  4.1089363E+01
 6.7792501E+00  4.1199112E+01
 6.7907505E+00  4.1294167E+01
 6.8022504E+00  4.1295525E+01
 6.8137503E+00  4.1345463E+01
 6.8252501E+00  4.1423626E+01
 6.8367505E+00  4.1505745E+01
 6.8482504E+00  4.1687160E+01
 6.8597503E+00  4.1864849E+01
 6.8712502E+00  4.1898251E+01
 6.8827505E+00  4.2018818E+01
 6.8942504E+00  4.1978008E+01
 6.9057503E+00  4.2129204E+01
 6.9172502E+00  4.2179089E+01
 6.9287505E+00  4.2201702E+01
 6.9402504E+00  4.2249130E+01
 6.9517503E+00  4.2245609E+01
 6.9632502E+00  4.2282845E+01
 6.9747505E+00  4.2302639E+01
 6.9862504E+00  4.2271885E+01
 6.9977503E+00  4.2356083E+01
 7.0092502E+00  4.2458385E+01
 7.0207505E+00  4.2584270E+01
 7.0322504E+00  4.2767212E+01
 7.0437503E+00  4.3092087E+01
 7.0552502E+00  4.3121273E+01
 7.0667505E+00  4.3091766E+01
 7.0782504E+00  4.3180763E+01
 7.0897503E+00  4.3275192E+01
 7.1012502E+00  4.3300873E+01
 7.1127505E+00  4.3048267E+01
 7.1242504E+00  4.3053112E+01
 7.1357503E+00  4.3228210E+01
 7.1472502E+00  4.3311543E+01
 7.1587505E+00  4.3465057E+01
 7.1702504E+00  4.3562267E+01
 7.1817503E+00  4.3605885E+01
 7.1932502E+00  4.3698059E+01
 7.2047505E+00  4.3685631E+01
 7.2162504E+00  4.3865982E+01
 7.2277503E+00  4.3898930E+01
 7.2392502E+00  4.3878159E+01
 7.2507505E+00  4.3882660E+01
 7.2622504E+00  4.3815872E+01
 7.2737503E+00  4.3815353E+01
 7.2852502E+00  4.3678314E+01
 7.2967505E+00  4.3528584E+01
 7.3082504E+00  4.3568291E+01
 7.3197503E+00  4.3542545E+01
 7.3312502E+00  4.3637711E+01
 7.3427505E+00  4.3780300E+01
 7.3542504E+00  4.3897858E+01
 7.3657503E+00  4.3968006E+01
 7.3772502E+00  4.3996445E+01
 7.3887506E+00  4.4010712E+01
 7.4002504E+00  4.4106823E+01
 7.4117503E+00  4.4063869E+01
 7.4232502E+00  4.4095921E+01
 7.4347506E+00  4.4101665E+01
 7.4462504E+00  4.4165443E+01
 7.4577503E+00  4.4223362E+01
 7.4692502E+00  4.4284782E+01
 7.4807506E+00  4.4318150E+01
 7.4922504E+00  4.4361485E+01
 7.5037503E+00  4.4330105E+01
 7.5152502E+00  4.4372433E+01
 7.5267506E+00  4.4349052E+01
 7.5382504E+00  4.4362125E+01
 7.5497503E+00  4.4311562E+01
 7.5612502E+00  4.4322964E+01
 7.5727506E+00  4.4366482E+01
 7.5842505E+00  4.4407970E+01
 7.5957503E+00  4.4454659E+01
 7.6072502E+00  4.4537861E+01
 7.6187506E+00  4.4599880E+01
 7.6302505E+00  4.4559551E+01
 7.6417503E+00  4.4575825E+01
 7.6532502E+00  4.4563808E+01
 7.6647506E+00  4.4490067E+01
 7.6762505E+00  4.4424473E+01
 7.6877503E+00  4.4326981E+01
 7.6992502E+00  4.4259380E+01
 7.7107506E+00  4.4169128E+01
 7.7222505E+00  4.4046928E+01
 7.7337503E+00  4.4103287E+01
 7.7452502E+00  4.4105145E+01
 7.7567506E+00  4.4147320E+01
 7.7682505E+00  4.4190426E+01
 7.7797503E+00  4.4172714E+01
 7.7912502E+00  4.4248631E+01
 7.8027506E+00  4.4285160E+01
 7.8142505E+00  4.4442848E+01
 7.8257504E+00  4.4542763E+01
 7.8372502E+00  4.4531101E+01
 7.8487506E+00  4.4418335E+01
 7.8602505E+00  4.4321091E+01
 7.8717504E+00  4.4164047E+01
 7.8832502E+00  4.4204018E+01
 7.8947506E+00  4.4286568E+01
 7.9062505E+00  4.4404659E+01
 7.9177504E+00  4.4565605E+01
 7.9292502E+00  4.4670662E+01
 7.9407506E+00  4.4730900E+01
 7.9522505E+00  4.4545467E+01
 7.9637504E+00  4.4276024E+01
 7.9752502E+00  4.4203995E+01
 7.9867506E+00  4.4156101E+01
 7.9982505E+00  4.4027821E+01
 8.0097504E+00  4.3692589E+01
 8.0212507E+00  4.3510921E+01
 8.0327501E+00  4.3416821E+01
 8.0442505E+00  4.3502850E+01
 8.0557508E+00  4.3417145E+01
 8.0672503E+00  4.3332783E+01
 8.0787506E+00  4.3188053E+01
 8.0902500E+00  4.3215248E+01
 8.1017504E+00  4.3200817E+01
 8.1132507E+00  4.3204613E+01
 8.1247501E+00  4.3049782E+01
 8.1362505E+00  4.2876488E+01
 8.1477509E+00  4.2743252E+01
 8.1592503E+00  4.2585632E+01
 8.1707506E+00  4.2468933E+01
 8.1822500E+00  4.2323860E+01
 8.1937504E+00  4.2181225E+01
 8.2052507E+00  4.2049892E+01
 8.2167501E+00  4.1877228E+01
 8.2282505E+00  4.1740704E+01
 8.2397509E+00  4.1574440E+01
 8.2512503E+00  4.1511269E+01
 8.2627506E+00  4.1360283E+01
 8.2742500E+00  4.1226608E+01
 8.2857504E+00  4.0981163E+01
 8.2972507E+00  4.0797707E+01
 8.3087502E+00  4.0633041E+01
 8.3202505E+00  4.0465691E+01
 8.3317509E+00  4.0224918E+01
 8.3432503E+00  4.0101330E+01
 8.3547506E+00  3.9995975E+01
 8.3662500E+00  3.9993504E+01
 8.3777504E+00  3.9897465E+01
 8.3892508E+00  3.9707638E+01
 8.4007502E+00  3.9603664E+01
 8.4122505E+00  3.9472408E+01
 8.4237509E+00  3.9334503E+01
 8.4352503E+00  3.9198509E+01
 8.4467506E+00  3.9061367E+01
 8.4582500E+00  3.8896534E+01
 8.4697504E+00  3.8714718E+01
 8.4812508E+00  3.8495026E+01
 8.4927502E+00  3.8398300E+01
 8.5042505E+00  3.8223892E+01
 8.5157509E+00  3.8067261E+01
 8.5272503E+00  3.7876774E+01
 8.5387506E+00  3.7683475E+01
 8.5502501E+00  3.7404537E+01
 8.5617504E+00  3.7190197E+01
 8.5732508E+00  3.6980637E+01
 8.5847502E+00  3.6824966E+01
 8.5962505E+00  3.6605663E+01
 8.6077509E+00  3.6408089E+01
 8.6192503E+00  3.6236725E+01
 8.6307507E+00  3.6053268E+01
 8.6422501E+00  3.5816959E+01
 8.6537504E+00  3.5560246E+01
 8.6652508E+00  3.5414528E+01
 8.6767502E+00  3.5257927E+01
 8.6882505E+00  3.5226608E+01
 8.6997509E+00  3.5138489E+01
 8.7112503E+00  3.5036915E+01
 8.7227507E+00  3.4919163E+01
 8.7342501E+00  3.4729618E+01
 8.7457504E+00  3.4565506E+01
 8.7572508E+00  3.4342941E+01
 8.7687502E+00  3.4114178E+01
 8.7802505E+00  3.3927795E+01
 8.7917500E+00  3.3743084E+01
 8.8032503E+00  3.3531933E+01
 8.8147507E+00  3.3350277E+01
 8.8262501E+00  3.3135151E+01
 8.8377504E+00  3.3076374E+01
 8.8492508E+00  3.2970425E+01
 8.8607502E+00  3.2830269E+01
 8.8722506E+00  3.2683327E+01
 8.8837500E+00  3.2355507E+01
 8.8952503E+00  3.2127995E+01
 8.9067507E+00  3.1918413E+01
 8.9182501E+00  3.1853136E+01
 8.9297504E+00  3.1745920E+01
 8.9412508E+00  3.1696918E+01
 8.9527502E+00  3.1614235E+01
 8.9642506E+00  3.1514179E+01
 8.9757500E+00  3.1304760E+01
 8.9872503E+00  3.1118853E+01
 8.9987507E+00  3.0954319E+01
 9.0102501E+00  3.0787458E+01
 9.0217505E+00  3.0620359E+01
 9.0332508E+00  3.0499792E+01
 9.0447502E+00  3.0339998E+01
 9.0562506E+00  3.0141783E+01
 9.0677500E+00  2.9939455E+01
 9.0792503E+00  2.9780912E+01
 9.0907507E+00  2.9610378E+01
 9.1022501E+00  2.9493973E+01
 9.1137505E+00  2.9398804E+01
 9.1252508E+00  2.9404018E+01
 9.1367502E+00  2.9345823E+01
 9.1482506E+00  2.9313234E+01
 9.1597500E+00  2.9194059E+01
 9.1712503E+00  2.9114950E+01
 9.1827507E+00  2.8966814E+01
 9.1942501E+00  2.8854740E+01
 9.2057505E+00  2.8703882E+01
 9.2172508E+00  2.8575748E+01
 9.2287502E+00  2.8342751E+01
 9.2402506E+00  2.8184439E+01
 9.2517500E+00  2.8005318E+01
 9.2632504E+00  2.7974245E+01
 9.2747507E+00  2.7932467E+01
 9.2862501E+00  2.7817207E+01
 9.2977505E+00  2.7748962E+01
 9.3092508E+00  2.7589056E+01
 9.3207502E+00  2.7524927E+01
 9.3322506E+00  2.7409370E+01
 9.3437500E+00  2.7353580E+01
 9.3552504E+00  2.7356674E+01
 9.3667507E+00  2.7332935E+01
 9.3782501E+00  2.7290545E+01
 9.3897505E+00  2.7243612E+01
 9.4012508E+00  2.7241880E+01
 9.4127502E+00  2.7219341E+01
 9.4242506E+00  2.7138391E+01
 9.4357500E+00  2.7033260E+01
 9.4472504E+00  2.6955912E+01
 9.4587507E+00  2.6860188E+01
 9.4702501E+00  2.6776016E+01
 9.4817505E+00  2.6732809E+01
 9.4932508E+00  2.6663401E+01
 9.5047503E+00  2.6617022E+01
 9.5162506E+00  2.6468967E+01
 9.5277500E+00  2.6323082E+01
 9.5392504E+00  2.6146008E+01
 9.5507507E+00  2.5991123E+01
 9.5622501E+00  2.5947895E+01
 9.5737505E+00  2.5853405E+01
 9.5852509E+00  2.5891024E+01
 9.5967503E+00  2.5866922E+01
 9.6082506E+00  2.5830774E+01
 9.6197500E+00  2.5753536E+01
 9.6312504E+00  2.5629066E+01
 9.6427507E+00  2.5592720E+01
 9.6542501E+00  2.5559483E+01
 9.6657505E+00  2.5558157E+01
 9.6772509E+00  2.5554018E+01
 9.6887503E+00  2.5468407E+01
 9.7002506E+00  2.5410831E+01
 9.7117500E+00  2.5382578E+01
 9.7232504E+00  2.5320719E+01
 9.7347507E+00  2.5261988E+01
 9.7462502E+00  2.5133226E+01
 9.7577505E+00  2.5108376E+01
 9.7692509E+00  2.5097939E+01
 9.7807503E+00  2.5094118E+01
 9.7922506E+00  2.5070879E+01
 9.8037500E+00  2.5042410E+01
 9.8152504E+00  2.4933506E+01
 9.8267508E+00  2.4869478E+01
 9.8382502E+00  2.4814255E+01
 9.8497505E+00  2.4801643E+01
 9.8612509E+00  2.4724993E+01
 9.8727503E+00  2.4621656E+01
 9.8842506E+00  2.4555248E+01
 9.8957500E+00  2.4533886E+01
 9.9072504E+00  2.4515255E+01
 9.9187508E+00  2.4496567E+01
 9.9302502E+00  2.4388401E+01
 9.9417505E+00  2.4377577E+01
 9.9532509E+00  2.4319283E+01
 9.9647503E+00  2.4356377E+01
 9.9762506E+00  2.4273556E+01
 9.9877501E+00  2.4268286E+01
 9.9992504E+00  2.4233944E+01
 1.0010751E+01  2.4244658E+01
 1.0022250E+01  2.4230978E+01
 1.0033751E+01  2.4206879E+01
 1.0045251E+01  2.4192537E+01
 1.0056750E+01  2.4124857E+01
 1.0068251E+01  2.4088306E+01
 1.0079750E+01  2.4046825E+01
 1.0091250E+01  2.4012192E+01
 1.0102751E+01  2.3952301E+01
 1.0114250E+01  2.3899250E+01
 1.0125751E+01  2.3882641E+01
 1.0137251E+01  2.3866865E+01
 1.0148750E+01  2.3885483E+01
 1.0160251E+01  2.3914257E+01
 1.0171750E+01  2.3920233E+01
 1.0183250E+01  2.3883604E+01
 1.0194751E+01  2.3819792E+01
 1.0206250E+01  2.3750612E+01
 1.0217751E+01  2.3742714E+01
 1.0229251E+01  2.3725325E+01
 1.0240750E+01  2.3738770E+01
 1.0252251E+01  2.3641880E+01
 1.0263750E+01  2.3587246E+01
 1.0275250E+01  2.3525026E+01
 1.0286751E+01  2.3561281E+01
 1.0298250E+01  2.3623739E+01
 1.0309751E+01  2.3635912E+01
 1.0321251E+01  2.3550596E+01
 1.0332750E+01  2.3478630E+01
 1.0344251E+01  2.3477556E+01
 1.0355750E+01  2.3472780E+01
 1.0367250E+01  2.3453968E+01
 1.0378751E+01  2.3433582E+01
 1.0390250E+01  2.3488340E+01
 1.0401751E+01  2.3491753E+01
 1.0413251E+01  2.3510651E+01
 1.0424750E+01  2.3466822E+01
 1.0436251E+01  2.3484379E+01
 1.0447750E+01  2.3441174E+01
 1.0459250E+01  2.3427794E+01
 1.0470751E+01  2.3310776E+01
 1.0482250E+01  2.3255718E+01
 1.0493751E+01  2.3192814E+01
 1.0505251E+01  2.3191101E+01
 1.0516750E+01  2.3163593E+01
 1.0528251E+01  2.3105528E+01
 1.0539750E+01  2.3065292E+01
 1.0551250E+01  2.3012802E+01
 1.0562751E+01  2.2972326E+01
 1.0574250E+01  2.2894991E+01
 1.0585751E+01  2.2872837E+01
 1.0597251E+01  2.2856482E+01
 1.0608750E+01  2.2835438E+01
 1.0620251E+01  2.2825239E+01
 1.0631750E+01  2.2885902E+01
 1.0643250E+01  2.2950100E+01
 1.0654751E+01  2.2993616E+01
 1.0666250E+01  2.2953165E+01
 1.0677751E+01  2.2980696E+01
 1.0689251E+01  2.2973763E+01
 1.0700750E+01  2.2998749E+01
 1.0712251E+01  2.2997835E+01
 1.0723750E+01  2.2950565E+01
 1.0735250E+01  2.2907726E+01
 1.0746751E+01  2.2835474E+01
 1.0758250E+01  2.2810467E+01
 1.0769751E+01  2.2758837E+01
 1.0781251E+01  2.2697813E+01
 1.0792750E+01  2.2588160E+01
 1.0804251E+01  2.2532564E+01
 1.0815750E+01  2.2478569E+01
 1.0827250E+01  2.2538998E+01
 1.0838751E+01  2.2526918E+01
 1.0850250E+01  2.2550652E+01
 1.0861751E+01  2.2533901E+01
 1.0873251E+01  2.2524458E+01
 1.0884750E+01  2.2544989E+01
 1.0896251E+01  2.2512083E+01
 1.0907750E+01  2.2574184E+01
 1.0919250E+01  2.2572470E+01
 1.0930751E+01  2.2591646E+01
 1.0942250E+01  2.2549004E+01
 1.0953751E+01  2.2540098E+01
 1.0965251E+01  2.2481846E+01
 1.0976750E+01  2.2486057E+01
 1.0988251E+01  2.2422930E+01
 1.0999750E+01  2.2449772E+01
 1.1011250E+01  2.2429306E+01
 1.1022751E+01  2.2428911E+01
 1.1034250E+01  2.2425701E+01
 1.1045751E+01  2.2380915E+01
 1.1057251E+01  2.2367430E+01
 1.1068750E+01  2.2369719E+01
 1.1080251E+01  2.2438831E+01
 1.1091750E+01  2.2506212E+01
 1.1103251E+01  2.2536636E+01
 1.1114751E+01  2.2541830E+01
 1.1126250E+01  2.2540939E+01
 1.1137751E+01  2.2505278E+01
 1.1149251E+01  2.2483576E+01
 1.1160750E+01  2.2443331E+01
 1.1172251E+01  2.2402872E+01
 1.1183750E+01  2.2291708E+01
 1.1195251E+01  2.2233484E+01
 1.1206751E+01  2.2190935E+01
 1.1218250E+01  2.2251017E+01
 1.1229751E+01  2.2220192E+01
 1.1241251E+01  2.2227133E+01
 1.1252750E+01  2.2164024E+01
 1.1264251E+01  2.2178608E+01
 1.1275750E+01  2.2162617E+01
 1.1287251E+01  2.2188988E+01
 1.1298751E+01  2.2223898E+01
 1.1310250E+01  2.2311390E+01
 1.1321751E+01  2.2365952E+01
 1.1333251E+01  2.2412077E+01
 1.1344750E+01  2.2418985E+01
 1.1356251E+01  2.2452539E+01
 1.1367750E+01  2.2506580E+01
 1.1379251E+01  2.2533735E+01
 1.1390751E+01  2.2563812E+01
 1.1402250E+01  2.2603443E+01
 1.1413751E+01  2.2570421E+01
 1.1425251E+01  2.2501514E+01
 1.1436750E+01  2.2416521E+01
 1.1448251E+01  2.2397095E+01
 1.1459750E+01  2.2332331E+01
 1.1471251E+01  2.2308853E+01
 1.1482751E+01  2.2265759E+01
 1.1494250E+01  2.2328585E+01
 1.1505751E+01  2.2285641E+01
 1.1517251E+01  2.2337980E+01
 1.1528750E+01  2.2387259E+01
 1.1540251E+01  2.2512209E+01
 1.1551750E+01  2.2623392E+01
 1.1563251E+01  2.2778027E+01
 1.1574751E+01  2.2880384E+01
 1.1586250E+01  2.2975378E+01
 1.1597751E+01  2.2879068E+01
 1.1609251E+01  2.2823771E+01
 1.1620750E+01  2.2678926E+01
 1.1632251E+01  2.2611221E+01
 1.1643750E+01  2.2446251E+01
 1.1655251E+01  2.2399767E+01
 1.1666751E+01  2.2357513E+01
 1.1678250E+01  2.2403461E+01
 1.1689751E+01  2.2366924E+01
 1.1701251E+01  2.2358828E+01
 1.1712750E+01  2.2355543E+01
 1.1724251E+01  2.2319462E+01
 1.1735750E+01  2.2327610E+01
 1.1747251E+01  2.2285782E+01
 1.1758751E+01  2.2251434E+01
 1.1770250E+01  2.2168049E+01
 1.1781751E+01  2.2175268E+01
 1.1793251E+01  2.2181072E+01
 1.1804750E+01  2.2253233E+01
 1.1816251E+01  2.2219973E+01
 1.1827750E+01  2.2215872E+01
 1.1839251E+01  2.2154596E+01
 1.1850751E+01  2.2071098E+01
 1.1862250E+01  2.2041574E+01
 1.1873751E+01  2.1992575E+01
 1.1885251E+01  2.2033392E+01
 1.1896750E+01  2.2035042E+01
 1.1908251E+01  2.2024336E+01
 1.1919750E+01  2.2047731E+01
 1.1931251E+01  2.2088427E+01
 1.1942751E+01  2.2156656E+01
 1.1954250E+01  2.2189163E+01
 1.1965751E+01  2.2199293E+01
 1.1977251E+01  2.2227242E+01
 1.1988750E+01  2.2249584E+01
 1.2000251E+01  2.2247032E+01
 1.2011750E+01  2.2262182E+01
 1.2023251E+01  2.2274426E+01
 1.2034751E+01  2.2307364E+01
 1.2046250E+01  2.2357805E+01
 1.2057751E+01  2.2360426E+01
 1.2069251E+01  2.2480253E+01
 1.2080750E+01  2.2565668E+01
 1.2092251E+01  2.2541500E+01
 1.2103750E+01  2.2577993E+01
 1.2115251E+01  2.2448944E+01
 1.2126751E+01  2.2457415E+01
 1.2138250E+01  2.2406507E+01
 1.2149751E+01  2.2355368E+01
 1.2161251E+01  2.2326778E+01
 1.2172750E+01  2.2189089E+01
 1.2184251E+01  2.2183706E+01
 1.2195750E+01  2.2221031E+01
 1.2207251E+01  2.2235043E+01
 1.2218751E+01  2.2256615E+01
 1.2230250E+01  2.2251537E+01
 1.2241751E+01  2.2245918E+01
 1.2253251E+01  2.2234177E+01
 1.2264750E+01  2.2181387E+01
 1.2276251E+01  2.2135891E+01
 1.2287750E+01  2.2165781E+01
 1.2299251E+01  2.2183769E+01
 1.2310751E+01  2.2248852E+01
 1.2322250E+01  2.2222523E+01
 1.2333751E+01  2.2290125E+01
 1.2345250E+01  2.2298105E+01
 1.2356750E+01  2.2351250E+01
 1.2368251E+01  2.2325211E+01
 1.2379750E+01  2.2338467E+01
 1.2391251E+01  2.2361954E+01
 1.2402751E+01  2.2383213E+01
 1.2414250E+01  2.2412115E+01
 1.2425751E+01  2.2379278E+01
 1.2437250E+01  2.2403284E+01
 1.2448750E+01  2.2381298E+01
 1.2460251E+01  2.2439806E+01
 1.2471750E+01  2.2429232E+01
 1.2483251E+01  2.2449774E+01
 1.2494751E+01  2.2425100E+01
 1.2506250E+01  2.2373163E+01
 1.2517751E+01  2.2322933E+01
 1.2529250E+01  2.2306704E+01
 1.2540751E+01  2.2398731E+01
 1.2552251E+01  2.2481386E+01
 1.2563750E+01  2.2524343E+01
 1.2575251E+01  2.2526270E+01
 1.2586751E+01  2.2539833E+01
 1.2598250E+01  2.2551395E+01
 1.2609751E+01  2.2580570E+01
 1.2621250E+01  2.2622950E+01
 1.2632751E+01  2.2661575E+01
 1.2644251E+01  2.2647333E+01
 1.2655750E+01  2.2729708E+01
 1.2667251E+01  2.2717167E+01
 1.2678751E+01  2.2839638E+01
 1.2690250E+01  2.2969145E+01
 1.2701751E+01  2.3021166E+01
 1.2713250E+01  2.2979914E+01
 1.2724751E+01  2.2844479E+01
 1.2736251E+01  2.2883871E+01
 1.2747750E+01  2.2931610E+01
 1.2759251E+01  2.2916256E+01
 1.2770751E+01  2.2964363E+01
 1.2782250E+01  2.2959305E+01
 1.2793751E+01  2.2975616E+01
 1.2805250E+01  2.3077993E+01
 1.2816751E+01  2.3133228E+01
 1.2828251E+01  2.3217247E+01
 1.2839750E+01  2.3181616E+01
 1.2851251E+01  2.3231232E+01
 1.2862751E+01  2.3229778E+01
 1.2874250E+01  2.3263224E+01
 1.2885751E+01  2.3268877E+01
 1.2897250E+01  2.3314249E+01
 1.2908751E+01  2.3359251E+01
 1.2920251E+01  2.3406651E+01
 1.2931750E+01  2.3533796E+01
 1.2943251E+01  2.3567095E+01
 1.2954751E+01  2.3630705E+01
 1.2966250E+01  2.3705053E+01
 1.2977751E+01  2.3825073E+01
 1.2989250E+01  2.3914938E+01
 1.3000751E+01  2.3964941E+01
 1.3012251E+01  2.4001562E+01
 1.3023750E+01  2.4027536E+01
 1.3035251E+01  2.4074440E+01
 1.3046751E+01  2.4126148E+01
 1.3058250E+01  2.4199928E+01
 1.3069751E+01  2.4250845E+01
 1.3081250E+01  2.4305155E+01
 1.3092751E+01  2.4428375E+01
 1.3104251E+01  2.4563255E+01
 1.3115750E+01  2.4664473E+01
 1.3127251E+01  2.4753307E+01
 1.3138751E+01  2.4824888E+01
 1.3150250E+01  2.4971769E+01
 1.3161751E+01  2.5049501E+01
 1.3173250E+01  2.5197081E+01
 1.3184751E+01  2.5296980E+01
 1.3196251E+01  2.5465364E+01
 1.3207750E+01  2.5587355E+01
 1.3219251E+01  2.5757223E+01
 1.3230751E+01  2.5966545E+01
 1.3242250E+01  2.6201117E+01
 1.3253751E+01  2.6322540E+01
 1.3265250E+01  2.6386492E+01
 1.3276751E+01  2.6440477E+01
 1.3288251E+01  2.6645269E+01
 1.3299750E+01  2.6843542E+01
 1.3311251E+01  2.6976601E+01
 1.3322751E+01  2.7023878E+01
 1.3334250E+01  2.7133905E+01
 1.3345751E+01  2.7287386E+01
 1.3357250E+01  2.7445066E+01
 1.3368751E+01  2.7618889E+01
 1.3380251E+01  2.7775454E+01
 1.3391750E+01  2.7983055E+01
 1.3403251E+01  2.8071314E+01
 1.3414751E+01  2.8188303E+01
 1.3426250E+01  2.8259489E+01
 1.3437751E+01  2.8368153E+01
 1.3449250E+01  2.8477966E+01
 1.3460751E+01  2.8632225E+01
 1.3472251E+01  2.8785847E+01
 1.3483750E+01  2.8948986E+01
 1.3495251E+01  2.9068306E+01
 1.3506751E+01  2.9172113E+01
 1.3518250E+01  2.9224457E+01
 1.3529751E+01  2.9269936E+01
 1.3541250E+01  2.9285830E+01
 1.3552751E+01  2.9293688E+01
 1.3564251E+01  2.9315031E+01
 1.3575750E+01  2.9323254E+01
 1.3587251E+01  2.9359222E+01
 1.3598751E+01  2.9341473E+01
 1.3610250E+01  2.9364405E+01
 1.3621751E+01  2.9357109E+01
 1.3633250E+01  2.9420368E+01
 1.3644751E+01  2.9399014E+01
 1.3656251E+01  2.9390871E+01
 1.3667750E+01  2.9354300E+01
 1.3679251E+01  2.9382555E+01
 1.3690751E+01  2.9374157E+01
 1.3702250E+01  2.9296175E+01
 1.3713751E+01  2.9210941E+01
 1.3725250E+01  2.9155346E+01
 1.3736751E+01  2.9161741E+01
 1.3748251E+01  2.9143114E+01
 1.3759750E+01  2.9153267E+01
 1.3771251E+01  2.9154898E+01
 1.3782751E+01  2.9108425E+01
 1.3794250E+01  2.8999929E+01
 1.3805751E+01  2.8854292E+01
 1.3817250E+01  2.8701614E+01
 1.3828751E+01  2.8639072E+01
 1.3840251E+01  2.8528656E+01
 1.3851750E+01  2.8516142E+01
 1.3863251E+01  2.8423340E+01
 1.3874751E+01  2.8370234E+01
 1.3886250E+01  2.8337772E+01
 1.3897751E+01  2.8350252E+01
 1.3909250E+01  2.8460009E+01
 1.3920751E+01  2.8587086E+01
 1.3932251E+01  2.8680256E+01
 1.3943750E+01  2.8764360E+01
 1.3955251E+01  2.8740583E+01
 1.3966751E+01  2.8621937E+01
 1.3978251E+01  2.8365395E+01
 1.3989751E+01  2.8052021E+01
 1.4001250E+01  2.7786848E+01
 1.4012751E+01  2.7538675E+01
 1.4024251E+01  2.7316870E+01
 1.4035750E+01  2.7182320E+01
 1.4047251E+01  2.7147551E+01
 1.4058751E+01  2.7223177E+01
 1.4070251E+01  2.7327168E+01
 1.4081751E+01  2.7346516E+01
 1.4093250E+01  2.7313070E+01
 1.4104751E+01  2.7175083E+01
 1.4116251E+01  2.7103212E+01
 1.4127750E+01  2.6962246E+01
 1.4139251E+01  2.6873081E+01
 1.4150751E+01  2.6710609E+01
 1.4162251E+01  2.6674671E+01
 1.4173751E+01  2.6615328E+01
 1.4185250E+01  2.6604134E+01
 1.4196751E+01  2.6540831E+01
 1.4208251E+01  2.6468105E+01
 1.4219750E+01  2.6397038E+01
 1.4231251E+01  2.6312244E+01
 1.4242751E+01  2.6250927E+01
 1.4254251E+01  2.6225697E+01
 1.4265751E+01  2.6173834E+01
 1.4277250E+01  2.6096766E+01
 1.4288751E+01  2.6030542E+01
 1.4300251E+01  2.5970833E+01
 1.4311750E+01  2.5955225E+01
 1.4323251E+01  2.5906771E+01
 1.4334751E+01  2.5919064E+01
 1.4346251E+01  2.5960527E+01
 1.4357751E+01  2.5987785E+01
 1.4369250E+01  2.5979115E+01
 1.4380751E+01  2.5911314E+01
 1.4392251E+01  2.5878023E+01
 1.4403750E+01  2.5844736E+01
 1.4415251E+01  2.5883076E+01
 1.4426751E+01  2.5854597E+01
 1.4438251E+01  2.5835188E+01
 1.4449751E+01  2.5739992E+01
 1.4461250E+01  2.5657171E+01
 1.4472751E+01  2.5569139E+01
 1.4484251E+01  2.5525330E+01
 1.4495750E+01  2.5498329E+01
 1.4507251E+01  2.5460537E+01
 1.4518751E+01  2.5382650E+01
 1.4530251E+01  2.5367170E+01
 1.4541751E+01  2.5339773E+01
 1.4553250E+01  2.5343052E+01
 1.4564751E+01  2.5332834E+01
 1.4576251E+01  2.5282187E+01
 1.4587750E+01  2.5237221E+01
 1.4599251E+01  2.5167793E+01
 1.4610751E+01  2.5183210E+01
 1.4622251E+01  2.5169008E+01
 1.4633751E+01  2.5157583E+01
 1.4645250E+01  2.5145317E+01
 1.4656751E+01  2.5106310E+01
 1.4668251E+01  2.5088491E+01
 1.4679750E+01  2.5051144E+01
 1.4691251E+01  2.5106407E+01
 1.4702751E+01  2.5087196E+01
 1.4714251E+01  2.5078787E+01
 1.4725751E+01  2.5029037E+01
 1.4737250E+01  2.5042225E+01
 1.4748751E+01  2.5036621E+01
 1.4760251E+01  2.5011648E+01
 1.4771750E+01  2.5015617E+01
 1.4783251E+01  2.4937464E+01
 1.4794751E+01  2.4885157E+01
 1.4806251E+01  2.4795101E+01
 1.4817751E+01  2.4734482E+01
 1.4829250E+01  2.4665615E+01
 1.4840751E+01  2.4696293E+01
 1.4852251E+01  2.4749664E+01
 1.4863750E+01  2.4774040E+01
 1.4875251E+01  2.4718231E+01
 1.4886751E+01  2.4692526E+01
 1.4898251E+01  2.4702255E+01
 1.4909751E+01  2.4779079E+01
 1.4921250E+01  2.4866796E+01
 1.4932751E+01  2.4905615E+01
 1.4944251E+01  2.4888643E+01
 1.4955750E+01  2.4845289E+01
 1.4967251E+01  2.4808273E+01
 1.4978751E+01  2.4817751E+01
 1.4990251E+01  2.4813110E+01
 1.5001751E+01  2.4834404E+01
 1.5013250E+01  2.4838879E+01
 1.5024751E+01  2.4841412E+01
 1.5036251E+01  2.4721235E+01
 1.5047750E+01  2.4622780E+01
 1.5059251E+01  2.4591347E+01
 1.5070751E+01  2.4648739E+01
 1.5082251E+01  2.4626535E+01
 1.5093751E+01  2.4613743E+01
 1.5105250E+01  2.4620636E+01
 1.5116751E+01  2.4636721E+01
 1.5128251E+01  2.4601997E+01
 1.5139750E+01  2.4575214E+01
 1.5151251E+01  2.4607162E+01
 1.5162751E+01  2.4660467E+01
 1.5174251E+01  2.4705688E+01
 1.5185751E+01  2.4727291E+01
 1.5197250E+01  2.4706654E+01
 1.5208751E+01  2.4727343E+01
 1.5220251E+01  2.4716272E+01
 1.5231750E+01  2.4716599E+01
 1.5243251E+01  2.4633188E+01
 1.5254751E+01  2.4604046E+01
 1.5266251E+01  2.4495918E+01
 1.5277751E+01  2.4454451E+01
 1.5289250E+01  2.4410049E+01
 1.5300751E+01  2.4395073E+01
 1.5312251E+01  2.4381586E+01
 1.5323750E+01  2.4304279E+01
 1.5335251E+01  2.4290169E+01
 1.5346751E+01  2.4256214E+01
 1.5358251E+01  2.4306702E+01
 1.5369751E+01  2.4328691E+01
 1.5381250E+01  2.4340281E+01
 1.5392751E+01  2.4326914E+01
 1.5404251E+01  2.4359537E+01
 1.5415751E+01  2.4390211E+01
 1.5427251E+01  2.4401693E+01
 1.5438751E+01  2.4387682E+01
 1.5450251E+01  2.4380177E+01
 1.5461751E+01  2.4351227E+01
 1.5473250E+01  2.4365314E+01
 1.5484751E+01  2.4395155E+01
 1.5496251E+01  2.4409220E+01
 1.5507751E+01  2.4396088E+01
 1.5519251E+01  2.4394392E+01
 1.5530751E+01  2.4373137E+01
 1.5542251E+01  2.4245333E+01
 1.5553751E+01  2.4264154E+01
 1.5565250E+01  2.4305096E+01
 1.5576751E+01  2.4411753E+01
 1.5588251E+01  2.4397047E+01
 1.5599751E+01  2.4449743E+01
 1.5611251E+01  2.4440954E+01
 1.5622751E+01  2.4430651E+01
 1.5634251E+01  2.4390530E+01
 1.5645751E+01  2.4409111E+01
 1.5657250E+01  2.4411390E+01
 1.5668751E+01  2.4426783E+01
 1.5680251E+01  2.4472094E+01
 1.5691751E+01  2.4517275E+01
 1.5703251E+01  2.4567940E+01
 1.5714751E+01  2.4566296E+01
 1.5726251E+01  2.4582167E+01
 1.5737751E+01  2.4503017E+01
 1.5749250E+01  2.4499126E+01
 1.5760751E+01  2.4434668E+01
 1.5772251E+01  2.4464575E+01
 1.5783751E+01  2.4417171E+01
 1.5795251E+01  2.4447475E+01
 1.5806751E+01  2.4471678E+01
 1.5818251E+01  2.4471678E+01
 1.5829751E+01  2.4463388E+01
 1.5841250E+01  2.4466080E+01
 1.5852751E+01  2.4484953E+01
 1.5864251E+01  2.4476515E+01
 1.5875751E+01  2.4474327E+01
 1.5887251E+01  2.4474165E+01
 1.5898750E+01  2.4485281E+01
 1.5910251E+01  2.4484068E+01
 1.5921751E+01  2.4507809E+01
 1.5933250E+01  2.4536638E+01
 1.5944751E+01  2.4523617E+01
 1.5956251E+01  2.4517992E+01
 1.5967751E+01  2.4559200E+01
 1.5979251E+01  2.4589577E+01
 1.5990750E+01  2.4633118E+01
 1.6002251E+01  2.4564081E+01
 1.6013750E+01  2.4566835E+01
 1.6025251E+01  2.4533669E+01
 1.6036751E+01  2.4596714E+01
 1.6048250E+01  2.4591671E+01
 1.6059752E+01  2.4636360E+01
 1.6071251E+01  2.4583755E+01
 1.6082750E+01  2.4530420E+01
 1.6094252E+01  2.4506105E+01
 1.6105751E+01  2.4578119E+01
 1.6117250E+01  2.4653137E+01
 1.6128750E+01  2.4651615E+01
 1.6140251E+01  2.4679092E+01
 1.6151751E+01  2.4654226E+01
 1.6163250E+01  2.4703873E+01
 1.6174751E+01  2.4637838E+01
 1.6186251E+01  2.4729166E+01
 1.6197750E+01  2.4660662E+01
 1.6209251E+01  2.4771317E+01
 1.6220751E+01  2.4719042E+01
 1.6232250E+01  2.4849493E+01
 1.6243752E+01  2.4855764E+01
 1.6255251E+01  2.4936144E+01
 1.6266750E+01  2.5071669E+01
 1.6278252E+01  2.5026487E+01
 1.6289751E+01  2.5157820E+01
 1.6301250E+01  2.4872587E+01
 1.6312750E+01  2.4966606E+01
 1.6324251E+01  2.4703344E+01
 1.6335751E+01  2.4703922E+01
 1.6347250E+01  2.4533930E+01
 1.6358751E+01  2.4495441E+01
 1.6370251E+01  2.4499912E+01
 1.6381750E+01  2.4515591E+01
 1.6393251E+01  2.4540565E+01
 1.6404751E+01  2.4472105E+01
 1.6416250E+01  2.4474800E+01
 1.6427752E+01  2.4440222E+01
 1.6439251E+01  2.4483089E+01
 1.6450750E+01  2.4487265E+01
 1.6462252E+01  2.4470678E+01
 1.6473751E+01  2.4406891E+01
 1.6485250E+01  2.4415924E+01
 1.6496750E+01  2.4485390E+01
 1.6508251E+01  2.4522346E+01
 1.6519751E+01  2.4527147E+01
 1.6531250E+01  2.4479916E+01
 1.6542751E+01  2.4525139E+01
 1.6554251E+01  2.4479845E+01
 1.6565750E+01  2.4458914E+01
 1.6577251E+01  2.4366619E+01
 1.6588751E+01  2.4339052E+01
 1.6600250E+01  2.4330107E+01
 1.6611752E+01  2.4330790E+01
 1.6623251E+01  2.4298948E+01
 1.6634750E+01  2.4253607E+01
 1.6646252E+01  2.4244375E+01
 1.6657751E+01  2.4248436E+01
 1.6669250E+01  2.4262854E+01
 1.6680750E+01  2.4257881E+01
 1.6692251E+01  2.4325739E+01
 1.6703751E+01  2.4349485E+01
 1.6715250E+01  2.4369926E+01
 1.6726751E+01  2.4331930E+01
 1.6738251E+01  2.4363991E+01
 1.6749750E+01  2.4346037E+01
 1.6761251E+01  2.4270704E+01
 1.6772751E+01  2.4240795E+01
 1.6784250E+01  2.4272987E+01
 1.6795752E+01  2.4304020E+01
 1.6807251E+01  2.4269754E+01
 1.6818750E+01  2.4233204E+01
 1.6830252E+01  2.4220978E+01
 1.6841751E+01  2.4245718E+01
 1.6853251E+01  2.4232943E+01
 1.6864750E+01  2.4217918E+01
 1.6876251E+01  2.4197643E+01
 1.6887751E+01  2.4183229E+01
 1.6899250E+01  2.4185503E+01
 1.6910751E+01  2.4191233E+01
 1.6922251E+01  2.4266077E+01
 1.6933750E+01  2.4272844E+01
 1.6945251E+01  2.4269669E+01
 1.6956751E+01  2.4231514E+01
 1.6968250E+01  2.4178926E+01
 1.6979752E+01  2.4180761E+01
 1.6991251E+01  2.4106974E+01
 1.7002750E+01  2.4081242E+01
 1.7014252E+01  2.4052473E+01
 1.7025751E+01  2.4070154E+01
 1.7037251E+01  2.4069769E+01
 1.7048750E+01  2.4023582E+01
 1.7060251E+01  2.3994896E+01
 1.7071751E+01  2.4041397E+01
 1.7083250E+01  2.4103493E+01
 1.7094751E+01  2.4190903E+01
 1.7106251E+01  2.4177540E+01
 1.7117750E+01  2.4156885E+01
 1.7129251E+01  2.4119619E+01
 1.7140751E+01  2.4081825E+01
 1.7152250E+01  2.4064274E+01
 1.7163752E+01  2.4028173E+01
 1.7175251E+01  2.4048201E+01
 1.7186750E+01  2.4024801E+01
 1.7198252E+01  2.3996212E+01
 1.7209751E+01  2.3974878E+01
 1.7221251E+01  2.3988066E+01
 1.7232750E+01  2.3992592E+01
 1.7244251E+01  2.3999680E+01
 1.7255751E+01  2.3956091E+01
 1.7267250E+01  2.3927399E+01
 1.7278751E+01  2.3877106E+01
 1.7290251E+01  2.3893728E+01
 1.7301750E+01  2.3931406E+01
 1.7313251E+01  2.3927671E+01
 1.7324751E+01  2.3914536E+01
 1.7336250E+01  2.3869560E+01
 1.7347752E+01  2.3857504E+01
 1.7359251E+01  2.3798676E+01
 1.7370750E+01  2.3789227E+01
 1.7382252E+01  2.3759710E+01
 1.7393751E+01  2.3770651E+01
 1.7405251E+01  2.3736509E+01
 1.7416750E+01  2.3747086E+01
 1.7428251E+01  2.3704414E+01
 1.7439751E+01  2.3678413E+01
 1.7451250E+01  2.3673401E+01
 1.7462751E+01  2.3706411E+01
 1.7474251E+01  2.3757572E+01
 1.7485750E+01  2.3778563E+01
 1.7497252E+01  2.3759342E+01
 1.7508751E+01  2.3722935E+01
 1.7520250E+01  2.3679974E+01
 1.7531752E+01  2.3675943E+01
 1.7543251E+01  2.3683722E+01
 1.7554750E+01  2.3660349E+01
 1.7566252E+01  2.3647055E+01
 1.7577751E+01  2.3626850E+01
 1.7589251E+01  2.3667822E+01
 1.7600750E+01  2.3703161E+01
 1.7612251E+01  2.3717672E+01
 1.7623751E+01  2.3713078E+01
 1.7635250E+01  2.3669979E+01
 1.7646751E+01  2.3652279E+01
 1.7658251E+01  2.3640747E+01
 1.7669750E+01  2.3659550E+01
 1.7681252E+01  2.3682516E+01
 1.7692751E+01  2.3661417E+01
 1.7704250E+01  2.3627569E+01
 1.7715752E+01  2.3581566E+01
 1.7727251E+01  2.3563942E+01
 1.7738750E+01  2.3546619E+01
 1.7750252E+01  2.3589180E+01
 1.7761751E+01  2.3627089E+01
 1.7773251E+01  2.3685589E+01
 1.7784750E+01  2.3714348E+01
 1.7796251E+01  2.3726358E+01
 1.7807751E+01  2.3678143E+01
 1.7819250E+01  2.3594004E+01
 1.7830751E+01  2.3549644E+01
 1.7842251E+01  2.3519304E+01
 1.7853750E+01  2.3540121E+01
 1.7865252E+01  2.3535915E+01
 1.7876751E+01  2.3561811E+01
 1.7888250E+01  2.3545132E+01
 1.7899752E+01  2.3573893E+01
 1.7911251E+01  2.3567272E+01
 1.7922750E+01  2.3546923E+01
 1.7934252E+01  2.3486080E+01
 1.7945751E+01  2.3418528E+01
 1.7957251E+01  2.3355618E+01
 1.7968750E+01  2.3291039E+01
 1.7980251E+01  2.3321251E+01
 1.7991751E+01  2.3341835E+01
 1.8003250E+01  2.3388718E+01
 1.8014751E+01  2.3406445E+01
 1.8026251E+01  2.3468195E+01
 1.8037750E+01  2.3490290E+01
 1.8049252E+01  2.3507343E+01
 1.8060751E+01  2.3526186E+01
 1.8072250E+01  2.3580500E+01
 1.8083752E+01  2.3652460E+01
 1.8095251E+01  2.3723352E+01
 1.8106750E+01  2.3734509E+01
 1.8118252E+01  2.3689417E+01
 1.8129751E+01  2.3617178E+01
 1.8141251E+01  2.3563393E+01
 1.8152750E+01  2.3536917E+01
 1.8164251E+01  2.3782248E+01
 1.8175751E+01  2.3948526E+01
 1.8187250E+01  2.4224644E+01
 1.8198751E+01  2.3950279E+01
 1.8210251E+01  2.3935617E+01
 1.8221750E+01  2.3714439E+01
 1.8233252E+01  2.3873348E+01
 1.8244751E+01  2.3737360E+01
 1.8256250E+01  2.3815630E+01
 1.8267752E+01  2.3550673E+01
 1.8279251E+01  2.3531282E+01
 1.8290751E+01  2.3411467E+01
 1.8302252E+01  2.3421139E+01
 1.8313751E+01  2.3374470E+01
 1.8325251E+01  2.3320982E+01
 1.8336750E+01  2.3328108E+01
 1.8348251E+01  2.3338600E+01
 1.8359751E+01  2.3367418E+01
 1.8371250E+01  2.3353863E+01
 1.8382751E+01  2.3352041E+01
 1.8394251E+01  2.3359858E+01
 1.8405750E+01  2.3374956E+01
 1.8417252E+01  2.3364096E+01
 1.8428751E+01  2.3375668E+01
 1.8440250E+01  2.3367296E+01
 1.8451752E+01  2.3400734E+01
 1.8463251E+01  2.3399750E+01
 1.8474751E+01  2.3450014E+01
 1.8486252E+01  2.3452829E+01
 1.8497751E+01  2.3462898E+01
 1.8509251E+01  2.3371346E+01
 1.8520750E+01  2.3316036E+01
 1.8532251E+01  2.3263651E+01
 1.8543751E+01  2.3273829E+01
 1.8555250E+01  2.3281187E+01
 1.8566751E+01  2.3468811E+01
 1.8578251E+01  2.3616802E+01
 1.8589750E+01  2.3723978E+01
 1.8601252E+01  2.3825569E+01
 1.8612751E+01  2.3800369E+01
 1.8624250E+01  2.3739840E+01
 1.8635752E+01  2.3680738E+01
 1.8647251E+01  2.3685963E+01
 1.8658751E+01  2.3639994E+01
 1.8670252E+01  2.3658537E+01
 1.8681751E+01  2.3746454E+01
 1.8693251E+01  2.3785257E+01
 1.8704750E+01  2.3640030E+01
 1.8716251E+01  2.3558306E+01
 1.8727751E+01  2.3409407E+01
 1.8739250E+01  2.3372580E+01
 1.8750751E+01  2.3359482E+01
 1.8762251E+01  2.3365807E+01
 1.8773750E+01  2.3352680E+01
 1.8785252E+01  2.3321367E+01
 1.8796751E+01  2.3295591E+01
 1.8808250E+01  2.3273766E+01
 1.8819752E+01  2.3281494E+01
 1.8831251E+01  2.3288548E+01
 1.8842751E+01  2.3309763E+01
 1.8854252E+01  2.3300026E+01
 1.8865751E+01  2.3282759E+01
 1.8877251E+01  2.3260241E+01
 1.8888750E+01  2.3245430E+01
 1.8900251E+01  2.3253099E+01
 1.8911751E+01  2.3272495E+01
 1.8923250E+01  2.3339466E+01
 1.8934752E+01  2.3375416E+01
 1.8946251E+01  2.3422417E+01
 1.8957750E+01  2.3382961E+01
 1.8969252E+01  2.3324831E+01
 1.8980751E+01  2.3278374E+01
 1.8992250E+01  2.3241982E+01
 1.9003752E+01  2.3225431E+01
 1.9015251E+01  2.3247200E+01
 1.9026751E+01  2.3263998E+01
 1.9038252E+01  2.3256805E+01
 1.9049751E+01  2.3222387E+01
 1.9061251E+01  2.3240608E+01
 1.9072750E+01  2.3238716E+01
 1.9084251E+01  2.3225409E+01
 1.9095751E+01  2.3232628E+01
 1.9107250E+01  2.3210321E+01
 1.9118752E+01  2.3215002E+01
 1.9130251E+01  2.3209286E+01
 1.9141750E+01  2.3213686E+01
 1.9153252E+01  2.3203201E+01
 1.9164751E+01  2.3202103E+01
 1.9176250E+01  2.3235117E+01
 1.9187752E+01  2.3245230E+01
 1.9199251E+01  2.3266859E+01
 1.9210751E+01  2.3290447E+01
 1.9222252E+01  2.3287849E+01
 1.9233751E+01  2.3257208E+01
 1.9245251E+01  2.3322592E+01
 1.9256750E+01  2.3382774E+01
 1.9268251E+01  2.3379333E+01
 1.9279751E+01  2.3316275E+01
 1.9291250E+01  2.3319693E+01
 1.9302752E+01  2.3371202E+01
 1.9314251E+01  2.3382164E+01
 1.9325750E+01  2.3385916E+01
 1.9337252E+01  2.3383755E+01
 1.9348751E+01  2.3385046E+01
 1.9360250E+01  2.3342648E+01
 1.9371752E+01  2.3291311E+01
 1.9383251E+01  2.3256012E+01
 1.9394751E+01  2.3283955E+01
 1.9406250E+01  2.3319714E+01
 1.9417751E+01  2.3319542E+01
 1.9429251E+01  2.3311449E+01
 1.9440750E+01  2.3304647E+01
 1.9452251E+01  2.3320856E+01
 1.9463751E+01  2.3258755E+01
 1.9475250E+01  2.3240131E+01
 1.9486752E+01  2.3181282E+01
 1.9498251E+01  2.3220457E+01
 1.9509750E+01  2.3204250E+01
 1.9521252E+01  2.3249256E+01
 1.9532751E+01  2.3285271E+01
 1.9544250E+01  2.3333500E+01
 1.9555752E+01  2.3329094E+01
 1.9567251E+01  2.3309025E+01
 1.9578751E+01  2.3309692E+01
 1.9590250E+01  2.3261587E+01
 1.9601751E+01  2.3236736E+01
 1.9613251E+01  2.3209473E+01
 1.9624750E+01  2.3280451E+01
 1.9636251E+01  2.3288237E+01
 1.9647751E+01  2.3308447E+01
 1.9659250E+01  2.3348164E+01
 1.9670752E+01  2.3419943E+01
 1.9682251E+01  2.3476183E+01
 1.9693750E+01  2.3541351E+01
 1.9705252E+01  2.3614601E+01
 1.9716751E+01  2.3657108E+01
 1.9728251E+01  2.3661373E+01
 1.9739752E+01  2.3609764E+01
 1.9751251E+01  2.3594074E+01
 1.9762751E+01  2.3520031E+01
 1.9774250E+01  2.3455465E+01
 1.9785751E+01  2.3415617E+01
 1.9797251E+01  2.3474583E+01
 1.9808750E+01  2.3534603E+01
 1.9820251E+01  2.3568836E+01
 1.9831751E+01  2.3575727E+01
 1.9843250E+01  2.3567413E+01
 1.9854752E+01  2.3563509E+01
 1.9866251E+01  2.3578518E+01
 1.9877750E+01  2.3620935E+01
 1.9889252E+01  2.3650993E+01
 1.9900751E+01  2.3666681E+01
 1.9912251E+01  2.3644289E+01
 1.9923752E+01  2.3542738E+01
 1.9935251E+01  2.3471758E+01
 1.9946751E+01  2.3440813E+01
 1.9958250E+01  2.3453289E+01
 1.9969751E+01  2.3460701E+01
 1.9981251E+01  2.3474951E+01
 1.9992750E+01  2.3509226E+01
 2.0004251E+01  2.3523884E+01
 2.0015751E+01  2.3498426E+01
 2.0027250E+01  2.3503386E+01
 2.0038752E+01  2.3497623E+01
 2.0050251E+01  2.3535706E+01
 2.0061750E+01  2.3520254E+01
 2.0073252E+01  2.3480637E+01
 2.0084751E+01  2.3422182E+01
 2.0096251E+01  2.3425222E+01
 2.0107752E+01  2.3495714E+01
 2.0119251E+01  2.3488489E+01
 2.0130751E+01  2.3468040E+01
 2.0142250E+01  2.3419189E+01
 2.0153751E+01  2.3433321E+01
 2.0165251E+01  2.3413082E+01
 2.0176750E+01  2.3432615E+01
 2.0188251E+01  2.3413652E+01
 2.0199751E+01  2.3417196E+01
 2.0211250E+01  2.3399105E+01
 2.0222752E+01  2.3410181E+01
 2.0234251E+01  2.3431227E+01
 2.0245750E+01  2.3432884E+01
 2.0257252E+01  2.3373455E+01
 2.0268751E+01  2.3315451E+01
 2.0280251E+01  2.3299339E+01
 2.0291752E+01  2.3317215E+01
 2.0303251E+01  2.3296480E+01
 2.0314751E+01  2.3313345E+01
 2.0326250E+01  2.3349699E+01
 2.0337751E+01  2.3436449E+01
 2.0349251E+01  2.3513823E+01
 2.0360750E+01  2.3620625E+01
 2.0372252E+01  2.3765991E+01
 2.0383751E+01  2.3789207E+01
 2.0395250E+01  2.3697435E+01
 2.0406752E+01  2.3568605E+01
 2.0418251E+01  2.3517019E+01
 2.0429750E+01  2.3508503E+01
 2.0441252E+01  2.3462288E+01
 2.0452751E+01  2.3437885E+01
 2.0464251E+01  2.3389469E+01
 2.0475752E+01  2.3407854E+01
 2.0487251E+01  2.3371281E+01
 2.0498751E+01  2.3349461E+01
 2.0510250E+01  2.3330704E+01
 2.0521751E+01  2.3355947E+01
 2.0533251E+01  2.3335184E+01
 2.0544750E+01  2.3374802E+01
 2.0556252E+01  2.3459743E+01
 2.0567751E+01  2.3536453E+01
 2.0579250E+01  2.3557720E+01
 2.0590752E+01  2.3617956E+01
 2.0602251E+01  2.3655550E+01
 2.0613750E+01  2.3679924E+01
 2.0625252E+01  2.3626171E+01
 2.0636751E+01  2.3633984E+01
 2.0648251E+01  2.3600262E+01
 2.0659752E+01  2.3563025E+01
 2.0671251E+01  2.3507284E+01
 2.0682751E+01  2.3489016E+01
 2.0694250E+01  2.3494528E+01
 2.0705751E+01  2.3536797E+01
 2.0717251E+01  2.3588602E+01
 2.0728750E+01  2.3692177E+01
 2.0740252E+01  2.3791700E+01
 2.0751751E+01  2.3840590E+01
 2.0763250E+01  2.3898149E+01
 2.0774752E+01  2.3845921E+01
 2.0786251E+01  2.3822073E+01
 2.0797750E+01  2.3758535E+01
 2.0809252E+01  2.3741222E+01
 2.0820751E+01  2.3734863E+01
 2.0832251E+01  2.3789457E+01
 2.0843752E+01  2.3847368E+01
 2.0855251E+01  2.3869287E+01
 2.0866751E+01  2.3819431E+01
 2.0878250E+01  2.3766975E+01
 2.0889751E+01  2.3684404E+01
 2.0901251E+01  2.3657095E+01
 2.0912750E+01  2.3608736E+01
 2.0924252E+01  2.3599089E+01
 2.0935751E+01  2.3560036E+01
 2.0947250E+01  2.3536015E+01
 2.0958752E+01  2.3460066E+01
 2.0970251E+01  2.3445616E+01
 2.0981750E+01  2.3467024E+01
 2.0993252E+01  2.3526955E+01
 2.1004751E+01  2.3538670E+01
 2.1016251E+01  2.3576553E+01
 2.1027752E+01  2.3621296E+01
 2.1039251E+01  2.3668564E+01
 2.1050751E+01  2.3651838E+01
 2.1062250E+01  2.3640459E+01
 2.1073751E+01  2.3626633E+01
 2.1085251E+01  2.3606737E+01
 2.1096750E+01  2.3570349E+01
 2.1108252E+01  2.3582916E+01
 2.1119751E+01  2.3611732E+01
 2.1131250E+01  2.3626713E+01
 2.1142752E+01  2.3582710E+01
 2.1154251E+01  2.3513506E+01
 2.1165751E+01  2.3524176E+01
 2.1177252E+01  2.3591471E+01
 2.1188751E+01  2.3635376E+01
 2.1200251E+01  2.3660120E+01
 2.1211752E+01  2.3688698E+01
 2.1223251E+01  2.3703022E+01
 2.1234751E+01  2.3706324E+01
 2.1246250E+01  2.3723345E+01
 2.1257751E+01  2.3734327E+01
 2.1269251E+01  2.3700970E+01
 2.1280750E+01  2.3699903E+01
 2.1292252E+01  2.3683926E+01
 2.1303751E+01  2.3678566E+01
 2.1315250E+01  2.3628801E+01
 2.1326752E+01  2.3657888E+01
 2.1338251E+01  2.3635050E+01
 2.1349751E+01  2.3725531E+01
 2.1361252E+01  2.3820320E+01
 2.1372751E+01  2.3971584E+01
 2.1384251E+01  2.3988604E+01
 2.1395752E+01  2.3913862E+01
 2.1407251E+01  2.3859192E+01
 2.1418751E+01  2.3723522E+01
 2.1430250E+01  2.3676304E+01
 2.1441751E+01  2.3642752E+01
 2.1453251E+01  2.3631289E+01
 2.1464750E+01  2.3659327E+01
 2.1476252E+01  2.3655285E+01
 2.1487751E+01  2.3725719E+01
 2.1499250E+01  2.3749245E+01
 2.1510752E+01  2.3792721E+01
 2.1522251E+01  2.3834023E+01
 2.1533751E+01  2.3877613E+01
 2.1545252E+01  2.3953537E+01
 2.1556751E+01  2.3901415E+01
 2.1568251E+01  2.3921734E+01
 2.1579752E+01  2.3877398E+01
 2.1591251E+01  2.3891659E+01
 2.1602751E+01  2.3885210E+01
 2.1614250E+01  2.3889021E+01
 2.1625751E+01  2.3884363E+01
 2.1637251E+01  2.3910847E+01
 2.1648750E+01  2.3911062E+01
 2.1660252E+01  2.3920956E+01
 2.1671751E+01  2.3959625E+01
 2.1683250E+01  2.3919044E+01
 2.1694752E+01  2.3899744E+01
 2.1706251E+01  2.3857121E+01
 2.1717751E+01  2.3895512E+01
 2.1729252E+01  2.3914625E+01
 2.1740751E+01  2.3962240E+01
 2.1752251E+01  2.3951376E+01
 2.1763752E+01  2.3948427E+01
 2.1775251E+01  2.3928797E+01
 2.1786751E+01  2.3956543E+01
 2.1798250E+01  2.3953075E+01
 2.1809752E+01  2.3953596E+01
 2.1821251E+01  2.3918091E+01
 2.1832750E+01  2.3883726E+01
 2.1844252E+01  2.3828558E+01
 2.1855751E+01  2.3866940E+01
 2.1867250E+01  2.3862495E+01
 2.1878752E+01  2.3864704E+01
 2.1890251E+01  2.3838488E+01
 2.1901751E+01  2.3916813E+01
 2.1913252E+01  2.3921780E+01
 2.1924751E+01  2.3900076E+01
 2.1936251E+01  2.3869310E+01
 2.1947752E+01  2.3902931E+01
 2.1959251E+01  2.3944262E+01
 2.1970751E+01  2.3975138E+01
 2.1982250E+01  2.3982801E+01
 2.1993752E+01  2.3988869E+01
 2.2005251E+01  2.4021866E+01
 2.2016750E+01  2.4084906E+01
 2.2028252E+01  2.4106745E+01
 2.2039751E+01  2.4121780E+01
 2.2051250E+01  2.4123451E+01
 2.2062752E+01  2.4110563E+01
 2.2074251E+01  2.4245548E+01
 2.2085751E+01  2.4425560E+01
 2.2097252E+01  2.4485495E+01
 2.2108751E+01  2.4305960E+01
 2.2120251E+01  2.4202969E+01
 2.2131752E+01  2.4098225E+01
 2.2143251E+01  2.4074680E+01
 2.2154751E+01  2.4072998E+01
 2.2166250E+01  2.4107002E+01
 2.2177752E+01  2.4109333E+01
 2.2189251E+01  2.4130695E+01
 2.2200750E+01  2.4147799E+01
 2.2212252E+01  2.4122913E+01
 2.2223751E+01  2.4109163E+01
 2.2235250E+01  2.4165573E+01
 2.2246752E+01  2.4238163E+01
 2.2258251E+01  2.4283930E+01
 2.2269751E+01  2.4240755E+01
 2.2281252E+01  2.4221046E+01
 2.2292751E+01  2.4248203E+01
 2.2304251E+01  2.4306341E+01
 2.2315752E+01  2.4327707E+01
 2.2327251E+01  2.4341681E+01
 2.2338751E+01  2.4360226E+01
 2.2350250E+01  2.4334763E+01
 2.2361752E+01  2.4286072E+01
 2.2373251E+01  2.4291286E+01
 2.2384750E+01  2.4300728E+01
 2.2396252E+01  2.4285757E+01
 2.2407751E+01  2.4247179E+01
 2.2419250E+01  2.4253613E+01
 2.2430752E+01  2.4253456E+01
 2.2442251E+01  2.4310421E+01
 2.2453751E+01  2.4326208E+01
 2.2465252E+01  2.4360470E+01
 2.2476751E+01  2.4350479E+01
 2.2488251E+01  2.4371531E+01
 2.2499752E+01  2.4372738E+01
 2.2511251E+01  2.4394199E+01
 2.2522751E+01  2.4444973E+01
 2.2534250E+01  2.4513798E+01
 2.2545752E+01  2.4540388E+01
 2.2557251E+01  2.4549686E+01
 2.2568750E+01  2.4574448E+01
 2.2580252E+01  2.4615747E+01
 2.2591751E+01  2.4661331E+01
 2.2603251E+01  2.4662201E+01
 2.2614752E+01  2.4678394E+01
 2.2626251E+01  2.4654461E+01
 2.2637751E+01  2.4668156E+01
 2.2649252E+01  2.4690535E+01
 2.2660751E+01  2.4755989E+01
 2.2672251E+01  2.4789202E+01
 2.2683752E+01  2.4840166E+01
 2.2695251E+01  2.4892366E+01
 2.2706751E+01  2.4879103E+01
 2.2718250E+01  2.4891047E+01
 2.2729752E+01  2.4915117E+01
 2.2741251E+01  2.4991819E+01
 2.2752750E+01  2.5059937E+01
 2.2764252E+01  2.5036821E+01
 2.2775751E+01  2.4987558E+01
 2.2787251E+01  2.4927496E+01
 2.2798752E+01  2.4994839E+01
 2.2810251E+01  2.5108101E+01
 2.2821751E+01  2.5149643E+01
 2.2833252E+01  2.5160343E+01
 2.2844751E+01  2.5175829E+01
 2.2856251E+01  2.5179127E+01
 2.2867750E+01  2.5231752E+01
 2.2879251E+01  2.5247105E+01
 2.2890751E+01  2.5321831E+01
 2.2902250E+01  2.5364212E+01
 2.2913752E+01  2.5502470E+01
 2.2925251E+01  2.5576942E+01
 2.2936750E+01  2.5649742E+01
 2.2948252E+01  2.5685696E+01
 2.2959751E+01  2.5714434E+01
 2.2971251E+01  2.5844511E+01
 2.2982752E+01  2.5921169E+01
 2.2994251E+01  2.6016409E+01
