F:\20151113_APS_34IDE\\Brian\Particle1\OCV\Data_0033.tif
2-Theta Angle (Degrees)
Intensity
       2000
 5.7500005E-03  0.0000000E+00
 1.7250001E-02  0.0000000E+00
 2.8750001E-02  0.0000000E+00
 4.0250003E-02  0.0000000E+00
 5.1750004E-02  0.0000000E+00
 6.3250005E-02  0.0000000E+00
 7.4750006E-02  0.0000000E+00
 8.6250007E-02  0.0000000E+00
 9.7750008E-02  0.0000000E+00
 1.0925001E-01  0.0000000E+00
 1.2075000E-01  0.0000000E+00
 1.3225001E-01  0.0000000E+00
 1.4375001E-01  0.0000000E+00
 1.5525001E-01  0.0000000E+00
 1.6675001E-01  0.0000000E+00
 1.7825001E-01  0.0000000E+00
 1.8975002E-01  0.0000000E+00
 2.0125002E-01  0.0000000E+00
 2.1275002E-01  0.0000000E+00
 2.2425000E-01  0.0000000E+00
 2.3575000E-01  0.0000000E+00
 2.4725001E-01  0.0000000E+00
 2.5875002E-01  0.0000000E+00
 2.7025002E-01  0.0000000E+00
 2.8175002E-01  0.0000000E+00
 2.9325002E-01  0.0000000E+00
 3.0475003E-01  0.0000000E+00
 3.1625003E-01  0.0000000E+00
 3.2775003E-01  0.0000000E+00
 3.3925003E-01  0.0000000E+00
 3.5075003E-01  0.0000000E+00
 3.6225003E-01  0.0000000E+00
 3.7375003E-01  0.0000000E+00
 3.8525003E-01  0.0000000E+00
 3.9675003E-01  0.0000000E+00
 4.0825003E-01  0.0000000E+00
 4.1975003E-01  0.0000000E+00
 4.3125004E-01  0.0000000E+00
 4.4275001E-01  0.0000000E+00
 4.5425001E-01  0.0000000E+00
 4.6575001E-01  0.0000000E+00
 4.7725001E-01  0.0000000E+00
 4.8875001E-01  0.0000000E+00
 5.0025004E-01  0.0000000E+00
 5.1175004E-01  0.0000000E+00
 5.2325004E-01  0.0000000E+00
 5.3475004E-01  0.0000000E+00
 5.4625005E-01  0.0000000E+00
 5.5775005E-01  0.0000000E+00
 5.6925005E-01  0.0000000E+00
 5.8075005E-01  0.0000000E+00
 5.9225005E-01  0.0000000E+00
 6.0375005E-01  0.0000000E+00
 6.1525005E-01  0.0000000E+00
 6.2675005E-01  0.0000000E+00
 6.3825005E-01  0.0000000E+00
 6.4975005E-01  0.0000000E+00
 6.6125005E-01  0.0000000E+00
 6.7275006E-01  0.0000000E+00
 6.8425006E-01  0.0000000E+00
 6.9575006E-01  0.0000000E+00
 7.0725006E-01  0.0000000E+00
 7.1875006E-01  0.0000000E+00
 7.3025006E-01  0.0000000E+00
 7.4175006E-01  0.0000000E+00
 7.5325006E-01  0.0000000E+00
 7.6475006E-01  0.0000000E+00
 7.7625006E-01  0.0000000E+00
 7.8775007E-01  0.0000000E+00
 7.9925007E-01  0.0000000E+00
 8.1075007E-01  0.0000000E+00
 8.2225007E-01  0.0000000E+00
 8.3375007E-01  0.0000000E+00
 8.4525007E-01  0.0000000E+00
 8.5675007E-01  0.0000000E+00
 8.6825007E-01  0.0000000E+00
 8.7975001E-01  0.0000000E+00
 8.9125001E-01  0.0000000E+00
 9.0275002E-01  0.0000000E+00
 9.1425002E-01  0.0000000E+00
 9.2575002E-01  0.0000000E+00
 9.3725002E-01  0.0000000E+00
 9.4875002E-01  0.0000000E+00
 9.6025002E-01  0.0000000E+00
 9.7175002E-01  0.0000000E+00
 9.8325002E-01  0.0000000E+00
 9.9475002E-01  0.0000000E+00
 1.0062500E+00  0.0000000E+00
 1.0177500E+00  0.0000000E+00
 1.0292500E+00  0.0000000E+00
 1.0407500E+00  0.0000000E+00
 1.0522500E+00  0.0000000E+00
 1.0637500E+00  0.0000000E+00
 1.0752500E+00  0.0000000E+00
 1.0867500E+00  0.0000000E+00
 1.0982500E+00  0.0000000E+00
 1.1097500E+00  0.0000000E+00
 1.1212500E+00  0.0000000E+00
 1.1327500E+00  0.0000000E+00
 1.1442500E+00  0.0000000E+00
 1.1557500E+00  0.0000000E+00
 1.1672500E+00  0.0000000E+00
 1.1787500E+00  0.0000000E+00
 1.1902500E+00  0.0000000E+00
 1.2017500E+00  0.0000000E+00
 1.2132500E+00  0.0000000E+00
 1.2247500E+00  0.0000000E+00
 1.2362500E+00  0.0000000E+00
 1.2477500E+00  0.0000000E+00
 1.2592500E+00  0.0000000E+00
 1.2707500E+00  0.0000000E+00
 1.2822500E+00  0.0000000E+00
 1.2937500E+00  0.0000000E+00
 1.3052500E+00  0.0000000E+00
 1.3167500E+00  0.0000000E+00
 1.3282501E+00  0.0000000E+00
 1.3397501E+00  0.0000000E+00
 1.3512501E+00  0.0000000E+00
 1.3627501E+00  0.0000000E+00
 1.3742501E+00  0.0000000E+00
 1.3857501E+00  0.0000000E+00
 1.3972501E+00  0.0000000E+00
 1.4087501E+00  0.0000000E+00
 1.4202501E+00  0.0000000E+00
 1.4317501E+00  0.0000000E+00
 1.4432501E+00  0.0000000E+00
 1.4547501E+00  0.0000000E+00
 1.4662501E+00  0.0000000E+00
 1.4777501E+00  0.0000000E+00
 1.4892501E+00  0.0000000E+00
 1.5007501E+00  0.0000000E+00
 1.5122501E+00  0.0000000E+00
 1.5237501E+00  0.0000000E+00
 1.5352501E+00  0.0000000E+00
 1.5467501E+00  0.0000000E+00
 1.5582501E+00  0.0000000E+00
 1.5697501E+00  0.0000000E+00
 1.5812501E+00  0.0000000E+00
 1.5927501E+00  0.0000000E+00
 1.6042501E+00  0.0000000E+00
 1.6157501E+00  0.0000000E+00
 1.6272501E+00  0.0000000E+00
 1.6387501E+00  0.0000000E+00
 1.6502501E+00  0.0000000E+00
 1.6617501E+00  0.0000000E+00
 1.6732501E+00  0.0000000E+00
 1.6847501E+00  0.0000000E+00
 1.6962501E+00  0.0000000E+00
 1.7077501E+00  0.0000000E+00
 1.7192501E+00  0.0000000E+00
 1.7307501E+00  0.0000000E+00
 1.7422501E+00  0.0000000E+00
 1.7537501E+00  0.0000000E+00
 1.7652501E+00  0.0000000E+00
 1.7767501E+00  0.0000000E+00
 1.7882501E+00  0.0000000E+00
 1.7997501E+00  0.0000000E+00
 1.8112501E+00  0.0000000E+00
 1.8227501E+00  0.0000000E+00
 1.8342501E+00  0.0000000E+00
 1.8457501E+00  0.0000000E+00
 1.8572501E+00  0.0000000E+00
 1.8687501E+00  0.0000000E+00
 1.8802501E+00  0.0000000E+00
 1.8917501E+00  0.0000000E+00
 1.9032501E+00  0.0000000E+00
 1.9147501E+00  0.0000000E+00
 1.9262501E+00  0.0000000E+00
 1.9377501E+00  0.0000000E+00
 1.9492501E+00  0.0000000E+00
 1.9607501E+00  0.0000000E+00
 1.9722501E+00  0.0000000E+00
 1.9837501E+00  0.0000000E+00
 1.9952501E+00  0.0000000E+00
 2.0067501E+00  0.0000000E+00
 2.0182500E+00  0.0000000E+00
 2.0297501E+00  0.0000000E+00
 2.0412500E+00  0.0000000E+00
 2.0527501E+00  0.0000000E+00
 2.0642500E+00  0.0000000E+00
 2.0757501E+00  0.0000000E+00
 2.0872500E+00  0.0000000E+00
 2.0987501E+00  0.0000000E+00
 2.1102500E+00  0.0000000E+00
 2.1217501E+00  0.0000000E+00
 2.1332500E+00  0.0000000E+00
 2.1447501E+00  0.0000000E+00
 2.1562500E+00  0.0000000E+00
 2.1677501E+00  0.0000000E+00
 2.1792500E+00  0.0000000E+00
 2.1907501E+00  0.0000000E+00
 2.2022500E+00  0.0000000E+00
 2.2137501E+00  0.0000000E+00
 2.2252500E+00  0.0000000E+00
 2.2367501E+00  0.0000000E+00
 2.2482500E+00  0.0000000E+00
 2.2597501E+00  0.0000000E+00
 2.2712500E+00  0.0000000E+00
 2.2827501E+00  0.0000000E+00
 2.2942500E+00  0.0000000E+00
 2.3057501E+00  0.0000000E+00
 2.3172500E+00  0.0000000E+00
 2.3287501E+00  0.0000000E+00
 2.3402500E+00  0.0000000E+00
 2.3517501E+00  0.0000000E+00
 2.3632500E+00  0.0000000E+00
 2.3747501E+00  0.0000000E+00
 2.3862500E+00  0.0000000E+00
 2.3977501E+00  0.0000000E+00
 2.4092500E+00  0.0000000E+00
 2.4207501E+00  0.0000000E+00
 2.4322500E+00  0.0000000E+00
 2.4437501E+00  0.0000000E+00
 2.4552500E+00  0.0000000E+00
 2.4667501E+00  0.0000000E+00
 2.4782500E+00  0.0000000E+00
 2.4897501E+00  0.0000000E+00
 2.5012500E+00  0.0000000E+00
 2.5127501E+00  0.0000000E+00
 2.5242500E+00  0.0000000E+00
 2.5357502E+00  0.0000000E+00
 2.5472500E+00  0.0000000E+00
 2.5587502E+00  0.0000000E+00
 2.5702500E+00  0.0000000E+00
 2.5817502E+00  0.0000000E+00
 2.5932500E+00  0.0000000E+00
 2.6047502E+00  0.0000000E+00
 2.6162500E+00  0.0000000E+00
 2.6277502E+00  0.0000000E+00
 2.6392500E+00  0.0000000E+00
 2.6507502E+00  0.0000000E+00
 2.6622500E+00  0.0000000E+00
 2.6737502E+00  0.0000000E+00
 2.6852500E+00  0.0000000E+00
 2.6967502E+00  0.0000000E+00
 2.7082500E+00  0.0000000E+00
 2.7197502E+00  0.0000000E+00
 2.7312500E+00  0.0000000E+00
 2.7427502E+00  0.0000000E+00
 2.7542500E+00  0.0000000E+00
 2.7657502E+00  0.0000000E+00
 2.7772501E+00  0.0000000E+00
 2.7887502E+00  0.0000000E+00
 2.8002501E+00  0.0000000E+00
 2.8117502E+00  0.0000000E+00
 2.8232501E+00  3.3765091E+01
 2.8347502E+00  3.3327549E+01
 2.8462501E+00  3.3990562E+01
 2.8577502E+00  3.4481647E+01
 2.8692501E+00  3.5423203E+01
 2.8807502E+00  3.5875225E+01
 2.8922501E+00  3.6478642E+01
 2.9037502E+00  3.6728382E+01
 2.9152501E+00  3.6805470E+01
 2.9267502E+00  3.6634998E+01
 2.9382501E+00  3.5818890E+01
 2.9497502E+00  3.5676441E+01
 2.9612501E+00  3.5558327E+01
 2.9727502E+00  3.5612335E+01
 2.9842501E+00  3.5592834E+01
 2.9957502E+00  3.5798328E+01
 3.0072501E+00  3.6257851E+01
 3.0187502E+00  3.6639839E+01
 3.0302501E+00  3.6687443E+01
 3.0417502E+00  3.6781013E+01
 3.0532501E+00  3.6092957E+01
 3.0647502E+00  3.5484970E+01
 3.0762501E+00  3.5111488E+01
 3.0877502E+00  3.5046867E+01
 3.0992501E+00  3.4792698E+01
 3.1107502E+00  3.4908157E+01
 3.1222501E+00  3.5267269E+01
 3.1337502E+00  3.5898220E+01
 3.1452501E+00  3.5844181E+01
 3.1567502E+00  3.5860737E+01
 3.1682501E+00  3.5562637E+01
 3.1797502E+00  3.5302547E+01
 3.1912501E+00  3.5047241E+01
 3.2027502E+00  3.5266289E+01
 3.2142501E+00  3.5619663E+01
 3.2257502E+00  3.6059948E+01
 3.2372501E+00  3.5732075E+01
 3.2487502E+00  3.5764660E+01
 3.2602501E+00  3.5466057E+01
 3.2717502E+00  3.5467640E+01
 3.2832501E+00  3.5081749E+01
 3.2947502E+00  3.4952385E+01
 3.3062501E+00  3.4406307E+01
 3.3177502E+00  3.4345039E+01
 3.3292501E+00  3.4062695E+01
 3.3407502E+00  3.4203724E+01
 3.3522501E+00  3.4440739E+01
 3.3637502E+00  3.4461929E+01
 3.3752501E+00  3.4595169E+01
 3.3867502E+00  3.4443188E+01
 3.3982501E+00  3.4303234E+01
 3.4097502E+00  3.4203442E+01
 3.4212501E+00  3.4013554E+01
 3.4327502E+00  3.4011986E+01
 3.4442501E+00  3.4008148E+01
 3.4557502E+00  3.4197819E+01
 3.4672501E+00  3.4312702E+01
 3.4787502E+00  3.4549252E+01
 3.4902501E+00  3.4792889E+01
 3.5017502E+00  3.4934158E+01
 3.5132501E+00  3.5033867E+01
 3.5247502E+00  3.4933632E+01
 3.5362501E+00  3.5013397E+01
 3.5477502E+00  3.4651245E+01
 3.5592501E+00  3.4388893E+01
 3.5707502E+00  3.3928368E+01
 3.5822501E+00  3.3809383E+01
 3.5937502E+00  3.3853867E+01
 3.6052501E+00  3.3798161E+01
 3.6167502E+00  3.3912899E+01
 3.6282501E+00  3.3931026E+01
 3.6397502E+00  3.3922165E+01
 3.6512501E+00  3.3899906E+01
 3.6627502E+00  3.3615993E+01
 3.6742501E+00  3.3582531E+01
 3.6857502E+00  3.3612583E+01
 3.6972501E+00  3.3522438E+01
 3.7087502E+00  3.3549725E+01
 3.7202501E+00  3.3576199E+01
 3.7317502E+00  3.3658615E+01
 3.7432501E+00  3.3698448E+01
 3.7547503E+00  3.3518066E+01
 3.7662501E+00  3.3354378E+01
 3.7777503E+00  3.3228745E+01
 3.7892501E+00  3.2984531E+01
 3.8007503E+00  3.2788342E+01
 3.8122501E+00  3.2698696E+01
 3.8237503E+00  3.2872169E+01
 3.8352501E+00  3.3023613E+01
 3.8467503E+00  3.2953598E+01
 3.8582501E+00  3.2906830E+01
 3.8697503E+00  3.2765038E+01
 3.8812501E+00  3.2664364E+01
 3.8927503E+00  3.2551746E+01
 3.9042501E+00  3.2576096E+01
 3.9157503E+00  3.2682289E+01
 3.9272501E+00  3.2658615E+01
 3.9387503E+00  3.2753056E+01
 3.9502501E+00  3.2730232E+01
 3.9617503E+00  3.2971882E+01
 3.9732502E+00  3.3029007E+01
 3.9847503E+00  3.3218483E+01
 3.9962502E+00  3.3435829E+01
 4.0077500E+00  3.3398720E+01
 4.0192504E+00  3.3442181E+01
 4.0307503E+00  3.3392021E+01
 4.0422502E+00  3.3369568E+01
 4.0537500E+00  3.3354649E+01
 4.0652504E+00  3.3112446E+01
 4.0767503E+00  3.2918259E+01
 4.0882502E+00  3.2706352E+01
 4.0997500E+00  3.2485977E+01
 4.1112504E+00  3.2604164E+01
 4.1227503E+00  3.2616962E+01
 4.1342502E+00  3.2916489E+01
 4.1457500E+00  3.3089073E+01
 4.1572504E+00  3.3001484E+01
 4.1687503E+00  3.3023430E+01
 4.1802502E+00  3.2839993E+01
 4.1917500E+00  3.3064159E+01
 4.2032504E+00  3.3059982E+01
 4.2147503E+00  3.2924870E+01
 4.2262502E+00  3.2704559E+01
 4.2377501E+00  3.2453506E+01
 4.2492504E+00  3.2351280E+01
 4.2607503E+00  3.2435970E+01
 4.2722502E+00  3.2443291E+01
 4.2837501E+00  3.2611320E+01
 4.2952504E+00  3.2498425E+01
 4.3067503E+00  3.2505180E+01
 4.3182502E+00  3.2378620E+01
 4.3297501E+00  3.2404774E+01
 4.3412504E+00  3.2444290E+01
 4.3527503E+00  3.2417713E+01
 4.3642502E+00  3.2490345E+01
 4.3757501E+00  3.2528004E+01
 4.3872504E+00  3.2557060E+01
 4.3987503E+00  3.2487862E+01
 4.4102502E+00  3.2513382E+01
 4.4217501E+00  3.2549267E+01
 4.4332504E+00  3.2711926E+01
 4.4447503E+00  3.2791859E+01
 4.4562502E+00  3.2959614E+01
 4.4677501E+00  3.2990677E+01
 4.4792504E+00  3.3066784E+01
 4.4907503E+00  3.2973324E+01
 4.5022502E+00  3.3073109E+01
 4.5137501E+00  3.2974468E+01
 4.5252504E+00  3.2881973E+01
 4.5367503E+00  3.2642513E+01
 4.5482502E+00  3.2516453E+01
 4.5597501E+00  3.2373676E+01
 4.5712504E+00  3.2377701E+01
 4.5827503E+00  3.2313053E+01
 4.5942502E+00  3.2491035E+01
 4.6057501E+00  3.2586166E+01
 4.6172504E+00  3.2770397E+01
 4.6287503E+00  3.2943935E+01
 4.6402502E+00  3.3111404E+01
 4.6517501E+00  3.3227264E+01
 4.6632504E+00  3.3247646E+01
 4.6747503E+00  3.3240631E+01
 4.6862502E+00  3.3277287E+01
 4.6977501E+00  3.3187801E+01
 4.7092505E+00  3.3245930E+01
 4.7207503E+00  3.3011734E+01
 4.7322502E+00  3.2899597E+01
 4.7437501E+00  3.2804737E+01
 4.7552505E+00  3.2708961E+01
 4.7667503E+00  3.2713310E+01
 4.7782502E+00  3.2565678E+01
 4.7897501E+00  3.2483768E+01
 4.8012505E+00  3.2457428E+01
 4.8127503E+00  3.2505180E+01
 4.8242502E+00  3.2776051E+01
 4.8357501E+00  3.2940853E+01
 4.8472505E+00  3.3065159E+01
 4.8587503E+00  3.3212959E+01
 4.8702502E+00  3.3275951E+01
 4.8817501E+00  3.3282284E+01
 4.8932505E+00  3.3186447E+01
 4.9047503E+00  3.3152042E+01
 4.9162502E+00  3.3304298E+01
 4.9277501E+00  3.3285675E+01
 4.9392505E+00  3.3358200E+01
 4.9507504E+00  3.3277527E+01
 4.9622502E+00  3.3203506E+01
 4.9737501E+00  3.3158096E+01
 4.9852505E+00  3.3104855E+01
 4.9967504E+00  3.3230545E+01
 5.0082502E+00  3.3339592E+01
 5.0197501E+00  3.3480106E+01
 5.0312505E+00  3.3557632E+01
 5.0427504E+00  3.3584785E+01
 5.0542502E+00  3.3618443E+01
 5.0657501E+00  3.3705788E+01
 5.0772505E+00  3.3625988E+01
 5.0887504E+00  3.3708153E+01
 5.1002502E+00  3.3690865E+01
 5.1117501E+00  3.3772320E+01
 5.1232505E+00  3.3718025E+01
 5.1347504E+00  3.3775463E+01
 5.1462502E+00  3.3877258E+01
 5.1577501E+00  3.3973225E+01
 5.1692505E+00  3.3911091E+01
 5.1807504E+00  3.3936481E+01
 5.1922503E+00  3.3968529E+01
 5.2037501E+00  3.4002541E+01
 5.2152505E+00  3.4041725E+01
 5.2267504E+00  3.3993313E+01
 5.2382503E+00  3.4018944E+01
 5.2497501E+00  3.4064220E+01
 5.2612505E+00  3.4070686E+01
 5.2727504E+00  3.4242710E+01
 5.2842503E+00  3.4289543E+01
 5.2957501E+00  3.4422661E+01
 5.3072500E+00  3.4476742E+01
 5.3187504E+00  3.4533916E+01
 5.3302503E+00  3.4578491E+01
 5.3417501E+00  3.4613991E+01
 5.3532500E+00  3.4603081E+01
 5.3647504E+00  3.4572350E+01
 5.3762503E+00  3.4598866E+01
 5.3877501E+00  3.4692497E+01
 5.3992500E+00  3.4822132E+01
 5.4107504E+00  3.4861839E+01
 5.4222503E+00  3.4911583E+01
 5.4337502E+00  3.4828136E+01
 5.4452500E+00  3.4920418E+01
 5.4567504E+00  3.4879490E+01
 5.4682503E+00  3.4960491E+01
 5.4797502E+00  3.4945549E+01
 5.4912500E+00  3.4823082E+01
 5.5027504E+00  3.4872021E+01
 5.5142503E+00  3.4837692E+01
 5.5257502E+00  3.4880203E+01
 5.5372500E+00  3.4870144E+01
 5.5487504E+00  3.4878750E+01
 5.5602503E+00  3.4912701E+01
 5.5717502E+00  3.4859604E+01
 5.5832500E+00  3.4968838E+01
 5.5947504E+00  3.5090794E+01
 5.6062503E+00  3.5310165E+01
 5.6177502E+00  3.5366562E+01
 5.6292500E+00  3.5416195E+01
 5.6407504E+00  3.5475643E+01
 5.6522503E+00  3.5490528E+01
 5.6637502E+00  3.5492779E+01
 5.6752501E+00  3.5514080E+01
 5.6867504E+00  3.5484978E+01
 5.6982503E+00  3.5567215E+01
 5.7097502E+00  3.5668911E+01
 5.7212501E+00  3.5803452E+01
 5.7327504E+00  3.5923828E+01
 5.7442503E+00  3.6071613E+01
 5.7557502E+00  3.6150337E+01
 5.7672501E+00  3.6254742E+01
 5.7787504E+00  3.6297626E+01
 5.7902503E+00  3.6293201E+01
 5.8017502E+00  3.6401512E+01
 5.8132501E+00  3.6364521E+01
 5.8247504E+00  3.6545803E+01
 5.8362503E+00  3.6765472E+01
 5.8477502E+00  3.6783455E+01
 5.8592501E+00  3.7063416E+01
 5.8707504E+00  3.7130058E+01
 5.8822503E+00  3.7241596E+01
 5.8937502E+00  3.8149811E+01
 5.9052501E+00  3.8343136E+01
 5.9167504E+00  3.9162640E+01
 5.9282503E+00  4.2615433E+01
 5.9397502E+00  4.3011803E+01
 5.9512501E+00  5.3271435E+01
 5.9627504E+00  6.8894424E+01
 5.9742503E+00  6.9685768E+01
 5.9857502E+00  7.8677910E+01
 5.9972501E+00  6.8977982E+01
 6.0087504E+00  6.8239517E+01
 6.0202503E+00  5.7107319E+01
 6.0317502E+00  4.3318256E+01
 6.0432501E+00  4.2586060E+01
 6.0547504E+00  3.9769207E+01
 6.0662503E+00  3.8608391E+01
 6.0777502E+00  3.8617348E+01
 6.0892501E+00  3.8110565E+01
 6.1007504E+00  3.8022949E+01
 6.1122503E+00  3.8054752E+01
 6.1237502E+00  3.7826630E+01
 6.1352501E+00  3.7865929E+01
 6.1467505E+00  3.7785477E+01
 6.1582503E+00  3.7813122E+01
 6.1697502E+00  3.7936359E+01
 6.1812501E+00  3.7998459E+01
 6.1927505E+00  3.7975136E+01
 6.2042503E+00  3.7956764E+01
 6.2157502E+00  3.7871334E+01
 6.2272501E+00  3.7848438E+01
 6.2387505E+00  3.7845352E+01
 6.2502503E+00  3.7891365E+01
 6.2617502E+00  3.7905346E+01
 6.2732501E+00  3.8089874E+01
 6.2847505E+00  3.8214394E+01
 6.2962503E+00  3.8293720E+01
 6.3077502E+00  3.8255001E+01
 6.3192501E+00  3.8198689E+01
 6.3307505E+00  3.8366539E+01
 6.3422503E+00  3.8468353E+01
 6.3537502E+00  3.8665051E+01
 6.3652501E+00  3.8719883E+01
 6.3767505E+00  3.8771347E+01
 6.3882504E+00  3.8775105E+01
 6.3997502E+00  3.8717388E+01
 6.4112501E+00  3.8754963E+01
 6.4227505E+00  3.8795345E+01
 6.4342504E+00  3.8902863E+01
 6.4457502E+00  3.8999302E+01
 6.4572501E+00  3.8983482E+01
 6.4687505E+00  3.8997494E+01
 6.4802504E+00  3.8923660E+01
 6.4917502E+00  3.8962906E+01
 6.5032501E+00  3.9057022E+01
 6.5147505E+00  3.9187099E+01
 6.5262504E+00  3.9287041E+01
 6.5377502E+00  3.9326916E+01
 6.5492501E+00  3.9373901E+01
 6.5607505E+00  3.9493896E+01
 6.5722504E+00  3.9573738E+01
 6.5837502E+00  3.9712986E+01
 6.5952501E+00  3.9747158E+01
 6.6067505E+00  3.9946102E+01
 6.6182504E+00  4.0020512E+01
 6.6297503E+00  4.0212917E+01
 6.6412501E+00  4.0304447E+01
 6.6527505E+00  4.0428078E+01
 6.6642504E+00  4.0510719E+01
 6.6757503E+00  4.0543400E+01
 6.6872501E+00  4.0472893E+01
 6.6987505E+00  4.0443680E+01
 6.7102504E+00  4.0477856E+01
 6.7217503E+00  4.0624149E+01
 6.7332501E+00  4.0654469E+01
 6.7447505E+00  4.0799431E+01
 6.7562504E+00  4.0892933E+01
 6.7677503E+00  4.1112564E+01
 6.7792501E+00  4.1179142E+01
 6.7907505E+00  4.1298328E+01
 6.8022504E+00  4.1355869E+01
 6.8137503E+00  4.1443604E+01
 6.8252501E+00  4.1546303E+01
 6.8367505E+00  4.1544094E+01
 6.8482504E+00  4.1583664E+01
 6.8597503E+00  4.1640110E+01
 6.8712502E+00  4.1828991E+01
 6.8827505E+00  4.1988495E+01
 6.8942504E+00  4.2105465E+01
 6.9057503E+00  4.2237709E+01
 6.9172502E+00  4.2344551E+01
 6.9287505E+00  4.2429218E+01
 6.9402504E+00  4.2452698E+01
 6.9517503E+00  4.2488037E+01
 6.9632502E+00  4.2492512E+01
 6.9747505E+00  4.2592510E+01
 6.9862504E+00  4.2639240E+01
 6.9977503E+00  4.2627594E+01
 7.0092502E+00  4.2644337E+01
 7.0207505E+00  4.2614311E+01
 7.0322504E+00  4.2709511E+01
 7.0437503E+00  4.2664719E+01
 7.0552502E+00  4.2626602E+01
 7.0667505E+00  4.2641922E+01
 7.0782504E+00  4.2593933E+01
 7.0897503E+00  4.2668736E+01
 7.1012502E+00  4.2704178E+01
 7.1127505E+00  4.2879578E+01
 7.1242504E+00  4.3046909E+01
 7.1357503E+00  4.3169235E+01
 7.1472502E+00  4.3236420E+01
 7.1587505E+00  4.3300766E+01
 7.1702504E+00  4.3403275E+01
 7.1817503E+00  4.3485752E+01
 7.1932502E+00  4.3682762E+01
 7.2047505E+00  4.3749393E+01
 7.2162504E+00  4.3804379E+01
 7.2277503E+00  4.3853962E+01
 7.2392502E+00  4.3943798E+01
 7.2507505E+00  4.4002098E+01
 7.2622504E+00  4.4057171E+01
 7.2737503E+00  4.4046448E+01
 7.2852502E+00  4.4046638E+01
 7.2967505E+00  4.3991653E+01
 7.3082504E+00  4.3973877E+01
 7.3197503E+00  4.3965847E+01
 7.3312502E+00  4.4037712E+01
 7.3427505E+00  4.4109863E+01
 7.3542504E+00  4.4266094E+01
 7.3657503E+00  4.4348721E+01
 7.3772502E+00  4.4427048E+01
 7.3887506E+00  4.4559044E+01
 7.4002504E+00  4.4633881E+01
 7.4117503E+00  4.4645592E+01
 7.4232502E+00  4.4688847E+01
 7.4347506E+00  4.4681561E+01
 7.4462504E+00  4.4765984E+01
 7.4577503E+00  4.4726273E+01
 7.4692502E+00  4.4697517E+01
 7.4807506E+00  4.4661022E+01
 7.4922504E+00  4.4668064E+01
 7.5037503E+00  4.4613605E+01
 7.5152502E+00  4.4553944E+01
 7.5267506E+00  4.4426037E+01
 7.5382504E+00  4.4405132E+01
 7.5497503E+00  4.4461376E+01
 7.5612502E+00  4.4507565E+01
 7.5727506E+00  4.4544804E+01
 7.5842505E+00  4.4598827E+01
 7.5957503E+00  4.4592564E+01
 7.6072502E+00  4.4692127E+01
 7.6187506E+00  4.4589260E+01
 7.6302505E+00  4.4672413E+01
 7.6417503E+00  4.4719830E+01
 7.6532502E+00  4.4683731E+01
 7.6647506E+00  4.4738247E+01
 7.6762505E+00  4.4570766E+01
 7.6877503E+00  4.4602428E+01
 7.6992502E+00  4.4499233E+01
 7.7107506E+00  4.4492573E+01
 7.7222505E+00  4.4506748E+01
 7.7337503E+00  4.4566216E+01
 7.7452502E+00  4.4677952E+01
 7.7567506E+00  4.4603371E+01
 7.7682505E+00  4.4561699E+01
 7.7797503E+00  4.4522762E+01
 7.7912502E+00  4.4610371E+01
 7.8027506E+00  4.4611248E+01
 7.8142505E+00  4.4647770E+01
 7.8257504E+00  4.4672890E+01
 7.8372502E+00  4.4787144E+01
 7.8487506E+00  4.4767395E+01
 7.8602505E+00  4.4679836E+01
 7.8717504E+00  4.4558167E+01
 7.8832502E+00  4.4423546E+01
 7.8947506E+00  4.4289673E+01
 7.9062505E+00  4.4232059E+01
 7.9177504E+00  4.4172668E+01
 7.9292502E+00  4.4075230E+01
 7.9407506E+00  4.4037083E+01
 7.9522505E+00  4.3907822E+01
 7.9637504E+00  4.3874180E+01
 7.9752502E+00  4.3687035E+01
 7.9867506E+00  4.3691452E+01
 7.9982505E+00  4.3717484E+01
 8.0097504E+00  4.3737431E+01
 8.0212507E+00  4.3729183E+01
 8.0327501E+00  4.3666889E+01
 8.0442505E+00  4.3591267E+01
 8.0557508E+00  4.3509308E+01
 8.0672503E+00  4.3353561E+01
 8.0787506E+00  4.3278435E+01
 8.0902500E+00  4.3162262E+01
 8.1017504E+00  4.3132832E+01
 8.1132507E+00  4.3132957E+01
 8.1247501E+00  4.3024834E+01
 8.1362505E+00  4.3053791E+01
 8.1477509E+00  4.2997868E+01
 8.1592503E+00  4.2979671E+01
 8.1707506E+00  4.2909164E+01
 8.1822500E+00  4.2713215E+01
 8.1937504E+00  4.2565598E+01
 8.2052507E+00  4.2323048E+01
 8.2167501E+00  4.2212883E+01
 8.2282505E+00  4.1965786E+01
 8.2397509E+00  4.1782639E+01
 8.2512503E+00  4.1586452E+01
 8.2627506E+00  4.1473789E+01
 8.2742500E+00  4.1350365E+01
 8.2857504E+00  4.1168488E+01
 8.2972507E+00  4.1006943E+01
 8.3087502E+00  4.0847111E+01
 8.3202505E+00  4.0731083E+01
 8.3317509E+00  4.0588726E+01
 8.3432503E+00  4.0478420E+01
 8.3547506E+00  4.0279797E+01
 8.3662500E+00  4.0175869E+01
 8.3777504E+00  4.0011429E+01
 8.3892508E+00  3.9845997E+01
 8.4007502E+00  3.9741917E+01
 8.4122505E+00  3.9648361E+01
 8.4237509E+00  3.9579102E+01
 8.4352503E+00  3.9289177E+01
 8.4467506E+00  3.9044296E+01
 8.4582500E+00  3.8756348E+01
 8.4697504E+00  3.8590588E+01
 8.4812508E+00  3.8326012E+01
 8.4927502E+00  3.8189560E+01
 8.5042505E+00  3.8072395E+01
 8.5157509E+00  3.7960667E+01
 8.5272503E+00  3.7862713E+01
 8.5387506E+00  3.7677505E+01
 8.5502501E+00  3.7559860E+01
 8.5617504E+00  3.7304344E+01
 8.5732508E+00  3.7149910E+01
 8.5847502E+00  3.6826973E+01
 8.5962505E+00  3.6570980E+01
 8.6077509E+00  3.6240871E+01
 8.6192503E+00  3.6120209E+01
 8.6307507E+00  3.5970428E+01
 8.6422501E+00  3.5896500E+01
 8.6537504E+00  3.5727478E+01
 8.6652508E+00  3.5597115E+01
 8.6767502E+00  3.5498245E+01
 8.6882505E+00  3.5398949E+01
 8.6997509E+00  3.5225422E+01
 8.7112503E+00  3.5052536E+01
 8.7227507E+00  3.4845367E+01
 8.7342501E+00  3.4674698E+01
 8.7457504E+00  3.4487133E+01
 8.7572508E+00  3.4332767E+01
 8.7687502E+00  3.4166512E+01
 8.7802505E+00  3.4023758E+01
 8.7917500E+00  3.3783920E+01
 8.8032503E+00  3.3674774E+01
 8.8147507E+00  3.3493137E+01
 8.8262501E+00  3.3400349E+01
 8.8377504E+00  3.3210823E+01
 8.8492508E+00  3.3076328E+01
 8.8607502E+00  3.2854916E+01
 8.8722506E+00  3.2650436E+01
 8.8837500E+00  3.2430126E+01
 8.8952503E+00  3.2233418E+01
 8.9067507E+00  3.2009335E+01
 8.9182501E+00  3.1744263E+01
 8.9297504E+00  3.1548084E+01
 8.9412508E+00  3.1390453E+01
 8.9527502E+00  3.1303843E+01
 8.9642506E+00  3.1178366E+01
 8.9757500E+00  3.1173767E+01
 8.9872503E+00  3.1082781E+01
 8.9987507E+00  3.1059448E+01
 9.0102501E+00  3.0831011E+01
 9.0217505E+00  3.0638041E+01
 9.0332508E+00  3.0448107E+01
 9.0447502E+00  3.0313339E+01
 9.0562506E+00  3.0185558E+01
 9.0677500E+00  3.0017418E+01
 9.0792503E+00  2.9865902E+01
 9.0907507E+00  2.9685753E+01
 9.1022501E+00  2.9553944E+01
 9.1137505E+00  2.9437826E+01
 9.1252508E+00  2.9364006E+01
 9.1367502E+00  2.9258997E+01
 9.1482506E+00  2.9143259E+01
 9.1597500E+00  2.8987158E+01
 9.1712503E+00  2.8876595E+01
 9.1827507E+00  2.8831499E+01
 9.1942501E+00  2.8849731E+01
 9.2057505E+00  2.8823265E+01
 9.2172508E+00  2.8799410E+01
 9.2287502E+00  2.8659107E+01
 9.2402506E+00  2.8551739E+01
 9.2517500E+00  2.8380844E+01
 9.2632504E+00  2.8238796E+01
 9.2747507E+00  2.8124147E+01
 9.2862501E+00  2.7967503E+01
 9.2977505E+00  2.7892069E+01
 9.3092508E+00  2.7814478E+01
 9.3207502E+00  2.7739882E+01
 9.3322506E+00  2.7624138E+01
 9.3437500E+00  2.7453583E+01
 9.3552504E+00  2.7404854E+01
 9.3667507E+00  2.7365177E+01
 9.3782501E+00  2.7271786E+01
 9.3897505E+00  2.7112921E+01
 9.4012508E+00  2.7011711E+01
 9.4127502E+00  2.6990244E+01
 9.4242506E+00  2.6930836E+01
 9.4357500E+00  2.6896637E+01
 9.4472504E+00  2.6762966E+01
 9.4587507E+00  2.6701479E+01
 9.4702501E+00  2.6578749E+01
 9.4817505E+00  2.6521761E+01
 9.4932508E+00  2.6450260E+01
 9.5047503E+00  2.6352623E+01
 9.5162506E+00  2.6300833E+01
 9.5277500E+00  2.6253458E+01
 9.5392504E+00  2.6244989E+01
 9.5507507E+00  2.6204897E+01
 9.5622501E+00  2.6170650E+01
 9.5737505E+00  2.6079384E+01
 9.5852509E+00  2.5910505E+01
 9.5967503E+00  2.5826710E+01
 9.6082506E+00  2.5771420E+01
 9.6197500E+00  2.5801010E+01
 9.6312504E+00  2.5752733E+01
 9.6427507E+00  2.5730467E+01
 9.6542501E+00  2.5656782E+01
 9.6657505E+00  2.5577938E+01
 9.6772509E+00  2.5495764E+01
 9.6887503E+00  2.5489214E+01
 9.7002506E+00  2.5423031E+01
 9.7117500E+00  2.5318090E+01
 9.7232504E+00  2.5253630E+01
 9.7347507E+00  2.5221636E+01
 9.7462502E+00  2.5215368E+01
 9.7577505E+00  2.5169428E+01
 9.7692509E+00  2.5196096E+01
 9.7807503E+00  2.5188705E+01
 9.7922506E+00  2.5177979E+01
 9.8037500E+00  2.5139566E+01
 9.8152504E+00  2.5080154E+01
 9.8267508E+00  2.4964464E+01
 9.8382502E+00  2.4875643E+01
 9.8497505E+00  2.4774353E+01
 9.8612509E+00  2.4755960E+01
 9.8727503E+00  2.4750969E+01
 9.8842506E+00  2.4714722E+01
 9.8957500E+00  2.4719389E+01
 9.9072504E+00  2.4646992E+01
 9.9187508E+00  2.4640299E+01
 9.9302502E+00  2.4507582E+01
 9.9417505E+00  2.4407469E+01
 9.9532509E+00  2.4281858E+01
 9.9647503E+00  2.4299351E+01
 9.9762506E+00  2.4290474E+01
 9.9877501E+00  2.4277300E+01
 9.9992504E+00  2.4218121E+01
 1.0010751E+01  2.4137489E+01
 1.0022250E+01  2.4129234E+01
 1.0033751E+01  2.4083824E+01
 1.0045251E+01  2.4057299E+01
 1.0056750E+01  2.4037951E+01
 1.0068251E+01  2.4042210E+01
 1.0079750E+01  2.4028025E+01
 1.0091250E+01  2.4027470E+01
 1.0102751E+01  2.4043159E+01
 1.0114250E+01  2.4086342E+01
 1.0125751E+01  2.4102823E+01
 1.0137251E+01  2.4096731E+01
 1.0148750E+01  2.4076588E+01
 1.0160251E+01  2.4059023E+01
 1.0171750E+01  2.3931686E+01
 1.0183250E+01  2.3839828E+01
 1.0194751E+01  2.3667858E+01
 1.0206250E+01  2.3665855E+01
 1.0217751E+01  2.3623415E+01
 1.0229251E+01  2.3677282E+01
 1.0240750E+01  2.3659849E+01
 1.0252251E+01  2.3598816E+01
 1.0263750E+01  2.3563564E+01
 1.0275250E+01  2.3552858E+01
 1.0286751E+01  2.3574799E+01
 1.0298250E+01  2.3533846E+01
 1.0309751E+01  2.3445902E+01
 1.0321251E+01  2.3412971E+01
 1.0332750E+01  2.3388493E+01
 1.0344251E+01  2.3373745E+01
 1.0355750E+01  2.3356878E+01
 1.0367250E+01  2.3331301E+01
 1.0378751E+01  2.3308912E+01
 1.0390250E+01  2.3322834E+01
 1.0401751E+01  2.3333487E+01
 1.0413251E+01  2.3400349E+01
 1.0424750E+01  2.3378485E+01
 1.0436251E+01  2.3362829E+01
 1.0447750E+01  2.3279352E+01
 1.0459250E+01  2.3220888E+01
 1.0470751E+01  2.3171867E+01
 1.0482250E+01  2.3159540E+01
 1.0493751E+01  2.3191126E+01
 1.0505251E+01  2.3232239E+01
 1.0516750E+01  2.3270741E+01
 1.0528251E+01  2.3285818E+01
 1.0539750E+01  2.3253052E+01
 1.0551250E+01  2.3297340E+01
 1.0562751E+01  2.3252077E+01
 1.0574250E+01  2.3191969E+01
 1.0585751E+01  2.3049702E+01
 1.0597251E+01  2.3007607E+01
 1.0608750E+01  2.3023499E+01
 1.0620251E+01  2.3035566E+01
 1.0631750E+01  2.2975222E+01
 1.0643250E+01  2.3007498E+01
 1.0654751E+01  2.2991861E+01
 1.0666250E+01  2.3036524E+01
 1.0677751E+01  2.2973738E+01
 1.0689251E+01  2.2964308E+01
 1.0700750E+01  2.2927340E+01
 1.0712251E+01  2.2877188E+01
 1.0723750E+01  2.2816132E+01
 1.0735250E+01  2.2746716E+01
 1.0746751E+01  2.2746151E+01
 1.0758250E+01  2.2780720E+01
 1.0769751E+01  2.2760443E+01
 1.0781251E+01  2.2729650E+01
 1.0792750E+01  2.2611965E+01
 1.0804251E+01  2.2590128E+01
 1.0815750E+01  2.2550739E+01
 1.0827250E+01  2.2565994E+01
 1.0838751E+01  2.2602524E+01
 1.0850250E+01  2.2634457E+01
 1.0861751E+01  2.2661144E+01
 1.0873251E+01  2.2737070E+01
 1.0884750E+01  2.2701752E+01
 1.0896251E+01  2.2691906E+01
 1.0907750E+01  2.2661058E+01
 1.0919250E+01  2.2651894E+01
 1.0930751E+01  2.2697733E+01
 1.0942250E+01  2.2645983E+01
 1.0953751E+01  2.2660608E+01
 1.0965251E+01  2.2659115E+01
 1.0976750E+01  2.2716154E+01
 1.0988251E+01  2.2723318E+01
 1.0999750E+01  2.2699881E+01
 1.1011250E+01  2.2658709E+01
 1.1022751E+01  2.2644169E+01
 1.1034250E+01  2.2618095E+01
 1.1045751E+01  2.2582386E+01
 1.1057251E+01  2.2571573E+01
 1.1068750E+01  2.2574148E+01
 1.1080251E+01  2.2610535E+01
 1.1091750E+01  2.2590841E+01
 1.1103251E+01  2.2556475E+01
 1.1114751E+01  2.2532877E+01
 1.1126250E+01  2.2553101E+01
 1.1137751E+01  2.2580351E+01
 1.1149251E+01  2.2588598E+01
 1.1160750E+01  2.2561026E+01
 1.1172251E+01  2.2509007E+01
 1.1183750E+01  2.2442278E+01
 1.1195251E+01  2.2429390E+01
 1.1206751E+01  2.2451550E+01
 1.1218250E+01  2.2423584E+01
 1.1229751E+01  2.2385275E+01
 1.1241251E+01  2.2345604E+01
 1.1252750E+01  2.2332483E+01
 1.1264251E+01  2.2333696E+01
 1.1275750E+01  2.2335415E+01
 1.1287251E+01  2.2335751E+01
 1.1298751E+01  2.2325743E+01
 1.1310250E+01  2.2354563E+01
 1.1321751E+01  2.2392433E+01
 1.1333251E+01  2.2457916E+01
 1.1344750E+01  2.2498047E+01
 1.1356251E+01  2.2509626E+01
 1.1367750E+01  2.2562019E+01
 1.1379251E+01  2.2568476E+01
 1.1390751E+01  2.2649714E+01
 1.1402250E+01  2.2720625E+01
 1.1413751E+01  2.2683491E+01
 1.1425251E+01  2.2660290E+01
 1.1436750E+01  2.2611647E+01
 1.1448251E+01  2.2653942E+01
 1.1459750E+01  2.2699505E+01
 1.1471251E+01  2.2705822E+01
 1.1482751E+01  2.2760874E+01
 1.1494250E+01  2.2785460E+01
 1.1505751E+01  2.2783960E+01
 1.1517251E+01  2.2859545E+01
 1.1528750E+01  2.3162552E+01
 1.1540251E+01  2.3958881E+01
 1.1551750E+01  2.4680414E+01
 1.1563251E+01  2.5615744E+01
 1.1574751E+01  2.7028683E+01
 1.1586250E+01  2.7393297E+01
 1.1597751E+01  2.8217798E+01
 1.1609251E+01  2.7852186E+01
 1.1620750E+01  2.7440212E+01
 1.1632251E+01  2.6145372E+01
 1.1643750E+01  2.4624119E+01
 1.1655251E+01  2.4013592E+01
 1.1666751E+01  2.3234766E+01
 1.1678250E+01  2.2953951E+01
 1.1689751E+01  2.2755600E+01
 1.1701251E+01  2.2624969E+01
 1.1712750E+01  2.2529806E+01
 1.1724251E+01  2.2532152E+01
 1.1735750E+01  2.2548124E+01
 1.1747251E+01  2.2576616E+01
 1.1758751E+01  2.2556072E+01
 1.1770250E+01  2.2574169E+01
 1.1781751E+01  2.2513027E+01
 1.1793251E+01  2.2478733E+01
 1.1804750E+01  2.2460052E+01
 1.1816251E+01  2.2504030E+01
 1.1827750E+01  2.2486528E+01
 1.1839251E+01  2.2431154E+01
 1.1850751E+01  2.2363810E+01
 1.1862250E+01  2.2329370E+01
 1.1873751E+01  2.2295284E+01
 1.1885251E+01  2.2260714E+01
 1.1896750E+01  2.2338612E+01
 1.1908251E+01  2.2408504E+01
 1.1919750E+01  2.2580622E+01
 1.1931251E+01  2.2651718E+01
 1.1942751E+01  2.2742273E+01
 1.1954250E+01  2.2796009E+01
 1.1965751E+01  2.2810492E+01
 1.1977251E+01  2.2854992E+01
 1.1988750E+01  2.2835228E+01
 1.2000251E+01  2.2830120E+01
 1.2011750E+01  2.2777193E+01
 1.2023251E+01  2.2771929E+01
 1.2034751E+01  2.2767656E+01
 1.2046250E+01  2.2849852E+01
 1.2057751E+01  2.2953121E+01
 1.2069251E+01  2.3224834E+01
 1.2080750E+01  2.3457424E+01
 1.2092251E+01  2.3791651E+01
 1.2103750E+01  2.3879301E+01
 1.2115251E+01  2.3970154E+01
 1.2126751E+01  2.3696432E+01
 1.2138250E+01  2.3555887E+01
 1.2149751E+01  2.3226358E+01
 1.2161251E+01  2.3050877E+01
 1.2172750E+01  2.2797575E+01
 1.2184251E+01  2.2725180E+01
 1.2195750E+01  2.2657701E+01
 1.2207251E+01  2.2606453E+01
 1.2218751E+01  2.2565016E+01
 1.2230250E+01  2.2544201E+01
 1.2241751E+01  2.2555704E+01
 1.2253251E+01  2.2546186E+01
 1.2264750E+01  2.2545771E+01
 1.2276251E+01  2.2497149E+01
 1.2287750E+01  2.2475538E+01
 1.2299251E+01  2.2431997E+01
 1.2310751E+01  2.2483286E+01
 1.2322250E+01  2.2423498E+01
 1.2333751E+01  2.2453545E+01
 1.2345250E+01  2.2453259E+01
 1.2356750E+01  2.2497999E+01
 1.2368251E+01  2.2473867E+01
 1.2379750E+01  2.2488773E+01
 1.2391251E+01  2.2522861E+01
 1.2402751E+01  2.2522936E+01
 1.2414250E+01  2.2520557E+01
 1.2425751E+01  2.2494799E+01
 1.2437250E+01  2.2518621E+01
 1.2448750E+01  2.2531008E+01
 1.2460251E+01  2.2610819E+01
 1.2471750E+01  2.2630663E+01
 1.2483251E+01  2.2666191E+01
 1.2494751E+01  2.2601700E+01
 1.2506250E+01  2.2591764E+01
 1.2517751E+01  2.2547186E+01
 1.2529250E+01  2.2594687E+01
 1.2540751E+01  2.2649359E+01
 1.2552251E+01  2.2686214E+01
 1.2563750E+01  2.2720539E+01
 1.2575251E+01  2.2764841E+01
 1.2586751E+01  2.2804516E+01
 1.2598250E+01  2.2866949E+01
 1.2609751E+01  2.2858967E+01
 1.2621250E+01  2.2868938E+01
 1.2632751E+01  2.2833679E+01
 1.2644251E+01  2.2783010E+01
 1.2655750E+01  2.2814497E+01
 1.2667251E+01  2.2799294E+01
 1.2678751E+01  2.2871687E+01
 1.2690250E+01  2.2831087E+01
 1.2701751E+01  2.2850918E+01
 1.2713250E+01  2.2850750E+01
 1.2724751E+01  2.2861740E+01
 1.2736251E+01  2.2828583E+01
 1.2747750E+01  2.2837172E+01
 1.2759251E+01  2.2901331E+01
 1.2770751E+01  2.2973513E+01
 1.2782250E+01  2.3051601E+01
 1.2793751E+01  2.3014532E+01
 1.2805250E+01  2.3057241E+01
 1.2816751E+01  2.3068272E+01
 1.2828251E+01  2.3162231E+01
 1.2839750E+01  2.3215191E+01
 1.2851251E+01  2.3304461E+01
 1.2862751E+01  2.3392363E+01
 1.2874250E+01  2.3503302E+01
 1.2885751E+01  2.3521421E+01
 1.2897250E+01  2.3491377E+01
 1.2908751E+01  2.3489771E+01
 1.2920251E+01  2.3544842E+01
 1.2931750E+01  2.3650394E+01
 1.2943251E+01  2.3699724E+01
 1.2954751E+01  2.3775169E+01
 1.2966250E+01  2.3809992E+01
 1.2977751E+01  2.3865139E+01
 1.2989250E+01  2.3829342E+01
 1.3000751E+01  2.3853426E+01
 1.3012251E+01  2.3876017E+01
 1.3023750E+01  2.3940737E+01
 1.3035251E+01  2.4010166E+01
 1.3046751E+01  2.4096754E+01
 1.3058250E+01  2.4213120E+01
 1.3069751E+01  2.4294113E+01
 1.3081250E+01  2.4405146E+01
 1.3092751E+01  2.4539711E+01
 1.3104251E+01  2.4743147E+01
 1.3115750E+01  2.4882982E+01
 1.3127251E+01  2.5020443E+01
 1.3138751E+01  2.5130795E+01
 1.3150250E+01  2.5221239E+01
 1.3161751E+01  2.5312902E+01
 1.3173250E+01  2.5411278E+01
 1.3184751E+01  2.5534718E+01
 1.3196251E+01  2.5658976E+01
 1.3207750E+01  2.5796816E+01
 1.3219251E+01  2.5917706E+01
 1.3230751E+01  2.6067907E+01
 1.3242250E+01  2.6213047E+01
 1.3253751E+01  2.6361660E+01
 1.3265250E+01  2.6495840E+01
 1.3276751E+01  2.6621967E+01
 1.3288251E+01  2.6768675E+01
 1.3299750E+01  2.6868877E+01
 1.3311251E+01  2.6976681E+01
 1.3322751E+01  2.7159864E+01
 1.3334250E+01  2.7387678E+01
 1.3345751E+01  2.7539129E+01
 1.3357250E+01  2.7646551E+01
 1.3368751E+01  2.7713428E+01
 1.3380251E+01  2.7947971E+01
 1.3391750E+01  2.8123770E+01
 1.3403251E+01  2.8357275E+01
 1.3414751E+01  2.8454071E+01
 1.3426250E+01  2.8527283E+01
 1.3437751E+01  2.8554743E+01
 1.3449250E+01  2.8597582E+01
 1.3460751E+01  2.8673737E+01
 1.3472251E+01  2.8805655E+01
 1.3483750E+01  2.8971523E+01
 1.3495251E+01  2.9128147E+01
 1.3506751E+01  2.9292955E+01
 1.3518250E+01  2.9404692E+01
 1.3529751E+01  2.9511677E+01
 1.3541250E+01  2.9562544E+01
 1.3552751E+01  2.9596428E+01
 1.3564251E+01  2.9679522E+01
 1.3575750E+01  2.9733816E+01
 1.3587251E+01  2.9809095E+01
 1.3598751E+01  2.9846169E+01
 1.3610250E+01  2.9845242E+01
 1.3621751E+01  2.9873526E+01
 1.3633250E+01  2.9865509E+01
 1.3644751E+01  2.9840248E+01
 1.3656251E+01  2.9750048E+01
 1.3667750E+01  2.9686710E+01
 1.3679251E+01  2.9635206E+01
 1.3690751E+01  2.9619678E+01
 1.3702250E+01  2.9581610E+01
 1.3713751E+01  2.9549757E+01
 1.3725250E+01  2.9516623E+01
 1.3736751E+01  2.9461637E+01
 1.3748251E+01  2.9419609E+01
 1.3759750E+01  2.9345690E+01
 1.3771251E+01  2.9348644E+01
 1.3782751E+01  2.9276575E+01
 1.3794250E+01  2.9248560E+01
 1.3805751E+01  2.9156439E+01
 1.3817250E+01  2.9108191E+01
 1.3828751E+01  2.9009165E+01
 1.3840251E+01  2.8937845E+01
 1.3851750E+01  2.8899769E+01
 1.3863251E+01  2.8871513E+01
 1.3874751E+01  2.8828400E+01
 1.3886250E+01  2.8762974E+01
 1.3897751E+01  2.8849403E+01
 1.3909250E+01  2.8916473E+01
 1.3920751E+01  2.9005077E+01
 1.3932251E+01  2.9099785E+01
 1.3943750E+01  2.9190868E+01
 1.3955251E+01  2.9190460E+01
 1.3966751E+01  2.9040449E+01
 1.3978251E+01  2.8792078E+01
 1.3989751E+01  2.8566347E+01
 1.4001250E+01  2.8267525E+01
 1.4012751E+01  2.8036978E+01
 1.4024251E+01  2.7809193E+01
 1.4035750E+01  2.7644363E+01
 1.4047251E+01  2.7558773E+01
 1.4058751E+01  2.7477335E+01
 1.4070251E+01  2.7424358E+01
 1.4081751E+01  2.7320065E+01
 1.4093250E+01  2.7241976E+01
 1.4104751E+01  2.7166647E+01
 1.4116251E+01  2.7130039E+01
 1.4127750E+01  2.7105085E+01
 1.4139251E+01  2.7054169E+01
 1.4150751E+01  2.6994669E+01
 1.4162251E+01  2.6892118E+01
 1.4173751E+01  2.6798235E+01
 1.4185250E+01  2.6679913E+01
 1.4196751E+01  2.6592440E+01
 1.4208251E+01  2.6563677E+01
 1.4219750E+01  2.6570412E+01
 1.4231251E+01  2.6551241E+01
 1.4242751E+01  2.6500113E+01
 1.4254251E+01  2.6455269E+01
 1.4265751E+01  2.6447916E+01
 1.4277250E+01  2.6404442E+01
 1.4288751E+01  2.6394346E+01
 1.4300251E+01  2.6354465E+01
 1.4311750E+01  2.6315054E+01
 1.4323251E+01  2.6230888E+01
 1.4334751E+01  2.6162655E+01
 1.4346251E+01  2.6045616E+01
 1.4357751E+01  2.6020771E+01
 1.4369250E+01  2.5977785E+01
 1.4380751E+01  2.5994837E+01
 1.4392251E+01  2.5955872E+01
 1.4403750E+01  2.5967741E+01
 1.4415251E+01  2.5962440E+01
 1.4426751E+01  2.5915388E+01
 1.4438251E+01  2.5880186E+01
 1.4449751E+01  2.5818758E+01
 1.4461250E+01  2.5755215E+01
 1.4472751E+01  2.5686476E+01
 1.4484251E+01  2.5651300E+01
 1.4495750E+01  2.5625307E+01
 1.4507251E+01  2.5561535E+01
 1.4518751E+01  2.5502537E+01
 1.4530251E+01  2.5462479E+01
 1.4541751E+01  2.5477489E+01
 1.4553250E+01  2.5468647E+01
 1.4564751E+01  2.5512535E+01
 1.4576251E+01  2.5509336E+01
 1.4587750E+01  2.5542046E+01
 1.4599251E+01  2.5475597E+01
 1.4610751E+01  2.5430819E+01
 1.4622251E+01  2.5393448E+01
 1.4633751E+01  2.5338552E+01
 1.4645250E+01  2.5265957E+01
 1.4656751E+01  2.5213814E+01
 1.4668251E+01  2.5203457E+01
 1.4679750E+01  2.5274513E+01
 1.4691251E+01  2.5328308E+01
 1.4702751E+01  2.5312923E+01
 1.4714251E+01  2.5227804E+01
 1.4725751E+01  2.5119715E+01
 1.4737250E+01  2.5098669E+01
 1.4748751E+01  2.5101593E+01
 1.4760251E+01  2.5136528E+01
 1.4771750E+01  2.5144535E+01
 1.4783251E+01  2.5161737E+01
 1.4794751E+01  2.5197788E+01
 1.4806251E+01  2.5174639E+01
 1.4817751E+01  2.5138119E+01
 1.4829250E+01  2.5075623E+01
 1.4840751E+01  2.5084646E+01
 1.4852251E+01  2.5043255E+01
 1.4863750E+01  2.4959545E+01
 1.4875251E+01  2.4868948E+01
 1.4886751E+01  2.4804688E+01
 1.4898251E+01  2.4850082E+01
 1.4909751E+01  2.4859404E+01
 1.4921250E+01  2.4852556E+01
 1.4932751E+01  2.4772387E+01
 1.4944251E+01  2.4741196E+01
 1.4955750E+01  2.4716139E+01
 1.4967251E+01  2.4742668E+01
 1.4978751E+01  2.4758160E+01
 1.4990251E+01  2.4777740E+01
 1.5001751E+01  2.4768335E+01
 1.5013250E+01  2.4795080E+01
 1.5024751E+01  2.4786489E+01
 1.5036251E+01  2.4717386E+01
 1.5047750E+01  2.4656792E+01
 1.5059251E+01  2.4641642E+01
 1.5070751E+01  2.4698473E+01
 1.5082251E+01  2.4738605E+01
 1.5093751E+01  2.4843493E+01
 1.5105250E+01  2.4924244E+01
 1.5116751E+01  2.4992416E+01
 1.5128251E+01  2.5023537E+01
 1.5139750E+01  2.5127722E+01
 1.5151251E+01  2.5442751E+01
 1.5162751E+01  2.5633226E+01
 1.5174251E+01  2.5904922E+01
 1.5185751E+01  2.6006430E+01
 1.5197250E+01  2.5986343E+01
 1.5208751E+01  2.5834034E+01
 1.5220251E+01  2.5550501E+01
 1.5231750E+01  2.5396927E+01
 1.5243251E+01  2.5133652E+01
 1.5254751E+01  2.5011097E+01
 1.5266251E+01  2.4859705E+01
 1.5277751E+01  2.4765867E+01
 1.5289250E+01  2.4684969E+01
 1.5300751E+01  2.4666046E+01
 1.5312251E+01  2.4689562E+01
 1.5323750E+01  2.4696987E+01
 1.5335251E+01  2.4725782E+01
 1.5346751E+01  2.4657866E+01
 1.5358251E+01  2.4582884E+01
 1.5369751E+01  2.4511755E+01
 1.5381250E+01  2.4507099E+01
 1.5392751E+01  2.4482718E+01
 1.5404251E+01  2.4464746E+01
 1.5415751E+01  2.4416550E+01
 1.5427251E+01  2.4453524E+01
 1.5438751E+01  2.4439899E+01
 1.5450251E+01  2.4431082E+01
 1.5461751E+01  2.4425154E+01
 1.5473250E+01  2.4391911E+01
 1.5484751E+01  2.4443054E+01
 1.5496251E+01  2.4447592E+01
 1.5507751E+01  2.4513390E+01
 1.5519251E+01  2.4478577E+01
 1.5530751E+01  2.4416294E+01
 1.5542251E+01  2.4319939E+01
 1.5553751E+01  2.4312954E+01
 1.5565250E+01  2.4343441E+01
 1.5576751E+01  2.4362368E+01
 1.5588251E+01  2.4391232E+01
 1.5599751E+01  2.4413050E+01
 1.5611251E+01  2.4440174E+01
 1.5622751E+01  2.4415257E+01
 1.5634251E+01  2.4459833E+01
 1.5645751E+01  2.4525393E+01
 1.5657250E+01  2.4551765E+01
 1.5668751E+01  2.4558821E+01
 1.5680251E+01  2.4545145E+01
 1.5691751E+01  2.4529739E+01
 1.5703251E+01  2.4546129E+01
 1.5714751E+01  2.4545107E+01
 1.5726251E+01  2.4576214E+01
 1.5737751E+01  2.4513636E+01
 1.5749250E+01  2.4469200E+01
 1.5760751E+01  2.4458801E+01
 1.5772251E+01  2.4412237E+01
 1.5783751E+01  2.4453398E+01
 1.5795251E+01  2.4477661E+01
 1.5806751E+01  2.4585312E+01
 1.5818251E+01  2.4608616E+01
 1.5829751E+01  2.4594135E+01
 1.5841250E+01  2.4529932E+01
 1.5852751E+01  2.4528431E+01
 1.5864251E+01  2.4497437E+01
 1.5875751E+01  2.4539192E+01
 1.5887251E+01  2.4573118E+01
 1.5898750E+01  2.4617853E+01
 1.5910251E+01  2.4680080E+01
 1.5921751E+01  2.4708967E+01
 1.5933250E+01  2.4759233E+01
 1.5944751E+01  2.4692247E+01
 1.5956251E+01  2.4666132E+01
 1.5967751E+01  2.4606035E+01
 1.5979251E+01  2.4584127E+01
 1.5990750E+01  2.4626537E+01
 1.6002251E+01  2.4650982E+01
 1.6013750E+01  2.4732353E+01
 1.6025251E+01  2.4733669E+01
 1.6036751E+01  2.4770264E+01
 1.6048250E+01  2.4779108E+01
 1.6059752E+01  2.4714628E+01
 1.6071251E+01  2.4607883E+01
 1.6082750E+01  2.4559776E+01
 1.6094252E+01  2.4510401E+01
 1.6105751E+01  2.4598177E+01
 1.6117250E+01  2.4601557E+01
 1.6128750E+01  2.4655188E+01
 1.6140251E+01  2.4667696E+01
 1.6151751E+01  2.4702061E+01
 1.6163250E+01  2.4788750E+01
 1.6174751E+01  2.4779821E+01
 1.6186251E+01  2.4895803E+01
 1.6197750E+01  2.4836926E+01
 1.6209251E+01  2.4945723E+01
 1.6220751E+01  2.4794556E+01
 1.6232250E+01  2.4841007E+01
 1.6243752E+01  2.4828054E+01
 1.6255251E+01  2.4960024E+01
 1.6266750E+01  2.5130520E+01
 1.6278252E+01  2.5110874E+01
 1.6289751E+01  2.5189379E+01
 1.6301250E+01  2.4917805E+01
 1.6312750E+01  2.4984625E+01
 1.6324251E+01  2.4789513E+01
 1.6335751E+01  2.4832846E+01
 1.6347250E+01  2.4723679E+01
 1.6358751E+01  2.4724867E+01
 1.6370251E+01  2.4660294E+01
 1.6381750E+01  2.4642492E+01
 1.6393251E+01  2.4685282E+01
 1.6404751E+01  2.4720787E+01
 1.6416250E+01  2.4762281E+01
 1.6427752E+01  2.4741478E+01
 1.6439251E+01  2.4740267E+01
 1.6450750E+01  2.4672153E+01
 1.6462252E+01  2.4640955E+01
 1.6473751E+01  2.4566904E+01
 1.6485250E+01  2.4605042E+01
 1.6496750E+01  2.4614527E+01
 1.6508251E+01  2.4648575E+01
 1.6519751E+01  2.4647440E+01
 1.6531250E+01  2.4606234E+01
 1.6542751E+01  2.4646910E+01
 1.6554251E+01  2.4649700E+01
 1.6565750E+01  2.4697414E+01
 1.6577251E+01  2.4652870E+01
 1.6588751E+01  2.4627195E+01
 1.6600250E+01  2.4539373E+01
 1.6611752E+01  2.4526281E+01
 1.6623251E+01  2.4450232E+01
 1.6634750E+01  2.4505594E+01
 1.6646252E+01  2.4483303E+01
 1.6657751E+01  2.4522312E+01
 1.6669250E+01  2.4502089E+01
 1.6680750E+01  2.4482296E+01
 1.6692251E+01  2.4435938E+01
 1.6703751E+01  2.4396513E+01
 1.6715250E+01  2.4377645E+01
 1.6726751E+01  2.4337746E+01
 1.6738251E+01  2.4277679E+01
 1.6749750E+01  2.4286577E+01
 1.6761251E+01  2.4288887E+01
 1.6772751E+01  2.4327278E+01
 1.6784250E+01  2.4314573E+01
 1.6795752E+01  2.4358229E+01
 1.6807251E+01  2.4407652E+01
 1.6818750E+01  2.4402918E+01
 1.6830252E+01  2.4400429E+01
 1.6841751E+01  2.4336723E+01
 1.6853251E+01  2.4341515E+01
 1.6864750E+01  2.4360134E+01
 1.6876251E+01  2.4370672E+01
 1.6887751E+01  2.4378817E+01
 1.6899250E+01  2.4349497E+01
 1.6910751E+01  2.4387337E+01
 1.6922251E+01  2.4402208E+01
 1.6933750E+01  2.4414665E+01
 1.6945251E+01  2.4392010E+01
 1.6956751E+01  2.4354029E+01
 1.6968250E+01  2.4279751E+01
 1.6979752E+01  2.4245426E+01
 1.6991251E+01  2.4254892E+01
 1.7002750E+01  2.4241621E+01
 1.7014252E+01  2.4236046E+01
 1.7025751E+01  2.4173117E+01
 1.7037251E+01  2.4131968E+01
 1.7048750E+01  2.4034704E+01
 1.7060251E+01  2.4003067E+01
 1.7071751E+01  2.4014084E+01
 1.7083250E+01  2.4073545E+01
 1.7094751E+01  2.4131523E+01
 1.7106251E+01  2.4159197E+01
 1.7117750E+01  2.4206638E+01
 1.7129251E+01  2.4271027E+01
 1.7140751E+01  2.4324842E+01
 1.7152250E+01  2.4304346E+01
 1.7163752E+01  2.4254484E+01
 1.7175251E+01  2.4170246E+01
 1.7186750E+01  2.4123499E+01
 1.7198252E+01  2.4106537E+01
 1.7209751E+01  2.4110058E+01
 1.7221251E+01  2.4100677E+01
 1.7232750E+01  2.4073011E+01
 1.7244251E+01  2.4046633E+01
 1.7255751E+01  2.3984175E+01
 1.7267250E+01  2.3984303E+01
 1.7278751E+01  2.3977913E+01
 1.7290251E+01  2.4035286E+01
 1.7301750E+01  2.4023344E+01
 1.7313251E+01  2.4012020E+01
 1.7324751E+01  2.4004259E+01
 1.7336250E+01  2.4013737E+01
 1.7347752E+01  2.4005608E+01
 1.7359251E+01  2.3978485E+01
 1.7370750E+01  2.3968636E+01
 1.7382252E+01  2.3989868E+01
 1.7393751E+01  2.4009407E+01
 1.7405251E+01  2.4018787E+01
 1.7416750E+01  2.3978931E+01
 1.7428251E+01  2.3970842E+01
 1.7439751E+01  2.3948334E+01
 1.7451250E+01  2.3980326E+01
 1.7462751E+01  2.3970455E+01
 1.7474251E+01  2.3947443E+01
 1.7485750E+01  2.3934669E+01
 1.7497252E+01  2.3928965E+01
 1.7508751E+01  2.3930342E+01
 1.7520250E+01  2.3902605E+01
 1.7531752E+01  2.3861887E+01
 1.7543251E+01  2.3853241E+01
 1.7554750E+01  2.3793875E+01
 1.7566252E+01  2.3750885E+01
 1.7577751E+01  2.3748709E+01
 1.7589251E+01  2.3753061E+01
 1.7600750E+01  2.3844057E+01
 1.7612251E+01  2.3848965E+01
 1.7623751E+01  2.3914705E+01
 1.7635250E+01  2.3863882E+01
 1.7646751E+01  2.3885435E+01
 1.7658251E+01  2.3830072E+01
 1.7669750E+01  2.3816433E+01
 1.7681252E+01  2.3804344E+01
 1.7692751E+01  2.3820335E+01
 1.7704250E+01  2.3822327E+01
 1.7715752E+01  2.3822680E+01
 1.7727251E+01  2.3828377E+01
 1.7738750E+01  2.3850500E+01
 1.7750252E+01  2.3854847E+01
 1.7761751E+01  2.3838413E+01
 1.7773251E+01  2.3768606E+01
 1.7784750E+01  2.3728655E+01
 1.7796251E+01  2.3729084E+01
 1.7807751E+01  2.3731173E+01
 1.7819250E+01  2.3757929E+01
 1.7830751E+01  2.3754808E+01
 1.7842251E+01  2.3797289E+01
 1.7853750E+01  2.3798851E+01
 1.7865252E+01  2.3833916E+01
 1.7876751E+01  2.3787413E+01
 1.7888250E+01  2.3728148E+01
 1.7899752E+01  2.3669384E+01
 1.7911251E+01  2.3716137E+01
 1.7922750E+01  2.3737289E+01
 1.7934252E+01  2.3713505E+01
 1.7945751E+01  2.3682274E+01
 1.7957251E+01  2.3663162E+01
 1.7968750E+01  2.3687654E+01
 1.7980251E+01  2.3727713E+01
 1.7991751E+01  2.3790384E+01
 1.8003250E+01  2.3876410E+01
 1.8014751E+01  2.3905834E+01
 1.8026251E+01  2.3921825E+01
 1.8037750E+01  2.3911154E+01
 1.8049252E+01  2.3913729E+01
 1.8060751E+01  2.3953022E+01
 1.8072250E+01  2.3952473E+01
 1.8083752E+01  2.4013578E+01
 1.8095251E+01  2.4030289E+01
 1.8106750E+01  2.4064005E+01
 1.8118252E+01  2.4034372E+01
 1.8129751E+01  2.4019083E+01
 1.8141251E+01  2.3975107E+01
 1.8152750E+01  2.3900846E+01
 1.8164251E+01  2.3824781E+01
 1.8175751E+01  2.3745188E+01
 1.8187250E+01  2.3648943E+01
 1.8198751E+01  2.3580227E+01
 1.8210251E+01  2.3542521E+01
 1.8221750E+01  2.3504519E+01
 1.8233252E+01  2.3449537E+01
 1.8244751E+01  2.3447512E+01
 1.8256250E+01  2.3454422E+01
 1.8267752E+01  2.3480274E+01
 1.8279251E+01  2.3503077E+01
 1.8290751E+01  2.3506111E+01
 1.8302252E+01  2.3515139E+01
 1.8313751E+01  2.3484623E+01
 1.8325251E+01  2.3469986E+01
 1.8336750E+01  2.3476603E+01
 1.8348251E+01  2.3534775E+01
 1.8359751E+01  2.3565384E+01
 1.8371250E+01  2.3583193E+01
 1.8382751E+01  2.3566948E+01
 1.8394251E+01  2.3609615E+01
 1.8405750E+01  2.3639744E+01
 1.8417252E+01  2.3650785E+01
 1.8428751E+01  2.3623156E+01
 1.8440250E+01  2.3551300E+01
 1.8451752E+01  2.3513662E+01
 1.8463251E+01  2.3515278E+01
 1.8474751E+01  2.3586296E+01
 1.8486252E+01  2.3591806E+01
 1.8497751E+01  2.3581390E+01
 1.8509251E+01  2.3518576E+01
 1.8520750E+01  2.3479462E+01
 1.8532251E+01  2.3477104E+01
 1.8543751E+01  2.3427546E+01
 1.8555250E+01  2.3460905E+01
 1.8566751E+01  2.3421782E+01
 1.8578251E+01  2.3487383E+01
 1.8589750E+01  2.3496485E+01
 1.8601252E+01  2.3553757E+01
 1.8612751E+01  2.3536581E+01
 1.8624250E+01  2.3531626E+01
 1.8635752E+01  2.3553034E+01
 1.8647251E+01  2.3489391E+01
 1.8658751E+01  2.3428499E+01
 1.8670252E+01  2.3355751E+01
 1.8681751E+01  2.3392275E+01
 1.8693251E+01  2.3420177E+01
 1.8704750E+01  2.3450766E+01
 1.8716251E+01  2.3424961E+01
 1.8727751E+01  2.3418951E+01
 1.8739250E+01  2.3402414E+01
 1.8750751E+01  2.3405493E+01
 1.8762251E+01  2.3415653E+01
 1.8773750E+01  2.3414904E+01
 1.8785252E+01  2.3437614E+01
 1.8796751E+01  2.3454727E+01
 1.8808250E+01  2.3412909E+01
 1.8819752E+01  2.3390764E+01
 1.8831251E+01  2.3309315E+01
 1.8842751E+01  2.3322695E+01
 1.8854252E+01  2.3302486E+01
 1.8865751E+01  2.3370876E+01
 1.8877251E+01  2.3395256E+01
 1.8888750E+01  2.3404593E+01
 1.8900251E+01  2.3430965E+01
 1.8911751E+01  2.3430573E+01
 1.8923250E+01  2.3531313E+01
 1.8934752E+01  2.3553638E+01
 1.8946251E+01  2.3629122E+01
 1.8957750E+01  2.3601662E+01
 1.8969252E+01  2.3584829E+01
 1.8980751E+01  2.3513412E+01
 1.8992250E+01  2.3454004E+01
 1.9003752E+01  2.3464506E+01
 1.9015251E+01  2.3475510E+01
 1.9026751E+01  2.3526524E+01
 1.9038252E+01  2.3522146E+01
 1.9049751E+01  2.3503675E+01
 1.9061251E+01  2.3469110E+01
 1.9072750E+01  2.3493835E+01
 1.9084251E+01  2.3493460E+01
 1.9095751E+01  2.3488461E+01
 1.9107250E+01  2.3475677E+01
 1.9118752E+01  2.3445850E+01
 1.9130251E+01  2.3451107E+01
 1.9141750E+01  2.3427120E+01
 1.9153252E+01  2.3475697E+01
 1.9164751E+01  2.3419403E+01
 1.9176250E+01  2.3393503E+01
 1.9187752E+01  2.3355789E+01
 1.9199251E+01  2.3385012E+01
 1.9210751E+01  2.3448631E+01
 1.9222252E+01  2.3474041E+01
 1.9233751E+01  2.3519812E+01
 1.9245251E+01  2.3532537E+01
 1.9256750E+01  2.3574146E+01
 1.9268251E+01  2.3562229E+01
 1.9279751E+01  2.3495686E+01
 1.9291250E+01  2.3458258E+01
 1.9302752E+01  2.3472475E+01
 1.9314251E+01  2.3506870E+01
 1.9325750E+01  2.3497171E+01
 1.9337252E+01  2.3491783E+01
 1.9348751E+01  2.3477270E+01
 1.9360250E+01  2.3532661E+01
 1.9371752E+01  2.3574648E+01
 1.9383251E+01  2.3566998E+01
 1.9394751E+01  2.3542652E+01
 1.9406250E+01  2.3507235E+01
 1.9417751E+01  2.3536215E+01
 1.9429251E+01  2.3516184E+01
 1.9440750E+01  2.3488886E+01
 1.9452251E+01  2.3463938E+01
 1.9463751E+01  2.3468096E+01
 1.9475250E+01  2.3507362E+01
 1.9486752E+01  2.3542461E+01
 1.9498251E+01  2.3523907E+01
 1.9509750E+01  2.3543285E+01
 1.9521252E+01  2.3566845E+01
 1.9532751E+01  2.3585817E+01
 1.9544250E+01  2.3584120E+01
 1.9555752E+01  2.3548647E+01
 1.9567251E+01  2.3554327E+01
 1.9578751E+01  2.3542389E+01
 1.9590250E+01  2.3498596E+01
 1.9601751E+01  2.3508263E+01
 1.9613251E+01  2.3560461E+01
 1.9624750E+01  2.3647291E+01
 1.9636251E+01  2.3692997E+01
 1.9647751E+01  2.3659311E+01
 1.9659250E+01  2.3778280E+01
 1.9670752E+01  2.3831320E+01
 1.9682251E+01  2.3976425E+01
 1.9693750E+01  2.4063391E+01
 1.9705252E+01  2.4142107E+01
 1.9716751E+01  2.4292370E+01
 1.9728251E+01  2.4265345E+01
 1.9739752E+01  2.4316236E+01
 1.9751251E+01  2.4153271E+01
 1.9762751E+01  2.4094624E+01
 1.9774250E+01  2.4011333E+01
 1.9785751E+01  2.3974653E+01
 1.9797251E+01  2.3979593E+01
 1.9808750E+01  2.3993742E+01
 1.9820251E+01  2.4026119E+01
 1.9831751E+01  2.4086329E+01
 1.9843250E+01  2.4071270E+01
 1.9854752E+01  2.4134569E+01
 1.9866251E+01  2.4106297E+01
 1.9877750E+01  2.4095697E+01
 1.9889252E+01  2.4020931E+01
 1.9900751E+01  2.3953814E+01
 1.9912251E+01  2.3852360E+01
 1.9923752E+01  2.3727352E+01
 1.9935251E+01  2.3643396E+01
 1.9946751E+01  2.3594027E+01
 1.9958250E+01  2.3576218E+01
 1.9969751E+01  2.3600630E+01
 1.9981251E+01  2.3589619E+01
 1.9992750E+01  2.3606062E+01
 2.0004251E+01  2.3603611E+01
 2.0015751E+01  2.3620766E+01
 2.0027250E+01  2.3628973E+01
 2.0038752E+01  2.3639296E+01
 2.0050251E+01  2.3669413E+01
 2.0061750E+01  2.3626173E+01
 2.0073252E+01  2.3609610E+01
 2.0084751E+01  2.3567068E+01
 2.0096251E+01  2.3587730E+01
 2.0107752E+01  2.3651594E+01
 2.0119251E+01  2.3663980E+01
 2.0130751E+01  2.3618711E+01
 2.0142250E+01  2.3533474E+01
 2.0153751E+01  2.3520107E+01
 2.0165251E+01  2.3513662E+01
 2.0176750E+01  2.3542437E+01
 2.0188251E+01  2.3571701E+01
 2.0199751E+01  2.3554525E+01
 2.0211250E+01  2.3566673E+01
 2.0222752E+01  2.3575491E+01
 2.0234251E+01  2.3611284E+01
 2.0245750E+01  2.3619740E+01
 2.0257252E+01  2.3688829E+01
 2.0268751E+01  2.3717846E+01
 2.0280251E+01  2.3683775E+01
 2.0291752E+01  2.3595919E+01
 2.0303251E+01  2.3525560E+01
 2.0314751E+01  2.3557718E+01
 2.0326250E+01  2.3566313E+01
 2.0337751E+01  2.3616289E+01
 2.0349251E+01  2.3558865E+01
 2.0360750E+01  2.3521334E+01
 2.0372252E+01  2.3499439E+01
 2.0383751E+01  2.3493711E+01
 2.0395250E+01  2.3523720E+01
 2.0406752E+01  2.3521667E+01
 2.0418251E+01  2.3616142E+01
 2.0429750E+01  2.3678713E+01
 2.0441252E+01  2.3703745E+01
 2.0452751E+01  2.3722382E+01
 2.0464251E+01  2.3656084E+01
 2.0475752E+01  2.3611221E+01
 2.0487251E+01  2.3534239E+01
 2.0498751E+01  2.3606623E+01
 2.0510250E+01  2.3598284E+01
 2.0521751E+01  2.3585930E+01
 2.0533251E+01  2.3508186E+01
 2.0544750E+01  2.3533436E+01
 2.0556252E+01  2.3601063E+01
 2.0567751E+01  2.3674404E+01
 2.0579250E+01  2.3684553E+01
 2.0590752E+01  2.3741648E+01
 2.0602251E+01  2.3802402E+01
 2.0613750E+01  2.3853561E+01
 2.0625252E+01  2.3821634E+01
 2.0636751E+01  2.3748766E+01
 2.0648251E+01  2.3644470E+01
 2.0659752E+01  2.3583750E+01
 2.0671251E+01  2.3593418E+01
 2.0682751E+01  2.3683121E+01
 2.0694250E+01  2.3759359E+01
 2.0705751E+01  2.3820303E+01
 2.0717251E+01  2.3887867E+01
 2.0728750E+01  2.3905293E+01
 2.0740252E+01  2.3875566E+01
 2.0751751E+01  2.3900099E+01
 2.0763250E+01  2.3944939E+01
 2.0774752E+01  2.4007938E+01
 2.0786251E+01  2.3973965E+01
 2.0797750E+01  2.3976839E+01
 2.0809252E+01  2.3925240E+01
 2.0820751E+01  2.3908951E+01
 2.0832251E+01  2.3871660E+01
 2.0843752E+01  2.3835728E+01
 2.0855251E+01  2.3795673E+01
 2.0866751E+01  2.3733438E+01
 2.0878250E+01  2.3734591E+01
 2.0889751E+01  2.3720947E+01
 2.0901251E+01  2.3767088E+01
 2.0912750E+01  2.3761921E+01
 2.0924252E+01  2.3804560E+01
 2.0935751E+01  2.3809834E+01
 2.0947250E+01  2.3914948E+01
 2.0958752E+01  2.3867609E+01
 2.0970251E+01  2.3822336E+01
 2.0981750E+01  2.3783348E+01
 2.0993252E+01  2.3805893E+01
 2.1004751E+01  2.3805687E+01
 2.1016251E+01  2.3781965E+01
 2.1027752E+01  2.3786495E+01
 2.1039251E+01  2.3806767E+01
 2.1050751E+01  2.3810493E+01
 2.1062250E+01  2.3820066E+01
 2.1073751E+01  2.3795895E+01
 2.1085251E+01  2.3787369E+01
 2.1096750E+01  2.3763432E+01
 2.1108252E+01  2.3793512E+01
 2.1119751E+01  2.3797735E+01
 2.1131250E+01  2.3806360E+01
 2.1142752E+01  2.3806005E+01
 2.1154251E+01  2.3785196E+01
 2.1165751E+01  2.3823786E+01
 2.1177252E+01  2.3812311E+01
 2.1188751E+01  2.3807644E+01
 2.1200251E+01  2.3767412E+01
 2.1211752E+01  2.3754623E+01
 2.1223251E+01  2.3737295E+01
 2.1234751E+01  2.3741238E+01
 2.1246250E+01  2.3781130E+01
 2.1257751E+01  2.3810190E+01
 2.1269251E+01  2.3831667E+01
 2.1280750E+01  2.3847521E+01
 2.1292252E+01  2.3862225E+01
 2.1303751E+01  2.3853199E+01
 2.1315250E+01  2.3831776E+01
 2.1326752E+01  2.3848703E+01
 2.1338251E+01  2.3869822E+01
 2.1349751E+01  2.3873777E+01
 2.1361252E+01  2.3880550E+01
 2.1372751E+01  2.3895258E+01
 2.1384251E+01  2.3876587E+01
 2.1395752E+01  2.3835062E+01
 2.1407251E+01  2.3797726E+01
 2.1418751E+01  2.3839947E+01
 2.1430250E+01  2.3857805E+01
 2.1441751E+01  2.3906422E+01
 2.1453251E+01  2.3935741E+01
 2.1464750E+01  2.3997837E+01
 2.1476252E+01  2.3946413E+01
 2.1487751E+01  2.3918270E+01
 2.1499250E+01  2.3861252E+01
 2.1510752E+01  2.3903036E+01
 2.1522251E+01  2.3904404E+01
 2.1533751E+01  2.3923210E+01
 2.1545252E+01  2.3897581E+01
 2.1556751E+01  2.3877035E+01
 2.1568251E+01  2.3860672E+01
 2.1579752E+01  2.3868942E+01
 2.1591251E+01  2.3915134E+01
 2.1602751E+01  2.3957205E+01
 2.1614250E+01  2.3991192E+01
 2.1625751E+01  2.4008211E+01
 2.1637251E+01  2.4000086E+01
 2.1648750E+01  2.3971388E+01
 2.1660252E+01  2.3984587E+01
 2.1671751E+01  2.3986153E+01
 2.1683250E+01  2.3974297E+01
 2.1694752E+01  2.3945524E+01
 2.1706251E+01  2.3955460E+01
 2.1717751E+01  2.3959770E+01
 2.1729252E+01  2.3992956E+01
 2.1740751E+01  2.4008505E+01
 2.1752251E+01  2.4018774E+01
 2.1763752E+01  2.4032318E+01
 2.1775251E+01  2.4049366E+01
 2.1786751E+01  2.4033092E+01
 2.1798250E+01  2.4025627E+01
 2.1809752E+01  2.4044353E+01
 2.1821251E+01  2.4056301E+01
 2.1832750E+01  2.4040728E+01
 2.1844252E+01  2.4033407E+01
 2.1855751E+01  2.4077370E+01
 2.1867250E+01  2.4101492E+01
 2.1878752E+01  2.4100286E+01
 2.1890251E+01  2.4064352E+01
 2.1901751E+01  2.4083731E+01
 2.1913252E+01  2.4092831E+01
 2.1924751E+01  2.4105083E+01
 2.1936251E+01  2.4071581E+01
 2.1947752E+01  2.4118975E+01
 2.1959251E+01  2.4188465E+01
 2.1970751E+01  2.4283094E+01
 2.1982250E+01  2.4297676E+01
 2.1993752E+01  2.4232195E+01
 2.2005251E+01  2.4192602E+01
 2.2016750E+01  2.4124321E+01
 2.2028252E+01  2.4103157E+01
 2.2039751E+01  2.4089138E+01
 2.2051250E+01  2.4104002E+01
 2.2062752E+01  2.4115166E+01
 2.2074251E+01  2.4119343E+01
 2.2085751E+01  2.4134418E+01
 2.2097252E+01  2.4176535E+01
 2.2108751E+01  2.4201038E+01
 2.2120251E+01  2.4247726E+01
 2.2131752E+01  2.4280071E+01
 2.2143251E+01  2.4314722E+01
 2.2154751E+01  2.4321943E+01
 2.2166250E+01  2.4379398E+01
 2.2177752E+01  2.4368635E+01
 2.2189251E+01  2.4334175E+01
 2.2200750E+01  2.4321165E+01
 2.2212252E+01  2.4303509E+01
 2.2223751E+01  2.4307480E+01
 2.2235250E+01  2.4326736E+01
 2.2246752E+01  2.4345726E+01
 2.2258251E+01  2.4305099E+01
 2.2269751E+01  2.4281971E+01
 2.2281252E+01  2.4329924E+01
 2.2292751E+01  2.4420235E+01
 2.2304251E+01  2.4512934E+01
 2.2315752E+01  2.4531656E+01
 2.2327251E+01  2.4475994E+01
 2.2338751E+01  2.4448210E+01
 2.2350250E+01  2.4464390E+01
 2.2361752E+01  2.4497017E+01
 2.2373251E+01  2.4483265E+01
 2.2384750E+01  2.4450151E+01
 2.2396252E+01  2.4442238E+01
 2.2407751E+01  2.4446198E+01
 2.2419250E+01  2.4447395E+01
 2.2430752E+01  2.4500175E+01
 2.2442251E+01  2.4523504E+01
 2.2453751E+01  2.4568764E+01
 2.2465252E+01  2.4539051E+01
 2.2476751E+01  2.4509066E+01
 2.2488251E+01  2.4503565E+01
 2.2499752E+01  2.4559065E+01
 2.2511251E+01  2.4636955E+01
 2.2522751E+01  2.4732494E+01
 2.2534250E+01  2.4728136E+01
 2.2545752E+01  2.4733484E+01
 2.2557251E+01  2.4711327E+01
 2.2568750E+01  2.4729362E+01
 2.2580252E+01  2.4710970E+01
 2.2591751E+01  2.4756216E+01
 2.2603251E+01  2.4814943E+01
 2.2614752E+01  2.4877914E+01
 2.2626251E+01  2.4949440E+01
 2.2637751E+01  2.4961264E+01
 2.2649252E+01  2.4936855E+01
 2.2660751E+01  2.4921812E+01
 2.2672251E+01  2.4914480E+01
 2.2683752E+01  2.4954809E+01
 2.2695251E+01  2.5006168E+01
 2.2706751E+01  2.5041538E+01
 2.2718250E+01  2.5101349E+01
 2.2729752E+01  2.5136059E+01
 2.2741251E+01  2.5150608E+01
 2.2752750E+01  2.5128525E+01
 2.2764252E+01  2.5109940E+01
 2.2775751E+01  2.5135061E+01
 2.2787251E+01  2.5136721E+01
 2.2798752E+01  2.5186346E+01
 2.2810251E+01  2.5219427E+01
 2.2821751E+01  2.5275148E+01
 2.2833252E+01  2.5315403E+01
 2.2844751E+01  2.5358513E+01
 2.2856251E+01  2.5342455E+01
 2.2867750E+01  2.5412437E+01
 2.2879251E+01  2.5445271E+01
 2.2890751E+01  2.5583189E+01
 2.2902250E+01  2.5596495E+01
 2.2913752E+01  2.5722980E+01
 2.2925251E+01  2.5796061E+01
 2.2936750E+01  2.5834927E+01
 2.2948252E+01  2.5837975E+01
 2.2959751E+01  2.5857592E+01
 2.2971251E+01  2.6016088E+01
 2.2982752E+01  2.6094404E+01
 2.2994251E+01  2.6182529E+01
