F:\20151113_APS_34IDE\\Brian\Particle1\OCV\Data_0023.tif
2-Theta Angle (Degrees)
Intensity
       2000
 5.7500005E-03  0.0000000E+00
 1.7250001E-02  0.0000000E+00
 2.8750001E-02  0.0000000E+00
 4.0250003E-02  0.0000000E+00
 5.1750004E-02  0.0000000E+00
 6.3250005E-02  0.0000000E+00
 7.4750006E-02  0.0000000E+00
 8.6250007E-02  0.0000000E+00
 9.7750008E-02  0.0000000E+00
 1.0925001E-01  0.0000000E+00
 1.2075000E-01  0.0000000E+00
 1.3225001E-01  0.0000000E+00
 1.4375001E-01  0.0000000E+00
 1.5525001E-01  0.0000000E+00
 1.6675001E-01  0.0000000E+00
 1.7825001E-01  0.0000000E+00
 1.8975002E-01  0.0000000E+00
 2.0125002E-01  0.0000000E+00
 2.1275002E-01  0.0000000E+00
 2.2425000E-01  0.0000000E+00
 2.3575000E-01  0.0000000E+00
 2.4725001E-01  0.0000000E+00
 2.5875002E-01  0.0000000E+00
 2.7025002E-01  0.0000000E+00
 2.8175002E-01  0.0000000E+00
 2.9325002E-01  0.0000000E+00
 3.0475003E-01  0.0000000E+00
 3.1625003E-01  0.0000000E+00
 3.2775003E-01  0.0000000E+00
 3.3925003E-01  0.0000000E+00
 3.5075003E-01  0.0000000E+00
 3.6225003E-01  0.0000000E+00
 3.7375003E-01  0.0000000E+00
 3.8525003E-01  0.0000000E+00
 3.9675003E-01  0.0000000E+00
 4.0825003E-01  0.0000000E+00
 4.1975003E-01  0.0000000E+00
 4.3125004E-01  0.0000000E+00
 4.4275001E-01  0.0000000E+00
 4.5425001E-01  0.0000000E+00
 4.6575001E-01  0.0000000E+00
 4.7725001E-01  0.0000000E+00
 4.8875001E-01  0.0000000E+00
 5.0025004E-01  0.0000000E+00
 5.1175004E-01  0.0000000E+00
 5.2325004E-01  0.0000000E+00
 5.3475004E-01  0.0000000E+00
 5.4625005E-01  0.0000000E+00
 5.5775005E-01  0.0000000E+00
 5.6925005E-01  0.0000000E+00
 5.8075005E-01  0.0000000E+00
 5.9225005E-01  0.0000000E+00
 6.0375005E-01  0.0000000E+00
 6.1525005E-01  0.0000000E+00
 6.2675005E-01  0.0000000E+00
 6.3825005E-01  0.0000000E+00
 6.4975005E-01  0.0000000E+00
 6.6125005E-01  0.0000000E+00
 6.7275006E-01  0.0000000E+00
 6.8425006E-01  0.0000000E+00
 6.9575006E-01  0.0000000E+00
 7.0725006E-01  0.0000000E+00
 7.1875006E-01  0.0000000E+00
 7.3025006E-01  0.0000000E+00
 7.4175006E-01  0.0000000E+00
 7.5325006E-01  0.0000000E+00
 7.6475006E-01  0.0000000E+00
 7.7625006E-01  0.0000000E+00
 7.8775007E-01  0.0000000E+00
 7.9925007E-01  0.0000000E+00
 8.1075007E-01  0.0000000E+00
 8.2225007E-01  0.0000000E+00
 8.3375007E-01  0.0000000E+00
 8.4525007E-01  0.0000000E+00
 8.5675007E-01  0.0000000E+00
 8.6825007E-01  0.0000000E+00
 8.7975001E-01  0.0000000E+00
 8.9125001E-01  0.0000000E+00
 9.0275002E-01  0.0000000E+00
 9.1425002E-01  0.0000000E+00
 9.2575002E-01  0.0000000E+00
 9.3725002E-01  0.0000000E+00
 9.4875002E-01  0.0000000E+00
 9.6025002E-01  0.0000000E+00
 9.7175002E-01  0.0000000E+00
 9.8325002E-01  0.0000000E+00
 9.9475002E-01  0.0000000E+00
 1.0062500E+00  0.0000000E+00
 1.0177500E+00  0.0000000E+00
 1.0292500E+00  0.0000000E+00
 1.0407500E+00  0.0000000E+00
 1.0522500E+00  0.0000000E+00
 1.0637500E+00  0.0000000E+00
 1.0752500E+00  0.0000000E+00
 1.0867500E+00  0.0000000E+00
 1.0982500E+00  0.0000000E+00
 1.1097500E+00  0.0000000E+00
 1.1212500E+00  0.0000000E+00
 1.1327500E+00  0.0000000E+00
 1.1442500E+00  0.0000000E+00
 1.1557500E+00  0.0000000E+00
 1.1672500E+00  0.0000000E+00
 1.1787500E+00  0.0000000E+00
 1.1902500E+00  0.0000000E+00
 1.2017500E+00  0.0000000E+00
 1.2132500E+00  0.0000000E+00
 1.2247500E+00  0.0000000E+00
 1.2362500E+00  0.0000000E+00
 1.2477500E+00  0.0000000E+00
 1.2592500E+00  0.0000000E+00
 1.2707500E+00  0.0000000E+00
 1.2822500E+00  0.0000000E+00
 1.2937500E+00  0.0000000E+00
 1.3052500E+00  0.0000000E+00
 1.3167500E+00  0.0000000E+00
 1.3282501E+00  0.0000000E+00
 1.3397501E+00  0.0000000E+00
 1.3512501E+00  0.0000000E+00
 1.3627501E+00  0.0000000E+00
 1.3742501E+00  0.0000000E+00
 1.3857501E+00  0.0000000E+00
 1.3972501E+00  0.0000000E+00
 1.4087501E+00  0.0000000E+00
 1.4202501E+00  0.0000000E+00
 1.4317501E+00  0.0000000E+00
 1.4432501E+00  0.0000000E+00
 1.4547501E+00  0.0000000E+00
 1.4662501E+00  0.0000000E+00
 1.4777501E+00  0.0000000E+00
 1.4892501E+00  0.0000000E+00
 1.5007501E+00  0.0000000E+00
 1.5122501E+00  0.0000000E+00
 1.5237501E+00  0.0000000E+00
 1.5352501E+00  0.0000000E+00
 1.5467501E+00  0.0000000E+00
 1.5582501E+00  0.0000000E+00
 1.5697501E+00  0.0000000E+00
 1.5812501E+00  0.0000000E+00
 1.5927501E+00  0.0000000E+00
 1.6042501E+00  0.0000000E+00
 1.6157501E+00  0.0000000E+00
 1.6272501E+00  0.0000000E+00
 1.6387501E+00  0.0000000E+00
 1.6502501E+00  0.0000000E+00
 1.6617501E+00  0.0000000E+00
 1.6732501E+00  0.0000000E+00
 1.6847501E+00  0.0000000E+00
 1.6962501E+00  0.0000000E+00
 1.7077501E+00  0.0000000E+00
 1.7192501E+00  0.0000000E+00
 1.7307501E+00  0.0000000E+00
 1.7422501E+00  0.0000000E+00
 1.7537501E+00  0.0000000E+00
 1.7652501E+00  0.0000000E+00
 1.7767501E+00  0.0000000E+00
 1.7882501E+00  0.0000000E+00
 1.7997501E+00  0.0000000E+00
 1.8112501E+00  0.0000000E+00
 1.8227501E+00  0.0000000E+00
 1.8342501E+00  0.0000000E+00
 1.8457501E+00  0.0000000E+00
 1.8572501E+00  0.0000000E+00
 1.8687501E+00  0.0000000E+00
 1.8802501E+00  0.0000000E+00
 1.8917501E+00  0.0000000E+00
 1.9032501E+00  0.0000000E+00
 1.9147501E+00  0.0000000E+00
 1.9262501E+00  0.0000000E+00
 1.9377501E+00  0.0000000E+00
 1.9492501E+00  0.0000000E+00
 1.9607501E+00  0.0000000E+00
 1.9722501E+00  0.0000000E+00
 1.9837501E+00  0.0000000E+00
 1.9952501E+00  0.0000000E+00
 2.0067501E+00  0.0000000E+00
 2.0182500E+00  0.0000000E+00
 2.0297501E+00  0.0000000E+00
 2.0412500E+00  0.0000000E+00
 2.0527501E+00  0.0000000E+00
 2.0642500E+00  0.0000000E+00
 2.0757501E+00  0.0000000E+00
 2.0872500E+00  0.0000000E+00
 2.0987501E+00  0.0000000E+00
 2.1102500E+00  0.0000000E+00
 2.1217501E+00  0.0000000E+00
 2.1332500E+00  0.0000000E+00
 2.1447501E+00  0.0000000E+00
 2.1562500E+00  0.0000000E+00
 2.1677501E+00  0.0000000E+00
 2.1792500E+00  0.0000000E+00
 2.1907501E+00  0.0000000E+00
 2.2022500E+00  0.0000000E+00
 2.2137501E+00  0.0000000E+00
 2.2252500E+00  0.0000000E+00
 2.2367501E+00  0.0000000E+00
 2.2482500E+00  0.0000000E+00
 2.2597501E+00  0.0000000E+00
 2.2712500E+00  0.0000000E+00
 2.2827501E+00  0.0000000E+00
 2.2942500E+00  0.0000000E+00
 2.3057501E+00  0.0000000E+00
 2.3172500E+00  0.0000000E+00
 2.3287501E+00  0.0000000E+00
 2.3402500E+00  0.0000000E+00
 2.3517501E+00  0.0000000E+00
 2.3632500E+00  0.0000000E+00
 2.3747501E+00  0.0000000E+00
 2.3862500E+00  0.0000000E+00
 2.3977501E+00  0.0000000E+00
 2.4092500E+00  0.0000000E+00
 2.4207501E+00  0.0000000E+00
 2.4322500E+00  0.0000000E+00
 2.4437501E+00  0.0000000E+00
 2.4552500E+00  0.0000000E+00
 2.4667501E+00  0.0000000E+00
 2.4782500E+00  0.0000000E+00
 2.4897501E+00  0.0000000E+00
 2.5012500E+00  0.0000000E+00
 2.5127501E+00  0.0000000E+00
 2.5242500E+00  0.0000000E+00
 2.5357502E+00  0.0000000E+00
 2.5472500E+00  0.0000000E+00
 2.5587502E+00  0.0000000E+00
 2.5702500E+00  0.0000000E+00
 2.5817502E+00  0.0000000E+00
 2.5932500E+00  0.0000000E+00
 2.6047502E+00  0.0000000E+00
 2.6162500E+00  0.0000000E+00
 2.6277502E+00  0.0000000E+00
 2.6392500E+00  0.0000000E+00
 2.6507502E+00  0.0000000E+00
 2.6622500E+00  0.0000000E+00
 2.6737502E+00  0.0000000E+00
 2.6852500E+00  0.0000000E+00
 2.6967502E+00  0.0000000E+00
 2.7082500E+00  0.0000000E+00
 2.7197502E+00  0.0000000E+00
 2.7312500E+00  0.0000000E+00
 2.7427502E+00  0.0000000E+00
 2.7542500E+00  0.0000000E+00
 2.7657502E+00  0.0000000E+00
 2.7772501E+00  0.0000000E+00
 2.7887502E+00  0.0000000E+00
 2.8002501E+00  0.0000000E+00
 2.8117502E+00  0.0000000E+00
 2.8232501E+00  3.2321255E+01
 2.8347502E+00  3.2231091E+01
 2.8462501E+00  3.2399494E+01
 2.8577502E+00  3.3101467E+01
 2.8692501E+00  3.3834946E+01
 2.8807502E+00  3.4950874E+01
 2.8922501E+00  3.5608311E+01
 2.9037502E+00  3.5913563E+01
 2.9152501E+00  3.5821831E+01
 2.9267502E+00  3.5718433E+01
 2.9382501E+00  3.5746906E+01
 2.9497502E+00  3.5740936E+01
 2.9612501E+00  3.5852806E+01
 2.9727502E+00  3.5757225E+01
 2.9842501E+00  3.5305946E+01
 2.9957502E+00  3.5127502E+01
 3.0072501E+00  3.5171974E+01
 3.0187502E+00  3.5695484E+01
 3.0302501E+00  3.5933090E+01
 3.0417502E+00  3.6168819E+01
 3.0532501E+00  3.6196247E+01
 3.0647502E+00  3.6230148E+01
 3.0762501E+00  3.6326881E+01
 3.0877502E+00  3.6659325E+01
 3.0992501E+00  3.6785553E+01
 3.1107502E+00  3.6523167E+01
 3.1222501E+00  3.6173973E+01
 3.1337502E+00  3.5900730E+01
 3.1452501E+00  3.6262497E+01
 3.1567502E+00  3.6484848E+01
 3.1682501E+00  3.6303738E+01
 3.1797502E+00  3.5973042E+01
 3.1912501E+00  3.5545456E+01
 3.2027502E+00  3.5290726E+01
 3.2142501E+00  3.4969894E+01
 3.2257502E+00  3.4914028E+01
 3.2372501E+00  3.5164703E+01
 3.2487502E+00  3.5153076E+01
 3.2602501E+00  3.5420940E+01
 3.2717502E+00  3.5003292E+01
 3.2832501E+00  3.5050957E+01
 3.2947502E+00  3.4979298E+01
 3.3062501E+00  3.5167103E+01
 3.3177502E+00  3.5427052E+01
 3.3292501E+00  3.5481323E+01
 3.3407502E+00  3.5586575E+01
 3.3522501E+00  3.5707180E+01
 3.3637502E+00  3.5719662E+01
 3.3752501E+00  3.5596966E+01
 3.3867502E+00  3.5299545E+01
 3.3982501E+00  3.4699589E+01
 3.4097502E+00  3.4482540E+01
 3.4212501E+00  3.4373089E+01
 3.4327502E+00  3.4046978E+01
 3.4442501E+00  3.3901993E+01
 3.4557502E+00  3.3656940E+01
 3.4672501E+00  3.3899788E+01
 3.4787502E+00  3.3786335E+01
 3.4902501E+00  3.4191090E+01
 3.5017502E+00  3.4214863E+01
 3.5132501E+00  3.4464237E+01
 3.5247502E+00  3.4232731E+01
 3.5362501E+00  3.4133026E+01
 3.5477502E+00  3.4060036E+01
 3.5592501E+00  3.4113247E+01
 3.5707502E+00  3.4073669E+01
 3.5822501E+00  3.4157021E+01
 3.5937502E+00  3.4087826E+01
 3.6052501E+00  3.3869427E+01
 3.6167502E+00  3.3747509E+01
 3.6282501E+00  3.3685936E+01
 3.6397502E+00  3.3543186E+01
 3.6512501E+00  3.3480282E+01
 3.6627502E+00  3.3285587E+01
 3.6742501E+00  3.3325146E+01
 3.6857502E+00  3.3216297E+01
 3.6972501E+00  3.3343124E+01
 3.7087502E+00  3.3314941E+01
 3.7202501E+00  3.3428711E+01
 3.7317502E+00  3.3462917E+01
 3.7432501E+00  3.3453518E+01
 3.7547503E+00  3.3660385E+01
 3.7662501E+00  3.3443073E+01
 3.7777503E+00  3.3657051E+01
 3.7892501E+00  3.3447857E+01
 3.8007503E+00  3.3260216E+01
 3.8122501E+00  3.3218086E+01
 3.8237503E+00  3.2868641E+01
 3.8352501E+00  3.2837830E+01
 3.8467503E+00  3.2700134E+01
 3.8582501E+00  3.2751671E+01
 3.8697503E+00  3.2867641E+01
 3.8812501E+00  3.2786945E+01
 3.8927503E+00  3.2723152E+01
 3.9042501E+00  3.2498745E+01
 3.9157503E+00  3.2410721E+01
 3.9272501E+00  3.2464741E+01
 3.9387503E+00  3.2638718E+01
 3.9502501E+00  3.2741722E+01
 3.9617503E+00  3.2767551E+01
 3.9732502E+00  3.2998093E+01
 3.9847503E+00  3.3040535E+01
 3.9962502E+00  3.3209911E+01
 4.0077500E+00  3.3142078E+01
 4.0192504E+00  3.3147266E+01
 4.0307503E+00  3.2978477E+01
 4.0422502E+00  3.2957603E+01
 4.0537500E+00  3.2949112E+01
 4.0652504E+00  3.2867176E+01
 4.0767503E+00  3.2615284E+01
 4.0882502E+00  3.2537609E+01
 4.0997500E+00  3.2467690E+01
 4.1112504E+00  3.2412682E+01
 4.1227503E+00  3.2191982E+01
 4.1342502E+00  3.2082920E+01
 4.1457500E+00  3.2103420E+01
 4.1572504E+00  3.1878283E+01
 4.1687503E+00  3.1966068E+01
 4.1802502E+00  3.1962151E+01
 4.1917500E+00  3.2271713E+01
 4.2032504E+00  3.2237587E+01
 4.2147503E+00  3.2272705E+01
 4.2262502E+00  3.2139568E+01
 4.2377501E+00  3.2203659E+01
 4.2492504E+00  3.2115723E+01
 4.2607503E+00  3.2327946E+01
 4.2722502E+00  3.2322826E+01
 4.2837501E+00  3.2487228E+01
 4.2952504E+00  3.2425804E+01
 4.3067503E+00  3.2510956E+01
 4.3182502E+00  3.2522121E+01
 4.3297501E+00  3.2580898E+01
 4.3412504E+00  3.2463829E+01
 4.3527503E+00  3.2349705E+01
 4.3642502E+00  3.2146542E+01
 4.3757501E+00  3.2139725E+01
 4.3872504E+00  3.2201546E+01
 4.3987503E+00  3.2427456E+01
 4.4102502E+00  3.2626713E+01
 4.4217501E+00  3.2842766E+01
 4.4332504E+00  3.2889130E+01
 4.4447503E+00  3.2748150E+01
 4.4562502E+00  3.2608574E+01
 4.4677501E+00  3.2530396E+01
 4.4792504E+00  3.2434383E+01
 4.4907503E+00  3.2227509E+01
 4.5022502E+00  3.2019859E+01
 4.5137501E+00  3.1897850E+01
 4.5252504E+00  3.1953783E+01
 4.5367503E+00  3.2171928E+01
 4.5482502E+00  3.2392574E+01
 4.5597501E+00  3.2695225E+01
 4.5712504E+00  3.2953072E+01
 4.5827503E+00  3.3005219E+01
 4.5942502E+00  3.3118168E+01
 4.6057501E+00  3.2953266E+01
 4.6172504E+00  3.3121319E+01
 4.6287503E+00  3.3093487E+01
 4.6402502E+00  3.3118843E+01
 4.6517501E+00  3.3163937E+01
 4.6632504E+00  3.3331684E+01
 4.6747503E+00  3.3353554E+01
 4.6862502E+00  3.3268749E+01
 4.6977501E+00  3.3187511E+01
 4.7092505E+00  3.3194397E+01
 4.7207503E+00  3.3181641E+01
 4.7322502E+00  3.3004780E+01
 4.7437501E+00  3.2861530E+01
 4.7552505E+00  3.2710102E+01
 4.7667503E+00  3.2649784E+01
 4.7782502E+00  3.2563103E+01
 4.7897501E+00  3.2552620E+01
 4.8012505E+00  3.2548996E+01
 4.8127503E+00  3.2686394E+01
 4.8242502E+00  3.2797222E+01
 4.8357501E+00  3.2735275E+01
 4.8472505E+00  3.2739910E+01
 4.8587503E+00  3.2662342E+01
 4.8702502E+00  3.2623501E+01
 4.8817501E+00  3.2600857E+01
 4.8932505E+00  3.2688278E+01
 4.9047503E+00  3.2694744E+01
 4.9162502E+00  3.2781689E+01
 4.9277501E+00  3.2813530E+01
 4.9392505E+00  3.2909016E+01
 4.9507504E+00  3.2909016E+01
 4.9622502E+00  3.2869968E+01
 4.9737501E+00  3.3013565E+01
 4.9852505E+00  3.3080387E+01
 4.9967504E+00  3.3090015E+01
 5.0082502E+00  3.3127029E+01
 5.0197501E+00  3.3079762E+01
 5.0312505E+00  3.3146076E+01
 5.0427504E+00  3.3282326E+01
 5.0542502E+00  3.3324532E+01
 5.0657501E+00  3.3379238E+01
 5.0772505E+00  3.3315208E+01
 5.0887504E+00  3.3252766E+01
 5.1002502E+00  3.3366417E+01
 5.1117501E+00  3.3343853E+01
 5.1232505E+00  3.3422657E+01
 5.1347504E+00  3.3375919E+01
 5.1462502E+00  3.3366241E+01
 5.1577501E+00  3.3374649E+01
 5.1692505E+00  3.3456482E+01
 5.1807504E+00  3.3623524E+01
 5.1922503E+00  3.3802887E+01
 5.2037501E+00  3.3995956E+01
 5.2152505E+00  3.4059696E+01
 5.2267504E+00  3.4129532E+01
 5.2382503E+00  3.4042904E+01
 5.2497501E+00  3.3961166E+01
 5.2612505E+00  3.3922504E+01
 5.2727504E+00  3.3850769E+01
 5.2842503E+00  3.3920406E+01
 5.2957501E+00  3.3998928E+01
 5.3072500E+00  3.4151722E+01
 5.3187504E+00  3.4279789E+01
 5.3302503E+00  3.4396618E+01
 5.3417501E+00  3.4444225E+01
 5.3532500E+00  3.4385365E+01
 5.3647504E+00  3.4368290E+01
 5.3762503E+00  3.4463223E+01
 5.3877501E+00  3.4608707E+01
 5.3992500E+00  3.4838581E+01
 5.4107504E+00  3.4956211E+01
 5.4222503E+00  3.5295872E+01
 5.4337502E+00  3.5341221E+01
 5.4452500E+00  3.5666805E+01
 5.4567504E+00  3.5669765E+01
 5.4682503E+00  3.5689274E+01
 5.4797502E+00  3.5584881E+01
 5.4912500E+00  3.5402065E+01
 5.5027504E+00  3.5347595E+01
 5.5142503E+00  3.5203453E+01
 5.5257502E+00  3.5100471E+01
 5.5372500E+00  3.4887043E+01
 5.5487504E+00  3.4759415E+01
 5.5602503E+00  3.4721039E+01
 5.5717502E+00  3.4784538E+01
 5.5832500E+00  3.4829731E+01
 5.5947504E+00  3.4888371E+01
 5.6062503E+00  3.5093204E+01
 5.6177502E+00  3.5119667E+01
 5.6292500E+00  3.5223019E+01
 5.6407504E+00  3.5309132E+01
 5.6522503E+00  3.5401684E+01
 5.6637502E+00  3.5560738E+01
 5.6752501E+00  3.5550632E+01
 5.6867504E+00  3.5563492E+01
 5.6982503E+00  3.5505478E+01
 5.7097502E+00  3.5585194E+01
 5.7212501E+00  3.5699444E+01
 5.7327504E+00  3.5810497E+01
 5.7442503E+00  3.5904495E+01
 5.7557502E+00  3.6057098E+01
 5.7672501E+00  3.6034817E+01
 5.7787504E+00  3.6083958E+01
 5.7902503E+00  3.6062065E+01
 5.8017502E+00  3.6146671E+01
 5.8132501E+00  3.6168835E+01
 5.8247504E+00  3.6182865E+01
 5.8362503E+00  3.6243500E+01
 5.8477502E+00  3.6295887E+01
 5.8592501E+00  3.6320068E+01
 5.8707504E+00  3.6514156E+01
 5.8822503E+00  3.6681507E+01
 5.8937502E+00  3.7027416E+01
 5.9052501E+00  3.7637329E+01
 5.9167504E+00  3.8517513E+01
 5.9282503E+00  3.9870720E+01
 5.9397502E+00  4.3857048E+01
 5.9512501E+00  4.7409317E+01
 5.9627504E+00  5.1327477E+01
 5.9742503E+00  5.5896526E+01
 5.9857502E+00  5.6665352E+01
 5.9972501E+00  5.7833187E+01
 6.0087504E+00  5.4011810E+01
 6.0202503E+00  4.9769016E+01
 6.0317502E+00  4.4176121E+01
 6.0432501E+00  4.0095200E+01
 6.0547504E+00  3.8993126E+01
 6.0662503E+00  3.8406338E+01
 6.0777502E+00  3.7886314E+01
 6.0892501E+00  3.7687416E+01
 6.1007504E+00  3.7479576E+01
 6.1122503E+00  3.7370853E+01
 6.1237502E+00  3.7252312E+01
 6.1352501E+00  3.7137970E+01
 6.1467505E+00  3.7080257E+01
 6.1582503E+00  3.7141144E+01
 6.1697502E+00  3.7281853E+01
 6.1812501E+00  3.7418793E+01
 6.1927505E+00  3.7474064E+01
 6.2042503E+00  3.7510281E+01
 6.2157502E+00  3.7539452E+01
 6.2272501E+00  3.7515644E+01
 6.2387505E+00  3.7513885E+01
 6.2502503E+00  3.7595516E+01
 6.2617502E+00  3.7671295E+01
 6.2732501E+00  3.7777031E+01
 6.2847505E+00  3.7763401E+01
 6.2962503E+00  3.7827309E+01
 6.3077502E+00  3.7882607E+01
 6.3192501E+00  3.7979969E+01
 6.3307505E+00  3.8164192E+01
 6.3422503E+00  3.8404930E+01
 6.3537502E+00  3.8558647E+01
 6.3652501E+00  3.8676620E+01
 6.3767505E+00  3.8666649E+01
 6.3882504E+00  3.8720718E+01
 6.3997502E+00  3.8584782E+01
 6.4112501E+00  3.8728016E+01
 6.4227505E+00  3.8742649E+01
 6.4342504E+00  3.8907166E+01
 6.4457502E+00  3.8862106E+01
 6.4572501E+00  3.8860611E+01
 6.4687505E+00  3.8874355E+01
 6.4802504E+00  3.8933201E+01
 6.4917502E+00  3.8925175E+01
 6.5032501E+00  3.9090206E+01
 6.5147505E+00  3.9140732E+01
 6.5262504E+00  3.9309750E+01
 6.5377502E+00  3.9352936E+01
 6.5492501E+00  3.9430920E+01
 6.5607505E+00  3.9593887E+01
 6.5722504E+00  3.9729202E+01
 6.5837502E+00  3.9841930E+01
 6.5952501E+00  3.9975281E+01
 6.6067505E+00  4.0071632E+01
 6.6182504E+00  4.0228756E+01
 6.6297503E+00  4.0299435E+01
 6.6412501E+00  4.0348408E+01
 6.6527505E+00  4.0427341E+01
 6.6642504E+00  4.0531071E+01
 6.6757503E+00  4.0530304E+01
 6.6872501E+00  4.0518669E+01
 6.6987505E+00  4.0450863E+01
 6.7102504E+00  4.0592846E+01
 6.7217503E+00  4.0613621E+01
 6.7332501E+00  4.0658493E+01
 6.7447505E+00  4.0718410E+01
 6.7562504E+00  4.0908730E+01
 6.7677503E+00  4.0989902E+01
 6.7792501E+00  4.1075119E+01
 6.7907505E+00  4.1123657E+01
 6.8022504E+00  4.1284912E+01
 6.8137503E+00  4.1530701E+01
 6.8252501E+00  4.1721207E+01
 6.8367505E+00  4.1892231E+01
 6.8482504E+00  4.1900024E+01
 6.8597503E+00  4.1936584E+01
 6.8712502E+00  4.1958450E+01
 6.8827505E+00  4.2076126E+01
 6.8942504E+00  4.2107780E+01
 6.9057503E+00  4.2203594E+01
 6.9172502E+00  4.2263840E+01
 6.9287505E+00  4.2304840E+01
 6.9402504E+00  4.2342598E+01
 6.9517503E+00  4.2472137E+01
 6.9632502E+00  4.2590229E+01
 6.9747505E+00  4.2746876E+01
 6.9862504E+00  4.2736534E+01
 6.9977503E+00  4.2803753E+01
 7.0092502E+00  4.2810619E+01
 7.0207505E+00  4.2824097E+01
 7.0322504E+00  4.2764927E+01
 7.0437503E+00  4.2785027E+01
 7.0552502E+00  4.2843884E+01
 7.0667505E+00  4.2908161E+01
 7.0782504E+00  4.2945236E+01
 7.0897503E+00  4.3083481E+01
 7.1012502E+00  4.3179874E+01
 7.1127505E+00  4.3354141E+01
 7.1242504E+00  4.3418301E+01
 7.1357503E+00  4.3411892E+01
 7.1472502E+00  4.3525280E+01
 7.1587505E+00  4.3491627E+01
 7.1702504E+00  4.3618622E+01
 7.1817503E+00  4.3651062E+01
 7.1932502E+00  4.3789459E+01
 7.2047505E+00  4.3980839E+01
 7.2162504E+00  4.4092442E+01
 7.2277503E+00  4.4193928E+01
 7.2392502E+00  4.4254719E+01
 7.2507505E+00  4.4262981E+01
 7.2622504E+00  4.4256287E+01
 7.2737503E+00  4.4167553E+01
 7.2852502E+00  4.4265335E+01
 7.2967505E+00  4.4353512E+01
 7.3082504E+00  4.4454895E+01
 7.3197503E+00  4.4457134E+01
 7.3312502E+00  4.4411594E+01
 7.3427505E+00  4.4377953E+01
 7.3542504E+00  4.4367805E+01
 7.3657503E+00  4.4346821E+01
 7.3772502E+00  4.4365665E+01
 7.3887506E+00  4.4335922E+01
 7.4002504E+00  4.4370419E+01
 7.4117503E+00  4.4448952E+01
 7.4232502E+00  4.4522354E+01
 7.4347506E+00  4.4649151E+01
 7.4462504E+00  4.4710087E+01
 7.4577503E+00  4.4779293E+01
 7.4692502E+00  4.4730469E+01
 7.4807506E+00  4.4867584E+01
 7.4922504E+00  4.4879822E+01
 7.5037503E+00  4.4886093E+01
 7.5152502E+00  4.4797886E+01
 7.5267506E+00  4.4756893E+01
 7.5382504E+00  4.4768856E+01
 7.5497503E+00  4.4705627E+01
 7.5612502E+00  4.4733295E+01
 7.5727506E+00  4.4810711E+01
 7.5842505E+00  4.4883785E+01
 7.5957503E+00  4.4962418E+01
 7.6072502E+00  4.4945690E+01
 7.6187506E+00  4.5004128E+01
 7.6302505E+00  4.4987591E+01
 7.6417503E+00  4.5010975E+01
 7.6532502E+00  4.5035595E+01
 7.6647506E+00  4.5059414E+01
 7.6762505E+00  4.4941872E+01
 7.6877503E+00  4.4932205E+01
 7.6992502E+00  4.4838554E+01
 7.7107506E+00  4.4937923E+01
 7.7222505E+00  4.4967472E+01
 7.7337503E+00  4.5024105E+01
 7.7452502E+00  4.4957607E+01
 7.7567506E+00  4.4933674E+01
 7.7682505E+00  4.4852459E+01
 7.7797503E+00  4.4902981E+01
 7.7912502E+00  4.4865982E+01
 7.8027506E+00  4.4897537E+01
 7.8142505E+00  4.4816029E+01
 7.8257504E+00  4.4717426E+01
 7.8372502E+00  4.4598804E+01
 7.8487506E+00  4.4535919E+01
 7.8602505E+00  4.4555752E+01
 7.8717504E+00  4.4551113E+01
 7.8832502E+00  4.4494762E+01
 7.8947506E+00  4.4492035E+01
 7.9062505E+00  4.4485180E+01
 7.9177504E+00  4.4561245E+01
 7.9292502E+00  4.4456192E+01
 7.9407506E+00  4.4401096E+01
 7.9522505E+00  4.4196918E+01
 7.9637504E+00  4.4112015E+01
 7.9752502E+00  4.4032013E+01
 7.9867506E+00  4.4005013E+01
 7.9982505E+00  4.3939754E+01
 8.0097504E+00  4.3859802E+01
 8.0212507E+00  4.3812927E+01
 8.0327501E+00  4.3760445E+01
 8.0442505E+00  4.3774452E+01
 8.0557508E+00  4.3746193E+01
 8.0672503E+00  4.3703270E+01
 8.0787506E+00  4.3641071E+01
 8.0902500E+00  4.3599251E+01
 8.1017504E+00  4.3542454E+01
 8.1132507E+00  4.3413250E+01
 8.1247501E+00  4.3316090E+01
 8.1362505E+00  4.3225285E+01
 8.1477509E+00  4.3179813E+01
 8.1592503E+00  4.3027496E+01
 8.1707506E+00  4.2930683E+01
 8.1822500E+00  4.2724892E+01
 8.1937504E+00  4.2725132E+01
 8.2052507E+00  4.2634457E+01
 8.2167501E+00  4.2588745E+01
 8.2282505E+00  4.2453724E+01
 8.2397509E+00  4.2394917E+01
 8.2512503E+00  4.2347122E+01
 8.2627506E+00  4.2186527E+01
 8.2742500E+00  4.1988461E+01
 8.2857504E+00  4.1747540E+01
 8.2972507E+00  4.1617985E+01
 8.3087502E+00  4.1425655E+01
 8.3202505E+00  4.1292286E+01
 8.3317509E+00  4.1083206E+01
 8.3432503E+00  4.0922241E+01
 8.3547506E+00  4.0792629E+01
 8.3662500E+00  4.0639347E+01
 8.3777504E+00  4.0525253E+01
 8.3892508E+00  4.0292965E+01
 8.4007502E+00  4.0148796E+01
 8.4122505E+00  3.9910713E+01
 8.4237509E+00  3.9735748E+01
 8.4352503E+00  3.9546593E+01
 8.4467506E+00  3.9372265E+01
 8.4582500E+00  3.9229145E+01
 8.4697504E+00  3.9080036E+01
 8.4812508E+00  3.8977592E+01
 8.4927502E+00  3.8800079E+01
 8.5042505E+00  3.8588776E+01
 8.5157509E+00  3.8288597E+01
 8.5272503E+00  3.7992554E+01
 8.5387506E+00  3.7737637E+01
 8.5502501E+00  3.7567490E+01
 8.5617504E+00  3.7467529E+01
 8.5732508E+00  3.7336872E+01
 8.5847502E+00  3.7270996E+01
 8.5962505E+00  3.7112492E+01
 8.6077509E+00  3.6936199E+01
 8.6192503E+00  3.6739803E+01
 8.6307507E+00  3.6529793E+01
 8.6422501E+00  3.6315903E+01
 8.6537504E+00  3.6119274E+01
 8.6652508E+00  3.5969532E+01
 8.6767502E+00  3.5865337E+01
 8.6882505E+00  3.5734547E+01
 8.6997509E+00  3.5599556E+01
 8.7112503E+00  3.5368919E+01
 8.7227507E+00  3.5100960E+01
 8.7342501E+00  3.4820297E+01
 8.7457504E+00  3.4601551E+01
 8.7572508E+00  3.4374256E+01
 8.7687502E+00  3.4246498E+01
 8.7802505E+00  3.4172115E+01
 8.7917500E+00  3.4056507E+01
 8.8032503E+00  3.3892776E+01
 8.8147507E+00  3.3691345E+01
 8.8262501E+00  3.3521130E+01
 8.8377504E+00  3.3350803E+01
 8.8492508E+00  3.3231770E+01
 8.8607502E+00  3.3124214E+01
 8.8722506E+00  3.2969910E+01
 8.8837500E+00  3.2854961E+01
 8.8952503E+00  3.2623608E+01
 8.9067507E+00  3.2565666E+01
 8.9182501E+00  3.2344601E+01
 8.9297504E+00  3.2297428E+01
 8.9412508E+00  3.2162041E+01
 8.9527502E+00  3.2076496E+01
 8.9642506E+00  3.1952190E+01
 8.9757500E+00  3.1771515E+01
 8.9872503E+00  3.1608322E+01
 8.9987507E+00  3.1383360E+01
 9.0102501E+00  3.1211634E+01
 9.0217505E+00  3.0993357E+01
 9.0332508E+00  3.0958941E+01
 9.0447502E+00  3.0901197E+01
 9.0562506E+00  3.0857330E+01
 9.0677500E+00  3.0707674E+01
 9.0792503E+00  3.0511030E+01
 9.0907507E+00  3.0318119E+01
 9.1022501E+00  3.0127672E+01
 9.1137505E+00  2.9977331E+01
 9.1252508E+00  2.9842327E+01
 9.1367502E+00  2.9742594E+01
 9.1482506E+00  2.9659143E+01
 9.1597500E+00  2.9563229E+01
 9.1712503E+00  2.9400511E+01
 9.1827507E+00  2.9256916E+01
 9.1942501E+00  2.9163902E+01
 9.2057505E+00  2.9076405E+01
 9.2172508E+00  2.9045389E+01
 9.2287502E+00  2.8964437E+01
 9.2402506E+00  2.8859558E+01
 9.2517500E+00  2.8745598E+01
 9.2632504E+00  2.8607170E+01
 9.2747507E+00  2.8551010E+01
 9.2862501E+00  2.8457001E+01
 9.2977505E+00  2.8348785E+01
 9.3092508E+00  2.8231697E+01
 9.3207502E+00  2.8122755E+01
 9.3322506E+00  2.7995604E+01
 9.3437500E+00  2.7887791E+01
 9.3552504E+00  2.7761684E+01
 9.3667507E+00  2.7782030E+01
 9.3782501E+00  2.7790571E+01
 9.3897505E+00  2.7770960E+01
 9.4012508E+00  2.7640165E+01
 9.4127502E+00  2.7531939E+01
 9.4242506E+00  2.7414984E+01
 9.4357500E+00  2.7343613E+01
 9.4472504E+00  2.7240841E+01
 9.4587507E+00  2.7170267E+01
 9.4702501E+00  2.7146442E+01
 9.4817505E+00  2.7139580E+01
 9.4932508E+00  2.7053093E+01
 9.5047503E+00  2.6978823E+01
 9.5162506E+00  2.6817112E+01
 9.5277500E+00  2.6671030E+01
 9.5392504E+00  2.6523581E+01
 9.5507507E+00  2.6411083E+01
 9.5622501E+00  2.6365526E+01
 9.5737505E+00  2.6288662E+01
 9.5852509E+00  2.6253651E+01
 9.5967503E+00  2.6243435E+01
 9.6082506E+00  2.6220852E+01
 9.6197500E+00  2.6227150E+01
 9.6312504E+00  2.6207850E+01
 9.6427507E+00  2.6178034E+01
 9.6542501E+00  2.6100849E+01
 9.6657505E+00  2.5927402E+01
 9.6772509E+00  2.5871790E+01
 9.6887503E+00  2.5724771E+01
 9.7002506E+00  2.5775002E+01
 9.7117500E+00  2.5715157E+01
 9.7232504E+00  2.5742155E+01
 9.7347507E+00  2.5698185E+01
 9.7462502E+00  2.5731989E+01
 9.7577505E+00  2.5711775E+01
 9.7692509E+00  2.5688692E+01
 9.7807503E+00  2.5608339E+01
 9.7922506E+00  2.5593807E+01
 9.8037500E+00  2.5548367E+01
 9.8152504E+00  2.5491991E+01
 9.8267508E+00  2.5391840E+01
 9.8382502E+00  2.5312565E+01
 9.8497505E+00  2.5130106E+01
 9.8612509E+00  2.5037844E+01
 9.8727503E+00  2.4949200E+01
 9.8842506E+00  2.4964975E+01
 9.8957500E+00  2.5025305E+01
 9.9072504E+00  2.4994465E+01
 9.9187508E+00  2.4991766E+01
 9.9302502E+00  2.4907829E+01
 9.9417505E+00  2.4851303E+01
 9.9532509E+00  2.4771387E+01
 9.9647503E+00  2.4651308E+01
 9.9762506E+00  2.4592346E+01
 9.9877501E+00  2.4521646E+01
 9.9992504E+00  2.4460089E+01
 1.0010751E+01  2.4412733E+01
 1.0022250E+01  2.4417452E+01
 1.0033751E+01  2.4450912E+01
 1.0045251E+01  2.4478111E+01
 1.0056750E+01  2.4457973E+01
 1.0068251E+01  2.4404449E+01
 1.0079750E+01  2.4323084E+01
 1.0091250E+01  2.4285507E+01
 1.0102751E+01  2.4244814E+01
 1.0114250E+01  2.4280807E+01
 1.0125751E+01  2.4259466E+01
 1.0137251E+01  2.4300343E+01
 1.0148750E+01  2.4283533E+01
 1.0160251E+01  2.4258650E+01
 1.0171750E+01  2.4145981E+01
 1.0183250E+01  2.4088518E+01
 1.0194751E+01  2.4048603E+01
 1.0206250E+01  2.4081009E+01
 1.0217751E+01  2.4068365E+01
 1.0229251E+01  2.4136425E+01
 1.0240750E+01  2.4126522E+01
 1.0252251E+01  2.4107664E+01
 1.0263750E+01  2.4098392E+01
 1.0275250E+01  2.4137619E+01
 1.0286751E+01  2.4146254E+01
 1.0298250E+01  2.4097183E+01
 1.0309751E+01  2.4071190E+01
 1.0321251E+01  2.4044064E+01
 1.0332750E+01  2.4008831E+01
 1.0344251E+01  2.3945814E+01
 1.0355750E+01  2.3950788E+01
 1.0367250E+01  2.3912445E+01
 1.0378751E+01  2.3930397E+01
 1.0390250E+01  2.3911802E+01
 1.0401751E+01  2.3986164E+01
 1.0413251E+01  2.3927746E+01
 1.0424750E+01  2.3872549E+01
 1.0436251E+01  2.3777515E+01
 1.0447750E+01  2.3682228E+01
 1.0459250E+01  2.3708519E+01
 1.0470751E+01  2.3642273E+01
 1.0482250E+01  2.3664873E+01
 1.0493751E+01  2.3583872E+01
 1.0505251E+01  2.3536976E+01
 1.0516750E+01  2.3467464E+01
 1.0528251E+01  2.3367737E+01
 1.0539750E+01  2.3342407E+01
 1.0551250E+01  2.3350241E+01
 1.0562751E+01  2.3376444E+01
 1.0574250E+01  2.3314405E+01
 1.0585751E+01  2.3238611E+01
 1.0597251E+01  2.3184740E+01
 1.0608750E+01  2.3164038E+01
 1.0620251E+01  2.3157562E+01
 1.0631750E+01  2.3168531E+01
 1.0643250E+01  2.3207916E+01
 1.0654751E+01  2.3226091E+01
 1.0666250E+01  2.3215046E+01
 1.0677751E+01  2.3190929E+01
 1.0689251E+01  2.3174866E+01
 1.0700750E+01  2.3150087E+01
 1.0712251E+01  2.3129747E+01
 1.0723750E+01  2.3142447E+01
 1.0735250E+01  2.3134930E+01
 1.0746751E+01  2.3145067E+01
 1.0758250E+01  2.3096605E+01
 1.0769751E+01  2.3061951E+01
 1.0781251E+01  2.3054674E+01
 1.0792750E+01  2.2992184E+01
 1.0804251E+01  2.2975780E+01
 1.0815750E+01  2.2941521E+01
 1.0827250E+01  2.2987932E+01
 1.0838751E+01  2.3064417E+01
 1.0850250E+01  2.3121119E+01
 1.0861751E+01  2.3177246E+01
 1.0873251E+01  2.3182301E+01
 1.0884750E+01  2.3113508E+01
 1.0896251E+01  2.3045677E+01
 1.0907750E+01  2.3001345E+01
 1.0919250E+01  2.2997906E+01
 1.0930751E+01  2.3037321E+01
 1.0942250E+01  2.3043024E+01
 1.0953751E+01  2.3075331E+01
 1.0965251E+01  2.3035086E+01
 1.0976750E+01  2.2992962E+01
 1.0988251E+01  2.2903418E+01
 1.0999750E+01  2.2834297E+01
 1.1011250E+01  2.2780893E+01
 1.1022751E+01  2.2772102E+01
 1.1034250E+01  2.2777113E+01
 1.1045751E+01  2.2771200E+01
 1.1057251E+01  2.2750713E+01
 1.1068750E+01  2.2769440E+01
 1.1080251E+01  2.2800297E+01
 1.1091750E+01  2.2817606E+01
 1.1103251E+01  2.2815739E+01
 1.1114751E+01  2.2774712E+01
 1.1126250E+01  2.2773560E+01
 1.1137751E+01  2.2721483E+01
 1.1149251E+01  2.2738930E+01
 1.1160750E+01  2.2703756E+01
 1.1172251E+01  2.2689215E+01
 1.1183750E+01  2.2637636E+01
 1.1195251E+01  2.2630100E+01
 1.1206751E+01  2.2609518E+01
 1.1218250E+01  2.2559008E+01
 1.1229751E+01  2.2520657E+01
 1.1241251E+01  2.2540262E+01
 1.1252750E+01  2.2594666E+01
 1.1264251E+01  2.2604307E+01
 1.1275750E+01  2.2650602E+01
 1.1287251E+01  2.2646421E+01
 1.1298751E+01  2.2700180E+01
 1.1310250E+01  2.2668348E+01
 1.1321751E+01  2.2705967E+01
 1.1333251E+01  2.2674240E+01
 1.1344750E+01  2.2648973E+01
 1.1356251E+01  2.2646667E+01
 1.1367750E+01  2.2672411E+01
 1.1379251E+01  2.2735014E+01
 1.1390751E+01  2.2739731E+01
 1.1402250E+01  2.2886621E+01
 1.1413751E+01  2.2896511E+01
 1.1425251E+01  2.2960981E+01
 1.1436750E+01  2.2871965E+01
 1.1448251E+01  2.2863274E+01
 1.1459750E+01  2.2831928E+01
 1.1471251E+01  2.2827778E+01
 1.1482751E+01  2.2842981E+01
 1.1494250E+01  2.2850006E+01
 1.1505751E+01  2.2848036E+01
 1.1517251E+01  2.2927439E+01
 1.1528750E+01  2.3113581E+01
 1.1540251E+01  2.3309404E+01
 1.1551750E+01  2.3679790E+01
 1.1563251E+01  2.4081240E+01
 1.1574751E+01  2.4510920E+01
 1.1586250E+01  2.4738230E+01
 1.1597751E+01  2.4740583E+01
 1.1609251E+01  2.4453342E+01
 1.1620750E+01  2.4007980E+01
 1.1632251E+01  2.3544615E+01
 1.1643750E+01  2.3255936E+01
 1.1655251E+01  2.3009527E+01
 1.1666751E+01  2.2815533E+01
 1.1678250E+01  2.2613825E+01
 1.1689751E+01  2.2494688E+01
 1.1701251E+01  2.2426870E+01
 1.1712750E+01  2.2482243E+01
 1.1724251E+01  2.2539165E+01
 1.1735750E+01  2.2642153E+01
 1.1747251E+01  2.2681795E+01
 1.1758751E+01  2.2671335E+01
 1.1770250E+01  2.2612585E+01
 1.1781751E+01  2.2556313E+01
 1.1793251E+01  2.2567221E+01
 1.1804750E+01  2.2545088E+01
 1.1816251E+01  2.2577221E+01
 1.1827750E+01  2.2541893E+01
 1.1839251E+01  2.2548882E+01
 1.1850751E+01  2.2539017E+01
 1.1862250E+01  2.2595293E+01
 1.1873751E+01  2.2604300E+01
 1.1885251E+01  2.2615747E+01
 1.1896750E+01  2.2599283E+01
 1.1908251E+01  2.2597227E+01
 1.1919750E+01  2.2618147E+01
 1.1931251E+01  2.2632523E+01
 1.1942751E+01  2.2660576E+01
 1.1954250E+01  2.2698681E+01
 1.1965751E+01  2.2753927E+01
 1.1977251E+01  2.2801273E+01
 1.1988750E+01  2.2832342E+01
 1.2000251E+01  2.2826820E+01
 1.2011750E+01  2.2830118E+01
 1.2023251E+01  2.2770178E+01
 1.2034751E+01  2.2788164E+01
 1.2046250E+01  2.2837660E+01
 1.2057751E+01  2.2916365E+01
 1.2069251E+01  2.3047487E+01
 1.2080750E+01  2.3122356E+01
 1.2092251E+01  2.3341551E+01
 1.2103750E+01  2.3424860E+01
 1.2115251E+01  2.3444481E+01
 1.2126751E+01  2.3335127E+01
 1.2138250E+01  2.3207327E+01
 1.2149751E+01  2.3082415E+01
 1.2161251E+01  2.2970831E+01
 1.2172750E+01  2.2869987E+01
 1.2184251E+01  2.2844431E+01
 1.2195750E+01  2.2813208E+01
 1.2207251E+01  2.2772015E+01
 1.2218751E+01  2.2750715E+01
 1.2230250E+01  2.2732882E+01
 1.2241751E+01  2.2708126E+01
 1.2253251E+01  2.2717762E+01
 1.2264750E+01  2.2693567E+01
 1.2276251E+01  2.2743910E+01
 1.2287750E+01  2.2767807E+01
 1.2299251E+01  2.2819651E+01
 1.2310751E+01  2.2895412E+01
 1.2322250E+01  2.2872141E+01
 1.2333751E+01  2.2859711E+01
 1.2345250E+01  2.2835596E+01
 1.2356750E+01  2.2860897E+01
 1.2368251E+01  2.2865040E+01
 1.2379750E+01  2.2835382E+01
 1.2391251E+01  2.2799908E+01
 1.2402751E+01  2.2755703E+01
 1.2414250E+01  2.2757660E+01
 1.2425751E+01  2.2752531E+01
 1.2437250E+01  2.2766756E+01
 1.2448750E+01  2.2722528E+01
 1.2460251E+01  2.2726940E+01
 1.2471750E+01  2.2729891E+01
 1.2483251E+01  2.2783772E+01
 1.2494751E+01  2.2738729E+01
 1.2506250E+01  2.2720879E+01
 1.2517751E+01  2.2704710E+01
 1.2529250E+01  2.2812700E+01
 1.2540751E+01  2.2903894E+01
 1.2552251E+01  2.2990723E+01
 1.2563750E+01  2.3034939E+01
 1.2575251E+01  2.3030405E+01
 1.2586751E+01  2.3035709E+01
 1.2598250E+01  2.2963104E+01
 1.2609751E+01  2.2965439E+01
 1.2621250E+01  2.2916384E+01
 1.2632751E+01  2.2974993E+01
 1.2644251E+01  2.2949627E+01
 1.2655750E+01  2.3032948E+01
 1.2667251E+01  2.3054995E+01
 1.2678751E+01  2.3135624E+01
 1.2690250E+01  2.3126766E+01
 1.2701751E+01  2.3150671E+01
 1.2713250E+01  2.3165571E+01
 1.2724751E+01  2.3143404E+01
 1.2736251E+01  2.3132215E+01
 1.2747750E+01  2.3132961E+01
 1.2759251E+01  2.3164875E+01
 1.2770751E+01  2.3159241E+01
 1.2782250E+01  2.3217550E+01
 1.2793751E+01  2.3211071E+01
 1.2805250E+01  2.3289368E+01
 1.2816751E+01  2.3368902E+01
 1.2828251E+01  2.3517309E+01
 1.2839750E+01  2.3605545E+01
 1.2851251E+01  2.3622952E+01
 1.2862751E+01  2.3633848E+01
 1.2874250E+01  2.3638054E+01
 1.2885751E+01  2.3666105E+01
 1.2897250E+01  2.3703121E+01
 1.2908751E+01  2.3707056E+01
 1.2920251E+01  2.3711170E+01
 1.2931750E+01  2.3758926E+01
 1.2943251E+01  2.3817221E+01
 1.2954751E+01  2.3866598E+01
 1.2966250E+01  2.3949913E+01
 1.2977751E+01  2.4046577E+01
 1.2989250E+01  2.4076174E+01
 1.3000751E+01  2.4115322E+01
 1.3012251E+01  2.4171978E+01
 1.3023750E+01  2.4269300E+01
 1.3035251E+01  2.4348848E+01
 1.3046751E+01  2.4398605E+01
 1.3058250E+01  2.4496021E+01
 1.3069751E+01  2.4496704E+01
 1.3081250E+01  2.4575232E+01
 1.3092751E+01  2.4674555E+01
 1.3104251E+01  2.4877090E+01
 1.3115750E+01  2.5054966E+01
 1.3127251E+01  2.5175619E+01
 1.3138751E+01  2.5283195E+01
 1.3150250E+01  2.5446535E+01
 1.3161751E+01  2.5610056E+01
 1.3173250E+01  2.5743876E+01
 1.3184751E+01  2.5874989E+01
 1.3196251E+01  2.5949158E+01
 1.3207750E+01  2.6124973E+01
 1.3219251E+01  2.6248533E+01
 1.3230751E+01  2.6475016E+01
 1.3242250E+01  2.6607843E+01
 1.3253751E+01  2.6703253E+01
 1.3265250E+01  2.6789457E+01
 1.3276751E+01  2.6891783E+01
 1.3288251E+01  2.7039988E+01
 1.3299750E+01  2.7164236E+01
 1.3311251E+01  2.7272678E+01
 1.3322751E+01  2.7397629E+01
 1.3334250E+01  2.7561333E+01
 1.3345751E+01  2.7691101E+01
 1.3357250E+01  2.7898710E+01
 1.3368751E+01  2.8033077E+01
 1.3380251E+01  2.8182991E+01
 1.3391750E+01  2.8220989E+01
 1.3403251E+01  2.8277231E+01
 1.3414751E+01  2.8342756E+01
 1.3426250E+01  2.8461645E+01
 1.3437751E+01  2.8664183E+01
 1.3449250E+01  2.8832602E+01
 1.3460751E+01  2.9007242E+01
 1.3472251E+01  2.9119125E+01
 1.3483750E+01  2.9276041E+01
 1.3495251E+01  2.9344065E+01
 1.3506751E+01  2.9463835E+01
 1.3518250E+01  2.9545759E+01
 1.3529751E+01  2.9612024E+01
 1.3541250E+01  2.9708832E+01
 1.3552751E+01  2.9766462E+01
 1.3564251E+01  2.9881443E+01
 1.3575750E+01  2.9954439E+01
 1.3587251E+01  3.0026476E+01
 1.3598751E+01  3.0063225E+01
 1.3610250E+01  2.9977528E+01
 1.3621751E+01  2.9957521E+01
 1.3633250E+01  2.9913813E+01
 1.3644751E+01  2.9898390E+01
 1.3656251E+01  2.9876583E+01
 1.3667750E+01  2.9862978E+01
 1.3679251E+01  2.9866364E+01
 1.3690751E+01  2.9848698E+01
 1.3702250E+01  2.9801407E+01
 1.3713751E+01  2.9770588E+01
 1.3725250E+01  2.9734955E+01
 1.3736751E+01  2.9703510E+01
 1.3748251E+01  2.9626999E+01
 1.3759750E+01  2.9534487E+01
 1.3771251E+01  2.9502739E+01
 1.3782751E+01  2.9491156E+01
 1.3794250E+01  2.9480900E+01
 1.3805751E+01  2.9450014E+01
 1.3817250E+01  2.9418859E+01
 1.3828751E+01  2.9394711E+01
 1.3840251E+01  2.9394140E+01
 1.3851750E+01  2.9400068E+01
 1.3863251E+01  2.9437128E+01
 1.3874751E+01  2.9510893E+01
 1.3886250E+01  2.9661051E+01
 1.3897751E+01  3.0014652E+01
 1.3909250E+01  3.0470213E+01
 1.3920751E+01  3.1222570E+01
 1.3932251E+01  3.2259895E+01
 1.3943750E+01  3.2776615E+01
 1.3955251E+01  3.3064346E+01
 1.3966751E+01  3.2783947E+01
 1.3978251E+01  3.2156479E+01
 1.3989751E+01  3.1334908E+01
 1.4001250E+01  3.0316153E+01
 1.4012751E+01  2.9762735E+01
 1.4024251E+01  2.9037663E+01
 1.4035750E+01  2.8601822E+01
 1.4047251E+01  2.8249355E+01
 1.4058751E+01  2.7994417E+01
 1.4070251E+01  2.7834358E+01
 1.4081751E+01  2.7694355E+01
 1.4093250E+01  2.7610830E+01
 1.4104751E+01  2.7511044E+01
 1.4116251E+01  2.7443825E+01
 1.4127750E+01  2.7355438E+01
 1.4139251E+01  2.7334066E+01
 1.4150751E+01  2.7277737E+01
 1.4162251E+01  2.7276882E+01
 1.4173751E+01  2.7184391E+01
 1.4185250E+01  2.7131376E+01
 1.4196751E+01  2.6996862E+01
 1.4208251E+01  2.6887955E+01
 1.4219750E+01  2.6758736E+01
 1.4231251E+01  2.6643349E+01
 1.4242751E+01  2.6631182E+01
 1.4254251E+01  2.6629950E+01
 1.4265751E+01  2.6675161E+01
 1.4277250E+01  2.6664629E+01
 1.4288751E+01  2.6718248E+01
 1.4300251E+01  2.6754780E+01
 1.4311750E+01  2.6738647E+01
 1.4323251E+01  2.6664160E+01
 1.4334751E+01  2.6554119E+01
 1.4346251E+01  2.6475956E+01
 1.4357751E+01  2.6422813E+01
 1.4369250E+01  2.6348213E+01
 1.4380751E+01  2.6304234E+01
 1.4392251E+01  2.6230326E+01
 1.4403750E+01  2.6161081E+01
 1.4415251E+01  2.6052872E+01
 1.4426751E+01  2.6001020E+01
 1.4438251E+01  2.5985096E+01
 1.4449751E+01  2.5937454E+01
 1.4461250E+01  2.5925289E+01
 1.4472751E+01  2.5877205E+01
 1.4484251E+01  2.5900911E+01
 1.4495750E+01  2.5866898E+01
 1.4507251E+01  2.5869852E+01
 1.4518751E+01  2.5811550E+01
 1.4530251E+01  2.5767494E+01
 1.4541751E+01  2.5703741E+01
 1.4553250E+01  2.5710976E+01
 1.4564751E+01  2.5731339E+01
 1.4576251E+01  2.5697554E+01
 1.4587750E+01  2.5701345E+01
 1.4599251E+01  2.5609850E+01
 1.4610751E+01  2.5601173E+01
 1.4622251E+01  2.5517290E+01
 1.4633751E+01  2.5479862E+01
 1.4645250E+01  2.5441658E+01
 1.4656751E+01  2.5382755E+01
 1.4668251E+01  2.5386213E+01
 1.4679750E+01  2.5405872E+01
 1.4691251E+01  2.5405083E+01
 1.4702751E+01  2.5424189E+01
 1.4714251E+01  2.5383554E+01
 1.4725751E+01  2.5364420E+01
 1.4737250E+01  2.5331165E+01
 1.4748751E+01  2.5332615E+01
 1.4760251E+01  2.5354321E+01
 1.4771750E+01  2.5339386E+01
 1.4783251E+01  2.5218733E+01
 1.4794751E+01  2.5135368E+01
 1.4806251E+01  2.5048353E+01
 1.4817751E+01  2.5008089E+01
 1.4829250E+01  2.4979515E+01
 1.4840751E+01  2.4979004E+01
 1.4852251E+01  2.5031096E+01
 1.4863750E+01  2.5005318E+01
 1.4875251E+01  2.4949762E+01
 1.4886751E+01  2.4939880E+01
 1.4898251E+01  2.4985737E+01
 1.4909751E+01  2.5038670E+01
 1.4921250E+01  2.5036909E+01
 1.4932751E+01  2.5008921E+01
 1.4944251E+01  2.5014311E+01
 1.4955750E+01  2.4987631E+01
 1.4967251E+01  2.4937820E+01
 1.4978751E+01  2.4890377E+01
 1.4990251E+01  2.4898445E+01
 1.5001751E+01  2.4929956E+01
 1.5013250E+01  2.4978300E+01
 1.5024751E+01  2.5025661E+01
 1.5036251E+01  2.5057989E+01
 1.5047750E+01  2.5043596E+01
 1.5059251E+01  2.5074162E+01
 1.5070751E+01  2.5100750E+01
 1.5082251E+01  2.5140110E+01
 1.5093751E+01  2.5121593E+01
 1.5105250E+01  2.5129618E+01
 1.5116751E+01  2.5138378E+01
 1.5128251E+01  2.5125721E+01
 1.5139750E+01  2.5206329E+01
 1.5151251E+01  2.5361927E+01
 1.5162751E+01  2.5498346E+01
 1.5174251E+01  2.5598854E+01
 1.5185751E+01  2.5611572E+01
 1.5197250E+01  2.5584810E+01
 1.5208751E+01  2.5489115E+01
 1.5220251E+01  2.5341871E+01
 1.5231750E+01  2.5233215E+01
 1.5243251E+01  2.5114037E+01
 1.5254751E+01  2.5040625E+01
 1.5266251E+01  2.4947779E+01
 1.5277751E+01  2.4899536E+01
 1.5289250E+01  2.4855663E+01
 1.5300751E+01  2.4819080E+01
 1.5312251E+01  2.4780359E+01
 1.5323750E+01  2.4719711E+01
 1.5335251E+01  2.4670462E+01
 1.5346751E+01  2.4575630E+01
 1.5358251E+01  2.4569633E+01
 1.5369751E+01  2.4613615E+01
 1.5381250E+01  2.4643023E+01
 1.5392751E+01  2.4642725E+01
 1.5404251E+01  2.4623499E+01
 1.5415751E+01  2.4606586E+01
 1.5427251E+01  2.4639368E+01
 1.5438751E+01  2.4673092E+01
 1.5450251E+01  2.4724031E+01
 1.5461751E+01  2.4711187E+01
 1.5473250E+01  2.4676474E+01
 1.5484751E+01  2.4709175E+01
 1.5496251E+01  2.4733078E+01
 1.5507751E+01  2.4793890E+01
 1.5519251E+01  2.4760393E+01
 1.5530751E+01  2.4718357E+01
 1.5542251E+01  2.4662844E+01
 1.5553751E+01  2.4615156E+01
 1.5565250E+01  2.4644026E+01
 1.5576751E+01  2.4695999E+01
 1.5588251E+01  2.4727205E+01
 1.5599751E+01  2.4740862E+01
 1.5611251E+01  2.4738832E+01
 1.5622751E+01  2.4707489E+01
 1.5634251E+01  2.4633108E+01
 1.5645751E+01  2.4598223E+01
 1.5657250E+01  2.4600946E+01
 1.5668751E+01  2.4609251E+01
 1.5680251E+01  2.4635567E+01
 1.5691751E+01  2.4660360E+01
 1.5703251E+01  2.4664255E+01
 1.5714751E+01  2.4658001E+01
 1.5726251E+01  2.4710979E+01
 1.5737751E+01  2.4708158E+01
 1.5749250E+01  2.4721491E+01
 1.5760751E+01  2.4708677E+01
 1.5772251E+01  2.4754980E+01
 1.5783751E+01  2.4751637E+01
 1.5795251E+01  2.4787487E+01
 1.5806751E+01  2.4735611E+01
 1.5818251E+01  2.4722218E+01
 1.5829751E+01  2.4670773E+01
 1.5841250E+01  2.4692251E+01
 1.5852751E+01  2.4672728E+01
 1.5864251E+01  2.4622807E+01
 1.5875751E+01  2.4586773E+01
 1.5887251E+01  2.4585058E+01
 1.5898750E+01  2.4625380E+01
 1.5910251E+01  2.4656509E+01
 1.5921751E+01  2.4689367E+01
 1.5933250E+01  2.4674774E+01
 1.5944751E+01  2.4664921E+01
 1.5956251E+01  2.4633688E+01
 1.5967751E+01  2.4657480E+01
 1.5979251E+01  2.4701195E+01
 1.5990750E+01  2.4788706E+01
 1.6002251E+01  2.4822250E+01
 1.6013750E+01  2.4906397E+01
 1.6025251E+01  2.4922825E+01
 1.6036751E+01  2.4963661E+01
 1.6048250E+01  2.4914948E+01
 1.6059752E+01  2.4965370E+01
 1.6071251E+01  2.4881319E+01
 1.6082750E+01  2.4938694E+01
 1.6094252E+01  2.4903130E+01
 1.6105751E+01  2.5055887E+01
 1.6117250E+01  2.4989172E+01
 1.6128750E+01  2.5005869E+01
 1.6140251E+01  2.4994234E+01
 1.6151751E+01  2.5043476E+01
 1.6163250E+01  2.5204758E+01
 1.6174751E+01  2.5180550E+01
 1.6186251E+01  2.5745409E+01
 1.6197750E+01  2.5704687E+01
 1.6209251E+01  2.6894817E+01
 1.6220751E+01  2.7014242E+01
 1.6232250E+01  2.8427383E+01
 1.6243752E+01  2.8782398E+01
 1.6255251E+01  2.9239176E+01
 1.6266750E+01  2.9140594E+01
 1.6278252E+01  2.8010103E+01
 1.6289751E+01  2.7627829E+01
 1.6301250E+01  2.6176342E+01
 1.6312750E+01  2.6138987E+01
 1.6324251E+01  2.5412205E+01
 1.6335751E+01  2.5523365E+01
 1.6347250E+01  2.5269543E+01
 1.6358751E+01  2.5253523E+01
 1.6370251E+01  2.5149519E+01
 1.6381750E+01  2.5055098E+01
 1.6393251E+01  2.5052399E+01
 1.6404751E+01  2.5016785E+01
 1.6416250E+01  2.5123737E+01
 1.6427752E+01  2.5076601E+01
 1.6439251E+01  2.5109379E+01
 1.6450750E+01  2.5062441E+01
 1.6462252E+01  2.5054508E+01
 1.6473751E+01  2.4999617E+01
 1.6485250E+01  2.4988310E+01
 1.6496750E+01  2.4969629E+01
 1.6508251E+01  2.4917242E+01
 1.6519751E+01  2.4922871E+01
 1.6531250E+01  2.4941544E+01
 1.6542751E+01  2.4970234E+01
 1.6554251E+01  2.4899546E+01
 1.6565750E+01  2.4818811E+01
 1.6577251E+01  2.4690231E+01
 1.6588751E+01  2.4653498E+01
 1.6600250E+01  2.4663759E+01
 1.6611752E+01  2.4691422E+01
 1.6623251E+01  2.4653145E+01
 1.6634750E+01  2.4647638E+01
 1.6646252E+01  2.4659960E+01
 1.6657751E+01  2.4687468E+01
 1.6669250E+01  2.4714176E+01
 1.6680750E+01  2.4703119E+01
 1.6692251E+01  2.4695305E+01
 1.6703751E+01  2.4673338E+01
 1.6715250E+01  2.4656168E+01
 1.6726751E+01  2.4641933E+01
 1.6738251E+01  2.4618101E+01
 1.6749750E+01  2.4650591E+01
 1.6761251E+01  2.4647015E+01
 1.6772751E+01  2.4694504E+01
 1.6784250E+01  2.4691669E+01
 1.6795752E+01  2.4701124E+01
 1.6807251E+01  2.4647772E+01
 1.6818750E+01  2.4563784E+01
 1.6830252E+01  2.4539360E+01
 1.6841751E+01  2.4526775E+01
 1.6853251E+01  2.4534302E+01
 1.6864750E+01  2.4508278E+01
 1.6876251E+01  2.4525410E+01
 1.6887751E+01  2.4560053E+01
 1.6899250E+01  2.4594637E+01
 1.6910751E+01  2.4575747E+01
 1.6922251E+01  2.4529337E+01
 1.6933750E+01  2.4462652E+01
 1.6945251E+01  2.4411484E+01
 1.6956751E+01  2.4395548E+01
 1.6968250E+01  2.4406477E+01
 1.6979752E+01  2.4430325E+01
 1.6991251E+01  2.4434444E+01
 1.7002750E+01  2.4457043E+01
 1.7014252E+01  2.4464622E+01
 1.7025751E+01  2.4429680E+01
 1.7037251E+01  2.4394527E+01
 1.7048750E+01  2.4338165E+01
 1.7060251E+01  2.4316118E+01
 1.7071751E+01  2.4313084E+01
 1.7083250E+01  2.4325888E+01
 1.7094751E+01  2.4366386E+01
 1.7106251E+01  2.4342718E+01
 1.7117750E+01  2.4348738E+01
 1.7129251E+01  2.4348593E+01
 1.7140751E+01  2.4339149E+01
 1.7152250E+01  2.4321356E+01
 1.7163752E+01  2.4308798E+01
 1.7175251E+01  2.4385422E+01
 1.7186750E+01  2.4411827E+01
 1.7198252E+01  2.4477463E+01
 1.7209751E+01  2.4432665E+01
 1.7221251E+01  2.4419523E+01
 1.7232750E+01  2.4355980E+01
 1.7244251E+01  2.4301991E+01
 1.7255751E+01  2.4281559E+01
 1.7267250E+01  2.4284430E+01
 1.7278751E+01  2.4346281E+01
 1.7290251E+01  2.4352831E+01
 1.7301750E+01  2.4395773E+01
 1.7313251E+01  2.4323111E+01
 1.7324751E+01  2.4252207E+01
 1.7336250E+01  2.4169216E+01
 1.7347752E+01  2.4163467E+01
 1.7359251E+01  2.4160269E+01
 1.7370750E+01  2.4208252E+01
 1.7382252E+01  2.4196964E+01
 1.7393751E+01  2.4207890E+01
 1.7405251E+01  2.4109299E+01
 1.7416750E+01  2.4097771E+01
 1.7428251E+01  2.4085300E+01
 1.7439751E+01  2.4103088E+01
 1.7451250E+01  2.4099445E+01
 1.7462751E+01  2.4039984E+01
 1.7474251E+01  2.3983961E+01
 1.7485750E+01  2.3975677E+01
 1.7497252E+01  2.3997969E+01
 1.7508751E+01  2.4036379E+01
 1.7520250E+01  2.4012783E+01
 1.7531752E+01  2.4029909E+01
 1.7543251E+01  2.4084829E+01
 1.7554750E+01  2.4065771E+01
 1.7566252E+01  2.4084784E+01
 1.7577751E+01  2.4024567E+01
 1.7589251E+01  2.3987686E+01
 1.7600750E+01  2.3930763E+01
 1.7612251E+01  2.3945793E+01
 1.7623751E+01  2.3998856E+01
 1.7635250E+01  2.3996326E+01
 1.7646751E+01  2.3996939E+01
 1.7658251E+01  2.3938665E+01
 1.7669750E+01  2.3975792E+01
 1.7681252E+01  2.3928028E+01
 1.7692751E+01  2.3969994E+01
 1.7704250E+01  2.3952291E+01
 1.7715752E+01  2.3970377E+01
 1.7727251E+01  2.3923738E+01
 1.7738750E+01  2.3909761E+01
 1.7750252E+01  2.3881853E+01
 1.7761751E+01  2.3881975E+01
 1.7773251E+01  2.3847645E+01
 1.7784750E+01  2.3874407E+01
 1.7796251E+01  2.3934698E+01
 1.7807751E+01  2.3967733E+01
 1.7819250E+01  2.3971500E+01
 1.7830751E+01  2.3917673E+01
 1.7842251E+01  2.3937054E+01
 1.7853750E+01  2.3938635E+01
 1.7865252E+01  2.3972837E+01
 1.7876751E+01  2.3909409E+01
 1.7888250E+01  2.3906704E+01
 1.7899752E+01  2.3889557E+01
 1.7911251E+01  2.3984369E+01
 1.7922750E+01  2.3996931E+01
 1.7934252E+01  2.4000755E+01
 1.7945751E+01  2.3944679E+01
 1.7957251E+01  2.3888361E+01
 1.7968750E+01  2.3854330E+01
 1.7980251E+01  2.3893118E+01
 1.7991751E+01  2.4019897E+01
 1.8003250E+01  2.4216030E+01
 1.8014751E+01  2.4353580E+01
 1.8026251E+01  2.4390671E+01
 1.8037750E+01  2.4344229E+01
 1.8049252E+01  2.4323822E+01
 1.8060751E+01  2.4399088E+01
 1.8072250E+01  2.4525570E+01
 1.8083752E+01  2.4701633E+01
 1.8095251E+01  2.4863007E+01
 1.8106750E+01  2.4951340E+01
 1.8118252E+01  2.4836613E+01
 1.8129751E+01  2.4713972E+01
 1.8141251E+01  2.4476006E+01
 1.8152750E+01  2.4307108E+01
 1.8164251E+01  2.4130323E+01
 1.8175751E+01  2.3994284E+01
 1.8187250E+01  2.3849054E+01
 1.8198751E+01  2.3767551E+01
 1.8210251E+01  2.3738762E+01
 1.8221750E+01  2.3734226E+01
 1.8233252E+01  2.3712118E+01
 1.8244751E+01  2.3715601E+01
 1.8256250E+01  2.3757210E+01
 1.8267752E+01  2.3792519E+01
 1.8279251E+01  2.3844952E+01
 1.8290751E+01  2.3810617E+01
 1.8302252E+01  2.3760023E+01
 1.8313751E+01  2.3637226E+01
 1.8325251E+01  2.3609253E+01
 1.8336750E+01  2.3627302E+01
 1.8348251E+01  2.3669941E+01
 1.8359751E+01  2.3713720E+01
 1.8371250E+01  2.3690022E+01
 1.8382751E+01  2.3679926E+01
 1.8394251E+01  2.3691082E+01
 1.8405750E+01  2.3747139E+01
 1.8417252E+01  2.3709015E+01
 1.8428751E+01  2.3686161E+01
 1.8440250E+01  2.3651970E+01
 1.8451752E+01  2.3711428E+01
 1.8463251E+01  2.3700050E+01
 1.8474751E+01  2.3766676E+01
 1.8486252E+01  2.3742844E+01
 1.8497751E+01  2.3790146E+01
 1.8509251E+01  2.3777134E+01
 1.8520750E+01  2.3790651E+01
 1.8532251E+01  2.3742876E+01
 1.8543751E+01  2.3724176E+01
 1.8555250E+01  2.3687489E+01
 1.8566751E+01  2.3666977E+01
 1.8578251E+01  2.3635622E+01
 1.8589750E+01  2.3634148E+01
 1.8601252E+01  2.3660013E+01
 1.8612751E+01  2.3629038E+01
 1.8624250E+01  2.3621283E+01
 1.8635752E+01  2.3630289E+01
 1.8647251E+01  2.3591415E+01
 1.8658751E+01  2.3525755E+01
 1.8670252E+01  2.3502014E+01
 1.8681751E+01  2.3551579E+01
 1.8693251E+01  2.3563501E+01
 1.8704750E+01  2.3625418E+01
 1.8716251E+01  2.3630112E+01
 1.8727751E+01  2.3603872E+01
 1.8739250E+01  2.3538874E+01
 1.8750751E+01  2.3536049E+01
 1.8762251E+01  2.3567081E+01
 1.8773750E+01  2.3600170E+01
 1.8785252E+01  2.3724031E+01
 1.8796751E+01  2.3820709E+01
 1.8808250E+01  2.3992245E+01
 1.8819752E+01  2.4038321E+01
 1.8831251E+01  2.4055231E+01
 1.8842751E+01  2.3986952E+01
 1.8854252E+01  2.3849379E+01
 1.8865751E+01  2.3695324E+01
 1.8877251E+01  2.3604729E+01
 1.8888750E+01  2.3634781E+01
 1.8900251E+01  2.3652678E+01
 1.8911751E+01  2.3681572E+01
 1.8923250E+01  2.3710182E+01
 1.8934752E+01  2.3743551E+01
 1.8946251E+01  2.3791235E+01
 1.8957750E+01  2.3772001E+01
 1.8969252E+01  2.3706118E+01
 1.8980751E+01  2.3670551E+01
 1.8992250E+01  2.3634623E+01
 1.9003752E+01  2.3657713E+01
 1.9015251E+01  2.3663977E+01
 1.9026751E+01  2.3723597E+01
 1.9038252E+01  2.3729212E+01
 1.9049751E+01  2.3691725E+01
 1.9061251E+01  2.3679922E+01
 1.9072750E+01  2.3650295E+01
 1.9084251E+01  2.3685936E+01
 1.9095751E+01  2.3693775E+01
 1.9107250E+01  2.3738182E+01
 1.9118752E+01  2.3714794E+01
 1.9130251E+01  2.3692505E+01
 1.9141750E+01  2.3642826E+01
 1.9153252E+01  2.3678392E+01
 1.9164751E+01  2.3664608E+01
 1.9176250E+01  2.3686865E+01
 1.9187752E+01  2.3664494E+01
 1.9199251E+01  2.3688192E+01
 1.9210751E+01  2.3663019E+01
 1.9222252E+01  2.3631508E+01
 1.9233751E+01  2.3555878E+01
 1.9245251E+01  2.3581919E+01
 1.9256750E+01  2.3617884E+01
 1.9268251E+01  2.3701015E+01
 1.9279751E+01  2.3692133E+01
 1.9291250E+01  2.3696278E+01
 1.9302752E+01  2.3699614E+01
 1.9314251E+01  2.3675821E+01
 1.9325750E+01  2.3690329E+01
 1.9337252E+01  2.3654675E+01
 1.9348751E+01  2.3697775E+01
 1.9360250E+01  2.3626284E+01
 1.9371752E+01  2.3629316E+01
 1.9383251E+01  2.3594223E+01
 1.9394751E+01  2.3657923E+01
 1.9406250E+01  2.3669205E+01
 1.9417751E+01  2.3677708E+01
 1.9429251E+01  2.3637125E+01
 1.9440750E+01  2.3634399E+01
 1.9452251E+01  2.3641270E+01
 1.9463751E+01  2.3699795E+01
 1.9475250E+01  2.3692066E+01
 1.9486752E+01  2.3730627E+01
 1.9498251E+01  2.3736744E+01
 1.9509750E+01  2.3762859E+01
 1.9521252E+01  2.3793713E+01
 1.9532751E+01  2.3811049E+01
 1.9544250E+01  2.3842615E+01
 1.9555752E+01  2.3820648E+01
 1.9567251E+01  2.3827484E+01
 1.9578751E+01  2.3786974E+01
 1.9590250E+01  2.3746252E+01
 1.9601751E+01  2.3694429E+01
 1.9613251E+01  2.3677261E+01
 1.9624750E+01  2.3741600E+01
 1.9636251E+01  2.3793207E+01
 1.9647751E+01  2.3871960E+01
 1.9659250E+01  2.3979223E+01
 1.9670752E+01  2.4100828E+01
 1.9682251E+01  2.4244213E+01
 1.9693750E+01  2.4393349E+01
 1.9705252E+01  2.4475050E+01
 1.9716751E+01  2.4466619E+01
 1.9728251E+01  2.4425474E+01
 1.9739752E+01  2.4351978E+01
 1.9751251E+01  2.4361589E+01
 1.9762751E+01  2.4339352E+01
 1.9774250E+01  2.4413567E+01
 1.9785751E+01  2.4382423E+01
 1.9797251E+01  2.4437300E+01
 1.9808750E+01  2.4402466E+01
 1.9820251E+01  2.4421064E+01
 1.9831751E+01  2.4532629E+01
 1.9843250E+01  2.4548998E+01
 1.9854752E+01  2.4583191E+01
 1.9866251E+01  2.4575682E+01
 1.9877750E+01  2.4529892E+01
 1.9889252E+01  2.4407640E+01
 1.9900751E+01  2.4290863E+01
 1.9912251E+01  2.4207218E+01
 1.9923752E+01  2.4082897E+01
 1.9935251E+01  2.3955879E+01
 1.9946751E+01  2.3881319E+01
 1.9958250E+01  2.3883289E+01
 1.9969751E+01  2.3954733E+01
 1.9981251E+01  2.3963329E+01
 1.9992750E+01  2.3916527E+01
 2.0004251E+01  2.3806929E+01
 2.0015751E+01  2.3753168E+01
 2.0027250E+01  2.3722639E+01
 2.0038752E+01  2.3747025E+01
 2.0050251E+01  2.3768843E+01
 2.0061750E+01  2.3743504E+01
 2.0073252E+01  2.3737494E+01
 2.0084751E+01  2.3709661E+01
 2.0096251E+01  2.3746563E+01
 2.0107752E+01  2.3777866E+01
 2.0119251E+01  2.3851189E+01
 2.0130751E+01  2.3887974E+01
 2.0142250E+01  2.3886003E+01
 2.0153751E+01  2.3853777E+01
 2.0165251E+01  2.3814646E+01
 2.0176750E+01  2.3827837E+01
 2.0188251E+01  2.3857870E+01
 2.0199751E+01  2.3834303E+01
 2.0211250E+01  2.3812616E+01
 2.0222752E+01  2.3832836E+01
 2.0234251E+01  2.3902727E+01
 2.0245750E+01  2.3915493E+01
 2.0257252E+01  2.3869972E+01
 2.0268751E+01  2.3819878E+01
 2.0280251E+01  2.3786812E+01
 2.0291752E+01  2.3801662E+01
 2.0303251E+01  2.3759857E+01
 2.0314751E+01  2.3762794E+01
 2.0326250E+01  2.3732565E+01
 2.0337751E+01  2.3769905E+01
 2.0349251E+01  2.3761641E+01
 2.0360750E+01  2.3817978E+01
 2.0372252E+01  2.3857740E+01
 2.0383751E+01  2.3832253E+01
 2.0395250E+01  2.3830225E+01
 2.0406752E+01  2.3842531E+01
 2.0418251E+01  2.3894535E+01
 2.0429750E+01  2.3882343E+01
 2.0441252E+01  2.3843954E+01
 2.0452751E+01  2.3845119E+01
 2.0464251E+01  2.3829166E+01
 2.0475752E+01  2.3836876E+01
 2.0487251E+01  2.3804657E+01
 2.0498751E+01  2.3810265E+01
 2.0510250E+01  2.3769085E+01
 2.0521751E+01  2.3783178E+01
 2.0533251E+01  2.3811209E+01
 2.0544750E+01  2.3860062E+01
 2.0556252E+01  2.3892359E+01
 2.0567751E+01  2.3892719E+01
 2.0579250E+01  2.3865705E+01
 2.0590752E+01  2.3865141E+01
 2.0602251E+01  2.3942701E+01
 2.0613750E+01  2.3958410E+01
 2.0625252E+01  2.3995535E+01
 2.0636751E+01  2.3959747E+01
 2.0648251E+01  2.3979286E+01
 2.0659752E+01  2.3968494E+01
 2.0671251E+01  2.4003405E+01
 2.0682751E+01  2.4068918E+01
 2.0694250E+01  2.4156900E+01
 2.0705751E+01  2.4269072E+01
 2.0717251E+01  2.4388569E+01
 2.0728750E+01  2.4474607E+01
 2.0740252E+01  2.4599871E+01
 2.0751751E+01  2.4703817E+01
 2.0763250E+01  2.4813540E+01
 2.0774752E+01  2.4800268E+01
 2.0786251E+01  2.4673115E+01
 2.0797750E+01  2.4488380E+01
 2.0809252E+01  2.4268970E+01
 2.0820751E+01  2.4138960E+01
 2.0832251E+01  2.4072140E+01
 2.0843752E+01  2.4074799E+01
 2.0855251E+01  2.4110863E+01
 2.0866751E+01  2.4114777E+01
 2.0878250E+01  2.4107454E+01
 2.0889751E+01  2.4083975E+01
 2.0901251E+01  2.4085819E+01
 2.0912750E+01  2.4115179E+01
 2.0924252E+01  2.4096035E+01
 2.0935751E+01  2.4095201E+01
 2.0947250E+01  2.4045246E+01
 2.0958752E+01  2.4025927E+01
 2.0970251E+01  2.3973860E+01
 2.0981750E+01  2.4000877E+01
 2.0993252E+01  2.4053749E+01
 2.1004751E+01  2.4081408E+01
 2.1016251E+01  2.4062437E+01
 2.1027752E+01  2.4039490E+01
 2.1039251E+01  2.3987568E+01
 2.1050751E+01  2.3929548E+01
 2.1062250E+01  2.3889837E+01
 2.1073751E+01  2.3962624E+01
 2.1085251E+01  2.3991257E+01
 2.1096750E+01  2.3957172E+01
 2.1108252E+01  2.3932280E+01
 2.1119751E+01  2.3896095E+01
 2.1131250E+01  2.3894855E+01
 2.1142752E+01  2.3869732E+01
 2.1154251E+01  2.3857910E+01
 2.1165751E+01  2.3877190E+01
 2.1177252E+01  2.3956482E+01
 2.1188751E+01  2.4022438E+01
 2.1200251E+01  2.4037519E+01
 2.1211752E+01  2.4000498E+01
 2.1223251E+01  2.3992321E+01
 2.1234751E+01  2.3980686E+01
 2.1246250E+01  2.4027559E+01
 2.1257751E+01  2.4025604E+01
 2.1269251E+01  2.4038774E+01
 2.1280750E+01  2.4027399E+01
 2.1292252E+01  2.4037996E+01
 2.1303751E+01  2.4033911E+01
 2.1315250E+01  2.4020287E+01
 2.1326752E+01  2.4075924E+01
 2.1338251E+01  2.4097496E+01
 2.1349751E+01  2.4123466E+01
 2.1361252E+01  2.4122589E+01
 2.1372751E+01  2.4153141E+01
 2.1384251E+01  2.4087782E+01
 2.1395752E+01  2.4037146E+01
 2.1407251E+01  2.4031736E+01
 2.1418751E+01  2.4076157E+01
 2.1430250E+01  2.4107178E+01
 2.1441751E+01  2.4108936E+01
 2.1453251E+01  2.4125753E+01
 2.1464750E+01  2.4130297E+01
 2.1476252E+01  2.4110994E+01
 2.1487751E+01  2.4117874E+01
 2.1499250E+01  2.4093046E+01
 2.1510752E+01  2.4068233E+01
 2.1522251E+01  2.4076338E+01
 2.1533751E+01  2.4100737E+01
 2.1545252E+01  2.4134754E+01
 2.1556751E+01  2.4107243E+01
 2.1568251E+01  2.4115454E+01
 2.1579752E+01  2.4106771E+01
 2.1591251E+01  2.4144567E+01
 2.1602751E+01  2.4161840E+01
 2.1614250E+01  2.4211956E+01
 2.1625751E+01  2.4241840E+01
 2.1637251E+01  2.4250872E+01
 2.1648750E+01  2.4227676E+01
 2.1660252E+01  2.4219725E+01
 2.1671751E+01  2.4197794E+01
 2.1683250E+01  2.4173805E+01
 2.1694752E+01  2.4132362E+01
 2.1706251E+01  2.4146996E+01
 2.1717751E+01  2.4176590E+01
 2.1729252E+01  2.4219172E+01
 2.1740751E+01  2.4251501E+01
 2.1752251E+01  2.4273232E+01
 2.1763752E+01  2.4289249E+01
 2.1775251E+01  2.4291563E+01
 2.1786751E+01  2.4299002E+01
 2.1798250E+01  2.4302942E+01
 2.1809752E+01  2.4320574E+01
 2.1821251E+01  2.4337368E+01
 2.1832750E+01  2.4269300E+01
 2.1844252E+01  2.4233452E+01
 2.1855751E+01  2.4246567E+01
 2.1867250E+01  2.4310085E+01
 2.1878752E+01  2.4342468E+01
 2.1890251E+01  2.4341564E+01
 2.1901751E+01  2.4294031E+01
 2.1913252E+01  2.4268209E+01
 2.1924751E+01  2.4223324E+01
 2.1936251E+01  2.4279802E+01
 2.1947752E+01  2.4296003E+01
 2.1959251E+01  2.4337471E+01
 2.1970751E+01  2.4342871E+01
 2.1982250E+01  2.4344994E+01
 2.1993752E+01  2.4342440E+01
 2.2005251E+01  2.4347067E+01
 2.2016750E+01  2.4353300E+01
 2.2028252E+01  2.4314919E+01
 2.2039751E+01  2.4297224E+01
 2.2051250E+01  2.4315113E+01
 2.2062752E+01  2.4338734E+01
 2.2074251E+01  2.4377426E+01
 2.2085751E+01  2.4386312E+01
 2.2097252E+01  2.4407442E+01
 2.2108751E+01  2.4397961E+01
 2.2120251E+01  2.4522894E+01
 2.2131752E+01  2.4543585E+01
 2.2143251E+01  2.4551933E+01
 2.2154751E+01  2.4483246E+01
 2.2166250E+01  2.4497053E+01
 2.2177752E+01  2.4468166E+01
 2.2189251E+01  2.4441118E+01
 2.2200750E+01  2.4423588E+01
 2.2212252E+01  2.4434978E+01
 2.2223751E+01  2.4512196E+01
 2.2235250E+01  2.4562365E+01
 2.2246752E+01  2.4631821E+01
 2.2258251E+01  2.4628174E+01
 2.2269751E+01  2.4610378E+01
 2.2281252E+01  2.4582211E+01
 2.2292751E+01  2.4593470E+01
 2.2304251E+01  2.4624245E+01
 2.2315752E+01  2.4618372E+01
 2.2327251E+01  2.4575083E+01
 2.2338751E+01  2.4538166E+01
 2.2350250E+01  2.4580830E+01
 2.2361752E+01  2.4588799E+01
 2.2373251E+01  2.4606047E+01
 2.2384750E+01  2.4607944E+01
 2.2396252E+01  2.4647581E+01
 2.2407751E+01  2.4637497E+01
 2.2419250E+01  2.4688841E+01
 2.2430752E+01  2.4737453E+01
 2.2442251E+01  2.4775822E+01
 2.2453751E+01  2.4787849E+01
 2.2465252E+01  2.4795851E+01
 2.2476751E+01  2.4797482E+01
 2.2488251E+01  2.4800352E+01
 2.2499752E+01  2.4837793E+01
 2.2511251E+01  2.4868469E+01
 2.2522751E+01  2.4921917E+01
 2.2534250E+01  2.4946430E+01
 2.2545752E+01  2.4961926E+01
 2.2557251E+01  2.4961630E+01
 2.2568750E+01  2.4979111E+01
 2.2580252E+01  2.4995394E+01
 2.2591751E+01  2.4999578E+01
 2.2603251E+01  2.4984777E+01
 2.2614752E+01  2.5019926E+01
 2.2626251E+01  2.5040573E+01
 2.2637751E+01  2.5034277E+01
 2.2649252E+01  2.5049673E+01
 2.2660751E+01  2.5032660E+01
 2.2672251E+01  2.5063259E+01
 2.2683752E+01  2.5059425E+01
 2.2695251E+01  2.5125204E+01
 2.2706751E+01  2.5180569E+01
 2.2718250E+01  2.5248350E+01
 2.2729752E+01  2.5241602E+01
 2.2741251E+01  2.5245392E+01
 2.2752750E+01  2.5259747E+01
 2.2764252E+01  2.5246403E+01
 2.2775751E+01  2.5259947E+01
 2.2787251E+01  2.5262247E+01
 2.2798752E+01  2.5294189E+01
 2.2810251E+01  2.5339293E+01
 2.2821751E+01  2.5437523E+01
 2.2833252E+01  2.5562773E+01
 2.2844751E+01  2.5659042E+01
 2.2856251E+01  2.5663582E+01
 2.2867750E+01  2.5681963E+01
 2.2879251E+01  2.5662880E+01
 2.2890751E+01  2.5720463E+01
 2.2902250E+01  2.5778658E+01
 2.2913752E+01  2.5850695E+01
 2.2925251E+01  2.5903927E+01
 2.2936750E+01  2.5951168E+01
 2.2948252E+01  2.5998158E+01
 2.2959751E+01  2.6028341E+01
 2.2971251E+01  2.6110352E+01
 2.2982752E+01  2.6193439E+01
 2.2994251E+01  2.6273573E+01
