F:\20151113_APS_34IDE\\Brian\Particle1\OCV\Data_0103.tif
2-Theta Angle (Degrees)
Intensity
       2000
 5.7500005E-03  0.0000000E+00
 1.7250001E-02  0.0000000E+00
 2.8750001E-02  0.0000000E+00
 4.0250003E-02  0.0000000E+00
 5.1750004E-02  0.0000000E+00
 6.3250005E-02  0.0000000E+00
 7.4750006E-02  0.0000000E+00
 8.6250007E-02  0.0000000E+00
 9.7750008E-02  0.0000000E+00
 1.0925001E-01  0.0000000E+00
 1.2075000E-01  0.0000000E+00
 1.3225001E-01  0.0000000E+00
 1.4375001E-01  0.0000000E+00
 1.5525001E-01  0.0000000E+00
 1.6675001E-01  0.0000000E+00
 1.7825001E-01  0.0000000E+00
 1.8975002E-01  0.0000000E+00
 2.0125002E-01  0.0000000E+00
 2.1275002E-01  0.0000000E+00
 2.2425000E-01  0.0000000E+00
 2.3575000E-01  0.0000000E+00
 2.4725001E-01  0.0000000E+00
 2.5875002E-01  0.0000000E+00
 2.7025002E-01  0.0000000E+00
 2.8175002E-01  0.0000000E+00
 2.9325002E-01  0.0000000E+00
 3.0475003E-01  0.0000000E+00
 3.1625003E-01  0.0000000E+00
 3.2775003E-01  0.0000000E+00
 3.3925003E-01  0.0000000E+00
 3.5075003E-01  0.0000000E+00
 3.6225003E-01  0.0000000E+00
 3.7375003E-01  0.0000000E+00
 3.8525003E-01  0.0000000E+00
 3.9675003E-01  0.0000000E+00
 4.0825003E-01  0.0000000E+00
 4.1975003E-01  0.0000000E+00
 4.3125004E-01  0.0000000E+00
 4.4275001E-01  0.0000000E+00
 4.5425001E-01  0.0000000E+00
 4.6575001E-01  0.0000000E+00
 4.7725001E-01  0.0000000E+00
 4.8875001E-01  0.0000000E+00
 5.0025004E-01  0.0000000E+00
 5.1175004E-01  0.0000000E+00
 5.2325004E-01  0.0000000E+00
 5.3475004E-01  0.0000000E+00
 5.4625005E-01  0.0000000E+00
 5.5775005E-01  0.0000000E+00
 5.6925005E-01  0.0000000E+00
 5.8075005E-01  0.0000000E+00
 5.9225005E-01  0.0000000E+00
 6.0375005E-01  0.0000000E+00
 6.1525005E-01  0.0000000E+00
 6.2675005E-01  0.0000000E+00
 6.3825005E-01  0.0000000E+00
 6.4975005E-01  0.0000000E+00
 6.6125005E-01  0.0000000E+00
 6.7275006E-01  0.0000000E+00
 6.8425006E-01  0.0000000E+00
 6.9575006E-01  0.0000000E+00
 7.0725006E-01  0.0000000E+00
 7.1875006E-01  0.0000000E+00
 7.3025006E-01  0.0000000E+00
 7.4175006E-01  0.0000000E+00
 7.5325006E-01  0.0000000E+00
 7.6475006E-01  0.0000000E+00
 7.7625006E-01  0.0000000E+00
 7.8775007E-01  0.0000000E+00
 7.9925007E-01  0.0000000E+00
 8.1075007E-01  0.0000000E+00
 8.2225007E-01  0.0000000E+00
 8.3375007E-01  0.0000000E+00
 8.4525007E-01  0.0000000E+00
 8.5675007E-01  0.0000000E+00
 8.6825007E-01  0.0000000E+00
 8.7975001E-01  0.0000000E+00
 8.9125001E-01  0.0000000E+00
 9.0275002E-01  0.0000000E+00
 9.1425002E-01  0.0000000E+00
 9.2575002E-01  0.0000000E+00
 9.3725002E-01  0.0000000E+00
 9.4875002E-01  0.0000000E+00
 9.6025002E-01  0.0000000E+00
 9.7175002E-01  0.0000000E+00
 9.8325002E-01  0.0000000E+00
 9.9475002E-01  0.0000000E+00
 1.0062500E+00  0.0000000E+00
 1.0177500E+00  0.0000000E+00
 1.0292500E+00  0.0000000E+00
 1.0407500E+00  0.0000000E+00
 1.0522500E+00  0.0000000E+00
 1.0637500E+00  0.0000000E+00
 1.0752500E+00  0.0000000E+00
 1.0867500E+00  0.0000000E+00
 1.0982500E+00  0.0000000E+00
 1.1097500E+00  0.0000000E+00
 1.1212500E+00  0.0000000E+00
 1.1327500E+00  0.0000000E+00
 1.1442500E+00  0.0000000E+00
 1.1557500E+00  0.0000000E+00
 1.1672500E+00  0.0000000E+00
 1.1787500E+00  0.0000000E+00
 1.1902500E+00  0.0000000E+00
 1.2017500E+00  0.0000000E+00
 1.2132500E+00  0.0000000E+00
 1.2247500E+00  0.0000000E+00
 1.2362500E+00  0.0000000E+00
 1.2477500E+00  0.0000000E+00
 1.2592500E+00  0.0000000E+00
 1.2707500E+00  0.0000000E+00
 1.2822500E+00  0.0000000E+00
 1.2937500E+00  0.0000000E+00
 1.3052500E+00  0.0000000E+00
 1.3167500E+00  0.0000000E+00
 1.3282501E+00  0.0000000E+00
 1.3397501E+00  0.0000000E+00
 1.3512501E+00  0.0000000E+00
 1.3627501E+00  0.0000000E+00
 1.3742501E+00  0.0000000E+00
 1.3857501E+00  0.0000000E+00
 1.3972501E+00  0.0000000E+00
 1.4087501E+00  0.0000000E+00
 1.4202501E+00  0.0000000E+00
 1.4317501E+00  0.0000000E+00
 1.4432501E+00  0.0000000E+00
 1.4547501E+00  0.0000000E+00
 1.4662501E+00  0.0000000E+00
 1.4777501E+00  0.0000000E+00
 1.4892501E+00  0.0000000E+00
 1.5007501E+00  0.0000000E+00
 1.5122501E+00  0.0000000E+00
 1.5237501E+00  0.0000000E+00
 1.5352501E+00  0.0000000E+00
 1.5467501E+00  0.0000000E+00
 1.5582501E+00  0.0000000E+00
 1.5697501E+00  0.0000000E+00
 1.5812501E+00  0.0000000E+00
 1.5927501E+00  0.0000000E+00
 1.6042501E+00  0.0000000E+00
 1.6157501E+00  0.0000000E+00
 1.6272501E+00  0.0000000E+00
 1.6387501E+00  0.0000000E+00
 1.6502501E+00  0.0000000E+00
 1.6617501E+00  0.0000000E+00
 1.6732501E+00  0.0000000E+00
 1.6847501E+00  0.0000000E+00
 1.6962501E+00  0.0000000E+00
 1.7077501E+00  0.0000000E+00
 1.7192501E+00  0.0000000E+00
 1.7307501E+00  0.0000000E+00
 1.7422501E+00  0.0000000E+00
 1.7537501E+00  0.0000000E+00
 1.7652501E+00  0.0000000E+00
 1.7767501E+00  0.0000000E+00
 1.7882501E+00  0.0000000E+00
 1.7997501E+00  0.0000000E+00
 1.8112501E+00  0.0000000E+00
 1.8227501E+00  0.0000000E+00
 1.8342501E+00  0.0000000E+00
 1.8457501E+00  0.0000000E+00
 1.8572501E+00  0.0000000E+00
 1.8687501E+00  0.0000000E+00
 1.8802501E+00  0.0000000E+00
 1.8917501E+00  0.0000000E+00
 1.9032501E+00  0.0000000E+00
 1.9147501E+00  0.0000000E+00
 1.9262501E+00  0.0000000E+00
 1.9377501E+00  0.0000000E+00
 1.9492501E+00  0.0000000E+00
 1.9607501E+00  0.0000000E+00
 1.9722501E+00  0.0000000E+00
 1.9837501E+00  0.0000000E+00
 1.9952501E+00  0.0000000E+00
 2.0067501E+00  0.0000000E+00
 2.0182500E+00  0.0000000E+00
 2.0297501E+00  0.0000000E+00
 2.0412500E+00  0.0000000E+00
 2.0527501E+00  0.0000000E+00
 2.0642500E+00  0.0000000E+00
 2.0757501E+00  0.0000000E+00
 2.0872500E+00  0.0000000E+00
 2.0987501E+00  0.0000000E+00
 2.1102500E+00  0.0000000E+00
 2.1217501E+00  0.0000000E+00
 2.1332500E+00  0.0000000E+00
 2.1447501E+00  0.0000000E+00
 2.1562500E+00  0.0000000E+00
 2.1677501E+00  0.0000000E+00
 2.1792500E+00  0.0000000E+00
 2.1907501E+00  0.0000000E+00
 2.2022500E+00  0.0000000E+00
 2.2137501E+00  0.0000000E+00
 2.2252500E+00  0.0000000E+00
 2.2367501E+00  0.0000000E+00
 2.2482500E+00  0.0000000E+00
 2.2597501E+00  0.0000000E+00
 2.2712500E+00  0.0000000E+00
 2.2827501E+00  0.0000000E+00
 2.2942500E+00  0.0000000E+00
 2.3057501E+00  0.0000000E+00
 2.3172500E+00  0.0000000E+00
 2.3287501E+00  0.0000000E+00
 2.3402500E+00  0.0000000E+00
 2.3517501E+00  0.0000000E+00
 2.3632500E+00  0.0000000E+00
 2.3747501E+00  0.0000000E+00
 2.3862500E+00  0.0000000E+00
 2.3977501E+00  0.0000000E+00
 2.4092500E+00  0.0000000E+00
 2.4207501E+00  0.0000000E+00
 2.4322500E+00  0.0000000E+00
 2.4437501E+00  0.0000000E+00
 2.4552500E+00  0.0000000E+00
 2.4667501E+00  0.0000000E+00
 2.4782500E+00  0.0000000E+00
 2.4897501E+00  0.0000000E+00
 2.5012500E+00  0.0000000E+00
 2.5127501E+00  0.0000000E+00
 2.5242500E+00  0.0000000E+00
 2.5357502E+00  0.0000000E+00
 2.5472500E+00  0.0000000E+00
 2.5587502E+00  0.0000000E+00
 2.5702500E+00  0.0000000E+00
 2.5817502E+00  0.0000000E+00
 2.5932500E+00  0.0000000E+00
 2.6047502E+00  0.0000000E+00
 2.6162500E+00  0.0000000E+00
 2.6277502E+00  0.0000000E+00
 2.6392500E+00  0.0000000E+00
 2.6507502E+00  0.0000000E+00
 2.6622500E+00  0.0000000E+00
 2.6737502E+00  0.0000000E+00
 2.6852500E+00  0.0000000E+00
 2.6967502E+00  0.0000000E+00
 2.7082500E+00  0.0000000E+00
 2.7197502E+00  0.0000000E+00
 2.7312500E+00  0.0000000E+00
 2.7427502E+00  0.0000000E+00
 2.7542500E+00  0.0000000E+00
 2.7657502E+00  0.0000000E+00
 2.7772501E+00  0.0000000E+00
 2.7887502E+00  0.0000000E+00
 2.8002501E+00  0.0000000E+00
 2.8117502E+00  0.0000000E+00
 2.8232501E+00  3.4750961E+01
 2.8347502E+00  3.5139961E+01
 2.8462501E+00  3.5174892E+01
 2.8577502E+00  3.5366135E+01
 2.8692501E+00  3.5217838E+01
 2.8807502E+00  3.4827553E+01
 2.8922501E+00  3.4846611E+01
 2.9037502E+00  3.4797470E+01
 2.9152501E+00  3.5028572E+01
 2.9267502E+00  3.4873764E+01
 2.9382501E+00  3.4840263E+01
 2.9497502E+00  3.4819595E+01
 2.9612501E+00  3.4454456E+01
 2.9727502E+00  3.4477070E+01
 2.9842501E+00  3.4483059E+01
 2.9957502E+00  3.5433754E+01
 3.0072501E+00  3.5921589E+01
 3.0187502E+00  3.6156818E+01
 3.0302501E+00  3.5884377E+01
 3.0417502E+00  3.5800190E+01
 3.0532501E+00  3.5453144E+01
 3.0647502E+00  3.5124752E+01
 3.0762501E+00  3.4817757E+01
 3.0877502E+00  3.4743427E+01
 3.0992501E+00  3.5538155E+01
 3.1107502E+00  3.5619888E+01
 3.1222501E+00  3.6009361E+01
 3.1337502E+00  3.5776718E+01
 3.1452501E+00  3.5865925E+01
 3.1567502E+00  3.5541149E+01
 3.1682501E+00  3.5391045E+01
 3.1797502E+00  3.5213238E+01
 3.1912501E+00  3.5182934E+01
 3.2027502E+00  3.5224464E+01
 3.2142501E+00  3.5405087E+01
 3.2257502E+00  3.5773106E+01
 3.2372501E+00  3.5653172E+01
 3.2487502E+00  3.5498493E+01
 3.2602501E+00  3.5269840E+01
 3.2717502E+00  3.4799156E+01
 3.2832501E+00  3.4355824E+01
 3.2947502E+00  3.4150700E+01
 3.3062501E+00  3.3948307E+01
 3.3177502E+00  3.4069031E+01
 3.3292501E+00  3.4050915E+01
 3.3407502E+00  3.4433762E+01
 3.3522501E+00  3.4639713E+01
 3.3637502E+00  3.4760891E+01
 3.3752501E+00  3.4531410E+01
 3.3867502E+00  3.4243927E+01
 3.3982501E+00  3.3866482E+01
 3.4097502E+00  3.4002792E+01
 3.4212501E+00  3.4080910E+01
 3.4327502E+00  3.4473351E+01
 3.4442501E+00  3.4477757E+01
 3.4557502E+00  3.4511112E+01
 3.4672501E+00  3.4244473E+01
 3.4787502E+00  3.4125465E+01
 3.4902501E+00  3.4274990E+01
 3.5017502E+00  3.4041451E+01
 3.5132501E+00  3.3945343E+01
 3.5247502E+00  3.3825035E+01
 3.5362501E+00  3.4003727E+01
 3.5477502E+00  3.3864670E+01
 3.5592501E+00  3.3651348E+01
 3.5707502E+00  3.3247944E+01
 3.5822501E+00  3.3280071E+01
 3.5937502E+00  3.3116486E+01
 3.6052501E+00  3.3279442E+01
 3.6167502E+00  3.3224018E+01
 3.6282501E+00  3.3385807E+01
 3.6397502E+00  3.3249390E+01
 3.6512501E+00  3.3580112E+01
 3.6627502E+00  3.3642448E+01
 3.6742501E+00  3.3793499E+01
 3.6857502E+00  3.3490425E+01
 3.6972501E+00  3.3357491E+01
 3.7087502E+00  3.3073742E+01
 3.7202501E+00  3.2985527E+01
 3.7317502E+00  3.2909302E+01
 3.7432501E+00  3.2805565E+01
 3.7547503E+00  3.2948620E+01
 3.7662501E+00  3.2962681E+01
 3.7777503E+00  3.2959000E+01
 3.7892501E+00  3.2836117E+01
 3.8007503E+00  3.2679008E+01
 3.8122501E+00  3.2736729E+01
 3.8237503E+00  3.2805271E+01
 3.8352501E+00  3.2992966E+01
 3.8467503E+00  3.3112076E+01
 3.8582501E+00  3.3162785E+01
 3.8697503E+00  3.3208794E+01
 3.8812501E+00  3.3169724E+01
 3.8927503E+00  3.3236271E+01
 3.9042501E+00  3.3135216E+01
 3.9157503E+00  3.2944782E+01
 3.9272501E+00  3.2863716E+01
 3.9387503E+00  3.2893280E+01
 3.9502501E+00  3.2847126E+01
 3.9617503E+00  3.2835140E+01
 3.9732502E+00  3.2810379E+01
 3.9847503E+00  3.2948837E+01
 3.9962502E+00  3.3201900E+01
 4.0077500E+00  3.3217476E+01
 4.0192504E+00  3.3235355E+01
 4.0307503E+00  3.3227928E+01
 4.0422502E+00  3.3111401E+01
 4.0537500E+00  3.2946114E+01
 4.0652504E+00  3.2638885E+01
 4.0767503E+00  3.2534752E+01
 4.0882502E+00  3.2338943E+01
 4.0997500E+00  3.2288425E+01
 4.1112504E+00  3.2079575E+01
 4.1227503E+00  3.2037762E+01
 4.1342502E+00  3.1937002E+01
 4.1457500E+00  3.2038029E+01
 4.1572504E+00  3.2124931E+01
 4.1687503E+00  3.2220646E+01
 4.1802502E+00  3.2208183E+01
 4.1917500E+00  3.2304470E+01
 4.2032504E+00  3.2166538E+01
 4.2147503E+00  3.2062637E+01
 4.2262502E+00  3.2037315E+01
 4.2377501E+00  3.1936981E+01
 4.2492504E+00  3.2007584E+01
 4.2607503E+00  3.1963634E+01
 4.2722502E+00  3.2150261E+01
 4.2837501E+00  3.2305424E+01
 4.2952504E+00  3.2399471E+01
 4.3067503E+00  3.2431278E+01
 4.3182502E+00  3.2470097E+01
 4.3297501E+00  3.2418179E+01
 4.3412504E+00  3.2365498E+01
 4.3527503E+00  3.2293568E+01
 4.3642502E+00  3.2153412E+01
 4.3757501E+00  3.2280472E+01
 4.3872504E+00  3.2210266E+01
 4.3987503E+00  3.2407875E+01
 4.4102502E+00  3.2553795E+01
 4.4217501E+00  3.2700329E+01
 4.4332504E+00  3.2919304E+01
 4.4447503E+00  3.2689529E+01
 4.4562502E+00  3.2834038E+01
 4.4677501E+00  3.2725105E+01
 4.4792504E+00  3.2872780E+01
 4.4907503E+00  3.2810505E+01
 4.5022502E+00  3.2978523E+01
 4.5137501E+00  3.3050968E+01
 4.5252504E+00  3.3210022E+01
 4.5367503E+00  3.3093975E+01
 4.5482502E+00  3.3043964E+01
 4.5597501E+00  3.2846828E+01
 4.5712504E+00  3.2840443E+01
 4.5827503E+00  3.2814346E+01
 4.5942502E+00  3.2944576E+01
 4.6057501E+00  3.2872974E+01
 4.6172504E+00  3.2989437E+01
 4.6287503E+00  3.2982903E+01
 4.6402502E+00  3.3139050E+01
 4.6517501E+00  3.3263428E+01
 4.6632504E+00  3.3402950E+01
 4.6747503E+00  3.3393681E+01
 4.6862502E+00  3.3323448E+01
 4.6977501E+00  3.3212326E+01
 4.7092505E+00  3.3066742E+01
 4.7207503E+00  3.2968666E+01
 4.7322502E+00  3.2933716E+01
 4.7437501E+00  3.2939369E+01
 4.7552505E+00  3.2902687E+01
 4.7667503E+00  3.2903416E+01
 4.7782502E+00  3.2932411E+01
 4.7897501E+00  3.2909298E+01
 4.8012505E+00  3.2888271E+01
 4.8127503E+00  3.2885040E+01
 4.8242502E+00  3.2871166E+01
 4.8357501E+00  3.2809849E+01
 4.8472505E+00  3.2893181E+01
 4.8587503E+00  3.3109558E+01
 4.8702502E+00  3.3199650E+01
 4.8817501E+00  3.3341927E+01
 4.8932505E+00  3.3318016E+01
 4.9047503E+00  3.3345982E+01
 4.9162502E+00  3.3221821E+01
 4.9277501E+00  3.3111992E+01
 4.9392505E+00  3.3101768E+01
 4.9507504E+00  3.3080330E+01
 4.9622502E+00  3.3035500E+01
 4.9737501E+00  3.3064095E+01
 4.9852505E+00  3.3002522E+01
 4.9967504E+00  3.2940174E+01
 5.0082502E+00  3.3021690E+01
 5.0197501E+00  3.2902168E+01
 5.0312505E+00  3.2978168E+01
 5.0427504E+00  3.2890141E+01
 5.0542502E+00  3.3049416E+01
 5.0657501E+00  3.3148579E+01
 5.0772505E+00  3.3193115E+01
 5.0887504E+00  3.3234383E+01
 5.1002502E+00  3.3332409E+01
 5.1117501E+00  3.3418152E+01
 5.1232505E+00  3.3549591E+01
 5.1347504E+00  3.3675266E+01
 5.1462502E+00  3.3761005E+01
 5.1577501E+00  3.3836277E+01
 5.1692505E+00  3.3857113E+01
 5.1807504E+00  3.3811256E+01
 5.1922503E+00  3.3816460E+01
 5.2037501E+00  3.3780563E+01
 5.2152505E+00  3.4006229E+01
 5.2267504E+00  3.4035004E+01
 5.2382503E+00  3.4223667E+01
 5.2497501E+00  3.4206406E+01
 5.2612505E+00  3.4273071E+01
 5.2727504E+00  3.4294674E+01
 5.2842503E+00  3.4312138E+01
 5.2957501E+00  3.4376289E+01
 5.3072500E+00  3.4417999E+01
 5.3187504E+00  3.4513630E+01
 5.3302503E+00  3.4449642E+01
 5.3417501E+00  3.4441292E+01
 5.3532500E+00  3.4367119E+01
 5.3647504E+00  3.4374550E+01
 5.3762503E+00  3.4346752E+01
 5.3877501E+00  3.4457867E+01
 5.3992500E+00  3.4533501E+01
 5.4107504E+00  3.4674500E+01
 5.4222503E+00  3.4855270E+01
 5.4337502E+00  3.4862804E+01
 5.4452500E+00  3.4977215E+01
 5.4567504E+00  3.5063625E+01
 5.4682503E+00  3.5225063E+01
 5.4797502E+00  3.5258381E+01
 5.4912500E+00  3.5159504E+01
 5.5027504E+00  3.5163391E+01
 5.5142503E+00  3.5101452E+01
 5.5257502E+00  3.5156788E+01
 5.5372500E+00  3.5060669E+01
 5.5487504E+00  3.5017326E+01
 5.5602503E+00  3.5066029E+01
 5.5717502E+00  3.5263660E+01
 5.5832500E+00  3.5420322E+01
 5.5947504E+00  3.5470772E+01
 5.6062503E+00  3.5633873E+01
 5.6177502E+00  3.5646271E+01
 5.6292500E+00  3.5684933E+01
 5.6407504E+00  3.5574467E+01
 5.6522503E+00  3.5715565E+01
 5.6637502E+00  3.5907085E+01
 5.6752501E+00  3.6034019E+01
 5.6867504E+00  3.6051918E+01
 5.6982503E+00  3.6062565E+01
 5.7097502E+00  3.6054920E+01
 5.7212501E+00  3.6117737E+01
 5.7327504E+00  3.6121552E+01
 5.7442503E+00  3.6092636E+01
 5.7557502E+00  3.6117691E+01
 5.7672501E+00  3.6153400E+01
 5.7787504E+00  3.6284393E+01
 5.7902503E+00  3.6359501E+01
 5.8017502E+00  3.6398914E+01
 5.8132501E+00  3.6510601E+01
 5.8247504E+00  3.6615685E+01
 5.8362503E+00  3.6959038E+01
 5.8477502E+00  3.7199928E+01
 5.8592501E+00  3.7599171E+01
 5.8707504E+00  3.7812946E+01
 5.8822503E+00  3.8161343E+01
 5.8937502E+00  3.8632111E+01
 5.9052501E+00  3.9276634E+01
 5.9167504E+00  4.0753670E+01
 5.9282503E+00  4.2976749E+01
 5.9397502E+00  4.7484795E+01
 5.9512501E+00  5.3175350E+01
 5.9627504E+00  6.3483784E+01
 5.9742503E+00  7.1784271E+01
 5.9857502E+00  8.1774200E+01
 5.9972501E+00  8.2563309E+01
 6.0087504E+00  8.3145294E+01
 6.0202503E+00  7.4632690E+01
 6.0317502E+00  6.8021065E+01
 6.0432501E+00  5.6115662E+01
 6.0547504E+00  4.9527565E+01
 6.0662503E+00  4.2920406E+01
 6.0777502E+00  4.0637493E+01
 6.0892501E+00  3.9340141E+01
 6.1007504E+00  3.8608807E+01
 6.1122503E+00  3.8214066E+01
 6.1237502E+00  3.8155342E+01
 6.1352501E+00  3.8008583E+01
 6.1467505E+00  3.7962666E+01
 6.1582503E+00  3.8055008E+01
 6.1697502E+00  3.8028225E+01
 6.1812501E+00  3.8085258E+01
 6.1927505E+00  3.7978764E+01
 6.2042503E+00  3.7891273E+01
 6.2157502E+00  3.7932533E+01
 6.2272501E+00  3.7761059E+01
 6.2387505E+00  3.7708843E+01
 6.2502503E+00  3.7755447E+01
 6.2617502E+00  3.7759834E+01
 6.2732501E+00  3.7942589E+01
 6.2847505E+00  3.7865784E+01
 6.2962503E+00  3.7821693E+01
 6.3077502E+00  3.7863094E+01
 6.3192501E+00  3.7906143E+01
 6.3307505E+00  3.8140812E+01
 6.3422503E+00  3.8292011E+01
 6.3537502E+00  3.8400883E+01
 6.3652501E+00  3.8401665E+01
 6.3767505E+00  3.8495686E+01
 6.3882504E+00  3.8571823E+01
 6.3997502E+00  3.8704117E+01
 6.4112501E+00  3.8734936E+01
 6.4227505E+00  3.8736427E+01
 6.4342504E+00  3.8747147E+01
 6.4457502E+00  3.8691982E+01
 6.4572501E+00  3.8677608E+01
 6.4687505E+00  3.8828209E+01
 6.4802504E+00  3.8951443E+01
 6.4917502E+00  3.9244976E+01
 6.5032501E+00  3.9297604E+01
 6.5147505E+00  3.9466316E+01
 6.5262504E+00  3.9452400E+01
 6.5377502E+00  3.9470928E+01
 6.5492501E+00  3.9411366E+01
 6.5607505E+00  3.9377033E+01
 6.5722504E+00  3.9400459E+01
 6.5837502E+00  3.9529343E+01
 6.5952501E+00  3.9627728E+01
 6.6067505E+00  3.9737823E+01
 6.6182504E+00  3.9878143E+01
 6.6297503E+00  4.0024063E+01
 6.6412501E+00  4.0104931E+01
 6.6527505E+00  4.0136799E+01
 6.6642504E+00  4.0245029E+01
 6.6757503E+00  4.0326271E+01
 6.6872501E+00  4.0363434E+01
 6.6987505E+00  4.0378395E+01
 6.7102504E+00  4.0507923E+01
 6.7217503E+00  4.0618172E+01
 6.7332501E+00  4.0698864E+01
 6.7447505E+00  4.0759823E+01
 6.7562504E+00  4.0854633E+01
 6.7677503E+00  4.1021492E+01
 6.7792501E+00  4.1105579E+01
 6.7907505E+00  4.1164791E+01
 6.8022504E+00  4.1230259E+01
 6.8137503E+00  4.1276966E+01
 6.8252501E+00  4.1413197E+01
 6.8367505E+00  4.1565453E+01
 6.8482504E+00  4.1701374E+01
 6.8597503E+00  4.1835949E+01
 6.8712502E+00  4.1882111E+01
 6.8827505E+00  4.1968750E+01
 6.8942504E+00  4.2081844E+01
 6.9057503E+00  4.2126797E+01
 6.9172502E+00  4.2175220E+01
 6.9287505E+00  4.2167408E+01
 6.9402504E+00  4.2239170E+01
 6.9517503E+00  4.2280293E+01
 6.9632502E+00  4.2436348E+01
 6.9747505E+00  4.2513199E+01
 6.9862504E+00  4.2651875E+01
 6.9977503E+00  4.2705383E+01
 7.0092502E+00  4.2708469E+01
 7.0207505E+00  4.2591652E+01
 7.0322504E+00  4.2495659E+01
 7.0437503E+00  4.2414566E+01
 7.0552502E+00  4.2451717E+01
 7.0667505E+00  4.2597065E+01
 7.0782504E+00  4.2740139E+01
 7.0897503E+00  4.2909069E+01
 7.1012502E+00  4.2918209E+01
 7.1127505E+00  4.2981724E+01
 7.1242504E+00  4.3144379E+01
 7.1357503E+00  4.3286144E+01
 7.1472502E+00  4.3461456E+01
 7.1587505E+00  4.3466412E+01
 7.1702504E+00  4.3437824E+01
 7.1817503E+00  4.3443867E+01
 7.1932502E+00  4.3525578E+01
 7.2047505E+00  4.3683285E+01
 7.2162504E+00  4.3764580E+01
 7.2277503E+00  4.3852207E+01
 7.2392502E+00  4.3883316E+01
 7.2507505E+00  4.3951595E+01
 7.2622504E+00  4.3927204E+01
 7.2737503E+00  4.3954227E+01
 7.2852502E+00  4.3999092E+01
 7.2967505E+00  4.3972355E+01
 7.3082504E+00  4.4031799E+01
 7.3197503E+00  4.3921173E+01
 7.3312502E+00  4.4045349E+01
 7.3427505E+00  4.4005749E+01
 7.3542504E+00  4.4123356E+01
 7.3657503E+00  4.4139004E+01
 7.3772502E+00  4.4169621E+01
 7.3887506E+00  4.4100754E+01
 7.4002504E+00  4.4065628E+01
 7.4117503E+00  4.4064686E+01
 7.4232502E+00  4.4160442E+01
 7.4347506E+00  4.4224060E+01
 7.4462504E+00  4.4287590E+01
 7.4577503E+00  4.4272537E+01
 7.4692502E+00  4.4274261E+01
 7.4807506E+00  4.4343132E+01
 7.4922504E+00  4.4398430E+01
 7.5037503E+00  4.4495060E+01
 7.5152502E+00  4.4456982E+01
 7.5267506E+00  4.4480019E+01
 7.5382504E+00  4.4477489E+01
 7.5497503E+00  4.4537380E+01
 7.5612502E+00  4.4618027E+01
 7.5727506E+00  4.4592129E+01
 7.5842505E+00  4.4527580E+01
 7.5957503E+00  4.4551208E+01
 7.6072502E+00  4.4540867E+01
 7.6187506E+00  4.4585106E+01
 7.6302505E+00  4.4486816E+01
 7.6417503E+00  4.4492577E+01
 7.6532502E+00  4.4366829E+01
 7.6647506E+00  4.4289612E+01
 7.6762505E+00  4.4251324E+01
 7.6877503E+00  4.4253033E+01
 7.6992502E+00  4.4250000E+01
 7.7107506E+00  4.4247204E+01
 7.7222505E+00  4.4268387E+01
 7.7337503E+00  4.4354980E+01
 7.7452502E+00  4.4333298E+01
 7.7567506E+00  4.4355507E+01
 7.7682505E+00  4.4420845E+01
 7.7797503E+00  4.4392788E+01
 7.7912502E+00  4.4488667E+01
 7.8027506E+00  4.4475006E+01
 7.8142505E+00  4.4451214E+01
 7.8257504E+00  4.4347939E+01
 7.8372502E+00  4.4275627E+01
 7.8487506E+00  4.4194992E+01
 7.8602505E+00  4.4114086E+01
 7.8717504E+00  4.3951553E+01
 7.8832502E+00  4.3906376E+01
 7.8947506E+00  4.3878822E+01
 7.9062505E+00  4.3991825E+01
 7.9177504E+00  4.4091808E+01
 7.9292502E+00  4.4085300E+01
 7.9407506E+00  4.4029007E+01
 7.9522505E+00  4.3829906E+01
 7.9637504E+00  4.3699863E+01
 7.9752502E+00  4.3606869E+01
 7.9867506E+00  4.3642616E+01
 7.9982505E+00  4.3633720E+01
 8.0097504E+00  4.3553341E+01
 8.0212507E+00  4.3473934E+01
 8.0327501E+00  4.3477459E+01
 8.0442505E+00  4.3427715E+01
 8.0557508E+00  4.3378284E+01
 8.0672503E+00  4.3253735E+01
 8.0787506E+00  4.3151627E+01
 8.0902500E+00  4.3008614E+01
 8.1017504E+00  4.2877743E+01
 8.1132507E+00  4.2850861E+01
 8.1247501E+00  4.2724766E+01
 8.1362505E+00  4.2752720E+01
 8.1477509E+00  4.2619392E+01
 8.1592503E+00  4.2603073E+01
 8.1707506E+00  4.2503143E+01
 8.1822500E+00  4.2419018E+01
 8.1937504E+00  4.2349113E+01
 8.2052507E+00  4.2174606E+01
 8.2167501E+00  4.1923759E+01
 8.2282505E+00  4.1679047E+01
 8.2397509E+00  4.1490971E+01
 8.2512503E+00  4.1360943E+01
 8.2627506E+00  4.1167953E+01
 8.2742500E+00  4.1073597E+01
 8.2857504E+00  4.0936619E+01
 8.2972507E+00  4.0849850E+01
 8.3087502E+00  4.0672306E+01
 8.3202505E+00  4.0504875E+01
 8.3317509E+00  4.0263451E+01
 8.3432503E+00  4.0071587E+01
 8.3547506E+00  3.9894344E+01
 8.3662500E+00  3.9869415E+01
 8.3777504E+00  3.9799561E+01
 8.3892508E+00  3.9687565E+01
 8.4007502E+00  3.9502193E+01
 8.4122505E+00  3.9254139E+01
 8.4237509E+00  3.9067413E+01
 8.4352503E+00  3.8815536E+01
 8.4467506E+00  3.8684509E+01
 8.4582500E+00  3.8524452E+01
 8.4697504E+00  3.8472740E+01
 8.4812508E+00  3.8373260E+01
 8.4927502E+00  3.8216320E+01
 8.5042505E+00  3.8103497E+01
 8.5157509E+00  3.7937317E+01
 8.5272503E+00  3.7808918E+01
 8.5387506E+00  3.7660912E+01
 8.5502501E+00  3.7436470E+01
 8.5617504E+00  3.7288334E+01
 8.5732508E+00  3.7019756E+01
 8.5847502E+00  3.6769035E+01
 8.5962505E+00  3.6476505E+01
 8.6077509E+00  3.6211319E+01
 8.6192503E+00  3.6074581E+01
 8.6307507E+00  3.5910168E+01
 8.6422501E+00  3.5751450E+01
 8.6537504E+00  3.5512074E+01
 8.6652508E+00  3.5350002E+01
 8.6767502E+00  3.5219822E+01
 8.6882505E+00  3.5154510E+01
 8.6997509E+00  3.4974102E+01
 8.7112503E+00  3.4794529E+01
 8.7227507E+00  3.4603779E+01
 8.7342501E+00  3.4448097E+01
 8.7457504E+00  3.4292366E+01
 8.7572508E+00  3.4086864E+01
 8.7687502E+00  3.3887638E+01
 8.7802505E+00  3.3720673E+01
 8.7917500E+00  3.3626423E+01
 8.8032503E+00  3.3523308E+01
 8.8147507E+00  3.3341686E+01
 8.8262501E+00  3.3147663E+01
 8.8377504E+00  3.2962738E+01
 8.8492508E+00  3.2778969E+01
 8.8607502E+00  3.2661438E+01
 8.8722506E+00  3.2457066E+01
 8.8837500E+00  3.2240166E+01
 8.8952503E+00  3.2017365E+01
 8.9067507E+00  3.1792677E+01
 8.9182501E+00  3.1637318E+01
 8.9297504E+00  3.1446642E+01
 8.9412508E+00  3.1380444E+01
 8.9527502E+00  3.1301594E+01
 8.9642506E+00  3.1209288E+01
 8.9757500E+00  3.1010246E+01
 8.9872503E+00  3.0859253E+01
 8.9987507E+00  3.0663019E+01
 9.0102501E+00  3.0547812E+01
 9.0217505E+00  3.0410234E+01
 9.0332508E+00  3.0320633E+01
 9.0447502E+00  3.0210104E+01
 9.0562506E+00  3.0085567E+01
 9.0677500E+00  2.9919827E+01
 9.0792503E+00  2.9783272E+01
 9.0907507E+00  2.9642033E+01
 9.1022501E+00  2.9605783E+01
 9.1137505E+00  2.9508022E+01
 9.1252508E+00  2.9451403E+01
 9.1367502E+00  2.9319815E+01
 9.1482506E+00  2.9245607E+01
 9.1597500E+00  2.9060375E+01
 9.1712503E+00  2.8868666E+01
 9.1827507E+00  2.8639761E+01
 9.1942501E+00  2.8539492E+01
 9.2057505E+00  2.8385599E+01
 9.2172508E+00  2.8318899E+01
 9.2287502E+00  2.8170216E+01
 9.2402506E+00  2.8149437E+01
 9.2517500E+00  2.8041084E+01
 9.2632504E+00  2.7966360E+01
 9.2747507E+00  2.7906599E+01
 9.2862501E+00  2.7833105E+01
 9.2977505E+00  2.7788681E+01
 9.3092508E+00  2.7709089E+01
 9.3207502E+00  2.7670847E+01
 9.3322506E+00  2.7634378E+01
 9.3437500E+00  2.7567953E+01
 9.3552504E+00  2.7499947E+01
 9.3667507E+00  2.7381399E+01
 9.3782501E+00  2.7329504E+01
 9.3897505E+00  2.7222281E+01
 9.4012508E+00  2.7178129E+01
 9.4127502E+00  2.7022369E+01
 9.4242506E+00  2.6891628E+01
 9.4357500E+00  2.6727098E+01
 9.4472504E+00  2.6628050E+01
 9.4587507E+00  2.6493019E+01
 9.4702501E+00  2.6503077E+01
 9.4817505E+00  2.6434820E+01
 9.4932508E+00  2.6401354E+01
 9.5047503E+00  2.6265383E+01
 9.5162506E+00  2.6193466E+01
 9.5277500E+00  2.6180538E+01
 9.5392504E+00  2.6120070E+01
 9.5507507E+00  2.6055620E+01
 9.5622501E+00  2.5957125E+01
 9.5737505E+00  2.5905943E+01
 9.5852509E+00  2.5827900E+01
 9.5967503E+00  2.5849754E+01
 9.6082506E+00  2.5807911E+01
 9.6197500E+00  2.5762106E+01
 9.6312504E+00  2.5619633E+01
 9.6427507E+00  2.5516323E+01
 9.6542501E+00  2.5473541E+01
 9.6657505E+00  2.5366220E+01
 9.6772509E+00  2.5285452E+01
 9.6887503E+00  2.5114410E+01
 9.7002506E+00  2.5070898E+01
 9.7117500E+00  2.5032417E+01
 9.7232504E+00  2.5026075E+01
 9.7347507E+00  2.5024870E+01
 9.7462502E+00  2.4976851E+01
 9.7577505E+00  2.4918215E+01
 9.7692509E+00  2.4826384E+01
 9.7807503E+00  2.4809238E+01
 9.7922506E+00  2.4806479E+01
 9.8037500E+00  2.4886581E+01
 9.8152504E+00  2.4839645E+01
 9.8267508E+00  2.4772797E+01
 9.8382502E+00  2.4627968E+01
 9.8497505E+00  2.4515303E+01
 9.8612509E+00  2.4468121E+01
 9.8727503E+00  2.4421875E+01
 9.8842506E+00  2.4420670E+01
 9.8957500E+00  2.4442810E+01
 9.9072504E+00  2.4517090E+01
 9.9187508E+00  2.4525866E+01
 9.9302502E+00  2.4466980E+01
 9.9417505E+00  2.4385849E+01
 9.9532509E+00  2.4262781E+01
 9.9647503E+00  2.4231794E+01
 9.9762506E+00  2.4210121E+01
 9.9877501E+00  2.4196793E+01
 9.9992504E+00  2.4174452E+01
 1.0010751E+01  2.4096085E+01
 1.0022250E+01  2.4081169E+01
 1.0033751E+01  2.4116510E+01
 1.0045251E+01  2.4138422E+01
 1.0056750E+01  2.4167782E+01
 1.0068251E+01  2.4155310E+01
 1.0079750E+01  2.4176025E+01
 1.0091250E+01  2.4096828E+01
 1.0102751E+01  2.3998800E+01
 1.0114250E+01  2.3861208E+01
 1.0125751E+01  2.3852360E+01
 1.0137251E+01  2.3772064E+01
 1.0148750E+01  2.3767092E+01
 1.0160251E+01  2.3802063E+01
 1.0171750E+01  2.3879837E+01
 1.0183250E+01  2.3946814E+01
 1.0194751E+01  2.3972454E+01
 1.0206250E+01  2.3975611E+01
 1.0217751E+01  2.3915878E+01
 1.0229251E+01  2.3864510E+01
 1.0240750E+01  2.3771130E+01
 1.0252251E+01  2.3701851E+01
 1.0263750E+01  2.3633230E+01
 1.0275250E+01  2.3636631E+01
 1.0286751E+01  2.3649599E+01
 1.0298250E+01  2.3672215E+01
 1.0309751E+01  2.3662321E+01
 1.0321251E+01  2.3596157E+01
 1.0332750E+01  2.3517685E+01
 1.0344251E+01  2.3490019E+01
 1.0355750E+01  2.3493603E+01
 1.0367250E+01  2.3470877E+01
 1.0378751E+01  2.3457130E+01
 1.0390250E+01  2.3445978E+01
 1.0401751E+01  2.3419561E+01
 1.0413251E+01  2.3353632E+01
 1.0424750E+01  2.3302502E+01
 1.0436251E+01  2.3278996E+01
 1.0447750E+01  2.3199522E+01
 1.0459250E+01  2.3128901E+01
 1.0470751E+01  2.3077843E+01
 1.0482250E+01  2.3121626E+01
 1.0493751E+01  2.3113653E+01
 1.0505251E+01  2.3134138E+01
 1.0516750E+01  2.3155186E+01
 1.0528251E+01  2.3161743E+01
 1.0539750E+01  2.3174196E+01
 1.0551250E+01  2.3151239E+01
 1.0562751E+01  2.3161989E+01
 1.0574250E+01  2.3110064E+01
 1.0585751E+01  2.3035307E+01
 1.0597251E+01  2.2936323E+01
 1.0608750E+01  2.2890221E+01
 1.0620251E+01  2.2847084E+01
 1.0631750E+01  2.2886478E+01
 1.0643250E+01  2.2853365E+01
 1.0654751E+01  2.2870825E+01
 1.0666250E+01  2.2852598E+01
 1.0677751E+01  2.2863224E+01
 1.0689251E+01  2.2872671E+01
 1.0700750E+01  2.2928875E+01
 1.0712251E+01  2.2947083E+01
 1.0723750E+01  2.3013788E+01
 1.0735250E+01  2.2982244E+01
 1.0746751E+01  2.3008106E+01
 1.0758250E+01  2.2986916E+01
 1.0769751E+01  2.2980759E+01
 1.0781251E+01  2.2978025E+01
 1.0792750E+01  2.2893446E+01
 1.0804251E+01  2.2878353E+01
 1.0815750E+01  2.2796873E+01
 1.0827250E+01  2.2762985E+01
 1.0838751E+01  2.2722271E+01
 1.0850250E+01  2.2687445E+01
 1.0861751E+01  2.2723978E+01
 1.0873251E+01  2.2720524E+01
 1.0884750E+01  2.2717346E+01
 1.0896251E+01  2.2687181E+01
 1.0907750E+01  2.2677923E+01
 1.0919250E+01  2.2699951E+01
 1.0930751E+01  2.2720417E+01
 1.0942250E+01  2.2685099E+01
 1.0953751E+01  2.2715982E+01
 1.0965251E+01  2.2674994E+01
 1.0976750E+01  2.2701220E+01
 1.0988251E+01  2.2640272E+01
 1.0999750E+01  2.2659328E+01
 1.1011250E+01  2.2621056E+01
 1.1022751E+01  2.2573095E+01
 1.1034250E+01  2.2543764E+01
 1.1045751E+01  2.2534264E+01
 1.1057251E+01  2.2543388E+01
 1.1068750E+01  2.2514673E+01
 1.1080251E+01  2.2528955E+01
 1.1091750E+01  2.2510344E+01
 1.1103251E+01  2.2464199E+01
 1.1114751E+01  2.2445021E+01
 1.1126250E+01  2.2480042E+01
 1.1137751E+01  2.2530029E+01
 1.1149251E+01  2.2564674E+01
 1.1160750E+01  2.2626650E+01
 1.1172251E+01  2.2613739E+01
 1.1183750E+01  2.2580399E+01
 1.1195251E+01  2.2507912E+01
 1.1206751E+01  2.2484035E+01
 1.1218250E+01  2.2433640E+01
 1.1229751E+01  2.2438570E+01
 1.1241251E+01  2.2492352E+01
 1.1252750E+01  2.2521984E+01
 1.1264251E+01  2.2527380E+01
 1.1275750E+01  2.2451561E+01
 1.1287251E+01  2.2439751E+01
 1.1298751E+01  2.2394323E+01
 1.1310250E+01  2.2458214E+01
 1.1321751E+01  2.2504478E+01
 1.1333251E+01  2.2553379E+01
 1.1344750E+01  2.2506439E+01
 1.1356251E+01  2.2477182E+01
 1.1367750E+01  2.2478756E+01
 1.1379251E+01  2.2537132E+01
 1.1390751E+01  2.2606426E+01
 1.1402250E+01  2.2727901E+01
 1.1413751E+01  2.2754965E+01
 1.1425251E+01  2.2746321E+01
 1.1436750E+01  2.2763384E+01
 1.1448251E+01  2.2812737E+01
 1.1459750E+01  2.2876823E+01
 1.1471251E+01  2.2889309E+01
 1.1482751E+01  2.2962416E+01
 1.1494250E+01  2.3012056E+01
 1.1505751E+01  2.3086855E+01
 1.1517251E+01  2.3309568E+01
 1.1528750E+01  2.3672598E+01
 1.1540251E+01  2.4458921E+01
 1.1551750E+01  2.5551601E+01
 1.1563251E+01  2.6814232E+01
 1.1574751E+01  2.8824492E+01
 1.1586250E+01  2.9952820E+01
 1.1597751E+01  3.0732622E+01
 1.1609251E+01  3.0431154E+01
 1.1620750E+01  2.9395597E+01
 1.1632251E+01  2.7951994E+01
 1.1643750E+01  2.5947880E+01
 1.1655251E+01  2.4820826E+01
 1.1666751E+01  2.3974157E+01
 1.1678250E+01  2.3484343E+01
 1.1689751E+01  2.3147549E+01
 1.1701251E+01  2.2914770E+01
 1.1712750E+01  2.2727535E+01
 1.1724251E+01  2.2615047E+01
 1.1735750E+01  2.2551413E+01
 1.1747251E+01  2.2513990E+01
 1.1758751E+01  2.2543226E+01
 1.1770250E+01  2.2585836E+01
 1.1781751E+01  2.2598873E+01
 1.1793251E+01  2.2655947E+01
 1.1804750E+01  2.2685173E+01
 1.1816251E+01  2.2744551E+01
 1.1827750E+01  2.2740799E+01
 1.1839251E+01  2.2736795E+01
 1.1850751E+01  2.2649496E+01
 1.1862250E+01  2.2633272E+01
 1.1873751E+01  2.2588602E+01
 1.1885251E+01  2.2640585E+01
 1.1896750E+01  2.2651203E+01
 1.1908251E+01  2.2720636E+01
 1.1919750E+01  2.2809418E+01
 1.1931251E+01  2.2921530E+01
 1.1942751E+01  2.3048737E+01
 1.1954250E+01  2.3231150E+01
 1.1965751E+01  2.3420761E+01
 1.1977251E+01  2.3589693E+01
 1.1988750E+01  2.3678431E+01
 1.2000251E+01  2.3642609E+01
 1.2011750E+01  2.3618700E+01
 1.2023251E+01  2.3586653E+01
 1.2034751E+01  2.3681498E+01
 1.2046250E+01  2.3930887E+01
 1.2057751E+01  2.4413486E+01
 1.2069251E+01  2.5357738E+01
 1.2080750E+01  2.6544796E+01
 1.2092251E+01  2.7852755E+01
 1.2103750E+01  2.9283531E+01
 1.2115251E+01  2.9872593E+01
 1.2126751E+01  3.0040443E+01
 1.2138250E+01  2.9045132E+01
 1.2149751E+01  2.7784061E+01
 1.2161251E+01  2.6152576E+01
 1.2172750E+01  2.4832777E+01
 1.2184251E+01  2.3923046E+01
 1.2195750E+01  2.3376045E+01
 1.2207251E+01  2.3008257E+01
 1.2218751E+01  2.2829386E+01
 1.2230250E+01  2.2682327E+01
 1.2241751E+01  2.2608131E+01
 1.2253251E+01  2.2557880E+01
 1.2264750E+01  2.2596395E+01
 1.2276251E+01  2.2549221E+01
 1.2287750E+01  2.2651466E+01
 1.2299251E+01  2.2652109E+01
 1.2310751E+01  2.2717545E+01
 1.2322250E+01  2.2636406E+01
 1.2333751E+01  2.2630716E+01
 1.2345250E+01  2.2585714E+01
 1.2356750E+01  2.2611662E+01
 1.2368251E+01  2.2557550E+01
 1.2379750E+01  2.2545639E+01
 1.2391251E+01  2.2483759E+01
 1.2402751E+01  2.2482073E+01
 1.2414250E+01  2.2484201E+01
 1.2425751E+01  2.2514063E+01
 1.2437250E+01  2.2513784E+01
 1.2448750E+01  2.2548466E+01
 1.2460251E+01  2.2576136E+01
 1.2471750E+01  2.2622480E+01
 1.2483251E+01  2.2735786E+01
 1.2494751E+01  2.2767624E+01
 1.2506250E+01  2.2784176E+01
 1.2517751E+01  2.2734509E+01
 1.2529250E+01  2.2739775E+01
 1.2540751E+01  2.2807894E+01
 1.2552251E+01  2.2832056E+01
 1.2563750E+01  2.2872713E+01
 1.2575251E+01  2.2947859E+01
 1.2586751E+01  2.2988895E+01
 1.2598250E+01  2.3041773E+01
 1.2609751E+01  2.3041420E+01
 1.2621250E+01  2.3048588E+01
 1.2632751E+01  2.3036057E+01
 1.2644251E+01  2.2925402E+01
 1.2655750E+01  2.2872763E+01
 1.2667251E+01  2.2811399E+01
 1.2678751E+01  2.2845705E+01
 1.2690250E+01  2.2877182E+01
 1.2701751E+01  2.2927105E+01
 1.2713250E+01  2.2945330E+01
 1.2724751E+01  2.2911722E+01
 1.2736251E+01  2.2883852E+01
 1.2747750E+01  2.2946688E+01
 1.2759251E+01  2.3070234E+01
 1.2770751E+01  2.3156645E+01
 1.2782250E+01  2.3205774E+01
 1.2793751E+01  2.3204899E+01
 1.2805250E+01  2.3277008E+01
 1.2816751E+01  2.3311071E+01
 1.2828251E+01  2.3334249E+01
 1.2839750E+01  2.3325924E+01
 1.2851251E+01  2.3320810E+01
 1.2862751E+01  2.3320068E+01
 1.2874250E+01  2.3368988E+01
 1.2885751E+01  2.3393705E+01
 1.2897250E+01  2.3443344E+01
 1.2908751E+01  2.3444633E+01
 1.2920251E+01  2.3503983E+01
 1.2931750E+01  2.3600737E+01
 1.2943251E+01  2.3687704E+01
 1.2954751E+01  2.3708975E+01
 1.2966250E+01  2.3793680E+01
 1.2977751E+01  2.3826612E+01
 1.2989250E+01  2.3914093E+01
 1.3000751E+01  2.3906763E+01
 1.3012251E+01  2.3932692E+01
 1.3023750E+01  2.3981897E+01
 1.3035251E+01  2.4044653E+01
 1.3046751E+01  2.4167757E+01
 1.3058250E+01  2.4198786E+01
 1.3069751E+01  2.4286346E+01
 1.3081250E+01  2.4372835E+01
 1.3092751E+01  2.4554775E+01
 1.3104251E+01  2.4735960E+01
 1.3115750E+01  2.4927568E+01
 1.3127251E+01  2.5100340E+01
 1.3138751E+01  2.5192463E+01
 1.3150250E+01  2.5314875E+01
 1.3161751E+01  2.5395897E+01
 1.3173250E+01  2.5552965E+01
 1.3184751E+01  2.5685768E+01
 1.3196251E+01  2.5814095E+01
 1.3207750E+01  2.5880568E+01
 1.3219251E+01  2.6001986E+01
 1.3230751E+01  2.6128027E+01
 1.3242250E+01  2.6285328E+01
 1.3253751E+01  2.6400434E+01
 1.3265250E+01  2.6548063E+01
 1.3276751E+01  2.6696192E+01
 1.3288251E+01  2.6828911E+01
 1.3299750E+01  2.6966555E+01
 1.3311251E+01  2.7122873E+01
 1.3322751E+01  2.7233139E+01
 1.3334250E+01  2.7356775E+01
 1.3345751E+01  2.7471424E+01
 1.3357250E+01  2.7664604E+01
 1.3368751E+01  2.7818306E+01
 1.3380251E+01  2.7988573E+01
 1.3391750E+01  2.8154463E+01
 1.3403251E+01  2.8328703E+01
 1.3414751E+01  2.8497252E+01
 1.3426250E+01  2.8617847E+01
 1.3437751E+01  2.8682745E+01
 1.3449250E+01  2.8714869E+01
 1.3460751E+01  2.8731390E+01
 1.3472251E+01  2.8821617E+01
 1.3483750E+01  2.8982849E+01
 1.3495251E+01  2.9136877E+01
 1.3506751E+01  2.9330496E+01
 1.3518250E+01  2.9436905E+01
 1.3529751E+01  2.9595118E+01
 1.3541250E+01  2.9602547E+01
 1.3552751E+01  2.9669235E+01
 1.3564251E+01  2.9690229E+01
 1.3575750E+01  2.9765808E+01
 1.3587251E+01  2.9779459E+01
 1.3598751E+01  2.9805988E+01
 1.3610250E+01  2.9804121E+01
 1.3621751E+01  2.9770679E+01
 1.3633250E+01  2.9677013E+01
 1.3644751E+01  2.9616177E+01
 1.3656251E+01  2.9637213E+01
 1.3667750E+01  2.9708458E+01
 1.3679251E+01  2.9750488E+01
 1.3690751E+01  2.9703445E+01
 1.3702250E+01  2.9660202E+01
 1.3713751E+01  2.9669180E+01
 1.3725250E+01  2.9711016E+01
 1.3736751E+01  2.9748003E+01
 1.3748251E+01  2.9742622E+01
 1.3759750E+01  2.9691238E+01
 1.3771251E+01  2.9558962E+01
 1.3782751E+01  2.9472155E+01
 1.3794250E+01  2.9377811E+01
 1.3805751E+01  2.9339680E+01
 1.3817250E+01  2.9265158E+01
 1.3828751E+01  2.9240570E+01
 1.3840251E+01  2.9269905E+01
 1.3851750E+01  2.9366608E+01
 1.3863251E+01  2.9528786E+01
 1.3874751E+01  2.9909719E+01
 1.3886250E+01  3.0383663E+01
 1.3897751E+01  3.1284607E+01
 1.3909250E+01  3.2345856E+01
 1.3920751E+01  3.3668003E+01
 1.3932251E+01  3.4957264E+01
 1.3943750E+01  3.5727211E+01
 1.3955251E+01  3.6218460E+01
 1.3966751E+01  3.5641949E+01
 1.3978251E+01  3.4918549E+01
 1.3989751E+01  3.3314503E+01
 1.4001250E+01  3.2137177E+01
 1.4012751E+01  3.0689039E+01
 1.4024251E+01  2.9835981E+01
 1.4035750E+01  2.8991650E+01
 1.4047251E+01  2.8519972E+01
 1.4058751E+01  2.8136473E+01
 1.4070251E+01  2.7897827E+01
 1.4081751E+01  2.7723770E+01
 1.4093250E+01  2.7564234E+01
 1.4104751E+01  2.7473618E+01
 1.4116251E+01  2.7400717E+01
 1.4127750E+01  2.7387047E+01
 1.4139251E+01  2.7330582E+01
 1.4150751E+01  2.7187145E+01
 1.4162251E+01  2.7117947E+01
 1.4173751E+01  2.7030199E+01
 1.4185250E+01  2.6990938E+01
 1.4196751E+01  2.6974520E+01
 1.4208251E+01  2.6946810E+01
 1.4219750E+01  2.6930799E+01
 1.4231251E+01  2.6818783E+01
 1.4242751E+01  2.6740343E+01
 1.4254251E+01  2.6620609E+01
 1.4265751E+01  2.6536459E+01
 1.4277250E+01  2.6439169E+01
 1.4288751E+01  2.6333040E+01
 1.4300251E+01  2.6246483E+01
 1.4311750E+01  2.6193600E+01
 1.4323251E+01  2.6140471E+01
 1.4334751E+01  2.6086565E+01
 1.4346251E+01  2.6053129E+01
 1.4357751E+01  2.6097164E+01
 1.4369250E+01  2.6083956E+01
 1.4380751E+01  2.6127478E+01
 1.4392251E+01  2.6088667E+01
 1.4403750E+01  2.6126278E+01
 1.4415251E+01  2.6106050E+01
 1.4426751E+01  2.6098494E+01
 1.4438251E+01  2.6066988E+01
 1.4449751E+01  2.5957504E+01
 1.4461250E+01  2.5793711E+01
 1.4472751E+01  2.5632790E+01
 1.4484251E+01  2.5552933E+01
 1.4495750E+01  2.5513758E+01
 1.4507251E+01  2.5499531E+01
 1.4518751E+01  2.5513693E+01
 1.4530251E+01  2.5555792E+01
 1.4541751E+01  2.5591869E+01
 1.4553250E+01  2.5595282E+01
 1.4564751E+01  2.5611151E+01
 1.4576251E+01  2.5614462E+01
 1.4587750E+01  2.5596138E+01
 1.4599251E+01  2.5540987E+01
 1.4610751E+01  2.5497856E+01
 1.4622251E+01  2.5436623E+01
 1.4633751E+01  2.5366068E+01
 1.4645250E+01  2.5307707E+01
 1.4656751E+01  2.5283058E+01
 1.4668251E+01  2.5268454E+01
 1.4679750E+01  2.5242477E+01
 1.4691251E+01  2.5267567E+01
 1.4702751E+01  2.5253895E+01
 1.4714251E+01  2.5250181E+01
 1.4725751E+01  2.5167187E+01
 1.4737250E+01  2.5135080E+01
 1.4748751E+01  2.5087172E+01
 1.4760251E+01  2.5081375E+01
 1.4771750E+01  2.5073456E+01
 1.4783251E+01  2.5069405E+01
 1.4794751E+01  2.5052601E+01
 1.4806251E+01  2.5032297E+01
 1.4817751E+01  2.4990244E+01
 1.4829250E+01  2.4975525E+01
 1.4840751E+01  2.4945005E+01
 1.4852251E+01  2.4920727E+01
 1.4863750E+01  2.4857414E+01
 1.4875251E+01  2.4776917E+01
 1.4886751E+01  2.4758011E+01
 1.4898251E+01  2.4804741E+01
 1.4909751E+01  2.4865662E+01
 1.4921250E+01  2.4883255E+01
 1.4932751E+01  2.4916780E+01
 1.4944251E+01  2.4894613E+01
 1.4955750E+01  2.4897873E+01
 1.4967251E+01  2.4857262E+01
 1.4978751E+01  2.4928902E+01
 1.4990251E+01  2.4957481E+01
 1.5001751E+01  2.4957378E+01
 1.5013250E+01  2.4941292E+01
 1.5024751E+01  2.4926691E+01
 1.5036251E+01  2.4868225E+01
 1.5047750E+01  2.4840363E+01
 1.5059251E+01  2.4819418E+01
 1.5070751E+01  2.4842516E+01
 1.5082251E+01  2.4818693E+01
 1.5093751E+01  2.4861700E+01
 1.5105250E+01  2.4957508E+01
 1.5116751E+01  2.5013811E+01
 1.5128251E+01  2.5100689E+01
 1.5139750E+01  2.5261703E+01
 1.5151251E+01  2.5626152E+01
 1.5162751E+01  2.5972837E+01
 1.5174251E+01  2.6345934E+01
 1.5185751E+01  2.6606518E+01
 1.5197250E+01  2.6726002E+01
 1.5208751E+01  2.6722473E+01
 1.5220251E+01  2.6532955E+01
 1.5231750E+01  2.6280060E+01
 1.5243251E+01  2.5925905E+01
 1.5254751E+01  2.5564600E+01
 1.5266251E+01  2.5208868E+01
 1.5277751E+01  2.4952120E+01
 1.5289250E+01  2.4826479E+01
 1.5300751E+01  2.4784151E+01
 1.5312251E+01  2.4757774E+01
 1.5323750E+01  2.4690548E+01
 1.5335251E+01  2.4631605E+01
 1.5346751E+01  2.4568766E+01
 1.5358251E+01  2.4563948E+01
 1.5369751E+01  2.4558346E+01
 1.5381250E+01  2.4562000E+01
 1.5392751E+01  2.4596193E+01
 1.5404251E+01  2.4639940E+01
 1.5415751E+01  2.4668633E+01
 1.5427251E+01  2.4644588E+01
 1.5438751E+01  2.4591961E+01
 1.5450251E+01  2.4535873E+01
 1.5461751E+01  2.4539080E+01
 1.5473250E+01  2.4558090E+01
 1.5484751E+01  2.4608824E+01
 1.5496251E+01  2.4652784E+01
 1.5507751E+01  2.4659605E+01
 1.5519251E+01  2.4652056E+01
 1.5530751E+01  2.4649561E+01
 1.5542251E+01  2.4642155E+01
 1.5553751E+01  2.4610147E+01
 1.5565250E+01  2.4634218E+01
 1.5576751E+01  2.4653471E+01
 1.5588251E+01  2.4625925E+01
 1.5599751E+01  2.4559767E+01
 1.5611251E+01  2.4554344E+01
 1.5622751E+01  2.4569658E+01
 1.5634251E+01  2.4575838E+01
 1.5645751E+01  2.4584423E+01
 1.5657250E+01  2.4595179E+01
 1.5668751E+01  2.4628569E+01
 1.5680251E+01  2.4647575E+01
 1.5691751E+01  2.4617971E+01
 1.5703251E+01  2.4599274E+01
 1.5714751E+01  2.4603916E+01
 1.5726251E+01  2.4696272E+01
 1.5737751E+01  2.4705351E+01
 1.5749250E+01  2.4735937E+01
 1.5760751E+01  2.4747395E+01
 1.5772251E+01  2.4764294E+01
 1.5783751E+01  2.4739897E+01
 1.5795251E+01  2.4706793E+01
 1.5806751E+01  2.4670366E+01
 1.5818251E+01  2.4673027E+01
 1.5829751E+01  2.4640070E+01
 1.5841250E+01  2.4648535E+01
 1.5852751E+01  2.4632082E+01
 1.5864251E+01  2.4639658E+01
 1.5875751E+01  2.4639269E+01
 1.5887251E+01  2.4672953E+01
 1.5898750E+01  2.4676706E+01
 1.5910251E+01  2.4728931E+01
 1.5921751E+01  2.4725063E+01
 1.5933250E+01  2.4728376E+01
 1.5944751E+01  2.4662832E+01
 1.5956251E+01  2.4656254E+01
 1.5967751E+01  2.4613016E+01
 1.5979251E+01  2.4606531E+01
 1.5990750E+01  2.4613735E+01
 1.6002251E+01  2.4630274E+01
 1.6013750E+01  2.4685654E+01
 1.6025251E+01  2.4678106E+01
 1.6036751E+01  2.4721710E+01
 1.6048250E+01  2.4705948E+01
 1.6059752E+01  2.4737892E+01
 1.6071251E+01  2.4705477E+01
 1.6082750E+01  2.4774471E+01
 1.6094252E+01  2.4793663E+01
 1.6105751E+01  2.4897087E+01
 1.6117250E+01  2.4865286E+01
 1.6128750E+01  2.4878859E+01
 1.6140251E+01  2.4868698E+01
 1.6151751E+01  2.4842936E+01
 1.6163250E+01  2.4912802E+01
 1.6174751E+01  2.4889078E+01
 1.6186251E+01  2.5167421E+01
 1.6197750E+01  2.5198740E+01
 1.6209251E+01  2.5721231E+01
 1.6220751E+01  2.5768637E+01
 1.6232250E+01  2.6317169E+01
 1.6243752E+01  2.6489220E+01
 1.6255251E+01  2.6697119E+01
 1.6266750E+01  2.6782753E+01
 1.6278252E+01  2.6320042E+01
 1.6289751E+01  2.6278820E+01
 1.6301250E+01  2.5464756E+01
 1.6312750E+01  2.5497807E+01
 1.6324251E+01  2.5016758E+01
 1.6335751E+01  2.5116022E+01
 1.6347250E+01  2.4940031E+01
 1.6358751E+01  2.4942587E+01
 1.6370251E+01  2.4856379E+01
 1.6381750E+01  2.4812801E+01
 1.6393251E+01  2.4803066E+01
 1.6404751E+01  2.4796928E+01
 1.6416250E+01  2.4806192E+01
 1.6427752E+01  2.4794355E+01
 1.6439251E+01  2.4806824E+01
 1.6450750E+01  2.4752174E+01
 1.6462252E+01  2.4698296E+01
 1.6473751E+01  2.4631050E+01
 1.6485250E+01  2.4653349E+01
 1.6496750E+01  2.4717348E+01
 1.6508251E+01  2.4723673E+01
 1.6519751E+01  2.4748770E+01
 1.6531250E+01  2.4686300E+01
 1.6542751E+01  2.4676085E+01
 1.6554251E+01  2.4634214E+01
 1.6565750E+01  2.4629997E+01
 1.6577251E+01  2.4592112E+01
 1.6588751E+01  2.4560688E+01
 1.6600250E+01  2.4626080E+01
 1.6611752E+01  2.4671846E+01
 1.6623251E+01  2.4677298E+01
 1.6634750E+01  2.4629723E+01
 1.6646252E+01  2.4644258E+01
 1.6657751E+01  2.4657322E+01
 1.6669250E+01  2.4696491E+01
 1.6680750E+01  2.4662910E+01
 1.6692251E+01  2.4662830E+01
 1.6703751E+01  2.4636688E+01
 1.6715250E+01  2.4620377E+01
 1.6726751E+01  2.4563261E+01
 1.6738251E+01  2.4572670E+01
 1.6749750E+01  2.4640045E+01
 1.6761251E+01  2.4643715E+01
 1.6772751E+01  2.4614790E+01
 1.6784250E+01  2.4573069E+01
 1.6795752E+01  2.4523104E+01
 1.6807251E+01  2.4478485E+01
 1.6818750E+01  2.4416649E+01
 1.6830252E+01  2.4391474E+01
 1.6841751E+01  2.4307636E+01
 1.6853251E+01  2.4312813E+01
 1.6864750E+01  2.4350258E+01
 1.6876251E+01  2.4391760E+01
 1.6887751E+01  2.4441784E+01
 1.6899250E+01  2.4472208E+01
 1.6910751E+01  2.4491514E+01
 1.6922251E+01  2.4470484E+01
 1.6933750E+01  2.4384403E+01
 1.6945251E+01  2.4301857E+01
 1.6956751E+01  2.4244518E+01
 1.6968250E+01  2.4250696E+01
 1.6979752E+01  2.4281866E+01
 1.6991251E+01  2.4316015E+01
 1.7002750E+01  2.4307497E+01
 1.7014252E+01  2.4337141E+01
 1.7025751E+01  2.4328329E+01
 1.7037251E+01  2.4315348E+01
 1.7048750E+01  2.4231007E+01
 1.7060251E+01  2.4198362E+01
 1.7071751E+01  2.4219198E+01
 1.7083250E+01  2.4228472E+01
 1.7094751E+01  2.4225277E+01
 1.7106251E+01  2.4217997E+01
 1.7117750E+01  2.4280249E+01
 1.7129251E+01  2.4308428E+01
 1.7140751E+01  2.4339113E+01
 1.7152250E+01  2.4316723E+01
 1.7163752E+01  2.4343809E+01
 1.7175251E+01  2.4282671E+01
 1.7186750E+01  2.4271526E+01
 1.7198252E+01  2.4207273E+01
 1.7209751E+01  2.4252165E+01
 1.7221251E+01  2.4193613E+01
 1.7232750E+01  2.4239943E+01
 1.7244251E+01  2.4235424E+01
 1.7255751E+01  2.4243286E+01
 1.7267250E+01  2.4212112E+01
 1.7278751E+01  2.4182844E+01
 1.7290251E+01  2.4159698E+01
 1.7301750E+01  2.4128601E+01
 1.7313251E+01  2.4076380E+01
 1.7324751E+01  2.4125170E+01
 1.7336250E+01  2.4130318E+01
 1.7347752E+01  2.4152557E+01
 1.7359251E+01  2.4094719E+01
 1.7370750E+01  2.4072418E+01
 1.7382252E+01  2.4073824E+01
 1.7393751E+01  2.4022776E+01
 1.7405251E+01  2.3987284E+01
 1.7416750E+01  2.3956043E+01
 1.7428251E+01  2.3979374E+01
 1.7439751E+01  2.3988611E+01
 1.7451250E+01  2.3981911E+01
 1.7462751E+01  2.3992559E+01
 1.7474251E+01  2.4004217E+01
 1.7485750E+01  2.4032188E+01
 1.7497252E+01  2.3980249E+01
 1.7508751E+01  2.3917503E+01
 1.7520250E+01  2.3895767E+01
 1.7531752E+01  2.3921200E+01
 1.7543251E+01  2.3993237E+01
 1.7554750E+01  2.3953583E+01
 1.7566252E+01  2.3946535E+01
 1.7577751E+01  2.3874878E+01
 1.7589251E+01  2.3840885E+01
 1.7600750E+01  2.3818657E+01
 1.7612251E+01  2.3816420E+01
 1.7623751E+01  2.3849676E+01
 1.7635250E+01  2.3809950E+01
 1.7646751E+01  2.3768740E+01
 1.7658251E+01  2.3742140E+01
 1.7669750E+01  2.3777184E+01
 1.7681252E+01  2.3802210E+01
 1.7692751E+01  2.3812492E+01
 1.7704250E+01  2.3829323E+01
 1.7715752E+01  2.3822735E+01
 1.7727251E+01  2.3783403E+01
 1.7738750E+01  2.3727795E+01
 1.7750252E+01  2.3701244E+01
 1.7761751E+01  2.3731312E+01
 1.7773251E+01  2.3768131E+01
 1.7784750E+01  2.3787273E+01
 1.7796251E+01  2.3792643E+01
 1.7807751E+01  2.3771122E+01
 1.7819250E+01  2.3787624E+01
 1.7830751E+01  2.3800449E+01
 1.7842251E+01  2.3818577E+01
 1.7853750E+01  2.3783937E+01
 1.7865252E+01  2.3771505E+01
 1.7876751E+01  2.3802504E+01
 1.7888250E+01  2.3802853E+01
 1.7899752E+01  2.3812584E+01
 1.7911251E+01  2.3794376E+01
 1.7922750E+01  2.3812355E+01
 1.7934252E+01  2.3812885E+01
 1.7945751E+01  2.3862226E+01
 1.7957251E+01  2.3956810E+01
 1.7968750E+01  2.4050125E+01
 1.7980251E+01  2.4162552E+01
 1.7991751E+01  2.4311701E+01
 1.8003250E+01  2.4455341E+01
 1.8014751E+01  2.4589464E+01
 1.8026251E+01  2.4840395E+01
 1.8037750E+01  2.5243443E+01
 1.8049252E+01  2.5682980E+01
 1.8060751E+01  2.6223829E+01
 1.8072250E+01  2.6810711E+01
 1.8083752E+01  2.7367327E+01
 1.8095251E+01  2.7716686E+01
 1.8106750E+01  2.7707735E+01
 1.8118252E+01  2.7468811E+01
 1.8129751E+01  2.7117582E+01
 1.8141251E+01  2.6576283E+01
 1.8152750E+01  2.5987938E+01
 1.8164251E+01  2.5377525E+01
 1.8175751E+01  2.4925781E+01
 1.8187250E+01  2.4452265E+01
 1.8198751E+01  2.4231186E+01
 1.8210251E+01  2.4132872E+01
 1.8221750E+01  2.4168810E+01
 1.8233252E+01  2.4134735E+01
 1.8244751E+01  2.4062069E+01
 1.8256250E+01  2.4015928E+01
 1.8267752E+01  2.3921301E+01
 1.8279251E+01  2.3842466E+01
 1.8290751E+01  2.3747700E+01
 1.8302252E+01  2.3780951E+01
 1.8313751E+01  2.3748951E+01
 1.8325251E+01  2.3696613E+01
 1.8336750E+01  2.3687269E+01
 1.8348251E+01  2.3685555E+01
 1.8359751E+01  2.3712601E+01
 1.8371250E+01  2.3708214E+01
 1.8382751E+01  2.3670229E+01
 1.8394251E+01  2.3700897E+01
 1.8405750E+01  2.3689526E+01
 1.8417252E+01  2.3711500E+01
 1.8428751E+01  2.3704599E+01
 1.8440250E+01  2.3682959E+01
 1.8451752E+01  2.3666710E+01
 1.8463251E+01  2.3661943E+01
 1.8474751E+01  2.3674847E+01
 1.8486252E+01  2.3606291E+01
 1.8497751E+01  2.3565102E+01
 1.8509251E+01  2.3559971E+01
 1.8520750E+01  2.3566992E+01
 1.8532251E+01  2.3559549E+01
 1.8543751E+01  2.3529816E+01
 1.8555250E+01  2.3516525E+01
 1.8566751E+01  2.3504675E+01
 1.8578251E+01  2.3543064E+01
 1.8589750E+01  2.3803032E+01
 1.8601252E+01  2.3923031E+01
 1.8612751E+01  2.4021688E+01
 1.8624250E+01  2.4110697E+01
 1.8635752E+01  2.4079260E+01
 1.8647251E+01  2.3865971E+01
 1.8658751E+01  2.3581917E+01
 1.8670252E+01  2.3619642E+01
 1.8681751E+01  2.3652668E+01
 1.8693251E+01  2.3685261E+01
 1.8704750E+01  2.3673065E+01
 1.8716251E+01  2.3606596E+01
 1.8727751E+01  2.3553156E+01
 1.8739250E+01  2.3494198E+01
 1.8750751E+01  2.3460314E+01
 1.8762251E+01  2.3407530E+01
 1.8773750E+01  2.3414499E+01
 1.8785252E+01  2.3418741E+01
 1.8796751E+01  2.3473646E+01
 1.8808250E+01  2.3453432E+01
 1.8819752E+01  2.3516394E+01
 1.8831251E+01  2.3511337E+01
 1.8842751E+01  2.3542652E+01
 1.8854252E+01  2.3492792E+01
 1.8865751E+01  2.3449831E+01
 1.8877251E+01  2.3435690E+01
 1.8888750E+01  2.3452362E+01
 1.8900251E+01  2.3480141E+01
 1.8911751E+01  2.3499567E+01
 1.8923250E+01  2.3492605E+01
 1.8934752E+01  2.3497787E+01
 1.8946251E+01  2.3454622E+01
 1.8957750E+01  2.3427225E+01
 1.8969252E+01  2.3384893E+01
 1.8980751E+01  2.3406898E+01
 1.8992250E+01  2.3444458E+01
 1.9003752E+01  2.3467108E+01
 1.9015251E+01  2.3530779E+01
 1.9026751E+01  2.3554970E+01
 1.9038252E+01  2.3600174E+01
 1.9049751E+01  2.3592196E+01
 1.9061251E+01  2.3610697E+01
 1.9072750E+01  2.3625381E+01
 1.9084251E+01  2.3645655E+01
 1.9095751E+01  2.3602200E+01
 1.9107250E+01  2.3566879E+01
 1.9118752E+01  2.3540483E+01
 1.9130251E+01  2.3577637E+01
 1.9141750E+01  2.3587315E+01
 1.9153252E+01  2.3648182E+01
 1.9164751E+01  2.3666960E+01
 1.9176250E+01  2.3701746E+01
 1.9187752E+01  2.3696711E+01
 1.9199251E+01  2.3696564E+01
 1.9210751E+01  2.3699852E+01
 1.9222252E+01  2.3678995E+01
 1.9233751E+01  2.3632910E+01
 1.9245251E+01  2.3625540E+01
 1.9256750E+01  2.3658596E+01
 1.9268251E+01  2.3623402E+01
 1.9279751E+01  2.3623394E+01
 1.9291250E+01  2.3649878E+01
 1.9302752E+01  2.3702074E+01
 1.9314251E+01  2.3678308E+01
 1.9325750E+01  2.3665993E+01
 1.9337252E+01  2.3686178E+01
 1.9348751E+01  2.3717699E+01
 1.9360250E+01  2.3736654E+01
 1.9371752E+01  2.3738096E+01
 1.9383251E+01  2.3742229E+01
 1.9394751E+01  2.3742386E+01
 1.9406250E+01  2.3709507E+01
 1.9417751E+01  2.3709934E+01
 1.9429251E+01  2.3712791E+01
 1.9440750E+01  2.3764164E+01
 1.9452251E+01  2.3746777E+01
 1.9463751E+01  2.3717478E+01
 1.9475250E+01  2.3737123E+01
 1.9486752E+01  2.3763155E+01
 1.9498251E+01  2.3798119E+01
 1.9509750E+01  2.3807392E+01
 1.9521252E+01  2.3856382E+01
 1.9532751E+01  2.3870701E+01
 1.9544250E+01  2.3893562E+01
 1.9555752E+01  2.3903473E+01
 1.9567251E+01  2.3922112E+01
 1.9578751E+01  2.3937067E+01
 1.9590250E+01  2.3982841E+01
 1.9601751E+01  2.4051815E+01
 1.9613251E+01  2.4194918E+01
 1.9624750E+01  2.4311279E+01
 1.9636251E+01  2.4515371E+01
 1.9647751E+01  2.4895355E+01
 1.9659250E+01  2.5266994E+01
 1.9670752E+01  2.6332382E+01
 1.9682251E+01  2.6840744E+01
 1.9693750E+01  2.7974409E+01
 1.9705252E+01  2.8078691E+01
 1.9716751E+01  2.8154629E+01
 1.9728251E+01  2.7782152E+01
 1.9739752E+01  2.7136202E+01
 1.9751251E+01  2.6764120E+01
 1.9762751E+01  2.6318701E+01
 1.9774250E+01  2.6019541E+01
 1.9785751E+01  2.5830368E+01
 1.9797251E+01  2.5863186E+01
 1.9808750E+01  2.6227316E+01
 1.9820251E+01  2.7071846E+01
 1.9831751E+01  2.8397209E+01
 1.9843250E+01  3.0166298E+01
 1.9854752E+01  3.2126072E+01
 1.9866251E+01  3.3013615E+01
 1.9877750E+01  3.3131298E+01
 1.9889252E+01  3.1938120E+01
 1.9900751E+01  3.0427273E+01
 1.9912251E+01  2.8698387E+01
 1.9923752E+01  2.7232542E+01
 1.9935251E+01  2.6061142E+01
 1.9946751E+01  2.5282179E+01
 1.9958250E+01  2.4782507E+01
 1.9969751E+01  2.4543188E+01
 1.9981251E+01  2.4341286E+01
 1.9992750E+01  2.4228178E+01
 2.0004251E+01  2.4109343E+01
 2.0015751E+01  2.4069124E+01
 2.0027250E+01  2.4006859E+01
 2.0038752E+01  2.3974331E+01
 2.0050251E+01  2.3963583E+01
 2.0061750E+01  2.3960245E+01
 2.0073252E+01  2.3962976E+01
 2.0084751E+01  2.3896341E+01
 2.0096251E+01  2.3902765E+01
 2.0107752E+01  2.3871731E+01
 2.0119251E+01  2.3889225E+01
 2.0130751E+01  2.3844780E+01
 2.0142250E+01  2.3807440E+01
 2.0153751E+01  2.3720381E+01
 2.0165251E+01  2.3680513E+01
 2.0176750E+01  2.3660034E+01
 2.0188251E+01  2.3695858E+01
 2.0199751E+01  2.3726967E+01
 2.0211250E+01  2.3749439E+01
 2.0222752E+01  2.3729567E+01
 2.0234251E+01  2.3722071E+01
 2.0245750E+01  2.3747517E+01
 2.0257252E+01  2.3764362E+01
 2.0268751E+01  2.3765100E+01
 2.0280251E+01  2.3792192E+01
 2.0291752E+01  2.3802572E+01
 2.0303251E+01  2.3777969E+01
 2.0314751E+01  2.3729198E+01
 2.0326250E+01  2.3757215E+01
 2.0337751E+01  2.3774130E+01
 2.0349251E+01  2.3777084E+01
 2.0360750E+01  2.3738108E+01
 2.0372252E+01  2.3710270E+01
 2.0383751E+01  2.3705517E+01
 2.0395250E+01  2.3747818E+01
 2.0406752E+01  2.3802849E+01
 2.0418251E+01  2.3811556E+01
 2.0429750E+01  2.3808746E+01
 2.0441252E+01  2.3782354E+01
 2.0452751E+01  2.3757120E+01
 2.0464251E+01  2.3685289E+01
 2.0475752E+01  2.3692307E+01
 2.0487251E+01  2.3693520E+01
 2.0498751E+01  2.3719982E+01
 2.0510250E+01  2.3684044E+01
 2.0521751E+01  2.3662550E+01
 2.0533251E+01  2.3671251E+01
 2.0544750E+01  2.3660185E+01
 2.0556252E+01  2.3739691E+01
 2.0567751E+01  2.3788649E+01
 2.0579250E+01  2.3849833E+01
 2.0590752E+01  2.3936737E+01
 2.0602251E+01  2.4024345E+01
 2.0613750E+01  2.4044149E+01
 2.0625252E+01  2.4012766E+01
 2.0636751E+01  2.4035198E+01
 2.0648251E+01  2.4065369E+01
 2.0659752E+01  2.4115358E+01
 2.0671251E+01  2.4240450E+01
 2.0682751E+01  2.4428453E+01
 2.0694250E+01  2.4672661E+01
 2.0705751E+01  2.5035675E+01
 2.0717251E+01  2.5382380E+01
 2.0728750E+01  2.5939148E+01
 2.0740252E+01  2.6395100E+01
 2.0751751E+01  2.6866047E+01
 2.0763250E+01  2.7001938E+01
 2.0774752E+01  2.6885485E+01
 2.0786251E+01  2.6422508E+01
 2.0797750E+01  2.5886444E+01
 2.0809252E+01  2.5362436E+01
 2.0820751E+01  2.4903645E+01
 2.0832251E+01  2.4579727E+01
 2.0843752E+01  2.4362490E+01
 2.0855251E+01  2.4169485E+01
 2.0866751E+01  2.4021111E+01
 2.0878250E+01  2.3954157E+01
 2.0889751E+01  2.3922762E+01
 2.0901251E+01  2.3939428E+01
 2.0912750E+01  2.3933361E+01
 2.0924252E+01  2.3951170E+01
 2.0935751E+01  2.3928699E+01
 2.0947250E+01  2.3918016E+01
 2.0958752E+01  2.3992525E+01
 2.0970251E+01  2.4028421E+01
 2.0981750E+01  2.4116026E+01
 2.0993252E+01  2.4038288E+01
 2.1004751E+01  2.3992556E+01
 2.1016251E+01  2.3867256E+01
 2.1027752E+01  2.3840630E+01
 2.1039251E+01  2.3812880E+01
 2.1050751E+01  2.3824492E+01
 2.1062250E+01  2.3850845E+01
 2.1073751E+01  2.3909628E+01
 2.1085251E+01  2.3933811E+01
 2.1096750E+01  2.3892872E+01
 2.1108252E+01  2.3906895E+01
 2.1119751E+01  2.3941027E+01
 2.1131250E+01  2.3999750E+01
 2.1142752E+01  2.3987127E+01
 2.1154251E+01  2.3926733E+01
 2.1165751E+01  2.3927254E+01
 2.1177252E+01  2.3948057E+01
 2.1188751E+01  2.3936329E+01
 2.1200251E+01  2.3911041E+01
 2.1211752E+01  2.3886976E+01
 2.1223251E+01  2.3874851E+01
 2.1234751E+01  2.3862953E+01
 2.1246250E+01  2.3864317E+01
 2.1257751E+01  2.3916458E+01
 2.1269251E+01  2.3955004E+01
 2.1280750E+01  2.3972212E+01
 2.1292252E+01  2.3963762E+01
 2.1303751E+01  2.3975485E+01
 2.1315250E+01  2.4003624E+01
 2.1326752E+01  2.4031908E+01
 2.1338251E+01  2.4066196E+01
 2.1349751E+01  2.4053091E+01
 2.1361252E+01  2.4089167E+01
 2.1372751E+01  2.4122362E+01
 2.1384251E+01  2.4157419E+01
 2.1395752E+01  2.4154434E+01
 2.1407251E+01  2.4114706E+01
 2.1418751E+01  2.4053209E+01
 2.1430250E+01  2.4025537E+01
 2.1441751E+01  2.3989027E+01
 2.1453251E+01  2.3981474E+01
 2.1464750E+01  2.3984301E+01
 2.1476252E+01  2.3962967E+01
 2.1487751E+01  2.3939442E+01
 2.1499250E+01  2.3919949E+01
 2.1510752E+01  2.3927114E+01
 2.1522251E+01  2.3917732E+01
 2.1533751E+01  2.3915817E+01
 2.1545252E+01  2.3935436E+01
 2.1556751E+01  2.3932543E+01
 2.1568251E+01  2.4002756E+01
 2.1579752E+01  2.4054359E+01
 2.1591251E+01  2.4080791E+01
 2.1602751E+01  2.4067356E+01
 2.1614250E+01  2.4091299E+01
 2.1625751E+01  2.4106579E+01
 2.1637251E+01  2.4131933E+01
 2.1648750E+01  2.4174147E+01
 2.1660252E+01  2.4207787E+01
 2.1671751E+01  2.4170393E+01
 2.1683250E+01  2.4130003E+01
 2.1694752E+01  2.4073206E+01
 2.1706251E+01  2.4103075E+01
 2.1717751E+01  2.4068134E+01
 2.1729252E+01  2.4105824E+01
 2.1740751E+01  2.4117487E+01
 2.1752251E+01  2.4145205E+01
 2.1763752E+01  2.4182949E+01
 2.1775251E+01  2.4225809E+01
 2.1786751E+01  2.4290354E+01
 2.1798250E+01  2.4314905E+01
 2.1809752E+01  2.4307537E+01
 2.1821251E+01  2.4283169E+01
 2.1832750E+01  2.4224209E+01
 2.1844252E+01  2.4233606E+01
 2.1855751E+01  2.4216616E+01
 2.1867250E+01  2.4219498E+01
 2.1878752E+01  2.4226778E+01
 2.1890251E+01  2.4247690E+01
 2.1901751E+01  2.4205999E+01
 2.1913252E+01  2.4155064E+01
 2.1924751E+01  2.4112406E+01
 2.1936251E+01  2.4130209E+01
 2.1947752E+01  2.4147282E+01
 2.1959251E+01  2.4156071E+01
 2.1970751E+01  2.4203268E+01
 2.1982250E+01  2.4197586E+01
 2.1993752E+01  2.4220011E+01
 2.2005251E+01  2.4201172E+01
 2.2016750E+01  2.4234390E+01
 2.2028252E+01  2.4212051E+01
 2.2039751E+01  2.4256617E+01
 2.2051250E+01  2.4260790E+01
 2.2062752E+01  2.4288708E+01
 2.2074251E+01  2.4300461E+01
 2.2085751E+01  2.4305468E+01
 2.2097252E+01  2.4296083E+01
 2.2108751E+01  2.4281282E+01
 2.2120251E+01  2.4308989E+01
 2.2131752E+01  2.4314524E+01
 2.2143251E+01  2.4333155E+01
 2.2154751E+01  2.4325882E+01
 2.2166250E+01  2.4319307E+01
 2.2177752E+01  2.4323496E+01
 2.2189251E+01  2.4346432E+01
 2.2200750E+01  2.4355467E+01
 2.2212252E+01  2.4391680E+01
 2.2223751E+01  2.4414900E+01
 2.2235250E+01  2.4438457E+01
 2.2246752E+01  2.4407476E+01
 2.2258251E+01  2.4412834E+01
 2.2269751E+01  2.4418201E+01
 2.2281252E+01  2.4451756E+01
 2.2292751E+01  2.4476536E+01
 2.2304251E+01  2.4527517E+01
 2.2315752E+01  2.4608446E+01
 2.2327251E+01  2.4690069E+01
 2.2338751E+01  2.4676826E+01
 2.2350250E+01  2.4630316E+01
 2.2361752E+01  2.4595470E+01
 2.2373251E+01  2.4651808E+01
 2.2384750E+01  2.4634640E+01
 2.2396252E+01  2.4599489E+01
 2.2407751E+01  2.4512684E+01
 2.2419250E+01  2.4489597E+01
 2.2430752E+01  2.4508204E+01
 2.2442251E+01  2.4575205E+01
 2.2453751E+01  2.4642277E+01
 2.2465252E+01  2.4675390E+01
 2.2476751E+01  2.4668840E+01
 2.2488251E+01  2.4656372E+01
 2.2499752E+01  2.4685364E+01
 2.2511251E+01  2.4729015E+01
 2.2522751E+01  2.4804407E+01
 2.2534250E+01  2.4839417E+01
 2.2545752E+01  2.4858505E+01
 2.2557251E+01  2.4851902E+01
 2.2568750E+01  2.4843683E+01
 2.2580252E+01  2.4878469E+01
 2.2591751E+01  2.4899855E+01
 2.2603251E+01  2.4921360E+01
 2.2614752E+01  2.4971897E+01
 2.2626251E+01  2.5008266E+01
 2.2637751E+01  2.5006311E+01
 2.2649252E+01  2.4984755E+01
 2.2660751E+01  2.4982269E+01
 2.2672251E+01  2.5019882E+01
 2.2683752E+01  2.5083675E+01
 2.2695251E+01  2.5149183E+01
 2.2706751E+01  2.5159626E+01
 2.2718250E+01  2.5211649E+01
 2.2729752E+01  2.5270100E+01
 2.2741251E+01  2.5321381E+01
 2.2752750E+01  2.5295422E+01
 2.2764252E+01  2.5321917E+01
 2.2775751E+01  2.5331675E+01
 2.2787251E+01  2.5316322E+01
 2.2798752E+01  2.5327299E+01
 2.2810251E+01  2.5366310E+01
 2.2821751E+01  2.5410809E+01
 2.2833252E+01  2.5486355E+01
 2.2844751E+01  2.5549181E+01
 2.2856251E+01  2.5561836E+01
 2.2867750E+01  2.5559917E+01
 2.2879251E+01  2.5570435E+01
 2.2890751E+01  2.5663828E+01
 2.2902250E+01  2.5695780E+01
 2.2913752E+01  2.5818003E+01
 2.2925251E+01  2.5928890E+01
 2.2936750E+01  2.6036926E+01
 2.2948252E+01  2.6090483E+01
 2.2959751E+01  2.6162987E+01
 2.2971251E+01  2.6315226E+01
 2.2982752E+01  2.6432621E+01
 2.2994251E+01  2.6517973E+01
