F:\20151113_APS_34IDE\\Brian\Particle1\OCV\Data_0054.tif
2-Theta Angle (Degrees)
Intensity
       2000
 5.7500005E-03  0.0000000E+00
 1.7250001E-02  0.0000000E+00
 2.8750001E-02  0.0000000E+00
 4.0250003E-02  0.0000000E+00
 5.1750004E-02  0.0000000E+00
 6.3250005E-02  0.0000000E+00
 7.4750006E-02  0.0000000E+00
 8.6250007E-02  0.0000000E+00
 9.7750008E-02  0.0000000E+00
 1.0925001E-01  0.0000000E+00
 1.2075000E-01  0.0000000E+00
 1.3225001E-01  0.0000000E+00
 1.4375001E-01  0.0000000E+00
 1.5525001E-01  0.0000000E+00
 1.6675001E-01  0.0000000E+00
 1.7825001E-01  0.0000000E+00
 1.8975002E-01  0.0000000E+00
 2.0125002E-01  0.0000000E+00
 2.1275002E-01  0.0000000E+00
 2.2425000E-01  0.0000000E+00
 2.3575000E-01  0.0000000E+00
 2.4725001E-01  0.0000000E+00
 2.5875002E-01  0.0000000E+00
 2.7025002E-01  0.0000000E+00
 2.8175002E-01  0.0000000E+00
 2.9325002E-01  0.0000000E+00
 3.0475003E-01  0.0000000E+00
 3.1625003E-01  0.0000000E+00
 3.2775003E-01  0.0000000E+00
 3.3925003E-01  0.0000000E+00
 3.5075003E-01  0.0000000E+00
 3.6225003E-01  0.0000000E+00
 3.7375003E-01  0.0000000E+00
 3.8525003E-01  0.0000000E+00
 3.9675003E-01  0.0000000E+00
 4.0825003E-01  0.0000000E+00
 4.1975003E-01  0.0000000E+00
 4.3125004E-01  0.0000000E+00
 4.4275001E-01  0.0000000E+00
 4.5425001E-01  0.0000000E+00
 4.6575001E-01  0.0000000E+00
 4.7725001E-01  0.0000000E+00
 4.8875001E-01  0.0000000E+00
 5.0025004E-01  0.0000000E+00
 5.1175004E-01  0.0000000E+00
 5.2325004E-01  0.0000000E+00
 5.3475004E-01  0.0000000E+00
 5.4625005E-01  0.0000000E+00
 5.5775005E-01  0.0000000E+00
 5.6925005E-01  0.0000000E+00
 5.8075005E-01  0.0000000E+00
 5.9225005E-01  0.0000000E+00
 6.0375005E-01  0.0000000E+00
 6.1525005E-01  0.0000000E+00
 6.2675005E-01  0.0000000E+00
 6.3825005E-01  0.0000000E+00
 6.4975005E-01  0.0000000E+00
 6.6125005E-01  0.0000000E+00
 6.7275006E-01  0.0000000E+00
 6.8425006E-01  0.0000000E+00
 6.9575006E-01  0.0000000E+00
 7.0725006E-01  0.0000000E+00
 7.1875006E-01  0.0000000E+00
 7.3025006E-01  0.0000000E+00
 7.4175006E-01  0.0000000E+00
 7.5325006E-01  0.0000000E+00
 7.6475006E-01  0.0000000E+00
 7.7625006E-01  0.0000000E+00
 7.8775007E-01  0.0000000E+00
 7.9925007E-01  0.0000000E+00
 8.1075007E-01  0.0000000E+00
 8.2225007E-01  0.0000000E+00
 8.3375007E-01  0.0000000E+00
 8.4525007E-01  0.0000000E+00
 8.5675007E-01  0.0000000E+00
 8.6825007E-01  0.0000000E+00
 8.7975001E-01  0.0000000E+00
 8.9125001E-01  0.0000000E+00
 9.0275002E-01  0.0000000E+00
 9.1425002E-01  0.0000000E+00
 9.2575002E-01  0.0000000E+00
 9.3725002E-01  0.0000000E+00
 9.4875002E-01  0.0000000E+00
 9.6025002E-01  0.0000000E+00
 9.7175002E-01  0.0000000E+00
 9.8325002E-01  0.0000000E+00
 9.9475002E-01  0.0000000E+00
 1.0062500E+00  0.0000000E+00
 1.0177500E+00  0.0000000E+00
 1.0292500E+00  0.0000000E+00
 1.0407500E+00  0.0000000E+00
 1.0522500E+00  0.0000000E+00
 1.0637500E+00  0.0000000E+00
 1.0752500E+00  0.0000000E+00
 1.0867500E+00  0.0000000E+00
 1.0982500E+00  0.0000000E+00
 1.1097500E+00  0.0000000E+00
 1.1212500E+00  0.0000000E+00
 1.1327500E+00  0.0000000E+00
 1.1442500E+00  0.0000000E+00
 1.1557500E+00  0.0000000E+00
 1.1672500E+00  0.0000000E+00
 1.1787500E+00  0.0000000E+00
 1.1902500E+00  0.0000000E+00
 1.2017500E+00  0.0000000E+00
 1.2132500E+00  0.0000000E+00
 1.2247500E+00  0.0000000E+00
 1.2362500E+00  0.0000000E+00
 1.2477500E+00  0.0000000E+00
 1.2592500E+00  0.0000000E+00
 1.2707500E+00  0.0000000E+00
 1.2822500E+00  0.0000000E+00
 1.2937500E+00  0.0000000E+00
 1.3052500E+00  0.0000000E+00
 1.3167500E+00  0.0000000E+00
 1.3282501E+00  0.0000000E+00
 1.3397501E+00  0.0000000E+00
 1.3512501E+00  0.0000000E+00
 1.3627501E+00  0.0000000E+00
 1.3742501E+00  0.0000000E+00
 1.3857501E+00  0.0000000E+00
 1.3972501E+00  0.0000000E+00
 1.4087501E+00  0.0000000E+00
 1.4202501E+00  0.0000000E+00
 1.4317501E+00  0.0000000E+00
 1.4432501E+00  0.0000000E+00
 1.4547501E+00  0.0000000E+00
 1.4662501E+00  0.0000000E+00
 1.4777501E+00  0.0000000E+00
 1.4892501E+00  0.0000000E+00
 1.5007501E+00  0.0000000E+00
 1.5122501E+00  0.0000000E+00
 1.5237501E+00  0.0000000E+00
 1.5352501E+00  0.0000000E+00
 1.5467501E+00  0.0000000E+00
 1.5582501E+00  0.0000000E+00
 1.5697501E+00  0.0000000E+00
 1.5812501E+00  0.0000000E+00
 1.5927501E+00  0.0000000E+00
 1.6042501E+00  0.0000000E+00
 1.6157501E+00  0.0000000E+00
 1.6272501E+00  0.0000000E+00
 1.6387501E+00  0.0000000E+00
 1.6502501E+00  0.0000000E+00
 1.6617501E+00  0.0000000E+00
 1.6732501E+00  0.0000000E+00
 1.6847501E+00  0.0000000E+00
 1.6962501E+00  0.0000000E+00
 1.7077501E+00  0.0000000E+00
 1.7192501E+00  0.0000000E+00
 1.7307501E+00  0.0000000E+00
 1.7422501E+00  0.0000000E+00
 1.7537501E+00  0.0000000E+00
 1.7652501E+00  0.0000000E+00
 1.7767501E+00  0.0000000E+00
 1.7882501E+00  0.0000000E+00
 1.7997501E+00  0.0000000E+00
 1.8112501E+00  0.0000000E+00
 1.8227501E+00  0.0000000E+00
 1.8342501E+00  0.0000000E+00
 1.8457501E+00  0.0000000E+00
 1.8572501E+00  0.0000000E+00
 1.8687501E+00  0.0000000E+00
 1.8802501E+00  0.0000000E+00
 1.8917501E+00  0.0000000E+00
 1.9032501E+00  0.0000000E+00
 1.9147501E+00  0.0000000E+00
 1.9262501E+00  0.0000000E+00
 1.9377501E+00  0.0000000E+00
 1.9492501E+00  0.0000000E+00
 1.9607501E+00  0.0000000E+00
 1.9722501E+00  0.0000000E+00
 1.9837501E+00  0.0000000E+00
 1.9952501E+00  0.0000000E+00
 2.0067501E+00  0.0000000E+00
 2.0182500E+00  0.0000000E+00
 2.0297501E+00  0.0000000E+00
 2.0412500E+00  0.0000000E+00
 2.0527501E+00  0.0000000E+00
 2.0642500E+00  0.0000000E+00
 2.0757501E+00  0.0000000E+00
 2.0872500E+00  0.0000000E+00
 2.0987501E+00  0.0000000E+00
 2.1102500E+00  0.0000000E+00
 2.1217501E+00  0.0000000E+00
 2.1332500E+00  0.0000000E+00
 2.1447501E+00  0.0000000E+00
 2.1562500E+00  0.0000000E+00
 2.1677501E+00  0.0000000E+00
 2.1792500E+00  0.0000000E+00
 2.1907501E+00  0.0000000E+00
 2.2022500E+00  0.0000000E+00
 2.2137501E+00  0.0000000E+00
 2.2252500E+00  0.0000000E+00
 2.2367501E+00  0.0000000E+00
 2.2482500E+00  0.0000000E+00
 2.2597501E+00  0.0000000E+00
 2.2712500E+00  0.0000000E+00
 2.2827501E+00  0.0000000E+00
 2.2942500E+00  0.0000000E+00
 2.3057501E+00  0.0000000E+00
 2.3172500E+00  0.0000000E+00
 2.3287501E+00  0.0000000E+00
 2.3402500E+00  0.0000000E+00
 2.3517501E+00  0.0000000E+00
 2.3632500E+00  0.0000000E+00
 2.3747501E+00  0.0000000E+00
 2.3862500E+00  0.0000000E+00
 2.3977501E+00  0.0000000E+00
 2.4092500E+00  0.0000000E+00
 2.4207501E+00  0.0000000E+00
 2.4322500E+00  0.0000000E+00
 2.4437501E+00  0.0000000E+00
 2.4552500E+00  0.0000000E+00
 2.4667501E+00  0.0000000E+00
 2.4782500E+00  0.0000000E+00
 2.4897501E+00  0.0000000E+00
 2.5012500E+00  0.0000000E+00
 2.5127501E+00  0.0000000E+00
 2.5242500E+00  0.0000000E+00
 2.5357502E+00  0.0000000E+00
 2.5472500E+00  0.0000000E+00
 2.5587502E+00  0.0000000E+00
 2.5702500E+00  0.0000000E+00
 2.5817502E+00  0.0000000E+00
 2.5932500E+00  0.0000000E+00
 2.6047502E+00  0.0000000E+00
 2.6162500E+00  0.0000000E+00
 2.6277502E+00  0.0000000E+00
 2.6392500E+00  0.0000000E+00
 2.6507502E+00  0.0000000E+00
 2.6622500E+00  0.0000000E+00
 2.6737502E+00  0.0000000E+00
 2.6852500E+00  0.0000000E+00
 2.6967502E+00  0.0000000E+00
 2.7082500E+00  0.0000000E+00
 2.7197502E+00  0.0000000E+00
 2.7312500E+00  0.0000000E+00
 2.7427502E+00  0.0000000E+00
 2.7542500E+00  0.0000000E+00
 2.7657502E+00  0.0000000E+00
 2.7772501E+00  0.0000000E+00
 2.7887502E+00  0.0000000E+00
 2.8002501E+00  0.0000000E+00
 2.8117502E+00  0.0000000E+00
 2.8232501E+00  3.3964447E+01
 2.8347502E+00  3.4115772E+01
 2.8462501E+00  3.3978020E+01
 2.8577502E+00  3.4294174E+01
 2.8692501E+00  3.4607403E+01
 2.8807502E+00  3.5052597E+01
 2.8922501E+00  3.4580124E+01
 2.9037502E+00  3.4757187E+01
 2.9152501E+00  3.4833244E+01
 2.9267502E+00  3.5241871E+01
 2.9382501E+00  3.5144676E+01
 2.9497502E+00  3.4986885E+01
 2.9612501E+00  3.5076302E+01
 2.9727502E+00  3.4830654E+01
 2.9842501E+00  3.4929153E+01
 2.9957502E+00  3.4898251E+01
 3.0072501E+00  3.4980530E+01
 3.0187502E+00  3.5057499E+01
 3.0302501E+00  3.5107712E+01
 3.0417502E+00  3.5362663E+01
 3.0532501E+00  3.5458290E+01
 3.0647502E+00  3.5842525E+01
 3.0762501E+00  3.5947807E+01
 3.0877502E+00  3.6355206E+01
 3.0992501E+00  3.6233089E+01
 3.1107502E+00  3.6095444E+01
 3.1222501E+00  3.5888451E+01
 3.1337502E+00  3.5767101E+01
 3.1452501E+00  3.6269932E+01
 3.1567502E+00  3.6306095E+01
 3.1682501E+00  3.6466099E+01
 3.1797502E+00  3.6198566E+01
 3.1912501E+00  3.6125175E+01
 3.2027502E+00  3.6141293E+01
 3.2142501E+00  3.5904465E+01
 3.2257502E+00  3.5932072E+01
 3.2372501E+00  3.5328098E+01
 3.2487502E+00  3.4991276E+01
 3.2602501E+00  3.4779655E+01
 3.2717502E+00  3.4708313E+01
 3.2832501E+00  3.4756584E+01
 3.2947502E+00  3.4742931E+01
 3.3062501E+00  3.4821556E+01
 3.3177502E+00  3.4607441E+01
 3.3292501E+00  3.4376518E+01
 3.3407502E+00  3.4064404E+01
 3.3522501E+00  3.4249035E+01
 3.3637502E+00  3.4621010E+01
 3.3752501E+00  3.4923096E+01
 3.3867502E+00  3.5074890E+01
 3.3982501E+00  3.4938774E+01
 3.4097502E+00  3.4636566E+01
 3.4212501E+00  3.4496914E+01
 3.4327502E+00  3.4402740E+01
 3.4442501E+00  3.4642548E+01
 3.4557502E+00  3.4683651E+01
 3.4672501E+00  3.4455410E+01
 3.4787502E+00  3.4562195E+01
 3.4902501E+00  3.4583149E+01
 3.5017502E+00  3.4690945E+01
 3.5132501E+00  3.4590229E+01
 3.5247502E+00  3.4399117E+01
 3.5362501E+00  3.4441063E+01
 3.5477502E+00  3.4555279E+01
 3.5592501E+00  3.4654255E+01
 3.5707502E+00  3.4608967E+01
 3.5822501E+00  3.4282543E+01
 3.5937502E+00  3.4213974E+01
 3.6052501E+00  3.3906670E+01
 3.6167502E+00  3.3881310E+01
 3.6282501E+00  3.3592880E+01
 3.6397502E+00  3.3685505E+01
 3.6512501E+00  3.3830639E+01
 3.6627502E+00  3.3985115E+01
 3.6742501E+00  3.4027100E+01
 3.6857502E+00  3.4160927E+01
 3.6972501E+00  3.3965195E+01
 3.7087502E+00  3.4057541E+01
 3.7202501E+00  3.3817928E+01
 3.7317502E+00  3.3726955E+01
 3.7432501E+00  3.3563683E+01
 3.7547503E+00  3.3384876E+01
 3.7662501E+00  3.3303612E+01
 3.7777503E+00  3.3126621E+01
 3.7892501E+00  3.3003914E+01
 3.8007503E+00  3.3005905E+01
 3.8122501E+00  3.3090775E+01
 3.8237503E+00  3.3043194E+01
 3.8352501E+00  3.2814049E+01
 3.8467503E+00  3.2666187E+01
 3.8582501E+00  3.2481289E+01
 3.8697503E+00  3.2532902E+01
 3.8812501E+00  3.2505035E+01
 3.8927503E+00  3.2555260E+01
 3.9042501E+00  3.2554485E+01
 3.9157503E+00  3.2745728E+01
 3.9272501E+00  3.2806244E+01
 3.9387503E+00  3.3058136E+01
 3.9502501E+00  3.3087921E+01
 3.9617503E+00  3.3172543E+01
 3.9732502E+00  3.3051334E+01
 3.9847503E+00  3.3181759E+01
 3.9962502E+00  3.3259010E+01
 4.0077500E+00  3.3311470E+01
 4.0192504E+00  3.3290985E+01
 4.0307503E+00  3.3178829E+01
 4.0422502E+00  3.3302959E+01
 4.0537500E+00  3.3262638E+01
 4.0652504E+00  3.3183559E+01
 4.0767503E+00  3.3002956E+01
 4.0882502E+00  3.2828739E+01
 4.0997500E+00  3.2682499E+01
 4.1112504E+00  3.2889763E+01
 4.1227503E+00  3.2955856E+01
 4.1342502E+00  3.3113052E+01
 4.1457500E+00  3.3086433E+01
 4.1572504E+00  3.2961937E+01
 4.1687503E+00  3.2769711E+01
 4.1802502E+00  3.2418465E+01
 4.1917500E+00  3.2477268E+01
 4.2032504E+00  3.2505840E+01
 4.2147503E+00  3.2702068E+01
 4.2262502E+00  3.2796078E+01
 4.2377501E+00  3.2746773E+01
 4.2492504E+00  3.2889885E+01
 4.2607503E+00  3.2840183E+01
 4.2722502E+00  3.2665718E+01
 4.2837501E+00  3.2566101E+01
 4.2952504E+00  3.2391033E+01
 4.3067503E+00  3.2588230E+01
 4.3182502E+00  3.2658527E+01
 4.3297501E+00  3.2586941E+01
 4.3412504E+00  3.2483387E+01
 4.3527503E+00  3.2297531E+01
 4.3642502E+00  3.2365047E+01
 4.3757501E+00  3.2293888E+01
 4.3872504E+00  3.2351685E+01
 4.3987503E+00  3.2412422E+01
 4.4102502E+00  3.2576000E+01
 4.4217501E+00  3.2662048E+01
 4.4332504E+00  3.2837650E+01
 4.4447503E+00  3.2923256E+01
 4.4562502E+00  3.2920815E+01
 4.4677501E+00  3.2878468E+01
 4.4792504E+00  3.2749256E+01
 4.4907503E+00  3.2702187E+01
 4.5022502E+00  3.2567776E+01
 4.5137501E+00  3.2482082E+01
 4.5252504E+00  3.2435280E+01
 4.5367503E+00  3.2381794E+01
 4.5482502E+00  3.2449604E+01
 4.5597501E+00  3.2664207E+01
 4.5712504E+00  3.2831944E+01
 4.5827503E+00  3.2872112E+01
 4.5942502E+00  3.2848499E+01
 4.6057501E+00  3.2835236E+01
 4.6172504E+00  3.2943790E+01
 4.6287503E+00  3.2908031E+01
 4.6402502E+00  3.3157413E+01
 4.6517501E+00  3.3158676E+01
 4.6632504E+00  3.3358643E+01
 4.6747503E+00  3.3278233E+01
 4.6862502E+00  3.3292263E+01
 4.6977501E+00  3.3199036E+01
 4.7092505E+00  3.3254360E+01
 4.7207503E+00  3.3354618E+01
 4.7322502E+00  3.3371101E+01
 4.7437501E+00  3.3250568E+01
 4.7552505E+00  3.3047565E+01
 4.7667503E+00  3.2890911E+01
 4.7782502E+00  3.2779854E+01
 4.7897501E+00  3.2538181E+01
 4.8012505E+00  3.2524151E+01
 4.8127503E+00  3.2430256E+01
 4.8242502E+00  3.2608562E+01
 4.8357501E+00  3.2676125E+01
 4.8472505E+00  3.2862667E+01
 4.8587503E+00  3.3181007E+01
 4.8702502E+00  3.3234608E+01
 4.8817501E+00  3.3410507E+01
 4.8932505E+00  3.3380325E+01
 4.9047503E+00  3.3405643E+01
 4.9162502E+00  3.3369823E+01
 4.9277501E+00  3.3336681E+01
 4.9392505E+00  3.3298973E+01
 4.9507504E+00  3.3289608E+01
 4.9622502E+00  3.3279442E+01
 4.9737501E+00  3.3340878E+01
 4.9852505E+00  3.3429386E+01
 4.9967504E+00  3.3431053E+01
 5.0082502E+00  3.3453526E+01
 5.0197501E+00  3.3482750E+01
 5.0312505E+00  3.3575249E+01
 5.0427504E+00  3.3608574E+01
 5.0542502E+00  3.3607533E+01
 5.0657501E+00  3.3652882E+01
 5.0772505E+00  3.3787563E+01
 5.0887504E+00  3.3890499E+01
 5.1002502E+00  3.3933590E+01
 5.1117501E+00  3.3918121E+01
 5.1232505E+00  3.3908875E+01
 5.1347504E+00  3.3902664E+01
 5.1462502E+00  3.4013897E+01
 5.1577501E+00  3.4083534E+01
 5.1692505E+00  3.4224194E+01
 5.1807504E+00  3.4320423E+01
 5.1922503E+00  3.4391827E+01
 5.2037501E+00  3.4393002E+01
 5.2152505E+00  3.4276657E+01
 5.2267504E+00  3.4256733E+01
 5.2382503E+00  3.4176865E+01
 5.2497501E+00  3.4080750E+01
 5.2612505E+00  3.4152195E+01
 5.2727504E+00  3.4116463E+01
 5.2842503E+00  3.4322090E+01
 5.2957501E+00  3.4364231E+01
 5.3072500E+00  3.4417900E+01
 5.3187504E+00  3.4561749E+01
 5.3302503E+00  3.4536362E+01
 5.3417501E+00  3.4524220E+01
 5.3532500E+00  3.4496216E+01
 5.3647504E+00  3.4550339E+01
 5.3762503E+00  3.4658585E+01
 5.3877501E+00  3.4728207E+01
 5.3992500E+00  3.4669739E+01
 5.4107504E+00  3.4705284E+01
 5.4222503E+00  3.4619690E+01
 5.4337502E+00  3.4534393E+01
 5.4452500E+00  3.4610622E+01
 5.4567504E+00  3.4648506E+01
 5.4682503E+00  3.4777927E+01
 5.4797502E+00  3.4857590E+01
 5.4912500E+00  3.4892174E+01
 5.5027504E+00  3.4927673E+01
 5.5142503E+00  3.5010612E+01
 5.5257502E+00  3.5132401E+01
 5.5372500E+00  3.5251774E+01
 5.5487504E+00  3.5311264E+01
 5.5602503E+00  3.5306896E+01
 5.5717502E+00  3.5316242E+01
 5.5832500E+00  3.5280201E+01
 5.5947504E+00  3.5290958E+01
 5.6062503E+00  3.5307980E+01
 5.6177502E+00  3.5271168E+01
 5.6292500E+00  3.5205814E+01
 5.6407504E+00  3.5109200E+01
 5.6522503E+00  3.5225372E+01
 5.6637502E+00  3.5286442E+01
 5.6752501E+00  3.5363541E+01
 5.6867504E+00  3.5296921E+01
 5.6982503E+00  3.5200573E+01
 5.7097502E+00  3.5190308E+01
 5.7212501E+00  3.5206341E+01
 5.7327504E+00  3.5247139E+01
 5.7442503E+00  3.5310417E+01
 5.7557502E+00  3.5367218E+01
 5.7672501E+00  3.5538597E+01
 5.7787504E+00  3.5618851E+01
 5.7902503E+00  3.5697590E+01
 5.8017502E+00  3.5699993E+01
 5.8132501E+00  3.5701691E+01
 5.8247504E+00  3.5679668E+01
 5.8362503E+00  3.5721596E+01
 5.8477502E+00  3.5750633E+01
 5.8592501E+00  3.5702198E+01
 5.8707504E+00  3.5769867E+01
 5.8822503E+00  3.5926224E+01
 5.8937502E+00  3.6205070E+01
 5.9052501E+00  3.6396523E+01
 5.9167504E+00  3.6642578E+01
 5.9282503E+00  3.6922764E+01
 5.9397502E+00  3.7682877E+01
 5.9512501E+00  3.8334499E+01
 5.9627504E+00  3.9417526E+01
 5.9742503E+00  3.9966656E+01
 5.9857502E+00  4.0421322E+01
 5.9972501E+00  4.0037220E+01
 6.0087504E+00  3.9440525E+01
 6.0202503E+00  3.8433460E+01
 6.0317502E+00  3.7733387E+01
 6.0432501E+00  3.7196228E+01
 6.0547504E+00  3.6946350E+01
 6.0662503E+00  3.6901352E+01
 6.0777502E+00  3.6780708E+01
 6.0892501E+00  3.6820503E+01
 6.1007504E+00  3.6788071E+01
 6.1122503E+00  3.6832340E+01
 6.1237502E+00  3.6857853E+01
 6.1352501E+00  3.6837818E+01
 6.1467505E+00  3.6824440E+01
 6.1582503E+00  3.6850193E+01
 6.1697502E+00  3.6908955E+01
 6.1812501E+00  3.7088726E+01
 6.1927505E+00  3.7238590E+01
 6.2042503E+00  3.7299580E+01
 6.2157502E+00  3.7361885E+01
 6.2272501E+00  3.7345402E+01
 6.2387505E+00  3.7337013E+01
 6.2502503E+00  3.7396065E+01
 6.2617502E+00  3.7380264E+01
 6.2732501E+00  3.7472885E+01
 6.2847505E+00  3.7597580E+01
 6.2962503E+00  3.7751366E+01
 6.3077502E+00  3.7898033E+01
 6.3192501E+00  3.7912773E+01
 6.3307505E+00  3.7964272E+01
 6.3422503E+00  3.7955082E+01
 6.3537502E+00  3.7996567E+01
 6.3652501E+00  3.8004398E+01
 6.3767505E+00  3.8070316E+01
 6.3882504E+00  3.8186470E+01
 6.3997502E+00  3.8282417E+01
 6.4112501E+00  3.8427681E+01
 6.4227505E+00  3.8514641E+01
 6.4342504E+00  3.8614838E+01
 6.4457502E+00  3.8772594E+01
 6.4572501E+00  3.8829388E+01
 6.4687505E+00  3.8988579E+01
 6.4802504E+00  3.9025814E+01
 6.4917502E+00  3.9169853E+01
 6.5032501E+00  3.9293076E+01
 6.5147505E+00  3.9430443E+01
 6.5262504E+00  3.9587841E+01
 6.5377502E+00  3.9695660E+01
 6.5492501E+00  3.9766994E+01
 6.5607505E+00  3.9809063E+01
 6.5722504E+00  3.9800049E+01
 6.5837502E+00  3.9820469E+01
 6.5952501E+00  3.9815987E+01
 6.6067505E+00  3.9925121E+01
 6.6182504E+00  4.0024208E+01
 6.6297503E+00  4.0144848E+01
 6.6412501E+00  4.0167274E+01
 6.6527505E+00  4.0220673E+01
 6.6642504E+00  4.0269421E+01
 6.6757503E+00  4.0439476E+01
 6.6872501E+00  4.0516624E+01
 6.6987505E+00  4.0564938E+01
 6.7102504E+00  4.0702641E+01
 6.7217503E+00  4.0893429E+01
 6.7332501E+00  4.1093952E+01
 6.7447505E+00  4.1198521E+01
 6.7562504E+00  4.1218376E+01
 6.7677503E+00  4.1301136E+01
 6.7792501E+00  4.1264011E+01
 6.7907505E+00  4.1339115E+01
 6.8022504E+00  4.1363400E+01
 6.8137503E+00  4.1469650E+01
 6.8252501E+00  4.1522522E+01
 6.8367505E+00  4.1576054E+01
 6.8482504E+00  4.1629726E+01
 6.8597503E+00  4.1731010E+01
 6.8712502E+00  4.1804291E+01
 6.8827505E+00  4.1923962E+01
 6.8942504E+00  4.2053326E+01
 6.9057503E+00  4.2085438E+01
 6.9172502E+00  4.2148201E+01
 6.9287505E+00  4.2129135E+01
 6.9402504E+00  4.2301903E+01
 6.9517503E+00  4.2341797E+01
 6.9632502E+00  4.2347069E+01
 6.9747505E+00  4.2391384E+01
 6.9862504E+00  4.2395020E+01
 6.9977503E+00  4.2427898E+01
 7.0092502E+00  4.2510704E+01
 7.0207505E+00  4.2657249E+01
 7.0322504E+00  4.2847431E+01
 7.0437503E+00  4.2992207E+01
 7.0552502E+00  4.3015533E+01
 7.0667505E+00  4.3061489E+01
 7.0782504E+00  4.2988441E+01
 7.0897503E+00  4.3086815E+01
 7.1012502E+00  4.3254368E+01
 7.1127505E+00  4.3429928E+01
 7.1242504E+00  4.3467228E+01
 7.1357503E+00  4.3274433E+01
 7.1472502E+00  4.3210743E+01
 7.1587505E+00  4.3272469E+01
 7.1702504E+00  4.3467102E+01
 7.1817503E+00  4.3625988E+01
 7.1932502E+00  4.3797298E+01
 7.2047505E+00  4.3831894E+01
 7.2162504E+00  4.3821613E+01
 7.2277503E+00  4.3777233E+01
 7.2392502E+00  4.3739609E+01
 7.2507505E+00  4.3750294E+01
 7.2622504E+00  4.3658043E+01
 7.2737503E+00  4.3764671E+01
 7.2852502E+00  4.3756287E+01
 7.2967505E+00  4.3868076E+01
 7.3082504E+00  4.3902229E+01
 7.3197503E+00  4.3974682E+01
 7.3312502E+00  4.4024639E+01
 7.3427505E+00  4.3982765E+01
 7.3542504E+00  4.4010597E+01
 7.3657503E+00  4.3898838E+01
 7.3772502E+00  4.3868248E+01
 7.3887506E+00  4.3844707E+01
 7.4002504E+00  4.4013264E+01
 7.4117503E+00  4.4295773E+01
 7.4232502E+00  4.4442020E+01
 7.4347506E+00  4.4491104E+01
 7.4462504E+00  4.4382153E+01
 7.4577503E+00  4.4302994E+01
 7.4692502E+00  4.4261322E+01
 7.4807506E+00  4.4304970E+01
 7.4922504E+00  4.4325260E+01
 7.5037503E+00  4.4363499E+01
 7.5152502E+00  4.4338295E+01
 7.5267506E+00  4.4417984E+01
 7.5382504E+00  4.4385658E+01
 7.5497503E+00  4.4359222E+01
 7.5612502E+00  4.4302551E+01
 7.5727506E+00  4.4316959E+01
 7.5842505E+00  4.4367302E+01
 7.5957503E+00  4.4404251E+01
 7.6072502E+00  4.4435352E+01
 7.6187506E+00  4.4529366E+01
 7.6302505E+00  4.4612904E+01
 7.6417503E+00  4.4647686E+01
 7.6532502E+00  4.4635807E+01
 7.6647506E+00  4.4589828E+01
 7.6762505E+00  4.4567276E+01
 7.6877503E+00  4.4415260E+01
 7.6992502E+00  4.4354683E+01
 7.7107506E+00  4.4273682E+01
 7.7222505E+00  4.4343647E+01
 7.7337503E+00  4.4375511E+01
 7.7452502E+00  4.4494808E+01
 7.7567506E+00  4.4549496E+01
 7.7682505E+00  4.4486191E+01
 7.7797503E+00  4.4367317E+01
 7.7912502E+00  4.4278687E+01
 7.8027506E+00  4.4220009E+01
 7.8142505E+00  4.4236652E+01
 7.8257504E+00  4.4248825E+01
 7.8372502E+00  4.4399414E+01
 7.8487506E+00  4.4474876E+01
 7.8602505E+00  4.4551086E+01
 7.8717504E+00  4.4542252E+01
 7.8832502E+00  4.4566135E+01
 7.8947506E+00  4.4433357E+01
 7.9062505E+00  4.4392456E+01
 7.9177504E+00  4.4324074E+01
 7.9292502E+00  4.4273323E+01
 7.9407506E+00  4.4220882E+01
 7.9522505E+00  4.4044941E+01
 7.9637504E+00  4.3893776E+01
 7.9752502E+00  4.3660973E+01
 7.9867506E+00  4.3542885E+01
 7.9982505E+00  4.3491428E+01
 8.0097504E+00  4.3479248E+01
 8.0212507E+00  4.3487259E+01
 8.0327501E+00  4.3560902E+01
 8.0442505E+00  4.3638153E+01
 8.0557508E+00  4.3648708E+01
 8.0672503E+00  4.3451698E+01
 8.0787506E+00  4.3334324E+01
 8.0902500E+00  4.3199207E+01
 8.1017504E+00  4.3117313E+01
 8.1132507E+00  4.2953659E+01
 8.1247501E+00  4.2760250E+01
 8.1362505E+00  4.2680191E+01
 8.1477509E+00  4.2533062E+01
 8.1592503E+00  4.2441757E+01
 8.1707506E+00  4.2374088E+01
 8.1822500E+00  4.2271160E+01
 8.1937504E+00  4.2142773E+01
 8.2052507E+00  4.1983387E+01
 8.2167501E+00  4.1886490E+01
 8.2282505E+00  4.1840336E+01
 8.2397509E+00  4.1757401E+01
 8.2512503E+00  4.1639980E+01
 8.2627506E+00  4.1469891E+01
 8.2742500E+00  4.1252094E+01
 8.2857504E+00  4.0998203E+01
 8.2972507E+00  4.0785885E+01
 8.3087502E+00  4.0582119E+01
 8.3202505E+00  4.0470554E+01
 8.3317509E+00  4.0353878E+01
 8.3432503E+00  4.0271332E+01
 8.3547506E+00  4.0172653E+01
 8.3662500E+00  4.0068584E+01
 8.3777504E+00  3.9952702E+01
 8.3892508E+00  3.9838203E+01
 8.4007502E+00  3.9736965E+01
 8.4122505E+00  3.9603329E+01
 8.4237509E+00  3.9407177E+01
 8.4352503E+00  3.9193249E+01
 8.4467506E+00  3.8953308E+01
 8.4582500E+00  3.8776653E+01
 8.4697504E+00  3.8578007E+01
 8.4812508E+00  3.8417568E+01
 8.4927502E+00  3.8233204E+01
 8.5042505E+00  3.8228394E+01
 8.5157509E+00  3.8180588E+01
 8.5272503E+00  3.8040958E+01
 8.5387506E+00  3.8284473E+01
 8.5502501E+00  3.8051117E+01
 8.5617504E+00  3.8267670E+01
 8.5732508E+00  3.8183414E+01
 8.5847502E+00  3.7838375E+01
 8.5962505E+00  3.7491863E+01
 8.6077509E+00  3.6712643E+01
 8.6192503E+00  3.6632599E+01
 8.6307507E+00  3.6389160E+01
 8.6422501E+00  3.6168034E+01
 8.6537504E+00  3.5922745E+01
 8.6652508E+00  3.5687550E+01
 8.6767502E+00  3.5473408E+01
 8.6882505E+00  3.5342819E+01
 8.6997509E+00  3.5180161E+01
 8.7112503E+00  3.4975807E+01
 8.7227507E+00  3.4733902E+01
 8.7342501E+00  3.4444008E+01
 8.7457504E+00  3.4223125E+01
 8.7572508E+00  3.4057205E+01
 8.7687502E+00  3.3920986E+01
 8.7802505E+00  3.3738876E+01
 8.7917500E+00  3.3657207E+01
 8.8032503E+00  3.3538277E+01
 8.8147507E+00  3.3426483E+01
 8.8262501E+00  3.3260849E+01
 8.8377504E+00  3.3120865E+01
 8.8492508E+00  3.2924240E+01
 8.8607502E+00  3.2787529E+01
 8.8722506E+00  3.2608341E+01
 8.8837500E+00  3.2507282E+01
 8.8952503E+00  3.2273365E+01
 8.9067507E+00  3.2139263E+01
 8.9182501E+00  3.2024014E+01
 8.9297504E+00  3.1908125E+01
 8.9412508E+00  3.1776871E+01
 8.9527502E+00  3.1550236E+01
 8.9642506E+00  3.1388178E+01
 8.9757500E+00  3.1183035E+01
 8.9872503E+00  3.1076868E+01
 8.9987507E+00  3.0884932E+01
 9.0102501E+00  3.0729807E+01
 9.0217505E+00  3.0541132E+01
 9.0332508E+00  3.0413149E+01
 9.0447502E+00  3.0264868E+01
 9.0562506E+00  3.0112247E+01
 9.0677500E+00  3.0082277E+01
 9.0792503E+00  3.0034882E+01
 9.0907507E+00  2.9933159E+01
 9.1022501E+00  2.9732941E+01
 9.1137505E+00  2.9511404E+01
 9.1252508E+00  2.9309587E+01
 9.1367502E+00  2.9161993E+01
 9.1482506E+00  2.9124949E+01
 9.1597500E+00  2.9141783E+01
 9.1712503E+00  2.9101440E+01
 9.1827507E+00  2.8986320E+01
 9.1942501E+00  2.8853096E+01
 9.2057505E+00  2.8690224E+01
 9.2172508E+00  2.8526667E+01
 9.2287502E+00  2.8330822E+01
 9.2402506E+00  2.8248163E+01
 9.2517500E+00  2.8141949E+01
 9.2632504E+00  2.8110773E+01
 9.2747507E+00  2.8047113E+01
 9.2862501E+00  2.7953142E+01
 9.2977505E+00  2.7844681E+01
 9.3092508E+00  2.7666641E+01
 9.3207502E+00  2.7570189E+01
 9.3322506E+00  2.7460915E+01
 9.3437500E+00  2.7377859E+01
 9.3552504E+00  2.7262451E+01
 9.3667507E+00  2.7224472E+01
 9.3782501E+00  2.7186821E+01
 9.3897505E+00  2.7170122E+01
 9.4012508E+00  2.7110809E+01
 9.4127502E+00  2.6978283E+01
 9.4242506E+00  2.6857870E+01
 9.4357500E+00  2.6770596E+01
 9.4472504E+00  2.6701082E+01
 9.4587507E+00  2.6677042E+01
 9.4702501E+00  2.6605059E+01
 9.4817505E+00  2.6588581E+01
 9.4932508E+00  2.6491928E+01
 9.5047503E+00  2.6384937E+01
 9.5162506E+00  2.6303925E+01
 9.5277500E+00  2.6234869E+01
 9.5392504E+00  2.6145466E+01
 9.5507507E+00  2.6017258E+01
 9.5622501E+00  2.5918102E+01
 9.5737505E+00  2.5790613E+01
 9.5852509E+00  2.5676950E+01
 9.5967503E+00  2.5646927E+01
 9.6082506E+00  2.5594812E+01
 9.6197500E+00  2.5580822E+01
 9.6312504E+00  2.5540497E+01
 9.6427507E+00  2.5537804E+01
 9.6542501E+00  2.5515373E+01
 9.6657505E+00  2.5410917E+01
 9.6772509E+00  2.5324677E+01
 9.6887503E+00  2.5302128E+01
 9.7002506E+00  2.5310375E+01
 9.7117500E+00  2.5332958E+01
 9.7232504E+00  2.5323664E+01
 9.7347507E+00  2.5192400E+01
 9.7462502E+00  2.5166914E+01
 9.7577505E+00  2.5037590E+01
 9.7692509E+00  2.5062435E+01
 9.7807503E+00  2.4950239E+01
 9.7922506E+00  2.4892288E+01
 9.8037500E+00  2.4845028E+01
 9.8152504E+00  2.4841642E+01
 9.8267508E+00  2.4785601E+01
 9.8382502E+00  2.4747316E+01
 9.8497505E+00  2.4700129E+01
 9.8612509E+00  2.4704370E+01
 9.8727503E+00  2.4753767E+01
 9.8842506E+00  2.4749920E+01
 9.8957500E+00  2.4813065E+01
 9.9072504E+00  2.4728708E+01
 9.9187508E+00  2.4764984E+01
 9.9302502E+00  2.4705765E+01
 9.9417505E+00  2.4644886E+01
 9.9532509E+00  2.4503952E+01
 9.9647503E+00  2.4435717E+01
 9.9762506E+00  2.4398594E+01
 9.9877501E+00  2.4375397E+01
 9.9992504E+00  2.4335962E+01
 1.0010751E+01  2.4250084E+01
 1.0022250E+01  2.4150923E+01
 1.0033751E+01  2.4114758E+01
 1.0045251E+01  2.4102016E+01
 1.0056750E+01  2.4104069E+01
 1.0068251E+01  2.4041363E+01
 1.0079750E+01  2.4053522E+01
 1.0091250E+01  2.4034498E+01
 1.0102751E+01  2.3992250E+01
 1.0114250E+01  2.3958050E+01
 1.0125751E+01  2.3964371E+01
 1.0137251E+01  2.3992237E+01
 1.0148750E+01  2.4024214E+01
 1.0160251E+01  2.4034906E+01
 1.0171750E+01  2.4022890E+01
 1.0183250E+01  2.3933929E+01
 1.0194751E+01  2.3801317E+01
 1.0206250E+01  2.3686850E+01
 1.0217751E+01  2.3604174E+01
 1.0229251E+01  2.3608274E+01
 1.0240750E+01  2.3604534E+01
 1.0252251E+01  2.3638262E+01
 1.0263750E+01  2.3633741E+01
 1.0275250E+01  2.3597950E+01
 1.0286751E+01  2.3473322E+01
 1.0298250E+01  2.3378498E+01
 1.0309751E+01  2.3253571E+01
 1.0321251E+01  2.3227531E+01
 1.0332750E+01  2.3200418E+01
 1.0344251E+01  2.3217405E+01
 1.0355750E+01  2.3206650E+01
 1.0367250E+01  2.3185675E+01
 1.0378751E+01  2.3228678E+01
 1.0390250E+01  2.3328449E+01
 1.0401751E+01  2.3403906E+01
 1.0413251E+01  2.3422573E+01
 1.0424750E+01  2.3342627E+01
 1.0436251E+01  2.3267649E+01
 1.0447750E+01  2.3194330E+01
 1.0459250E+01  2.3135939E+01
 1.0470751E+01  2.3148958E+01
 1.0482250E+01  2.3130836E+01
 1.0493751E+01  2.3195837E+01
 1.0505251E+01  2.3167624E+01
 1.0516750E+01  2.3159210E+01
 1.0528251E+01  2.3052858E+01
 1.0539750E+01  2.2976219E+01
 1.0551250E+01  2.2936152E+01
 1.0562751E+01  2.3004162E+01
 1.0574250E+01  2.3027626E+01
 1.0585751E+01  2.3046377E+01
 1.0597251E+01  2.3001396E+01
 1.0608750E+01  2.3004736E+01
 1.0620251E+01  2.2978806E+01
 1.0631750E+01  2.2955492E+01
 1.0643250E+01  2.2932499E+01
 1.0654751E+01  2.2933624E+01
 1.0666250E+01  2.2941826E+01
 1.0677751E+01  2.2933956E+01
 1.0689251E+01  2.2909798E+01
 1.0700750E+01  2.2875292E+01
 1.0712251E+01  2.2877909E+01
 1.0723750E+01  2.2902342E+01
 1.0735250E+01  2.2904598E+01
 1.0746751E+01  2.2880856E+01
 1.0758250E+01  2.2856157E+01
 1.0769751E+01  2.2884827E+01
 1.0781251E+01  2.2871916E+01
 1.0792750E+01  2.2817871E+01
 1.0804251E+01  2.2741186E+01
 1.0815750E+01  2.2668318E+01
 1.0827250E+01  2.2671209E+01
 1.0838751E+01  2.2622211E+01
 1.0850250E+01  2.2684362E+01
 1.0861751E+01  2.2682373E+01
 1.0873251E+01  2.2738207E+01
 1.0884750E+01  2.2684319E+01
 1.0896251E+01  2.2630270E+01
 1.0907750E+01  2.2599499E+01
 1.0919250E+01  2.2607590E+01
 1.0930751E+01  2.2706059E+01
 1.0942250E+01  2.2692957E+01
 1.0953751E+01  2.2670454E+01
 1.0965251E+01  2.2577259E+01
 1.0976750E+01  2.2560518E+01
 1.0988251E+01  2.2503014E+01
 1.0999750E+01  2.2454987E+01
 1.1011250E+01  2.2420813E+01
 1.1022751E+01  2.2410164E+01
 1.1034250E+01  2.2403877E+01
 1.1045751E+01  2.2372627E+01
 1.1057251E+01  2.2396965E+01
 1.1068750E+01  2.2382479E+01
 1.1080251E+01  2.2358559E+01
 1.1091750E+01  2.2365181E+01
 1.1103251E+01  2.2372133E+01
 1.1114751E+01  2.2417019E+01
 1.1126250E+01  2.2413315E+01
 1.1137751E+01  2.2460209E+01
 1.1149251E+01  2.2523590E+01
 1.1160750E+01  2.2528244E+01
 1.1172251E+01  2.2504311E+01
 1.1183750E+01  2.2411146E+01
 1.1195251E+01  2.2374872E+01
 1.1206751E+01  2.2343937E+01
 1.1218250E+01  2.2358217E+01
 1.1229751E+01  2.2362589E+01
 1.1241251E+01  2.2332472E+01
 1.1252750E+01  2.2351763E+01
 1.1264251E+01  2.2328024E+01
 1.1275750E+01  2.2395990E+01
 1.1287251E+01  2.2363003E+01
 1.1298751E+01  2.2364643E+01
 1.1310250E+01  2.2321012E+01
 1.1321751E+01  2.2316359E+01
 1.1333251E+01  2.2369467E+01
 1.1344750E+01  2.2364532E+01
 1.1356251E+01  2.2423532E+01
 1.1367750E+01  2.2496483E+01
 1.1379251E+01  2.2488056E+01
 1.1390751E+01  2.2487959E+01
 1.1402250E+01  2.2531651E+01
 1.1413751E+01  2.2580458E+01
 1.1425251E+01  2.2601234E+01
 1.1436750E+01  2.2564110E+01
 1.1448251E+01  2.2620562E+01
 1.1459750E+01  2.2631929E+01
 1.1471251E+01  2.2565186E+01
 1.1482751E+01  2.2496569E+01
 1.1494250E+01  2.2487991E+01
 1.1505751E+01  2.2492050E+01
 1.1517251E+01  2.2596560E+01
 1.1528750E+01  2.2798555E+01
 1.1540251E+01  2.3060307E+01
 1.1551750E+01  2.3423374E+01
 1.1563251E+01  2.3802895E+01
 1.1574751E+01  2.4051062E+01
 1.1586250E+01  2.4282219E+01
 1.1597751E+01  2.4314035E+01
 1.1609251E+01  2.4185301E+01
 1.1620750E+01  2.4097143E+01
 1.1632251E+01  2.3798975E+01
 1.1643750E+01  2.3483585E+01
 1.1655251E+01  2.3073767E+01
 1.1666751E+01  2.2727198E+01
 1.1678250E+01  2.2660187E+01
 1.1689751E+01  2.2478434E+01
 1.1701251E+01  2.2438959E+01
 1.1712750E+01  2.2392365E+01
 1.1724251E+01  2.2344990E+01
 1.1735750E+01  2.2352486E+01
 1.1747251E+01  2.2342087E+01
 1.1758751E+01  2.2355137E+01
 1.1770250E+01  2.2350622E+01
 1.1781751E+01  2.2329918E+01
 1.1793251E+01  2.2330481E+01
 1.1804750E+01  2.2284641E+01
 1.1816251E+01  2.2299337E+01
 1.1827750E+01  2.2293833E+01
 1.1839251E+01  2.2323202E+01
 1.1850751E+01  2.2285395E+01
 1.1862250E+01  2.2275314E+01
 1.1873751E+01  2.2281765E+01
 1.1885251E+01  2.2282028E+01
 1.1896750E+01  2.2299227E+01
 1.1908251E+01  2.2299116E+01
 1.1919750E+01  2.2404943E+01
 1.1931251E+01  2.2425915E+01
 1.1942751E+01  2.2482452E+01
 1.1954250E+01  2.2489264E+01
 1.1965751E+01  2.2520189E+01
 1.1977251E+01  2.2557148E+01
 1.1988750E+01  2.2595434E+01
 1.2000251E+01  2.2594975E+01
 1.2011750E+01  2.2645924E+01
 1.2023251E+01  2.2617893E+01
 1.2034751E+01  2.2682789E+01
 1.2046250E+01  2.2692352E+01
 1.2057751E+01  2.2710754E+01
 1.2069251E+01  2.2754288E+01
 1.2080750E+01  2.2814186E+01
 1.2092251E+01  2.2893301E+01
 1.2103750E+01  2.3001875E+01
 1.2115251E+01  2.2985374E+01
 1.2126751E+01  2.2953030E+01
 1.2138250E+01  2.2803934E+01
 1.2149751E+01  2.2689953E+01
 1.2161251E+01  2.2609035E+01
 1.2172750E+01  2.2527899E+01
 1.2184251E+01  2.2527487E+01
 1.2195750E+01  2.2474508E+01
 1.2207251E+01  2.2489094E+01
 1.2218751E+01  2.2460672E+01
 1.2230250E+01  2.2470299E+01
 1.2241751E+01  2.2389040E+01
 1.2253251E+01  2.2339287E+01
 1.2264750E+01  2.2317875E+01
 1.2276251E+01  2.2398428E+01
 1.2287750E+01  2.2466604E+01
 1.2299251E+01  2.2512918E+01
 1.2310751E+01  2.2525797E+01
 1.2322250E+01  2.2497978E+01
 1.2333751E+01  2.2458529E+01
 1.2345250E+01  2.2363451E+01
 1.2356750E+01  2.2365061E+01
 1.2368251E+01  2.2360870E+01
 1.2379750E+01  2.2445223E+01
 1.2391251E+01  2.2483633E+01
 1.2402751E+01  2.2457640E+01
 1.2414250E+01  2.2441309E+01
 1.2425751E+01  2.2452888E+01
 1.2437250E+01  2.2486650E+01
 1.2448750E+01  2.2537155E+01
 1.2460251E+01  2.2544640E+01
 1.2471750E+01  2.2566528E+01
 1.2483251E+01  2.2571529E+01
 1.2494751E+01  2.2569342E+01
 1.2506250E+01  2.2552643E+01
 1.2517751E+01  2.2491959E+01
 1.2529250E+01  2.2439611E+01
 1.2540751E+01  2.2446356E+01
 1.2552251E+01  2.2444288E+01
 1.2563750E+01  2.2470547E+01
 1.2575251E+01  2.2561384E+01
 1.2586751E+01  2.2647392E+01
 1.2598250E+01  2.2712755E+01
 1.2609751E+01  2.2740330E+01
 1.2621250E+01  2.2762825E+01
 1.2632751E+01  2.2754906E+01
 1.2644251E+01  2.2743410E+01
 1.2655750E+01  2.2771038E+01
 1.2667251E+01  2.2850199E+01
 1.2678751E+01  2.2873117E+01
 1.2690250E+01  2.2900043E+01
 1.2701751E+01  2.2926647E+01
 1.2713250E+01  2.2955486E+01
 1.2724751E+01  2.2935747E+01
 1.2736251E+01  2.2893295E+01
 1.2747750E+01  2.2874548E+01
 1.2759251E+01  2.2881714E+01
 1.2770751E+01  2.2936686E+01
 1.2782250E+01  2.3007303E+01
 1.2793751E+01  2.3034039E+01
 1.2805250E+01  2.3072399E+01
 1.2816751E+01  2.3146544E+01
 1.2828251E+01  2.3206982E+01
 1.2839750E+01  2.3245205E+01
 1.2851251E+01  2.3289295E+01
 1.2862751E+01  2.3352804E+01
 1.2874250E+01  2.3398251E+01
 1.2885751E+01  2.3411972E+01
 1.2897250E+01  2.3421148E+01
 1.2908751E+01  2.3510735E+01
 1.2920251E+01  2.3574478E+01
 1.2931750E+01  2.3702944E+01
 1.2943251E+01  2.3756609E+01
 1.2954751E+01  2.3777126E+01
 1.2966250E+01  2.3800337E+01
 1.2977751E+01  2.3849459E+01
 1.2989250E+01  2.3910177E+01
 1.3000751E+01  2.3923306E+01
 1.3012251E+01  2.3906889E+01
 1.3023750E+01  2.3910427E+01
 1.3035251E+01  2.3952148E+01
 1.3046751E+01  2.4020025E+01
 1.3058250E+01  2.4158857E+01
 1.3069751E+01  2.4295124E+01
 1.3081250E+01  2.4437489E+01
 1.3092751E+01  2.4556471E+01
 1.3104251E+01  2.4742603E+01
 1.3115750E+01  2.4912380E+01
 1.3127251E+01  2.5040110E+01
 1.3138751E+01  2.5050533E+01
 1.3150250E+01  2.5107208E+01
 1.3161751E+01  2.5169193E+01
 1.3173250E+01  2.5250797E+01
 1.3184751E+01  2.5376450E+01
 1.3196251E+01  2.5463888E+01
 1.3207750E+01  2.5663256E+01
 1.3219251E+01  2.5850710E+01
 1.3230751E+01  2.6125929E+01
 1.3242250E+01  2.6303345E+01
 1.3253751E+01  2.6389174E+01
 1.3265250E+01  2.6507790E+01
 1.3276751E+01  2.6626057E+01
 1.3288251E+01  2.6781069E+01
 1.3299750E+01  2.6941298E+01
 1.3311251E+01  2.7072033E+01
 1.3322751E+01  2.7235102E+01
 1.3334250E+01  2.7358673E+01
 1.3345751E+01  2.7482552E+01
 1.3357250E+01  2.7619358E+01
 1.3368751E+01  2.7721392E+01
 1.3380251E+01  2.7914982E+01
 1.3391750E+01  2.8011538E+01
 1.3403251E+01  2.8197754E+01
 1.3414751E+01  2.8306807E+01
 1.3426250E+01  2.8433987E+01
 1.3437751E+01  2.8568415E+01
 1.3449250E+01  2.8661112E+01
 1.3460751E+01  2.8839975E+01
 1.3472251E+01  2.8922392E+01
 1.3483750E+01  2.9091663E+01
 1.3495251E+01  2.9162497E+01
 1.3506751E+01  2.9274734E+01
 1.3518250E+01  2.9430998E+01
 1.3529751E+01  2.9572870E+01
 1.3541250E+01  2.9704264E+01
 1.3552751E+01  2.9708744E+01
 1.3564251E+01  2.9649426E+01
 1.3575750E+01  2.9611650E+01
 1.3587251E+01  2.9585953E+01
 1.3598751E+01  2.9631289E+01
 1.3610250E+01  2.9591591E+01
 1.3621751E+01  2.9622366E+01
 1.3633250E+01  2.9634409E+01
 1.3644751E+01  2.9634466E+01
 1.3656251E+01  2.9607428E+01
 1.3667750E+01  2.9617970E+01
 1.3679251E+01  2.9601290E+01
 1.3690751E+01  2.9580389E+01
 1.3702250E+01  2.9438383E+01
 1.3713751E+01  2.9352612E+01
 1.3725250E+01  2.9277626E+01
 1.3736751E+01  2.9283922E+01
 1.3748251E+01  2.9234501E+01
 1.3759750E+01  2.9220936E+01
 1.3771251E+01  2.9195669E+01
 1.3782751E+01  2.9230715E+01
 1.3794250E+01  2.9135603E+01
 1.3805751E+01  2.9060720E+01
 1.3817250E+01  2.8956200E+01
 1.3828751E+01  2.8905764E+01
 1.3840251E+01  2.8863771E+01
 1.3851750E+01  2.8851398E+01
 1.3863251E+01  2.8877316E+01
 1.3874751E+01  2.8873146E+01
 1.3886250E+01  2.8966198E+01
 1.3897751E+01  2.9142500E+01
 1.3909250E+01  2.9415171E+01
 1.3920751E+01  2.9749168E+01
 1.3932251E+01  2.9941992E+01
 1.3943750E+01  3.0079710E+01
 1.3955251E+01  3.0070436E+01
 1.3966751E+01  2.9947704E+01
 1.3978251E+01  2.9686172E+01
 1.3989751E+01  2.9255653E+01
 1.4001250E+01  2.8850962E+01
 1.4012751E+01  2.8463066E+01
 1.4024251E+01  2.8140657E+01
 1.4035750E+01  2.7910107E+01
 1.4047251E+01  2.7705667E+01
 1.4058751E+01  2.7611919E+01
 1.4070251E+01  2.7549543E+01
 1.4081751E+01  2.7447649E+01
 1.4093250E+01  2.7395992E+01
 1.4104751E+01  2.7318739E+01
 1.4116251E+01  2.7257965E+01
 1.4127750E+01  2.7149000E+01
 1.4139251E+01  2.7088156E+01
 1.4150751E+01  2.7003645E+01
 1.4162251E+01  2.6908010E+01
 1.4173751E+01  2.6765203E+01
 1.4185250E+01  2.6704334E+01
 1.4196751E+01  2.6649551E+01
 1.4208251E+01  2.6611479E+01
 1.4219750E+01  2.6539433E+01
 1.4231251E+01  2.6429726E+01
 1.4242751E+01  2.6355072E+01
 1.4254251E+01  2.6280441E+01
 1.4265751E+01  2.6259235E+01
 1.4277250E+01  2.6175669E+01
 1.4288751E+01  2.6120913E+01
 1.4300251E+01  2.6072609E+01
 1.4311750E+01  2.6062628E+01
 1.4323251E+01  2.5999374E+01
 1.4334751E+01  2.5992659E+01
 1.4346251E+01  2.6025335E+01
 1.4357751E+01  2.6041203E+01
 1.4369250E+01  2.6011997E+01
 1.4380751E+01  2.5966145E+01
 1.4392251E+01  2.5961531E+01
 1.4403750E+01  2.5881334E+01
 1.4415251E+01  2.5883078E+01
 1.4426751E+01  2.5764774E+01
 1.4438251E+01  2.5743902E+01
 1.4449751E+01  2.5656229E+01
 1.4461250E+01  2.5628777E+01
 1.4472751E+01  2.5585661E+01
 1.4484251E+01  2.5531860E+01
 1.4495750E+01  2.5530443E+01
 1.4507251E+01  2.5511522E+01
 1.4518751E+01  2.5467365E+01
 1.4530251E+01  2.5437344E+01
 1.4541751E+01  2.5416304E+01
 1.4553250E+01  2.5447786E+01
 1.4564751E+01  2.5468773E+01
 1.4576251E+01  2.5478350E+01
 1.4587750E+01  2.5495316E+01
 1.4599251E+01  2.5435234E+01
 1.4610751E+01  2.5440805E+01
 1.4622251E+01  2.5383183E+01
 1.4633751E+01  2.5362354E+01
 1.4645250E+01  2.5325132E+01
 1.4656751E+01  2.5281721E+01
 1.4668251E+01  2.5199207E+01
 1.4679750E+01  2.5167356E+01
 1.4691251E+01  2.5163176E+01
 1.4702751E+01  2.5161608E+01
 1.4714251E+01  2.5077501E+01
 1.4725751E+01  2.5080442E+01
 1.4737250E+01  2.5041561E+01
 1.4748751E+01  2.5027792E+01
 1.4760251E+01  2.4916059E+01
 1.4771750E+01  2.4903223E+01
 1.4783251E+01  2.4882689E+01
 1.4794751E+01  2.4919476E+01
 1.4806251E+01  2.4934065E+01
 1.4817751E+01  2.4855404E+01
 1.4829250E+01  2.4815002E+01
 1.4840751E+01  2.4722534E+01
 1.4852251E+01  2.4677895E+01
 1.4863750E+01  2.4656410E+01
 1.4875251E+01  2.4678585E+01
 1.4886751E+01  2.4747118E+01
 1.4898251E+01  2.4762133E+01
 1.4909751E+01  2.4793465E+01
 1.4921250E+01  2.4752420E+01
 1.4932751E+01  2.4753498E+01
 1.4944251E+01  2.4748354E+01
 1.4955750E+01  2.4776003E+01
 1.4967251E+01  2.4734327E+01
 1.4978751E+01  2.4745636E+01
 1.4990251E+01  2.4739576E+01
 1.5001751E+01  2.4767153E+01
 1.5013250E+01  2.4748026E+01
 1.5024751E+01  2.4774742E+01
 1.5036251E+01  2.4705305E+01
 1.5047750E+01  2.4710516E+01
 1.5059251E+01  2.4656796E+01
 1.5070751E+01  2.4696049E+01
 1.5082251E+01  2.4652496E+01
 1.5093751E+01  2.4662354E+01
 1.5105250E+01  2.4652588E+01
 1.5116751E+01  2.4649141E+01
 1.5128251E+01  2.4660471E+01
 1.5139750E+01  2.4717388E+01
 1.5151251E+01  2.4870840E+01
 1.5162751E+01  2.5019020E+01
 1.5174251E+01  2.5193045E+01
 1.5185751E+01  2.5196663E+01
 1.5197250E+01  2.5236177E+01
 1.5208751E+01  2.5178148E+01
 1.5220251E+01  2.5198889E+01
 1.5231750E+01  2.5080698E+01
 1.5243251E+01  2.4950914E+01
 1.5254751E+01  2.4780769E+01
 1.5266251E+01  2.4634693E+01
 1.5277751E+01  2.4523039E+01
 1.5289250E+01  2.4435684E+01
 1.5300751E+01  2.4414293E+01
 1.5312251E+01  2.4413054E+01
 1.5323750E+01  2.4445967E+01
 1.5335251E+01  2.4455601E+01
 1.5346751E+01  2.4439837E+01
 1.5358251E+01  2.4414488E+01
 1.5369751E+01  2.4383520E+01
 1.5381250E+01  2.4416462E+01
 1.5392751E+01  2.4484238E+01
 1.5404251E+01  2.4580591E+01
 1.5415751E+01  2.4568241E+01
 1.5427251E+01  2.4521002E+01
 1.5438751E+01  2.4442146E+01
 1.5450251E+01  2.4399784E+01
 1.5461751E+01  2.4374292E+01
 1.5473250E+01  2.4356863E+01
 1.5484751E+01  2.4356724E+01
 1.5496251E+01  2.4369987E+01
 1.5507751E+01  2.4421566E+01
 1.5519251E+01  2.4433374E+01
 1.5530751E+01  2.4418463E+01
 1.5542251E+01  2.4404865E+01
 1.5553751E+01  2.4481785E+01
 1.5565250E+01  2.4530109E+01
 1.5576751E+01  2.4540216E+01
 1.5588251E+01  2.4496113E+01
 1.5599751E+01  2.4507322E+01
 1.5611251E+01  2.4534321E+01
 1.5622751E+01  2.4564413E+01
 1.5634251E+01  2.4533590E+01
 1.5645751E+01  2.4539351E+01
 1.5657250E+01  2.4512676E+01
 1.5668751E+01  2.4484947E+01
 1.5680251E+01  2.4461088E+01
 1.5691751E+01  2.4422516E+01
 1.5703251E+01  2.4441212E+01
 1.5714751E+01  2.4376745E+01
 1.5726251E+01  2.4410229E+01
 1.5737751E+01  2.4330055E+01
 1.5749250E+01  2.4298285E+01
 1.5760751E+01  2.4304459E+01
 1.5772251E+01  2.4394411E+01
 1.5783751E+01  2.4452848E+01
 1.5795251E+01  2.4547110E+01
 1.5806751E+01  2.4567169E+01
 1.5818251E+01  2.4583305E+01
 1.5829751E+01  2.4526171E+01
 1.5841250E+01  2.4495691E+01
 1.5852751E+01  2.4477207E+01
 1.5864251E+01  2.4415081E+01
 1.5875751E+01  2.4458708E+01
 1.5887251E+01  2.4460861E+01
 1.5898750E+01  2.4485094E+01
 1.5910251E+01  2.4425350E+01
 1.5921751E+01  2.4399729E+01
 1.5933250E+01  2.4423517E+01
 1.5944751E+01  2.4389496E+01
 1.5956251E+01  2.4402611E+01
 1.5967751E+01  2.4386705E+01
 1.5979251E+01  2.4485575E+01
 1.5990750E+01  2.4566753E+01
 1.6002251E+01  2.4583738E+01
 1.6013750E+01  2.4586405E+01
 1.6025251E+01  2.4578510E+01
 1.6036751E+01  2.4582506E+01
 1.6048250E+01  2.4596666E+01
 1.6059752E+01  2.4589710E+01
 1.6071251E+01  2.4568823E+01
 1.6082750E+01  2.4560417E+01
 1.6094252E+01  2.4571577E+01
 1.6105751E+01  2.4676788E+01
 1.6117250E+01  2.4699318E+01
 1.6128750E+01  2.4696642E+01
 1.6140251E+01  2.4693823E+01
 1.6151751E+01  2.4692682E+01
 1.6163250E+01  2.4794167E+01
 1.6174751E+01  2.4785198E+01
 1.6186251E+01  2.4887741E+01
 1.6197750E+01  2.4801310E+01
 1.6209251E+01  2.4916149E+01
 1.6220751E+01  2.4843149E+01
 1.6232250E+01  2.4956860E+01
 1.6243752E+01  2.4966255E+01
 1.6255251E+01  2.5083967E+01
 1.6266750E+01  2.5245508E+01
 1.6278252E+01  2.5200510E+01
 1.6289751E+01  2.5345089E+01
 1.6301250E+01  2.5042461E+01
 1.6312750E+01  2.5102562E+01
 1.6324251E+01  2.4756912E+01
 1.6335751E+01  2.4743158E+01
 1.6347250E+01  2.4552517E+01
 1.6358751E+01  2.4501762E+01
 1.6370251E+01  2.4405041E+01
 1.6381750E+01  2.4371143E+01
 1.6393251E+01  2.4410385E+01
 1.6404751E+01  2.4456530E+01
 1.6416250E+01  2.4555180E+01
 1.6427752E+01  2.4575188E+01
 1.6439251E+01  2.4568186E+01
 1.6450750E+01  2.4505297E+01
 1.6462252E+01  2.4454584E+01
 1.6473751E+01  2.4388603E+01
 1.6485250E+01  2.4401655E+01
 1.6496750E+01  2.4436003E+01
 1.6508251E+01  2.4462997E+01
 1.6519751E+01  2.4433056E+01
 1.6531250E+01  2.4423752E+01
 1.6542751E+01  2.4452896E+01
 1.6554251E+01  2.4485922E+01
 1.6565750E+01  2.4535263E+01
 1.6577251E+01  2.4531555E+01
 1.6588751E+01  2.4549997E+01
 1.6600250E+01  2.4560696E+01
 1.6611752E+01  2.4567513E+01
 1.6623251E+01  2.4511213E+01
 1.6634750E+01  2.4470366E+01
 1.6646252E+01  2.4411282E+01
 1.6657751E+01  2.4368132E+01
 1.6669250E+01  2.4375296E+01
 1.6680750E+01  2.4365108E+01
 1.6692251E+01  2.4404806E+01
 1.6703751E+01  2.4377998E+01
 1.6715250E+01  2.4408762E+01
 1.6726751E+01  2.4382988E+01
 1.6738251E+01  2.4395288E+01
 1.6749750E+01  2.4441719E+01
 1.6761251E+01  2.4426502E+01
 1.6772751E+01  2.4429745E+01
 1.6784250E+01  2.4416908E+01
 1.6795752E+01  2.4420452E+01
 1.6807251E+01  2.4385376E+01
 1.6818750E+01  2.4347282E+01
 1.6830252E+01  2.4317471E+01
 1.6841751E+01  2.4296230E+01
 1.6853251E+01  2.4255201E+01
 1.6864750E+01  2.4234381E+01
 1.6876251E+01  2.4237566E+01
 1.6887751E+01  2.4229277E+01
 1.6899250E+01  2.4203037E+01
 1.6910751E+01  2.4161541E+01
 1.6922251E+01  2.4168524E+01
 1.6933750E+01  2.4136839E+01
 1.6945251E+01  2.4167233E+01
 1.6956751E+01  2.4141052E+01
 1.6968250E+01  2.4183395E+01
 1.6979752E+01  2.4147343E+01
 1.6991251E+01  2.4174959E+01
 1.7002750E+01  2.4129929E+01
 1.7014252E+01  2.4111355E+01
 1.7025751E+01  2.4089327E+01
 1.7037251E+01  2.4050592E+01
 1.7048750E+01  2.3998737E+01
 1.7060251E+01  2.3905252E+01
 1.7071751E+01  2.3868279E+01
 1.7083250E+01  2.3885138E+01
 1.7094751E+01  2.3894966E+01
 1.7106251E+01  2.3880707E+01
 1.7117750E+01  2.3828146E+01
 1.7129251E+01  2.3867283E+01
 1.7140751E+01  2.3909836E+01
 1.7152250E+01  2.3953831E+01
 1.7163752E+01  2.4013689E+01
 1.7175251E+01  2.4062363E+01
 1.7186750E+01  2.4090628E+01
 1.7198252E+01  2.4069490E+01
 1.7209751E+01  2.4074883E+01
 1.7221251E+01  2.4083170E+01
 1.7232750E+01  2.4062401E+01
 1.7244251E+01  2.4015354E+01
 1.7255751E+01  2.3961861E+01
 1.7267250E+01  2.3944283E+01
 1.7278751E+01  2.3965651E+01
 1.7290251E+01  2.3997066E+01
 1.7301750E+01  2.4070551E+01
 1.7313251E+01  2.4069992E+01
 1.7324751E+01  2.4078938E+01
 1.7336250E+01  2.4016781E+01
 1.7347752E+01  2.4004807E+01
 1.7359251E+01  2.3998829E+01
 1.7370750E+01  2.3959431E+01
 1.7382252E+01  2.3939829E+01
 1.7393751E+01  2.3866163E+01
 1.7405251E+01  2.3851839E+01
 1.7416750E+01  2.3826714E+01
 1.7428251E+01  2.3860765E+01
 1.7439751E+01  2.3876167E+01
 1.7451250E+01  2.3850006E+01
 1.7462751E+01  2.3854633E+01
 1.7474251E+01  2.3846632E+01
 1.7485750E+01  2.3894836E+01
 1.7497252E+01  2.3862297E+01
 1.7508751E+01  2.3810823E+01
 1.7520250E+01  2.3709482E+01
 1.7531752E+01  2.3689854E+01
 1.7543251E+01  2.3714130E+01
 1.7554750E+01  2.3675549E+01
 1.7566252E+01  2.3594002E+01
 1.7577751E+01  2.3511084E+01
 1.7589251E+01  2.3437237E+01
 1.7600750E+01  2.3451620E+01
 1.7612251E+01  2.3493536E+01
 1.7623751E+01  2.3560537E+01
 1.7635250E+01  2.3556936E+01
 1.7646751E+01  2.3571962E+01
 1.7658251E+01  2.3571751E+01
 1.7669750E+01  2.3619562E+01
 1.7681252E+01  2.3630085E+01
 1.7692751E+01  2.3702049E+01
 1.7704250E+01  2.3701448E+01
 1.7715752E+01  2.3719721E+01
 1.7727251E+01  2.3674004E+01
 1.7738750E+01  2.3635120E+01
 1.7750252E+01  2.3602640E+01
 1.7761751E+01  2.3628895E+01
 1.7773251E+01  2.3663036E+01
 1.7784750E+01  2.3665398E+01
 1.7796251E+01  2.3644821E+01
 1.7807751E+01  2.3587250E+01
 1.7819250E+01  2.3564142E+01
 1.7830751E+01  2.3509819E+01
 1.7842251E+01  2.3468256E+01
 1.7853750E+01  2.3390860E+01
 1.7865252E+01  2.3330214E+01
 1.7876751E+01  2.3322151E+01
 1.7888250E+01  2.3305370E+01
 1.7899752E+01  2.3327415E+01
 1.7911251E+01  2.3427450E+01
 1.7922750E+01  2.3521904E+01
 1.7934252E+01  2.3580635E+01
 1.7945751E+01  2.3611124E+01
 1.7957251E+01  2.3638731E+01
 1.7968750E+01  2.3651533E+01
 1.7980251E+01  2.3617018E+01
 1.7991751E+01  2.3666418E+01
 1.8003250E+01  2.3740267E+01
 1.8014751E+01  2.3763165E+01
 1.8026251E+01  2.3750183E+01
 1.8037750E+01  2.3695261E+01
 1.8049252E+01  2.3699659E+01
 1.8060751E+01  2.3717716E+01
 1.8072250E+01  2.3715328E+01
 1.8083752E+01  2.3745914E+01
 1.8095251E+01  2.3740883E+01
 1.8106750E+01  2.3720707E+01
 1.8118252E+01  2.3682108E+01
 1.8129751E+01  2.3661905E+01
 1.8141251E+01  2.3641417E+01
 1.8152750E+01  2.3603689E+01
 1.8164251E+01  2.3632385E+01
 1.8175751E+01  2.3599346E+01
 1.8187250E+01  2.3539846E+01
 1.8198751E+01  2.3479902E+01
 1.8210251E+01  2.3458466E+01
 1.8221750E+01  2.3406969E+01
 1.8233252E+01  2.3354443E+01
 1.8244751E+01  2.3318949E+01
 1.8256250E+01  2.3339907E+01
 1.8267752E+01  2.3353865E+01
 1.8279251E+01  2.3378551E+01
 1.8290751E+01  2.3384962E+01
 1.8302252E+01  2.3383898E+01
 1.8313751E+01  2.3326849E+01
 1.8325251E+01  2.3343138E+01
 1.8336750E+01  2.3420153E+01
 1.8348251E+01  2.3510784E+01
 1.8359751E+01  2.3515001E+01
 1.8371250E+01  2.3469316E+01
 1.8382751E+01  2.3420374E+01
 1.8394251E+01  2.3397734E+01
 1.8405750E+01  2.3362379E+01
 1.8417252E+01  2.3322983E+01
 1.8428751E+01  2.3290781E+01
 1.8440250E+01  2.3276154E+01
 1.8451752E+01  2.3256821E+01
 1.8463251E+01  2.3261654E+01
 1.8474751E+01  2.3263632E+01
 1.8486252E+01  2.3265877E+01
 1.8497751E+01  2.3301403E+01
 1.8509251E+01  2.3360598E+01
 1.8520750E+01  2.3490358E+01
 1.8532251E+01  2.3467220E+01
 1.8543751E+01  2.3534672E+01
 1.8555250E+01  2.3524206E+01
 1.8566751E+01  2.3585505E+01
 1.8578251E+01  2.3617611E+01
 1.8589750E+01  2.3656227E+01
 1.8601252E+01  2.3717680E+01
 1.8612751E+01  2.3662428E+01
 1.8624250E+01  2.3678762E+01
 1.8635752E+01  2.3572865E+01
 1.8647251E+01  2.3554419E+01
 1.8658751E+01  2.3398354E+01
 1.8670252E+01  2.3342648E+01
 1.8681751E+01  2.3257439E+01
 1.8693251E+01  2.3267633E+01
 1.8704750E+01  2.3293741E+01
 1.8716251E+01  2.3300058E+01
 1.8727751E+01  2.3272470E+01
 1.8739250E+01  2.3267794E+01
 1.8750751E+01  2.3268721E+01
 1.8762251E+01  2.3264820E+01
 1.8773750E+01  2.3234196E+01
 1.8785252E+01  2.3264637E+01
 1.8796751E+01  2.3323832E+01
 1.8808250E+01  2.3357555E+01
 1.8819752E+01  2.3372162E+01
 1.8831251E+01  2.3321644E+01
 1.8842751E+01  2.3307199E+01
 1.8854252E+01  2.3267452E+01
 1.8865751E+01  2.3302694E+01
 1.8877251E+01  2.3364401E+01
 1.8888750E+01  2.3376518E+01
 1.8900251E+01  2.3371058E+01
 1.8911751E+01  2.3317255E+01
 1.8923250E+01  2.3329527E+01
 1.8934752E+01  2.3280849E+01
 1.8946251E+01  2.3309361E+01
 1.8957750E+01  2.3258125E+01
 1.8969252E+01  2.3309481E+01
 1.8980751E+01  2.3259998E+01
 1.8992250E+01  2.3373301E+01
 1.9003752E+01  2.3390144E+01
 1.9015251E+01  2.3510000E+01
 1.9026751E+01  2.3633390E+01
 1.9038252E+01  2.3626089E+01
 1.9049751E+01  2.3734228E+01
 1.9061251E+01  2.3638807E+01
 1.9072750E+01  2.3614517E+01
 1.9084251E+01  2.3284266E+01
 1.9095751E+01  2.3238056E+01
 1.9107250E+01  2.3245953E+01
 1.9118752E+01  2.3247488E+01
 1.9130251E+01  2.3317331E+01
 1.9141750E+01  2.3366573E+01
 1.9153252E+01  2.3363640E+01
 1.9164751E+01  2.3304834E+01
 1.9176250E+01  2.3280005E+01
 1.9187752E+01  2.3313715E+01
 1.9199251E+01  2.3368353E+01
 1.9210751E+01  2.3422626E+01
 1.9222252E+01  2.3411234E+01
 1.9233751E+01  2.3373060E+01
 1.9245251E+01  2.3337440E+01
 1.9256750E+01  2.3378016E+01
 1.9268251E+01  2.3393259E+01
 1.9279751E+01  2.3360292E+01
 1.9291250E+01  2.3345596E+01
 1.9302752E+01  2.3334307E+01
 1.9314251E+01  2.3344961E+01
 1.9325750E+01  2.3292370E+01
 1.9337252E+01  2.3296747E+01
 1.9348751E+01  2.3335100E+01
 1.9360250E+01  2.3367926E+01
 1.9371752E+01  2.3388968E+01
 1.9383251E+01  2.3333004E+01
 1.9394751E+01  2.3352657E+01
 1.9406250E+01  2.3341063E+01
 1.9417751E+01  2.3346649E+01
 1.9429251E+01  2.3344233E+01
 1.9440750E+01  2.3345989E+01
 1.9452251E+01  2.3372654E+01
 1.9463751E+01  2.3389679E+01
 1.9475250E+01  2.3393263E+01
 1.9486752E+01  2.3336298E+01
 1.9498251E+01  2.3278210E+01
 1.9509750E+01  2.3296289E+01
 1.9521252E+01  2.3376801E+01
 1.9532751E+01  2.3415524E+01
 1.9544250E+01  2.3418316E+01
 1.9555752E+01  2.3329056E+01
 1.9567251E+01  2.3296659E+01
 1.9578751E+01  2.3281666E+01
 1.9590250E+01  2.3278214E+01
 1.9601751E+01  2.3358305E+01
 1.9613251E+01  2.3405483E+01
 1.9624750E+01  2.3442364E+01
 1.9636251E+01  2.3464302E+01
 1.9647751E+01  2.3536371E+01
 1.9659250E+01  2.3689781E+01
 1.9670752E+01  2.3822306E+01
 1.9682251E+01  2.3967352E+01
 1.9693750E+01  2.4084904E+01
 1.9705252E+01  2.4136545E+01
 1.9716751E+01  2.4144398E+01
 1.9728251E+01  2.4064507E+01
 1.9739752E+01  2.4041651E+01
 1.9751251E+01  2.3996693E+01
 1.9762751E+01  2.3993128E+01
 1.9774250E+01  2.3932728E+01
 1.9785751E+01  2.3878420E+01
 1.9797251E+01  2.3824753E+01
 1.9808750E+01  2.3811460E+01
 1.9820251E+01  2.3849455E+01
 1.9831751E+01  2.3984724E+01
 1.9843250E+01  2.4065807E+01
 1.9854752E+01  2.4065365E+01
 1.9866251E+01  2.4043056E+01
 1.9877750E+01  2.3984276E+01
 1.9889252E+01  2.3903839E+01
 1.9900751E+01  2.3841721E+01
 1.9912251E+01  2.3820898E+01
 1.9923752E+01  2.3750582E+01
 1.9935251E+01  2.3660381E+01
 1.9946751E+01  2.3582369E+01
 1.9958250E+01  2.3535551E+01
 1.9969751E+01  2.3565731E+01
 1.9981251E+01  2.3524343E+01
 1.9992750E+01  2.3521755E+01
 2.0004251E+01  2.3490074E+01
 2.0015751E+01  2.3442705E+01
 2.0027250E+01  2.3430149E+01
 2.0038752E+01  2.3426855E+01
 2.0050251E+01  2.3487339E+01
 2.0061750E+01  2.3426239E+01
 2.0073252E+01  2.3422594E+01
 2.0084751E+01  2.3431095E+01
 2.0096251E+01  2.3488552E+01
 2.0107752E+01  2.3489052E+01
 2.0119251E+01  2.3468784E+01
 2.0130751E+01  2.3435902E+01
 2.0142250E+01  2.3431479E+01
 2.0153751E+01  2.3468424E+01
 2.0165251E+01  2.3463493E+01
 2.0176750E+01  2.3472162E+01
 2.0188251E+01  2.3452618E+01
 2.0199751E+01  2.3467487E+01
 2.0211250E+01  2.3451488E+01
 2.0222752E+01  2.3472878E+01
 2.0234251E+01  2.3476585E+01
 2.0245750E+01  2.3520338E+01
 2.0257252E+01  2.3479614E+01
 2.0268751E+01  2.3477449E+01
 2.0280251E+01  2.3435287E+01
 2.0291752E+01  2.3412600E+01
 2.0303251E+01  2.3292875E+01
 2.0314751E+01  2.3285271E+01
 2.0326250E+01  2.3325567E+01
 2.0337751E+01  2.3412111E+01
 2.0349251E+01  2.3461176E+01
 2.0360750E+01  2.3489296E+01
 2.0372252E+01  2.3491812E+01
 2.0383751E+01  2.3457140E+01
 2.0395250E+01  2.3452755E+01
 2.0406752E+01  2.3448786E+01
 2.0418251E+01  2.3485003E+01
 2.0429750E+01  2.3482666E+01
 2.0441252E+01  2.3445099E+01
 2.0452751E+01  2.3399996E+01
 2.0464251E+01  2.3389797E+01
 2.0475752E+01  2.3367346E+01
 2.0487251E+01  2.3377012E+01
 2.0498751E+01  2.3418343E+01
 2.0510250E+01  2.3397419E+01
 2.0521751E+01  2.3377172E+01
 2.0533251E+01  2.3341928E+01
 2.0544750E+01  2.3343357E+01
 2.0556252E+01  2.3393143E+01
 2.0567751E+01  2.3442822E+01
 2.0579250E+01  2.3537907E+01
 2.0590752E+01  2.3607643E+01
 2.0602251E+01  2.3640844E+01
 2.0613750E+01  2.3647963E+01
 2.0625252E+01  2.3616081E+01
 2.0636751E+01  2.3613199E+01
 2.0648251E+01  2.3563593E+01
 2.0659752E+01  2.3573938E+01
 2.0671251E+01  2.3595501E+01
 2.0682751E+01  2.3708858E+01
 2.0694250E+01  2.3782488E+01
 2.0705751E+01  2.3849382E+01
 2.0717251E+01  2.3883499E+01
 2.0728750E+01  2.3922508E+01
 2.0740252E+01  2.3932806E+01
 2.0751751E+01  2.3958673E+01
 2.0763250E+01  2.4019756E+01
 2.0774752E+01  2.4001356E+01
 2.0786251E+01  2.3978758E+01
 2.0797750E+01  2.3902905E+01
 2.0809252E+01  2.3903280E+01
 2.0820751E+01  2.3761404E+01
 2.0832251E+01  2.3711071E+01
 2.0843752E+01  2.3624098E+01
 2.0855251E+01  2.3637169E+01
 2.0866751E+01  2.3618296E+01
 2.0878250E+01  2.3613207E+01
 2.0889751E+01  2.3624464E+01
 2.0901251E+01  2.3645105E+01
 2.0912750E+01  2.3678436E+01
 2.0924252E+01  2.3693914E+01
 2.0935751E+01  2.3710054E+01
 2.0947250E+01  2.3664635E+01
 2.0958752E+01  2.3589706E+01
 2.0970251E+01  2.3519621E+01
 2.0981750E+01  2.3501951E+01
 2.0993252E+01  2.3553724E+01
 2.1004751E+01  2.3608252E+01
 2.1016251E+01  2.3601007E+01
 2.1027752E+01  2.3593155E+01
 2.1039251E+01  2.3589279E+01
 2.1050751E+01  2.3576422E+01
 2.1062250E+01  2.3579422E+01
 2.1073751E+01  2.3618607E+01
 2.1085251E+01  2.3618917E+01
 2.1096750E+01  2.3583761E+01
 2.1108252E+01  2.3564848E+01
 2.1119751E+01  2.3560747E+01
 2.1131250E+01  2.3535229E+01
 2.1142752E+01  2.3543615E+01
 2.1154251E+01  2.3540607E+01
 2.1165751E+01  2.3551435E+01
 2.1177252E+01  2.3643946E+01
 2.1188751E+01  2.3685043E+01
 2.1200251E+01  2.3715385E+01
 2.1211752E+01  2.3710236E+01
 2.1223251E+01  2.3741938E+01
 2.1234751E+01  2.3718920E+01
 2.1246250E+01  2.3714136E+01
 2.1257751E+01  2.3718605E+01
 2.1269251E+01  2.3701046E+01
 2.1280750E+01  2.3693464E+01
 2.1292252E+01  2.3697260E+01
 2.1303751E+01  2.3688921E+01
 2.1315250E+01  2.3675343E+01
 2.1326752E+01  2.3712730E+01
 2.1338251E+01  2.3757727E+01
 2.1349751E+01  2.3752947E+01
 2.1361252E+01  2.3739214E+01
 2.1372751E+01  2.3711905E+01
 2.1384251E+01  2.3662159E+01
 2.1395752E+01  2.3648130E+01
 2.1407251E+01  2.3635237E+01
 2.1418751E+01  2.3669302E+01
 2.1430250E+01  2.3658293E+01
 2.1441751E+01  2.3668404E+01
 2.1453251E+01  2.3620201E+01
 2.1464750E+01  2.3618795E+01
 2.1476252E+01  2.3611864E+01
 2.1487751E+01  2.3701422E+01
 2.1499250E+01  2.3761164E+01
 2.1510752E+01  2.3810825E+01
 2.1522251E+01  2.3773527E+01
 2.1533751E+01  2.3800207E+01
 2.1545252E+01  2.3740328E+01
 2.1556751E+01  2.3745918E+01
 2.1568251E+01  2.3700748E+01
 2.1579752E+01  2.3722385E+01
 2.1591251E+01  2.3763090E+01
 2.1602751E+01  2.3787006E+01
 2.1614250E+01  2.3807592E+01
 2.1625751E+01  2.3823824E+01
 2.1637251E+01  2.3887266E+01
 2.1648750E+01  2.3885792E+01
 2.1660252E+01  2.3904877E+01
 2.1671751E+01  2.3893942E+01
 2.1683250E+01  2.3932802E+01
 2.1694752E+01  2.3963400E+01
 2.1706251E+01  2.3976109E+01
 2.1717751E+01  2.3945436E+01
 2.1729252E+01  2.3895126E+01
 2.1740751E+01  2.3883451E+01
 2.1752251E+01  2.3867239E+01
 2.1763752E+01  2.3881954E+01
 2.1775251E+01  2.3894535E+01
 2.1786751E+01  2.3872011E+01
 2.1798250E+01  2.3839445E+01
 2.1809752E+01  2.3850601E+01
 2.1821251E+01  2.3890581E+01
 2.1832750E+01  2.3867773E+01
 2.1844252E+01  2.3893431E+01
 2.1855751E+01  2.3919365E+01
 2.1867250E+01  2.3968685E+01
 2.1878752E+01  2.4035133E+01
 2.1890251E+01  2.4060982E+01
 2.1901751E+01  2.4091337E+01
 2.1913252E+01  2.4030426E+01
 2.1924751E+01  2.3970310E+01
 2.1936251E+01  2.3944719E+01
 2.1947752E+01  2.3969339E+01
 2.1959251E+01  2.3994179E+01
 2.1970751E+01  2.3994650E+01
 2.1982250E+01  2.4028658E+01
 2.1993752E+01  2.4066601E+01
 2.2005251E+01  2.4108156E+01
 2.2016750E+01  2.4165829E+01
 2.2028252E+01  2.4237947E+01
 2.2039751E+01  2.4236866E+01
 2.2051250E+01  2.4173382E+01
 2.2062752E+01  2.4056755E+01
 2.2074251E+01  2.4015934E+01
 2.2085751E+01  2.3986965E+01
 2.2097252E+01  2.4031355E+01
 2.2108751E+01  2.4034859E+01
 2.2120251E+01  2.4076052E+01
 2.2131752E+01  2.4136778E+01
 2.2143251E+01  2.4165064E+01
 2.2154751E+01  2.4149437E+01
 2.2166250E+01  2.4131344E+01
 2.2177752E+01  2.4146271E+01
 2.2189251E+01  2.4168047E+01
 2.2200750E+01  2.4198074E+01
 2.2212252E+01  2.4147768E+01
 2.2223751E+01  2.4113714E+01
 2.2235250E+01  2.4140192E+01
 2.2246752E+01  2.4204329E+01
 2.2258251E+01  2.4241104E+01
 2.2269751E+01  2.4214643E+01
 2.2281252E+01  2.4192421E+01
 2.2292751E+01  2.4197451E+01
 2.2304251E+01  2.4214140E+01
 2.2315752E+01  2.4229668E+01
 2.2327251E+01  2.4214771E+01
 2.2338751E+01  2.4202755E+01
 2.2350250E+01  2.4220423E+01
 2.2361752E+01  2.4222776E+01
 2.2373251E+01  2.4233961E+01
 2.2384750E+01  2.4207558E+01
 2.2396252E+01  2.4193659E+01
 2.2407751E+01  2.4158796E+01
 2.2419250E+01  2.4158815E+01
 2.2430752E+01  2.4221975E+01
 2.2442251E+01  2.4296652E+01
 2.2453751E+01  2.4349255E+01
 2.2465252E+01  2.4376919E+01
 2.2476751E+01  2.4343813E+01
 2.2488251E+01  2.4365541E+01
 2.2499752E+01  2.4364307E+01
 2.2511251E+01  2.4447292E+01
 2.2522751E+01  2.4496756E+01
 2.2534250E+01  2.4549829E+01
 2.2545752E+01  2.4609182E+01
 2.2557251E+01  2.4635702E+01
 2.2568750E+01  2.4648296E+01
 2.2580252E+01  2.4645599E+01
 2.2591751E+01  2.4632708E+01
 2.2603251E+01  2.4620575E+01
 2.2614752E+01  2.4648954E+01
 2.2626251E+01  2.4664984E+01
 2.2637751E+01  2.4682844E+01
 2.2649252E+01  2.4659523E+01
 2.2660751E+01  2.4670794E+01
 2.2672251E+01  2.4722294E+01
 2.2683752E+01  2.4829966E+01
 2.2695251E+01  2.4947952E+01
 2.2706751E+01  2.4932085E+01
 2.2718250E+01  2.4895390E+01
 2.2729752E+01  2.4872972E+01
 2.2741251E+01  2.4939425E+01
 2.2752750E+01  2.5012333E+01
 2.2764252E+01  2.5109562E+01
 2.2775751E+01  2.5174007E+01
 2.2787251E+01  2.5141041E+01
 2.2798752E+01  2.5120468E+01
 2.2810251E+01  2.5107325E+01
 2.2821751E+01  2.5140635E+01
 2.2833252E+01  2.5187798E+01
 2.2844751E+01  2.5221390E+01
 2.2856251E+01  2.5216019E+01
 2.2867750E+01  2.5282000E+01
 2.2879251E+01  2.5375149E+01
 2.2890751E+01  2.5551546E+01
 2.2902250E+01  2.5559389E+01
 2.2913752E+01  2.5626478E+01
 2.2925251E+01  2.5641277E+01
 2.2936750E+01  2.5651434E+01
 2.2948252E+01  2.5650267E+01
 2.2959751E+01  2.5664614E+01
 2.2971251E+01  2.5771744E+01
 2.2982752E+01  2.5863255E+01
 2.2994251E+01  2.5984627E+01
