F:\20151113_APS_34IDE\\Brian\Particle1\OCV\Data_0111.tif
2-Theta Angle (Degrees)
Intensity
       2000
 5.7500005E-03  0.0000000E+00
 1.7250001E-02  0.0000000E+00
 2.8750001E-02  0.0000000E+00
 4.0250003E-02  0.0000000E+00
 5.1750004E-02  0.0000000E+00
 6.3250005E-02  0.0000000E+00
 7.4750006E-02  0.0000000E+00
 8.6250007E-02  0.0000000E+00
 9.7750008E-02  0.0000000E+00
 1.0925001E-01  0.0000000E+00
 1.2075000E-01  0.0000000E+00
 1.3225001E-01  0.0000000E+00
 1.4375001E-01  0.0000000E+00
 1.5525001E-01  0.0000000E+00
 1.6675001E-01  0.0000000E+00
 1.7825001E-01  0.0000000E+00
 1.8975002E-01  0.0000000E+00
 2.0125002E-01  0.0000000E+00
 2.1275002E-01  0.0000000E+00
 2.2425000E-01  0.0000000E+00
 2.3575000E-01  0.0000000E+00
 2.4725001E-01  0.0000000E+00
 2.5875002E-01  0.0000000E+00
 2.7025002E-01  0.0000000E+00
 2.8175002E-01  0.0000000E+00
 2.9325002E-01  0.0000000E+00
 3.0475003E-01  0.0000000E+00
 3.1625003E-01  0.0000000E+00
 3.2775003E-01  0.0000000E+00
 3.3925003E-01  0.0000000E+00
 3.5075003E-01  0.0000000E+00
 3.6225003E-01  0.0000000E+00
 3.7375003E-01  0.0000000E+00
 3.8525003E-01  0.0000000E+00
 3.9675003E-01  0.0000000E+00
 4.0825003E-01  0.0000000E+00
 4.1975003E-01  0.0000000E+00
 4.3125004E-01  0.0000000E+00
 4.4275001E-01  0.0000000E+00
 4.5425001E-01  0.0000000E+00
 4.6575001E-01  0.0000000E+00
 4.7725001E-01  0.0000000E+00
 4.8875001E-01  0.0000000E+00
 5.0025004E-01  0.0000000E+00
 5.1175004E-01  0.0000000E+00
 5.2325004E-01  0.0000000E+00
 5.3475004E-01  0.0000000E+00
 5.4625005E-01  0.0000000E+00
 5.5775005E-01  0.0000000E+00
 5.6925005E-01  0.0000000E+00
 5.8075005E-01  0.0000000E+00
 5.9225005E-01  0.0000000E+00
 6.0375005E-01  0.0000000E+00
 6.1525005E-01  0.0000000E+00
 6.2675005E-01  0.0000000E+00
 6.3825005E-01  0.0000000E+00
 6.4975005E-01  0.0000000E+00
 6.6125005E-01  0.0000000E+00
 6.7275006E-01  0.0000000E+00
 6.8425006E-01  0.0000000E+00
 6.9575006E-01  0.0000000E+00
 7.0725006E-01  0.0000000E+00
 7.1875006E-01  0.0000000E+00
 7.3025006E-01  0.0000000E+00
 7.4175006E-01  0.0000000E+00
 7.5325006E-01  0.0000000E+00
 7.6475006E-01  0.0000000E+00
 7.7625006E-01  0.0000000E+00
 7.8775007E-01  0.0000000E+00
 7.9925007E-01  0.0000000E+00
 8.1075007E-01  0.0000000E+00
 8.2225007E-01  0.0000000E+00
 8.3375007E-01  0.0000000E+00
 8.4525007E-01  0.0000000E+00
 8.5675007E-01  0.0000000E+00
 8.6825007E-01  0.0000000E+00
 8.7975001E-01  0.0000000E+00
 8.9125001E-01  0.0000000E+00
 9.0275002E-01  0.0000000E+00
 9.1425002E-01  0.0000000E+00
 9.2575002E-01  0.0000000E+00
 9.3725002E-01  0.0000000E+00
 9.4875002E-01  0.0000000E+00
 9.6025002E-01  0.0000000E+00
 9.7175002E-01  0.0000000E+00
 9.8325002E-01  0.0000000E+00
 9.9475002E-01  0.0000000E+00
 1.0062500E+00  0.0000000E+00
 1.0177500E+00  0.0000000E+00
 1.0292500E+00  0.0000000E+00
 1.0407500E+00  0.0000000E+00
 1.0522500E+00  0.0000000E+00
 1.0637500E+00  0.0000000E+00
 1.0752500E+00  0.0000000E+00
 1.0867500E+00  0.0000000E+00
 1.0982500E+00  0.0000000E+00
 1.1097500E+00  0.0000000E+00
 1.1212500E+00  0.0000000E+00
 1.1327500E+00  0.0000000E+00
 1.1442500E+00  0.0000000E+00
 1.1557500E+00  0.0000000E+00
 1.1672500E+00  0.0000000E+00
 1.1787500E+00  0.0000000E+00
 1.1902500E+00  0.0000000E+00
 1.2017500E+00  0.0000000E+00
 1.2132500E+00  0.0000000E+00
 1.2247500E+00  0.0000000E+00
 1.2362500E+00  0.0000000E+00
 1.2477500E+00  0.0000000E+00
 1.2592500E+00  0.0000000E+00
 1.2707500E+00  0.0000000E+00
 1.2822500E+00  0.0000000E+00
 1.2937500E+00  0.0000000E+00
 1.3052500E+00  0.0000000E+00
 1.3167500E+00  0.0000000E+00
 1.3282501E+00  0.0000000E+00
 1.3397501E+00  0.0000000E+00
 1.3512501E+00  0.0000000E+00
 1.3627501E+00  0.0000000E+00
 1.3742501E+00  0.0000000E+00
 1.3857501E+00  0.0000000E+00
 1.3972501E+00  0.0000000E+00
 1.4087501E+00  0.0000000E+00
 1.4202501E+00  0.0000000E+00
 1.4317501E+00  0.0000000E+00
 1.4432501E+00  0.0000000E+00
 1.4547501E+00  0.0000000E+00
 1.4662501E+00  0.0000000E+00
 1.4777501E+00  0.0000000E+00
 1.4892501E+00  0.0000000E+00
 1.5007501E+00  0.0000000E+00
 1.5122501E+00  0.0000000E+00
 1.5237501E+00  0.0000000E+00
 1.5352501E+00  0.0000000E+00
 1.5467501E+00  0.0000000E+00
 1.5582501E+00  0.0000000E+00
 1.5697501E+00  0.0000000E+00
 1.5812501E+00  0.0000000E+00
 1.5927501E+00  0.0000000E+00
 1.6042501E+00  0.0000000E+00
 1.6157501E+00  0.0000000E+00
 1.6272501E+00  0.0000000E+00
 1.6387501E+00  0.0000000E+00
 1.6502501E+00  0.0000000E+00
 1.6617501E+00  0.0000000E+00
 1.6732501E+00  0.0000000E+00
 1.6847501E+00  0.0000000E+00
 1.6962501E+00  0.0000000E+00
 1.7077501E+00  0.0000000E+00
 1.7192501E+00  0.0000000E+00
 1.7307501E+00  0.0000000E+00
 1.7422501E+00  0.0000000E+00
 1.7537501E+00  0.0000000E+00
 1.7652501E+00  0.0000000E+00
 1.7767501E+00  0.0000000E+00
 1.7882501E+00  0.0000000E+00
 1.7997501E+00  0.0000000E+00
 1.8112501E+00  0.0000000E+00
 1.8227501E+00  0.0000000E+00
 1.8342501E+00  0.0000000E+00
 1.8457501E+00  0.0000000E+00
 1.8572501E+00  0.0000000E+00
 1.8687501E+00  0.0000000E+00
 1.8802501E+00  0.0000000E+00
 1.8917501E+00  0.0000000E+00
 1.9032501E+00  0.0000000E+00
 1.9147501E+00  0.0000000E+00
 1.9262501E+00  0.0000000E+00
 1.9377501E+00  0.0000000E+00
 1.9492501E+00  0.0000000E+00
 1.9607501E+00  0.0000000E+00
 1.9722501E+00  0.0000000E+00
 1.9837501E+00  0.0000000E+00
 1.9952501E+00  0.0000000E+00
 2.0067501E+00  0.0000000E+00
 2.0182500E+00  0.0000000E+00
 2.0297501E+00  0.0000000E+00
 2.0412500E+00  0.0000000E+00
 2.0527501E+00  0.0000000E+00
 2.0642500E+00  0.0000000E+00
 2.0757501E+00  0.0000000E+00
 2.0872500E+00  0.0000000E+00
 2.0987501E+00  0.0000000E+00
 2.1102500E+00  0.0000000E+00
 2.1217501E+00  0.0000000E+00
 2.1332500E+00  0.0000000E+00
 2.1447501E+00  0.0000000E+00
 2.1562500E+00  0.0000000E+00
 2.1677501E+00  0.0000000E+00
 2.1792500E+00  0.0000000E+00
 2.1907501E+00  0.0000000E+00
 2.2022500E+00  0.0000000E+00
 2.2137501E+00  0.0000000E+00
 2.2252500E+00  0.0000000E+00
 2.2367501E+00  0.0000000E+00
 2.2482500E+00  0.0000000E+00
 2.2597501E+00  0.0000000E+00
 2.2712500E+00  0.0000000E+00
 2.2827501E+00  0.0000000E+00
 2.2942500E+00  0.0000000E+00
 2.3057501E+00  0.0000000E+00
 2.3172500E+00  0.0000000E+00
 2.3287501E+00  0.0000000E+00
 2.3402500E+00  0.0000000E+00
 2.3517501E+00  0.0000000E+00
 2.3632500E+00  0.0000000E+00
 2.3747501E+00  0.0000000E+00
 2.3862500E+00  0.0000000E+00
 2.3977501E+00  0.0000000E+00
 2.4092500E+00  0.0000000E+00
 2.4207501E+00  0.0000000E+00
 2.4322500E+00  0.0000000E+00
 2.4437501E+00  0.0000000E+00
 2.4552500E+00  0.0000000E+00
 2.4667501E+00  0.0000000E+00
 2.4782500E+00  0.0000000E+00
 2.4897501E+00  0.0000000E+00
 2.5012500E+00  0.0000000E+00
 2.5127501E+00  0.0000000E+00
 2.5242500E+00  0.0000000E+00
 2.5357502E+00  0.0000000E+00
 2.5472500E+00  0.0000000E+00
 2.5587502E+00  0.0000000E+00
 2.5702500E+00  0.0000000E+00
 2.5817502E+00  0.0000000E+00
 2.5932500E+00  0.0000000E+00
 2.6047502E+00  0.0000000E+00
 2.6162500E+00  0.0000000E+00
 2.6277502E+00  0.0000000E+00
 2.6392500E+00  0.0000000E+00
 2.6507502E+00  0.0000000E+00
 2.6622500E+00  0.0000000E+00
 2.6737502E+00  0.0000000E+00
 2.6852500E+00  0.0000000E+00
 2.6967502E+00  0.0000000E+00
 2.7082500E+00  0.0000000E+00
 2.7197502E+00  0.0000000E+00
 2.7312500E+00  0.0000000E+00
 2.7427502E+00  0.0000000E+00
 2.7542500E+00  0.0000000E+00
 2.7657502E+00  0.0000000E+00
 2.7772501E+00  0.0000000E+00
 2.7887502E+00  0.0000000E+00
 2.8002501E+00  0.0000000E+00
 2.8117502E+00  0.0000000E+00
 2.8232501E+00  3.7080162E+01
 2.8347502E+00  3.4450928E+01
 2.8462501E+00  3.4650444E+01
 2.8577502E+00  3.4792461E+01
 2.8692501E+00  3.5492306E+01
 2.8807502E+00  3.6207035E+01
 2.8922501E+00  3.6623360E+01
 2.9037502E+00  3.6870838E+01
 2.9152501E+00  3.7241707E+01
 2.9267502E+00  3.7037933E+01
 2.9382501E+00  3.6936378E+01
 2.9497502E+00  3.6358917E+01
 2.9612501E+00  3.5751862E+01
 2.9727502E+00  3.5228973E+01
 2.9842501E+00  3.5193516E+01
 2.9957502E+00  3.5704262E+01
 3.0072501E+00  3.6290947E+01
 3.0187502E+00  3.6194038E+01
 3.0302501E+00  3.6057011E+01
 3.0417502E+00  3.5663784E+01
 3.0532501E+00  3.5086994E+01
 3.0647502E+00  3.5110157E+01
 3.0762501E+00  3.4968662E+01
 3.0877502E+00  3.5448765E+01
 3.0992501E+00  3.5658398E+01
 3.1107502E+00  3.5559364E+01
 3.1222501E+00  3.5714657E+01
 3.1337502E+00  3.5394272E+01
 3.1452501E+00  3.5974895E+01
 3.1567502E+00  3.5960472E+01
 3.1682501E+00  3.6041012E+01
 3.1797502E+00  3.5677589E+01
 3.1912501E+00  3.5468784E+01
 3.2027502E+00  3.5497669E+01
 3.2142501E+00  3.5478886E+01
 3.2257502E+00  3.5675289E+01
 3.2372501E+00  3.5779789E+01
 3.2487502E+00  3.5608368E+01
 3.2602501E+00  3.5752357E+01
 3.2717502E+00  3.5389038E+01
 3.2832501E+00  3.5313553E+01
 3.2947502E+00  3.5102600E+01
 3.3062501E+00  3.4607365E+01
 3.3177502E+00  3.4395687E+01
 3.3292501E+00  3.4293121E+01
 3.3407502E+00  3.4380993E+01
 3.3522501E+00  3.4620560E+01
 3.3637502E+00  3.4997799E+01
 3.3752501E+00  3.5283928E+01
 3.3867502E+00  3.5272724E+01
 3.3982501E+00  3.5055630E+01
 3.4097502E+00  3.4804829E+01
 3.4212501E+00  3.4811100E+01
 3.4327502E+00  3.4438538E+01
 3.4442501E+00  3.4127838E+01
 3.4557502E+00  3.3895962E+01
 3.4672501E+00  3.3961567E+01
 3.4787502E+00  3.4099289E+01
 3.4902501E+00  3.4299057E+01
 3.5017502E+00  3.3940903E+01
 3.5132501E+00  3.3821098E+01
 3.5247502E+00  3.3839520E+01
 3.5362501E+00  3.3964993E+01
 3.5477502E+00  3.3876888E+01
 3.5592501E+00  3.3850471E+01
 3.5707502E+00  3.3597637E+01
 3.5822501E+00  3.3455257E+01
 3.5937502E+00  3.3213097E+01
 3.6052501E+00  3.2948891E+01
 3.6167502E+00  3.3160076E+01
 3.6282501E+00  3.3259552E+01
 3.6397502E+00  3.3473637E+01
 3.6512501E+00  3.3606373E+01
 3.6627502E+00  3.3535675E+01
 3.6742501E+00  3.3454197E+01
 3.6857502E+00  3.3308430E+01
 3.6972501E+00  3.3300018E+01
 3.7087502E+00  3.3227024E+01
 3.7202501E+00  3.3306519E+01
 3.7317502E+00  3.3102444E+01
 3.7432501E+00  3.3159828E+01
 3.7547503E+00  3.3161282E+01
 3.7662501E+00  3.3128963E+01
 3.7777503E+00  3.3222790E+01
 3.7892501E+00  3.3133919E+01
 3.8007503E+00  3.3134274E+01
 3.8122501E+00  3.3271072E+01
 3.8237503E+00  3.3146980E+01
 3.8352501E+00  3.3175205E+01
 3.8467503E+00  3.2901440E+01
 3.8582501E+00  3.2713627E+01
 3.8697503E+00  3.2560150E+01
 3.8812501E+00  3.2450756E+01
 3.8927503E+00  3.2344971E+01
 3.9042501E+00  3.2220177E+01
 3.9157503E+00  3.2038227E+01
 3.9272501E+00  3.2157108E+01
 3.9387503E+00  3.2116764E+01
 3.9502501E+00  3.2263958E+01
 3.9617503E+00  3.2351215E+01
 3.9732502E+00  3.2480190E+01
 3.9847503E+00  3.2511414E+01
 3.9962502E+00  3.2506428E+01
 4.0077500E+00  3.2563976E+01
 4.0192504E+00  3.2587265E+01
 4.0307503E+00  3.2517521E+01
 4.0422502E+00  3.2345860E+01
 4.0537500E+00  3.2321640E+01
 4.0652504E+00  3.2274269E+01
 4.0767503E+00  3.2404602E+01
 4.0882502E+00  3.2514008E+01
 4.0997500E+00  3.2623081E+01
 4.1112504E+00  3.2663605E+01
 4.1227503E+00  3.2693626E+01
 4.1342502E+00  3.2708923E+01
 4.1457500E+00  3.2745834E+01
 4.1572504E+00  3.2612305E+01
 4.1687503E+00  3.2522655E+01
 4.1802502E+00  3.2284805E+01
 4.1917500E+00  3.2294632E+01
 4.2032504E+00  3.2343204E+01
 4.2147503E+00  3.2475193E+01
 4.2262502E+00  3.2483379E+01
 4.2377501E+00  3.2471947E+01
 4.2492504E+00  3.2419151E+01
 4.2607503E+00  3.2346764E+01
 4.2722502E+00  3.2351116E+01
 4.2837501E+00  3.2301186E+01
 4.2952504E+00  3.2306995E+01
 4.3067503E+00  3.2177704E+01
 4.3182502E+00  3.2171024E+01
 4.3297501E+00  3.2138504E+01
 4.3412504E+00  3.2127773E+01
 4.3527503E+00  3.2040661E+01
 4.3642502E+00  3.2033669E+01
 4.3757501E+00  3.2012028E+01
 4.3872504E+00  3.2014481E+01
 4.3987503E+00  3.1888157E+01
 4.4102502E+00  3.1989353E+01
 4.4217501E+00  3.1943882E+01
 4.4332504E+00  3.2228935E+01
 4.4447503E+00  3.2276188E+01
 4.4562502E+00  3.2369907E+01
 4.4677501E+00  3.2314533E+01
 4.4792504E+00  3.2261623E+01
 4.4907503E+00  3.2223686E+01
 4.5022502E+00  3.2272446E+01
 4.5137501E+00  3.2183666E+01
 4.5252504E+00  3.2318462E+01
 4.5367503E+00  3.2318737E+01
 4.5482502E+00  3.2401260E+01
 4.5597501E+00  3.2323410E+01
 4.5712504E+00  3.2358055E+01
 4.5827503E+00  3.2307243E+01
 4.5942502E+00  3.2416862E+01
 4.6057501E+00  3.2388802E+01
 4.6172504E+00  3.2614178E+01
 4.6287503E+00  3.2713482E+01
 4.6402502E+00  3.2903336E+01
 4.6517501E+00  3.2925838E+01
 4.6632504E+00  3.3029770E+01
 4.6747503E+00  3.2951569E+01
 4.6862502E+00  3.2995422E+01
 4.6977501E+00  3.2987328E+01
 4.7092505E+00  3.3002869E+01
 4.7207503E+00  3.2982628E+01
 4.7322502E+00  3.2766239E+01
 4.7437501E+00  3.2644547E+01
 4.7552505E+00  3.2321728E+01
 4.7667503E+00  3.2373989E+01
 4.7782502E+00  3.2344723E+01
 4.7897501E+00  3.2534336E+01
 4.8012505E+00  3.2470692E+01
 4.8127503E+00  3.2400749E+01
 4.8242502E+00  3.2468811E+01
 4.8357501E+00  3.2502754E+01
 4.8472505E+00  3.2658787E+01
 4.8587503E+00  3.2822666E+01
 4.8702502E+00  3.2933052E+01
 4.8817501E+00  3.2974201E+01
 4.8932505E+00  3.2915154E+01
 4.9047503E+00  3.2835064E+01
 4.9162502E+00  3.2826900E+01
 4.9277501E+00  3.2768620E+01
 4.9392505E+00  3.2830791E+01
 4.9507504E+00  3.2809509E+01
 4.9622502E+00  3.2878273E+01
 4.9737501E+00  3.2910458E+01
 4.9852505E+00  3.3011929E+01
 4.9967504E+00  3.3094746E+01
 5.0082502E+00  3.3094444E+01
 5.0197501E+00  3.3154015E+01
 5.0312505E+00  3.3160954E+01
 5.0427504E+00  3.3114120E+01
 5.0542502E+00  3.3039246E+01
 5.0657501E+00  3.2940712E+01
 5.0772505E+00  3.2984428E+01
 5.0887504E+00  3.3058464E+01
 5.1002502E+00  3.3119083E+01
 5.1117501E+00  3.3128567E+01
 5.1232505E+00  3.3157417E+01
 5.1347504E+00  3.3302120E+01
 5.1462502E+00  3.3590637E+01
 5.1577501E+00  3.3716797E+01
 5.1692505E+00  3.3811810E+01
 5.1807504E+00  3.3842796E+01
 5.1922503E+00  3.3937180E+01
 5.2037501E+00  3.3988796E+01
 5.2152505E+00  3.4029247E+01
 5.2267504E+00  3.4021290E+01
 5.2382503E+00  3.4015663E+01
 5.2497501E+00  3.3812424E+01
 5.2612505E+00  3.3645397E+01
 5.2727504E+00  3.3529171E+01
 5.2842503E+00  3.3499374E+01
 5.2957501E+00  3.3599411E+01
 5.3072500E+00  3.3537971E+01
 5.3187504E+00  3.3765701E+01
 5.3302503E+00  3.3763714E+01
 5.3417501E+00  3.3975243E+01
 5.3532500E+00  3.4017685E+01
 5.3647504E+00  3.4090759E+01
 5.3762503E+00  3.4151310E+01
 5.3877501E+00  3.4213619E+01
 5.3992500E+00  3.4285805E+01
 5.4107504E+00  3.4369530E+01
 5.4222503E+00  3.4421608E+01
 5.4337502E+00  3.4392246E+01
 5.4452500E+00  3.4425983E+01
 5.4567504E+00  3.4490208E+01
 5.4682503E+00  3.4564873E+01
 5.4797502E+00  3.4613396E+01
 5.4912500E+00  3.4577751E+01
 5.5027504E+00  3.4590172E+01
 5.5142503E+00  3.4581360E+01
 5.5257502E+00  3.4544094E+01
 5.5372500E+00  3.4532612E+01
 5.5487504E+00  3.4568913E+01
 5.5602503E+00  3.4513405E+01
 5.5717502E+00  3.4456123E+01
 5.5832500E+00  3.4457882E+01
 5.5947504E+00  3.4496292E+01
 5.6062503E+00  3.4620411E+01
 5.6177502E+00  3.4668968E+01
 5.6292500E+00  3.4710735E+01
 5.6407504E+00  3.4732010E+01
 5.6522503E+00  3.4709549E+01
 5.6637502E+00  3.4871769E+01
 5.6752501E+00  3.5000103E+01
 5.6867504E+00  3.5097279E+01
 5.6982503E+00  3.5126953E+01
 5.7097502E+00  3.5211201E+01
 5.7212501E+00  3.5243652E+01
 5.7327504E+00  3.5371204E+01
 5.7442503E+00  3.5338383E+01
 5.7557502E+00  3.5432884E+01
 5.7672501E+00  3.5426991E+01
 5.7787504E+00  3.5568592E+01
 5.7902503E+00  3.5743671E+01
 5.8017502E+00  3.6011982E+01
 5.8132501E+00  3.6240860E+01
 5.8247504E+00  3.6369896E+01
 5.8362503E+00  3.6239849E+01
 5.8477502E+00  3.6063629E+01
 5.8592501E+00  3.5900307E+01
 5.8707504E+00  3.5813450E+01
 5.8822503E+00  3.5887535E+01
 5.8937502E+00  3.5986164E+01
 5.9052501E+00  3.6218765E+01
 5.9167504E+00  3.6606377E+01
 5.9282503E+00  3.6945091E+01
 5.9397502E+00  3.7934334E+01
 5.9512501E+00  3.9283039E+01
 5.9627504E+00  4.0684093E+01
 5.9742503E+00  4.2028236E+01
 5.9857502E+00  4.3138485E+01
 5.9972501E+00  4.2889694E+01
 6.0087504E+00  4.2639252E+01
 6.0202503E+00  4.1140594E+01
 6.0317502E+00  4.0374241E+01
 6.0432501E+00  3.8855118E+01
 6.0547504E+00  3.7567604E+01
 6.0662503E+00  3.6880238E+01
 6.0777502E+00  3.6542877E+01
 6.0892501E+00  3.6378021E+01
 6.1007504E+00  3.6406776E+01
 6.1122503E+00  3.6461411E+01
 6.1237502E+00  3.6589508E+01
 6.1352501E+00  3.6486244E+01
 6.1467505E+00  3.6431412E+01
 6.1582503E+00  3.6413761E+01
 6.1697502E+00  3.6545319E+01
 6.1812501E+00  3.6708660E+01
 6.1927505E+00  3.6848461E+01
 6.2042503E+00  3.6983444E+01
 6.2157502E+00  3.7050537E+01
 6.2272501E+00  3.7064541E+01
 6.2387505E+00  3.7047062E+01
 6.2502503E+00  3.7030136E+01
 6.2617502E+00  3.7142876E+01
 6.2732501E+00  3.7243328E+01
 6.2847505E+00  3.7384174E+01
 6.2962503E+00  3.7379150E+01
 6.3077502E+00  3.7433998E+01
 6.3192501E+00  3.7479359E+01
 6.3307505E+00  3.7699738E+01
 6.3422503E+00  3.7844769E+01
 6.3537502E+00  3.8098812E+01
 6.3652501E+00  3.8103786E+01
 6.3767505E+00  3.8147865E+01
 6.3882504E+00  3.8020229E+01
 6.3997502E+00  3.7974133E+01
 6.4112501E+00  3.7865223E+01
 6.4227505E+00  3.7918533E+01
 6.4342504E+00  3.7939304E+01
 6.4457502E+00  3.8117500E+01
 6.4572501E+00  3.8076653E+01
 6.4687505E+00  3.8145092E+01
 6.4802504E+00  3.8164211E+01
 6.4917502E+00  3.8379662E+01
 6.5032501E+00  3.8625240E+01
 6.5147505E+00  3.8938457E+01
 6.5262504E+00  3.9091534E+01
 6.5377502E+00  3.9207088E+01
 6.5492501E+00  3.9230640E+01
 6.5607505E+00  3.9310795E+01
 6.5722504E+00  3.9381321E+01
 6.5837502E+00  3.9417168E+01
 6.5952501E+00  3.9700531E+01
 6.6067505E+00  3.9757240E+01
 6.6182504E+00  4.0131382E+01
 6.6297503E+00  4.0134285E+01
 6.6412501E+00  4.0324718E+01
 6.6527505E+00  4.0210560E+01
 6.6642504E+00  4.0236889E+01
 6.6757503E+00  4.0124172E+01
 6.6872501E+00  4.0053940E+01
 6.6987505E+00  3.9913708E+01
 6.7102504E+00  3.9995647E+01
 6.7217503E+00  4.0076916E+01
 6.7332501E+00  4.0292461E+01
 6.7447505E+00  4.0411179E+01
 6.7562504E+00  4.0604916E+01
 6.7677503E+00  4.0691135E+01
 6.7792501E+00  4.0828663E+01
 6.7907505E+00  4.0874275E+01
 6.8022504E+00  4.1023373E+01
 6.8137503E+00  4.1112587E+01
 6.8252501E+00  4.1274113E+01
 6.8367505E+00  4.1371956E+01
 6.8482504E+00  4.1451221E+01
 6.8597503E+00  4.1539036E+01
 6.8712502E+00  4.1579731E+01
 6.8827505E+00  4.1652264E+01
 6.8942504E+00  4.1607895E+01
 6.9057503E+00  4.1594753E+01
 6.9172502E+00  4.1634449E+01
 6.9287505E+00  4.1649620E+01
 6.9402504E+00  4.1778183E+01
 6.9517503E+00  4.1802818E+01
 6.9632502E+00  4.1903595E+01
 6.9747505E+00  4.1915787E+01
 6.9862504E+00  4.1953400E+01
 6.9977503E+00  4.2026947E+01
 7.0092502E+00  4.2120541E+01
 7.0207505E+00  4.2234165E+01
 7.0322504E+00  4.2389042E+01
 7.0437503E+00  4.2509426E+01
 7.0552502E+00  4.2500984E+01
 7.0667505E+00  4.2385632E+01
 7.0782504E+00  4.2348232E+01
 7.0897503E+00  4.2364254E+01
 7.1012502E+00  4.2433167E+01
 7.1127505E+00  4.2515549E+01
 7.1242504E+00  4.2645676E+01
 7.1357503E+00  4.2727516E+01
 7.1472502E+00  4.2757069E+01
 7.1587505E+00  4.2798573E+01
 7.1702504E+00  4.2848598E+01
 7.1817503E+00  4.2908417E+01
 7.1932502E+00  4.2978073E+01
 7.2047505E+00  4.3011154E+01
 7.2162504E+00  4.3082142E+01
 7.2277503E+00  4.3193996E+01
 7.2392502E+00  4.3311047E+01
 7.2507505E+00  4.3372086E+01
 7.2622504E+00  4.3423737E+01
 7.2737503E+00  4.3498592E+01
 7.2852502E+00  4.3463493E+01
 7.2967505E+00  4.3480289E+01
 7.3082504E+00  4.3427895E+01
 7.3197503E+00  4.3634518E+01
 7.3312502E+00  4.3635365E+01
 7.3427505E+00  4.3780056E+01
 7.3542504E+00  4.3721199E+01
 7.3657503E+00  4.3807117E+01
 7.3772502E+00  4.3788834E+01
 7.3887506E+00  4.3781551E+01
 7.4002504E+00  4.3760986E+01
 7.4117503E+00  4.3776985E+01
 7.4232502E+00  4.3739635E+01
 7.4347506E+00  4.3756725E+01
 7.4462504E+00  4.3803432E+01
 7.4577503E+00  4.3967281E+01
 7.4692502E+00  4.4070164E+01
 7.4807506E+00  4.4237823E+01
 7.4922504E+00  4.4293247E+01
 7.5037503E+00  4.4332935E+01
 7.5152502E+00  4.4227436E+01
 7.5267506E+00  4.4275085E+01
 7.5382504E+00  4.4271854E+01
 7.5497503E+00  4.4303665E+01
 7.5612502E+00  4.4262997E+01
 7.5727506E+00  4.4272987E+01
 7.5842505E+00  4.4278416E+01
 7.5957503E+00  4.4343918E+01
 7.6072502E+00  4.4324234E+01
 7.6187506E+00  4.4347363E+01
 7.6302505E+00  4.4187744E+01
 7.6417503E+00  4.4206829E+01
 7.6532502E+00  4.4088566E+01
 7.6647506E+00  4.4026928E+01
 7.6762505E+00  4.3996513E+01
 7.6877503E+00  4.3973663E+01
 7.6992502E+00  4.4065678E+01
 7.7107506E+00  4.4163910E+01
 7.7222505E+00  4.4293541E+01
 7.7337503E+00  4.4473576E+01
 7.7452502E+00  4.4666718E+01
 7.7567506E+00  4.4667858E+01
 7.7682505E+00  4.4539665E+01
 7.7797503E+00  4.4273205E+01
 7.7912502E+00  4.4235401E+01
 7.8027506E+00  4.4240128E+01
 7.8142505E+00  4.4193798E+01
 7.8257504E+00  4.4136822E+01
 7.8372502E+00  4.4122028E+01
 7.8487506E+00  4.4127762E+01
 7.8602505E+00  4.4164516E+01
 7.8717504E+00  4.4101871E+01
 7.8832502E+00  4.4110077E+01
 7.8947506E+00  4.4033306E+01
 7.9062505E+00  4.4039268E+01
 7.9177504E+00  4.3942722E+01
 7.9292502E+00  4.3852798E+01
 7.9407506E+00  4.3748154E+01
 7.9522505E+00  4.3628979E+01
 7.9637504E+00  4.3481064E+01
 7.9752502E+00  4.3353912E+01
 7.9867506E+00  4.3347420E+01
 7.9982505E+00  4.3350452E+01
 8.0097504E+00  4.3367580E+01
 8.0212507E+00  4.3307240E+01
 8.0327501E+00  4.3231956E+01
 8.0442505E+00  4.3078186E+01
 8.0557508E+00  4.3013550E+01
 8.0672503E+00  4.2906036E+01
 8.0787506E+00  4.2803223E+01
 8.0902500E+00  4.2704975E+01
 8.1017504E+00  4.2592934E+01
 8.1132507E+00  4.2639778E+01
 8.1247501E+00  4.2451149E+01
 8.1362505E+00  4.2321404E+01
 8.1477509E+00  4.2109421E+01
 8.1592503E+00  4.1868389E+01
 8.1707506E+00  4.1778702E+01
 8.1822500E+00  4.1627243E+01
 8.1937504E+00  4.1589111E+01
 8.2052507E+00  4.1471310E+01
 8.2167501E+00  4.1364887E+01
 8.2282505E+00  4.1307232E+01
 8.2397509E+00  4.1212013E+01
 8.2512503E+00  4.1154945E+01
 8.2627506E+00  4.0933613E+01
 8.2742500E+00  4.0835766E+01
 8.2857504E+00  4.0641041E+01
 8.2972507E+00  4.0520184E+01
 8.3087502E+00  4.0395893E+01
 8.3202505E+00  4.0329292E+01
 8.3317509E+00  4.0247032E+01
 8.3432503E+00  4.0048302E+01
 8.3547506E+00  3.9876114E+01
 8.3662500E+00  3.9737736E+01
 8.3777504E+00  3.9568233E+01
 8.3892508E+00  3.9321053E+01
 8.4007502E+00  3.9045547E+01
 8.4122505E+00  3.8922131E+01
 8.4237509E+00  3.8766380E+01
 8.4352503E+00  3.8638420E+01
 8.4467506E+00  3.8404907E+01
 8.4582500E+00  3.8291325E+01
 8.4697504E+00  3.8192028E+01
 8.4812508E+00  3.8132698E+01
 8.4927502E+00  3.7987213E+01
 8.5042505E+00  3.7859169E+01
 8.5157509E+00  3.7741791E+01
 8.5272503E+00  3.7551243E+01
 8.5387506E+00  3.7441425E+01
 8.5502501E+00  3.7285908E+01
 8.5617504E+00  3.7143890E+01
 8.5732508E+00  3.7002304E+01
 8.5847502E+00  3.6777416E+01
 8.5962505E+00  3.6559166E+01
 8.6077509E+00  3.6332687E+01
 8.6192503E+00  3.6140301E+01
 8.6307507E+00  3.5988277E+01
 8.6422501E+00  3.5901554E+01
 8.6537504E+00  3.5691956E+01
 8.6652508E+00  3.5550716E+01
 8.6767502E+00  3.5234638E+01
 8.6882505E+00  3.5048668E+01
 8.6997509E+00  3.4837887E+01
 8.7112503E+00  3.4670883E+01
 8.7227507E+00  3.4462372E+01
 8.7342501E+00  3.4268452E+01
 8.7457504E+00  3.4092247E+01
 8.7572508E+00  3.3976292E+01
 8.7687502E+00  3.3896561E+01
 8.7802505E+00  3.3815636E+01
 8.7917500E+00  3.3588173E+01
 8.8032503E+00  3.3354717E+01
 8.8147507E+00  3.3090958E+01
 8.8262501E+00  3.2940834E+01
 8.8377504E+00  3.2802135E+01
 8.8492508E+00  3.2681171E+01
 8.8607502E+00  3.2600330E+01
 8.8722506E+00  3.2490501E+01
 8.8837500E+00  3.2347919E+01
 8.8952503E+00  3.2252598E+01
 8.9067507E+00  3.2135117E+01
 8.9182501E+00  3.1985065E+01
 8.9297504E+00  3.1783913E+01
 8.9412508E+00  3.1582884E+01
 8.9527502E+00  3.1412298E+01
 8.9642506E+00  3.1243147E+01
 8.9757500E+00  3.1029633E+01
 8.9872503E+00  3.0848085E+01
 8.9987507E+00  3.0665710E+01
 9.0102501E+00  3.0520706E+01
 9.0217505E+00  3.0381184E+01
 9.0332508E+00  3.0248655E+01
 9.0447502E+00  3.0179399E+01
 9.0562506E+00  3.0093121E+01
 9.0677500E+00  2.9995470E+01
 9.0792503E+00  2.9870506E+01
 9.0907507E+00  2.9710520E+01
 9.1022501E+00  2.9603483E+01
 9.1137505E+00  2.9462465E+01
 9.1252508E+00  2.9356594E+01
 9.1367502E+00  2.9271406E+01
 9.1482506E+00  2.9201229E+01
 9.1597500E+00  2.9100817E+01
 9.1712503E+00  2.8963461E+01
 9.1827507E+00  2.8816696E+01
 9.1942501E+00  2.8682352E+01
 9.2057505E+00  2.8501148E+01
 9.2172508E+00  2.8369015E+01
 9.2287502E+00  2.8155563E+01
 9.2402506E+00  2.8082867E+01
 9.2517500E+00  2.7971714E+01
 9.2632504E+00  2.7904408E+01
 9.2747507E+00  2.7810978E+01
 9.2862501E+00  2.7713387E+01
 9.2977505E+00  2.7733463E+01
 9.3092508E+00  2.7690126E+01
 9.3207502E+00  2.7670355E+01
 9.3322506E+00  2.7634476E+01
 9.3437500E+00  2.7511597E+01
 9.3552504E+00  2.7445801E+01
 9.3667507E+00  2.7400696E+01
 9.3782501E+00  2.7421667E+01
 9.3897505E+00  2.7372150E+01
 9.4012508E+00  2.7288990E+01
 9.4127502E+00  2.7208651E+01
 9.4242506E+00  2.7086149E+01
 9.4357500E+00  2.6896618E+01
 9.4472504E+00  2.6801552E+01
 9.4587507E+00  2.6647657E+01
 9.4702501E+00  2.6551455E+01
 9.4817505E+00  2.6485193E+01
 9.4932508E+00  2.6425001E+01
 9.5047503E+00  2.6391811E+01
 9.5162506E+00  2.6310301E+01
 9.5277500E+00  2.6246136E+01
 9.5392504E+00  2.6202778E+01
 9.5507507E+00  2.6088739E+01
 9.5622501E+00  2.6024584E+01
 9.5737505E+00  2.5916365E+01
 9.5852509E+00  2.5780901E+01
 9.5967503E+00  2.5770681E+01
 9.6082506E+00  2.5812979E+01
 9.6197500E+00  2.5882597E+01
 9.6312504E+00  2.5896696E+01
 9.6427507E+00  2.5833158E+01
 9.6542501E+00  2.5687176E+01
 9.6657505E+00  2.5554007E+01
 9.6772509E+00  2.5388945E+01
 9.6887503E+00  2.5359587E+01
 9.7002506E+00  2.5320114E+01
 9.7117500E+00  2.5305763E+01
 9.7232504E+00  2.5306871E+01
 9.7347507E+00  2.5324558E+01
 9.7462502E+00  2.5290131E+01
 9.7577505E+00  2.5208992E+01
 9.7692509E+00  2.5207161E+01
 9.7807503E+00  2.5153027E+01
 9.7922506E+00  2.5131304E+01
 9.8037500E+00  2.5015890E+01
 9.8152504E+00  2.4932169E+01
 9.8267508E+00  2.4856264E+01
 9.8382502E+00  2.4815561E+01
 9.8497505E+00  2.4790539E+01
 9.8612509E+00  2.4752958E+01
 9.8727503E+00  2.4682716E+01
 9.8842506E+00  2.4666430E+01
 9.8957500E+00  2.4634405E+01
 9.9072504E+00  2.4578581E+01
 9.9187508E+00  2.4565805E+01
 9.9302502E+00  2.4542208E+01
 9.9417505E+00  2.4540699E+01
 9.9532509E+00  2.4450642E+01
 9.9647503E+00  2.4446726E+01
 9.9762506E+00  2.4365955E+01
 9.9877501E+00  2.4330957E+01
 9.9992504E+00  2.4292555E+01
 1.0010751E+01  2.4257328E+01
 1.0022250E+01  2.4265661E+01
 1.0033751E+01  2.4206345E+01
 1.0045251E+01  2.4151976E+01
 1.0056750E+01  2.4072655E+01
 1.0068251E+01  2.4048307E+01
 1.0079750E+01  2.3961794E+01
 1.0091250E+01  2.3928642E+01
 1.0102751E+01  2.3843796E+01
 1.0114250E+01  2.3856310E+01
 1.0125751E+01  2.3875755E+01
 1.0137251E+01  2.3855301E+01
 1.0148750E+01  2.3845900E+01
 1.0160251E+01  2.3732124E+01
 1.0171750E+01  2.3678257E+01
 1.0183250E+01  2.3635023E+01
 1.0194751E+01  2.3643911E+01
 1.0206250E+01  2.3649214E+01
 1.0217751E+01  2.3655701E+01
 1.0229251E+01  2.3686722E+01
 1.0240750E+01  2.3662014E+01
 1.0252251E+01  2.3627892E+01
 1.0263750E+01  2.3524490E+01
 1.0275250E+01  2.3518320E+01
 1.0286751E+01  2.3493324E+01
 1.0298250E+01  2.3544880E+01
 1.0309751E+01  2.3545853E+01
 1.0321251E+01  2.3571352E+01
 1.0332750E+01  2.3590111E+01
 1.0344251E+01  2.3588993E+01
 1.0355750E+01  2.3546331E+01
 1.0367250E+01  2.3482912E+01
 1.0378751E+01  2.3413372E+01
 1.0390250E+01  2.3434179E+01
 1.0401751E+01  2.3432747E+01
 1.0413251E+01  2.3447479E+01
 1.0424750E+01  2.3401081E+01
 1.0436251E+01  2.3340452E+01
 1.0447750E+01  2.3259504E+01
 1.0459250E+01  2.3157438E+01
 1.0470751E+01  2.3073421E+01
 1.0482250E+01  2.3004242E+01
 1.0493751E+01  2.3019501E+01
 1.0505251E+01  2.3032969E+01
 1.0516750E+01  2.3112438E+01
 1.0528251E+01  2.3082354E+01
 1.0539750E+01  2.3152485E+01
 1.0551250E+01  2.3141611E+01
 1.0562751E+01  2.3177107E+01
 1.0574250E+01  2.3076097E+01
 1.0585751E+01  2.3074123E+01
 1.0597251E+01  2.3067463E+01
 1.0608750E+01  2.3105949E+01
 1.0620251E+01  2.3119400E+01
 1.0631750E+01  2.3155657E+01
 1.0643250E+01  2.3198381E+01
 1.0654751E+01  2.3187399E+01
 1.0666250E+01  2.3153034E+01
 1.0677751E+01  2.3056686E+01
 1.0689251E+01  2.2975481E+01
 1.0700750E+01  2.2883741E+01
 1.0712251E+01  2.2852835E+01
 1.0723750E+01  2.2839956E+01
 1.0735250E+01  2.2828331E+01
 1.0746751E+01  2.2816460E+01
 1.0758250E+01  2.2773302E+01
 1.0769751E+01  2.2763758E+01
 1.0781251E+01  2.2747578E+01
 1.0792750E+01  2.2701380E+01
 1.0804251E+01  2.2639429E+01
 1.0815750E+01  2.2622849E+01
 1.0827250E+01  2.2654886E+01
 1.0838751E+01  2.2693148E+01
 1.0850250E+01  2.2702995E+01
 1.0861751E+01  2.2751173E+01
 1.0873251E+01  2.2714157E+01
 1.0884750E+01  2.2649872E+01
 1.0896251E+01  2.2569887E+01
 1.0907750E+01  2.2545542E+01
 1.0919250E+01  2.2571283E+01
 1.0930751E+01  2.2533129E+01
 1.0942250E+01  2.2527294E+01
 1.0953751E+01  2.2496248E+01
 1.0965251E+01  2.2492622E+01
 1.0976750E+01  2.2513792E+01
 1.0988251E+01  2.2471403E+01
 1.0999750E+01  2.2432352E+01
 1.1011250E+01  2.2401615E+01
 1.1022751E+01  2.2424282E+01
 1.1034250E+01  2.2490862E+01
 1.1045751E+01  2.2462996E+01
 1.1057251E+01  2.2478750E+01
 1.1068750E+01  2.2480730E+01
 1.1080251E+01  2.2531380E+01
 1.1091750E+01  2.2492144E+01
 1.1103251E+01  2.2415609E+01
 1.1114751E+01  2.2352848E+01
 1.1126250E+01  2.2343155E+01
 1.1137751E+01  2.2313896E+01
 1.1149251E+01  2.2290350E+01
 1.1160750E+01  2.2312601E+01
 1.1172251E+01  2.2285334E+01
 1.1183750E+01  2.2281637E+01
 1.1195251E+01  2.2206604E+01
 1.1206751E+01  2.2229923E+01
 1.1218250E+01  2.2217300E+01
 1.1229751E+01  2.2230543E+01
 1.1241251E+01  2.2265085E+01
 1.1252750E+01  2.2257547E+01
 1.1264251E+01  2.2288319E+01
 1.1275750E+01  2.2285103E+01
 1.1287251E+01  2.2286980E+01
 1.1298751E+01  2.2314142E+01
 1.1310250E+01  2.2349394E+01
 1.1321751E+01  2.2411333E+01
 1.1333251E+01  2.2372194E+01
 1.1344750E+01  2.2316236E+01
 1.1356251E+01  2.2300331E+01
 1.1367750E+01  2.2333229E+01
 1.1379251E+01  2.2405262E+01
 1.1390751E+01  2.2461357E+01
 1.1402250E+01  2.2531555E+01
 1.1413751E+01  2.2530935E+01
 1.1425251E+01  2.2486790E+01
 1.1436750E+01  2.2498571E+01
 1.1448251E+01  2.2515972E+01
 1.1459750E+01  2.2607891E+01
 1.1471251E+01  2.2603296E+01
 1.1482751E+01  2.2629751E+01
 1.1494250E+01  2.2679295E+01
 1.1505751E+01  2.2667898E+01
 1.1517251E+01  2.2753000E+01
 1.1528750E+01  2.3018993E+01
 1.1540251E+01  2.3372360E+01
 1.1551750E+01  2.3915606E+01
 1.1563251E+01  2.4333326E+01
 1.1574751E+01  2.4810415E+01
 1.1586250E+01  2.5189648E+01
 1.1597751E+01  2.5379601E+01
 1.1609251E+01  2.5205446E+01
 1.1620750E+01  2.4821346E+01
 1.1632251E+01  2.4239208E+01
 1.1643750E+01  2.3783655E+01
 1.1655251E+01  2.3317526E+01
 1.1666751E+01  2.3028820E+01
 1.1678250E+01  2.2834908E+01
 1.1689751E+01  2.2618080E+01
 1.1701251E+01  2.2499123E+01
 1.1712750E+01  2.2427317E+01
 1.1724251E+01  2.2465027E+01
 1.1735750E+01  2.2514400E+01
 1.1747251E+01  2.2570803E+01
 1.1758751E+01  2.2526743E+01
 1.1770250E+01  2.2412876E+01
 1.1781751E+01  2.2309254E+01
 1.1793251E+01  2.2266373E+01
 1.1804750E+01  2.2282379E+01
 1.1816251E+01  2.2329121E+01
 1.1827750E+01  2.2320557E+01
 1.1839251E+01  2.2284985E+01
 1.1850751E+01  2.2236702E+01
 1.1862250E+01  2.2259111E+01
 1.1873751E+01  2.2307028E+01
 1.1885251E+01  2.2321302E+01
 1.1896750E+01  2.2314129E+01
 1.1908251E+01  2.2304411E+01
 1.1919750E+01  2.2375856E+01
 1.1931251E+01  2.2472023E+01
 1.1942751E+01  2.2582050E+01
 1.1954250E+01  2.2676603E+01
 1.1965751E+01  2.2778563E+01
 1.1977251E+01  2.2929459E+01
 1.1988750E+01  2.3107107E+01
 1.2000251E+01  2.3302151E+01
 1.2011750E+01  2.3395525E+01
 1.2023251E+01  2.3450813E+01
 1.2034751E+01  2.3378916E+01
 1.2046250E+01  2.3324888E+01
 1.2057751E+01  2.3226719E+01
 1.2069251E+01  2.3205002E+01
 1.2080750E+01  2.3278555E+01
 1.2092251E+01  2.3321835E+01
 1.2103750E+01  2.3401281E+01
 1.2115251E+01  2.3373566E+01
 1.2126751E+01  2.3423546E+01
 1.2138250E+01  2.3394161E+01
 1.2149751E+01  2.3283953E+01
 1.2161251E+01  2.3089251E+01
 1.2172750E+01  2.2907795E+01
 1.2184251E+01  2.2776682E+01
 1.2195750E+01  2.2649815E+01
 1.2207251E+01  2.2528805E+01
 1.2218751E+01  2.2459938E+01
 1.2230250E+01  2.2404892E+01
 1.2241751E+01  2.2358784E+01
 1.2253251E+01  2.2316275E+01
 1.2264750E+01  2.2292490E+01
 1.2276251E+01  2.2246740E+01
 1.2287750E+01  2.2211338E+01
 1.2299251E+01  2.2224487E+01
 1.2310751E+01  2.2313311E+01
 1.2322250E+01  2.2278967E+01
 1.2333751E+01  2.2271946E+01
 1.2345250E+01  2.2311207E+01
 1.2356750E+01  2.2436939E+01
 1.2368251E+01  2.2543171E+01
 1.2379750E+01  2.2507233E+01
 1.2391251E+01  2.2500477E+01
 1.2402751E+01  2.2431393E+01
 1.2414250E+01  2.2414576E+01
 1.2425751E+01  2.2402103E+01
 1.2437250E+01  2.2404236E+01
 1.2448750E+01  2.2444998E+01
 1.2460251E+01  2.2505760E+01
 1.2471750E+01  2.2528965E+01
 1.2483251E+01  2.2573534E+01
 1.2494751E+01  2.2579592E+01
 1.2506250E+01  2.2593435E+01
 1.2517751E+01  2.2581005E+01
 1.2529250E+01  2.2557055E+01
 1.2540751E+01  2.2595930E+01
 1.2552251E+01  2.2658340E+01
 1.2563750E+01  2.2670710E+01
 1.2575251E+01  2.2677338E+01
 1.2586751E+01  2.2621067E+01
 1.2598250E+01  2.2571527E+01
 1.2609751E+01  2.2546730E+01
 1.2621250E+01  2.2560276E+01
 1.2632751E+01  2.2602673E+01
 1.2644251E+01  2.2605307E+01
 1.2655750E+01  2.2677519E+01
 1.2667251E+01  2.2794527E+01
 1.2678751E+01  2.2841751E+01
 1.2690250E+01  2.2850159E+01
 1.2701751E+01  2.2817823E+01
 1.2713250E+01  2.2826303E+01
 1.2724751E+01  2.2766718E+01
 1.2736251E+01  2.2716547E+01
 1.2747750E+01  2.2715738E+01
 1.2759251E+01  2.2757040E+01
 1.2770751E+01  2.2798347E+01
 1.2782250E+01  2.2864378E+01
 1.2793751E+01  2.2887247E+01
 1.2805250E+01  2.2981138E+01
 1.2816751E+01  2.3093071E+01
 1.2828251E+01  2.3193352E+01
 1.2839750E+01  2.3220402E+01
 1.2851251E+01  2.3197426E+01
 1.2862751E+01  2.3198975E+01
 1.2874250E+01  2.3186119E+01
 1.2885751E+01  2.3139694E+01
 1.2897250E+01  2.3159615E+01
 1.2908751E+01  2.3237637E+01
 1.2920251E+01  2.3351524E+01
 1.2931750E+01  2.3445625E+01
 1.2943251E+01  2.3534269E+01
 1.2954751E+01  2.3580254E+01
 1.2966250E+01  2.3610531E+01
 1.2977751E+01  2.3633789E+01
 1.2989250E+01  2.3651964E+01
 1.3000751E+01  2.3741667E+01
 1.3012251E+01  2.3786530E+01
 1.3023750E+01  2.3893934E+01
 1.3035251E+01  2.3965019E+01
 1.3046751E+01  2.4041479E+01
 1.3058250E+01  2.4101471E+01
 1.3069751E+01  2.4088648E+01
 1.3081250E+01  2.4179543E+01
 1.3092751E+01  2.4342556E+01
 1.3104251E+01  2.4630438E+01
 1.3115750E+01  2.4792055E+01
 1.3127251E+01  2.4903254E+01
 1.3138751E+01  2.4912838E+01
 1.3150250E+01  2.5017349E+01
 1.3161751E+01  2.5083345E+01
 1.3173250E+01  2.5218994E+01
 1.3184751E+01  2.5314829E+01
 1.3196251E+01  2.5464399E+01
 1.3207750E+01  2.5620399E+01
 1.3219251E+01  2.5798311E+01
 1.3230751E+01  2.5958767E+01
 1.3242250E+01  2.6114626E+01
 1.3253751E+01  2.6263147E+01
 1.3265250E+01  2.6431332E+01
 1.3276751E+01  2.6574549E+01
 1.3288251E+01  2.6759062E+01
 1.3299750E+01  2.6925337E+01
 1.3311251E+01  2.7018829E+01
 1.3322751E+01  2.7097717E+01
 1.3334250E+01  2.7159126E+01
 1.3345751E+01  2.7299015E+01
 1.3357250E+01  2.7447985E+01
 1.3368751E+01  2.7508846E+01
 1.3380251E+01  2.7633976E+01
 1.3391750E+01  2.7695759E+01
 1.3403251E+01  2.7860355E+01
 1.3414751E+01  2.7973234E+01
 1.3426250E+01  2.8165913E+01
 1.3437751E+01  2.8367851E+01
 1.3449250E+01  2.8539717E+01
 1.3460751E+01  2.8683062E+01
 1.3472251E+01  2.8783100E+01
 1.3483750E+01  2.8942539E+01
 1.3495251E+01  2.9022545E+01
 1.3506751E+01  2.9160923E+01
 1.3518250E+01  2.9211874E+01
 1.3529751E+01  2.9352335E+01
 1.3541250E+01  2.9421856E+01
 1.3552751E+01  2.9454426E+01
 1.3564251E+01  2.9438442E+01
 1.3575750E+01  2.9404366E+01
 1.3587251E+01  2.9387442E+01
 1.3598751E+01  2.9390036E+01
 1.3610250E+01  2.9378847E+01
 1.3621751E+01  2.9383396E+01
 1.3633250E+01  2.9353769E+01
 1.3644751E+01  2.9324434E+01
 1.3656251E+01  2.9334574E+01
 1.3667750E+01  2.9330683E+01
 1.3679251E+01  2.9360826E+01
 1.3690751E+01  2.9342054E+01
 1.3702250E+01  2.9316103E+01
 1.3713751E+01  2.9231827E+01
 1.3725250E+01  2.9148680E+01
 1.3736751E+01  2.9119991E+01
 1.3748251E+01  2.9108788E+01
 1.3759750E+01  2.9070501E+01
 1.3771251E+01  2.9008421E+01
 1.3782751E+01  2.8937559E+01
 1.3794250E+01  2.8881096E+01
 1.3805751E+01  2.8873499E+01
 1.3817250E+01  2.8867170E+01
 1.3828751E+01  2.8842442E+01
 1.3840251E+01  2.8787195E+01
 1.3851750E+01  2.8736481E+01
 1.3863251E+01  2.8748255E+01
 1.3874751E+01  2.8755754E+01
 1.3886250E+01  2.8857237E+01
 1.3897751E+01  2.9028013E+01
 1.3909250E+01  2.9265272E+01
 1.3920751E+01  2.9540897E+01
 1.3932251E+01  2.9751341E+01
 1.3943750E+01  2.9950884E+01
 1.3955251E+01  3.0022331E+01
 1.3966751E+01  3.0015436E+01
 1.3978251E+01  2.9681541E+01
 1.3989751E+01  2.9326418E+01
 1.4001250E+01  2.8807680E+01
 1.4012751E+01  2.8466146E+01
 1.4024251E+01  2.8089684E+01
 1.4035750E+01  2.7846478E+01
 1.4047251E+01  2.7652575E+01
 1.4058751E+01  2.7546036E+01
 1.4070251E+01  2.7433004E+01
 1.4081751E+01  2.7258884E+01
 1.4093250E+01  2.7123053E+01
 1.4104751E+01  2.7039124E+01
 1.4116251E+01  2.7005850E+01
 1.4127750E+01  2.6978806E+01
 1.4139251E+01  2.6960176E+01
 1.4150751E+01  2.6906153E+01
 1.4162251E+01  2.6842379E+01
 1.4173751E+01  2.6715670E+01
 1.4185250E+01  2.6619394E+01
 1.4196751E+01  2.6541945E+01
 1.4208251E+01  2.6543497E+01
 1.4219750E+01  2.6526022E+01
 1.4231251E+01  2.6457481E+01
 1.4242751E+01  2.6369423E+01
 1.4254251E+01  2.6269814E+01
 1.4265751E+01  2.6238852E+01
 1.4277250E+01  2.6184830E+01
 1.4288751E+01  2.6241644E+01
 1.4300251E+01  2.6220947E+01
 1.4311750E+01  2.6214445E+01
 1.4323251E+01  2.6091295E+01
 1.4334751E+01  2.6036901E+01
 1.4346251E+01  2.5967581E+01
 1.4357751E+01  2.5907217E+01
 1.4369250E+01  2.5827217E+01
 1.4380751E+01  2.5775120E+01
 1.4392251E+01  2.5734756E+01
 1.4403750E+01  2.5707838E+01
 1.4415251E+01  2.5679440E+01
 1.4426751E+01  2.5662956E+01
 1.4438251E+01  2.5630602E+01
 1.4449751E+01  2.5580719E+01
 1.4461250E+01  2.5552786E+01
 1.4472751E+01  2.5508842E+01
 1.4484251E+01  2.5495474E+01
 1.4495750E+01  2.5477245E+01
 1.4507251E+01  2.5476521E+01
 1.4518751E+01  2.5485718E+01
 1.4530251E+01  2.5537783E+01
 1.4541751E+01  2.5516712E+01
 1.4553250E+01  2.5511848E+01
 1.4564751E+01  2.5459438E+01
 1.4576251E+01  2.5411386E+01
 1.4587750E+01  2.5354210E+01
 1.4599251E+01  2.5289017E+01
 1.4610751E+01  2.5274858E+01
 1.4622251E+01  2.5209118E+01
 1.4633751E+01  2.5186806E+01
 1.4645250E+01  2.5179239E+01
 1.4656751E+01  2.5196682E+01
 1.4668251E+01  2.5187143E+01
 1.4679750E+01  2.5130520E+01
 1.4691251E+01  2.5100269E+01
 1.4702751E+01  2.5040854E+01
 1.4714251E+01  2.5033901E+01
 1.4725751E+01  2.5019564E+01
 1.4737250E+01  2.5032011E+01
 1.4748751E+01  2.5006077E+01
 1.4760251E+01  2.4942745E+01
 1.4771750E+01  2.4906927E+01
 1.4783251E+01  2.4870291E+01
 1.4794751E+01  2.4853926E+01
 1.4806251E+01  2.4799885E+01
 1.4817751E+01  2.4782818E+01
 1.4829250E+01  2.4689745E+01
 1.4840751E+01  2.4710388E+01
 1.4852251E+01  2.4669762E+01
 1.4863750E+01  2.4737320E+01
 1.4875251E+01  2.4681181E+01
 1.4886751E+01  2.4722887E+01
 1.4898251E+01  2.4744385E+01
 1.4909751E+01  2.4802341E+01
 1.4921250E+01  2.4766169E+01
 1.4932751E+01  2.4722279E+01
 1.4944251E+01  2.4676983E+01
 1.4955750E+01  2.4655508E+01
 1.4967251E+01  2.4613960E+01
 1.4978751E+01  2.4618505E+01
 1.4990251E+01  2.4627127E+01
 1.5001751E+01  2.4689236E+01
 1.5013250E+01  2.4751551E+01
 1.5024751E+01  2.4793959E+01
 1.5036251E+01  2.4758106E+01
 1.5047750E+01  2.4720375E+01
 1.5059251E+01  2.4719337E+01
 1.5070751E+01  2.4721636E+01
 1.5082251E+01  2.4721022E+01
 1.5093751E+01  2.4709032E+01
 1.5105250E+01  2.4722786E+01
 1.5116751E+01  2.4759859E+01
 1.5128251E+01  2.4764078E+01
 1.5139750E+01  2.4881254E+01
 1.5151251E+01  2.4948933E+01
 1.5162751E+01  2.5069695E+01
 1.5174251E+01  2.5158436E+01
 1.5185751E+01  2.5222361E+01
 1.5197250E+01  2.5194147E+01
 1.5208751E+01  2.5098221E+01
 1.5220251E+01  2.4995358E+01
 1.5231750E+01  2.4908895E+01
 1.5243251E+01  2.4747671E+01
 1.5254751E+01  2.4659536E+01
 1.5266251E+01  2.4506840E+01
 1.5277751E+01  2.4576500E+01
 1.5289250E+01  2.4566917E+01
 1.5300751E+01  2.4767328E+01
 1.5312251E+01  2.5375572E+01
 1.5323750E+01  2.5276474E+01
 1.5335251E+01  2.5277258E+01
 1.5346751E+01  2.4790380E+01
 1.5358251E+01  2.4827505E+01
 1.5369751E+01  2.4542337E+01
 1.5381250E+01  2.4417717E+01
 1.5392751E+01  2.4463051E+01
 1.5404251E+01  2.4426529E+01
 1.5415751E+01  2.4368628E+01
 1.5427251E+01  2.4330324E+01
 1.5438751E+01  2.4337406E+01
 1.5450251E+01  2.4441828E+01
 1.5461751E+01  2.4439806E+01
 1.5473250E+01  2.4412142E+01
 1.5484751E+01  2.4391121E+01
 1.5496251E+01  2.4423691E+01
 1.5507751E+01  2.4430122E+01
 1.5519251E+01  2.4413958E+01
 1.5530751E+01  2.4350634E+01
 1.5542251E+01  2.4338778E+01
 1.5553751E+01  2.4316017E+01
 1.5565250E+01  2.4319576E+01
 1.5576751E+01  2.4299986E+01
 1.5588251E+01  2.4272259E+01
 1.5599751E+01  2.4271498E+01
 1.5611251E+01  2.4238510E+01
 1.5622751E+01  2.4276793E+01
 1.5634251E+01  2.4304480E+01
 1.5645751E+01  2.4412685E+01
 1.5657250E+01  2.4398521E+01
 1.5668751E+01  2.4415087E+01
 1.5680251E+01  2.4346079E+01
 1.5691751E+01  2.4347023E+01
 1.5703251E+01  2.4363729E+01
 1.5714751E+01  2.4379885E+01
 1.5726251E+01  2.4395014E+01
 1.5737751E+01  2.4371725E+01
 1.5749250E+01  2.4394722E+01
 1.5760751E+01  2.4398760E+01
 1.5772251E+01  2.4429506E+01
 1.5783751E+01  2.4407499E+01
 1.5795251E+01  2.4433388E+01
 1.5806751E+01  2.4398569E+01
 1.5818251E+01  2.4382725E+01
 1.5829751E+01  2.4356850E+01
 1.5841250E+01  2.4372623E+01
 1.5852751E+01  2.4412378E+01
 1.5864251E+01  2.4364922E+01
 1.5875751E+01  2.4347963E+01
 1.5887251E+01  2.4334488E+01
 1.5898750E+01  2.4373314E+01
 1.5910251E+01  2.4442429E+01
 1.5921751E+01  2.4492300E+01
 1.5933250E+01  2.4549570E+01
 1.5944751E+01  2.4512197E+01
 1.5956251E+01  2.4485865E+01
 1.5967751E+01  2.4465239E+01
 1.5979251E+01  2.4490820E+01
 1.5990750E+01  2.4512186E+01
 1.6002251E+01  2.4540735E+01
 1.6013750E+01  2.4524351E+01
 1.6025251E+01  2.4505913E+01
 1.6036751E+01  2.4496449E+01
 1.6048250E+01  2.4540609E+01
 1.6059752E+01  2.4584438E+01
 1.6071251E+01  2.4522026E+01
 1.6082750E+01  2.4540148E+01
 1.6094252E+01  2.4497765E+01
 1.6105751E+01  2.4620817E+01
 1.6117250E+01  2.4665319E+01
 1.6128750E+01  2.4743977E+01
 1.6140251E+01  2.4795248E+01
 1.6151751E+01  2.4769627E+01
 1.6163250E+01  2.4858622E+01
 1.6174751E+01  2.4760571E+01
 1.6186251E+01  2.5198725E+01
 1.6197750E+01  2.5123716E+01
 1.6209251E+01  2.6245586E+01
 1.6220751E+01  2.6429161E+01
 1.6232250E+01  2.7900610E+01
 1.6243752E+01  2.8266619E+01
 1.6255251E+01  2.8900307E+01
 1.6266750E+01  2.8826218E+01
 1.6278252E+01  2.7816156E+01
 1.6289751E+01  2.7345160E+01
 1.6301250E+01  2.5851969E+01
 1.6312750E+01  2.5740843E+01
 1.6324251E+01  2.4959337E+01
 1.6335751E+01  2.5029657E+01
 1.6347250E+01  2.4778772E+01
 1.6358751E+01  2.4766106E+01
 1.6370251E+01  2.4678024E+01
 1.6381750E+01  2.4656757E+01
 1.6393251E+01  2.4672010E+01
 1.6404751E+01  2.4659906E+01
 1.6416250E+01  2.4646282E+01
 1.6427752E+01  2.4589430E+01
 1.6439251E+01  2.4568686E+01
 1.6450750E+01  2.4520496E+01
 1.6462252E+01  2.4520376E+01
 1.6473751E+01  2.4496695E+01
 1.6485250E+01  2.4479425E+01
 1.6496750E+01  2.4455744E+01
 1.6508251E+01  2.4430559E+01
 1.6519751E+01  2.4400698E+01
 1.6531250E+01  2.4403332E+01
 1.6542751E+01  2.4450861E+01
 1.6554251E+01  2.4502382E+01
 1.6565750E+01  2.4534042E+01
 1.6577251E+01  2.4503477E+01
 1.6588751E+01  2.4481010E+01
 1.6600250E+01  2.4464689E+01
 1.6611752E+01  2.4476826E+01
 1.6623251E+01  2.4368614E+01
 1.6634750E+01  2.4346123E+01
 1.6646252E+01  2.4280788E+01
 1.6657751E+01  2.4344404E+01
 1.6669250E+01  2.4354950E+01
 1.6680750E+01  2.4366135E+01
 1.6692251E+01  2.4358429E+01
 1.6703751E+01  2.4293737E+01
 1.6715250E+01  2.4289656E+01
 1.6726751E+01  2.4245932E+01
 1.6738251E+01  2.4268772E+01
 1.6749750E+01  2.4316252E+01
 1.6761251E+01  2.4360607E+01
 1.6772751E+01  2.4360943E+01
 1.6784250E+01  2.4311445E+01
 1.6795752E+01  2.4246532E+01
 1.6807251E+01  2.4190214E+01
 1.6818750E+01  2.4159212E+01
 1.6830252E+01  2.4167465E+01
 1.6841751E+01  2.4203121E+01
 1.6853251E+01  2.4195902E+01
 1.6864750E+01  2.4190536E+01
 1.6876251E+01  2.4191078E+01
 1.6887751E+01  2.4224113E+01
 1.6899250E+01  2.4219601E+01
 1.6910751E+01  2.4151937E+01
 1.6922251E+01  2.4106052E+01
 1.6933750E+01  2.4056604E+01
 1.6945251E+01  2.4054733E+01
 1.6956751E+01  2.4064363E+01
 1.6968250E+01  2.4108490E+01
 1.6979752E+01  2.4117584E+01
 1.6991251E+01  2.4138496E+01
 1.7002750E+01  2.4131079E+01
 1.7014252E+01  2.4126886E+01
 1.7025751E+01  2.4118273E+01
 1.7037251E+01  2.4082695E+01
 1.7048750E+01  2.4022251E+01
 1.7060251E+01  2.3968548E+01
 1.7071751E+01  2.4010365E+01
 1.7083250E+01  2.4033291E+01
 1.7094751E+01  2.4065418E+01
 1.7106251E+01  2.4021879E+01
 1.7117750E+01  2.4003738E+01
 1.7129251E+01  2.4031420E+01
 1.7140751E+01  2.4059835E+01
 1.7152250E+01  2.4094954E+01
 1.7163752E+01  2.4078432E+01
 1.7175251E+01  2.4120653E+01
 1.7186750E+01  2.4096889E+01
 1.7198252E+01  2.4081564E+01
 1.7209751E+01  2.4041111E+01
 1.7221251E+01  2.3992809E+01
 1.7232750E+01  2.3971346E+01
 1.7244251E+01  2.3969074E+01
 1.7255751E+01  2.3964561E+01
 1.7267250E+01  2.3938824E+01
 1.7278751E+01  2.3940733E+01
 1.7290251E+01  2.3962471E+01
 1.7301750E+01  2.3976805E+01
 1.7313251E+01  2.3941252E+01
 1.7324751E+01  2.3926979E+01
 1.7336250E+01  2.3852585E+01
 1.7347752E+01  2.3819193E+01
 1.7359251E+01  2.3792349E+01
 1.7370750E+01  2.3795301E+01
 1.7382252E+01  2.3795914E+01
 1.7393751E+01  2.3710199E+01
 1.7405251E+01  2.3701052E+01
 1.7416750E+01  2.3649805E+01
 1.7428251E+01  2.3706408E+01
 1.7439751E+01  2.3730854E+01
 1.7451250E+01  2.3754446E+01
 1.7462751E+01  2.3769735E+01
 1.7474251E+01  2.3776089E+01
 1.7485750E+01  2.3751257E+01
 1.7497252E+01  2.3724249E+01
 1.7508751E+01  2.3715530E+01
 1.7520250E+01  2.3757690E+01
 1.7531752E+01  2.3759726E+01
 1.7543251E+01  2.3742649E+01
 1.7554750E+01  2.3705542E+01
 1.7566252E+01  2.3678982E+01
 1.7577751E+01  2.3649708E+01
 1.7589251E+01  2.3620960E+01
 1.7600750E+01  2.3607908E+01
 1.7612251E+01  2.3591478E+01
 1.7623751E+01  2.3606604E+01
 1.7635250E+01  2.3565136E+01
 1.7646751E+01  2.3555883E+01
 1.7658251E+01  2.3531063E+01
 1.7669750E+01  2.3584969E+01
 1.7681252E+01  2.3664850E+01
 1.7692751E+01  2.3700418E+01
 1.7704250E+01  2.3707876E+01
 1.7715752E+01  2.3692211E+01
 1.7727251E+01  2.3657982E+01
 1.7738750E+01  2.3618681E+01
 1.7750252E+01  2.3584692E+01
 1.7761751E+01  2.3595327E+01
 1.7773251E+01  2.3627274E+01
 1.7784750E+01  2.3636414E+01
 1.7796251E+01  2.3627943E+01
 1.7807751E+01  2.3597719E+01
 1.7819250E+01  2.3578852E+01
 1.7830751E+01  2.3563988E+01
 1.7842251E+01  2.3559496E+01
 1.7853750E+01  2.3502834E+01
 1.7865252E+01  2.3487389E+01
 1.7876751E+01  2.3461740E+01
 1.7888250E+01  2.3462208E+01
 1.7899752E+01  2.3460295E+01
 1.7911251E+01  2.3546570E+01
 1.7922750E+01  2.3586843E+01
 1.7934252E+01  2.3606348E+01
 1.7945751E+01  2.3554607E+01
 1.7957251E+01  2.3525787E+01
 1.7968750E+01  2.3529951E+01
 1.7980251E+01  2.3609472E+01
 1.7991751E+01  2.3709764E+01
 1.8003250E+01  2.3738699E+01
 1.8014751E+01  2.3722311E+01
 1.8026251E+01  2.3725260E+01
 1.8037750E+01  2.3786072E+01
 1.8049252E+01  2.3886822E+01
 1.8060751E+01  2.3971554E+01
 1.8072250E+01  2.4036283E+01
 1.8083752E+01  2.4155630E+01
 1.8095251E+01  2.4209890E+01
 1.8106750E+01  2.4241756E+01
 1.8118252E+01  2.4232321E+01
 1.8129751E+01  2.4204111E+01
 1.8141251E+01  2.4134600E+01
 1.8152750E+01  2.3972292E+01
 1.8164251E+01  2.3863943E+01
 1.8175751E+01  2.3709248E+01
 1.8187250E+01  2.3592472E+01
 1.8198751E+01  2.3523767E+01
 1.8210251E+01  2.3473209E+01
 1.8221750E+01  2.3433184E+01
 1.8233252E+01  2.3393255E+01
 1.8244751E+01  2.3395214E+01
 1.8256250E+01  2.3392303E+01
 1.8267752E+01  2.3383694E+01
 1.8279251E+01  2.3360828E+01
 1.8290751E+01  2.3335701E+01
 1.8302252E+01  2.3352680E+01
 1.8313751E+01  2.3359432E+01
 1.8325251E+01  2.3413374E+01
 1.8336750E+01  2.3435801E+01
 1.8348251E+01  2.3486359E+01
 1.8359751E+01  2.3496975E+01
 1.8371250E+01  2.3456221E+01
 1.8382751E+01  2.3440601E+01
 1.8394251E+01  2.3445126E+01
 1.8405750E+01  2.3479828E+01
 1.8417252E+01  2.3472628E+01
 1.8428751E+01  2.3475069E+01
 1.8440250E+01  2.3494381E+01
 1.8451752E+01  2.3424704E+01
 1.8463251E+01  2.3401051E+01
 1.8474751E+01  2.3413538E+01
 1.8486252E+01  2.3463074E+01
 1.8497751E+01  2.3492775E+01
 1.8509251E+01  2.3490042E+01
 1.8520750E+01  2.3470566E+01
 1.8532251E+01  2.3429701E+01
 1.8543751E+01  2.3399879E+01
 1.8555250E+01  2.3344793E+01
 1.8566751E+01  2.3281345E+01
 1.8578251E+01  2.3293417E+01
 1.8589750E+01  2.3393806E+01
 1.8601252E+01  2.3456160E+01
 1.8612751E+01  2.3461275E+01
 1.8624250E+01  2.3432657E+01
 1.8635752E+01  2.3429010E+01
 1.8647251E+01  2.3342558E+01
 1.8658751E+01  2.3287260E+01
 1.8670252E+01  2.3267525E+01
 1.8681751E+01  2.3316900E+01
 1.8693251E+01  2.3365915E+01
 1.8704750E+01  2.3345758E+01
 1.8716251E+01  2.3314251E+01
 1.8727751E+01  2.3277542E+01
 1.8739250E+01  2.3273563E+01
 1.8750751E+01  2.3305826E+01
 1.8762251E+01  2.3317427E+01
 1.8773750E+01  2.3344854E+01
 1.8785252E+01  2.3333021E+01
 1.8796751E+01  2.3362207E+01
 1.8808250E+01  2.3314299E+01
 1.8819752E+01  2.3273178E+01
 1.8831251E+01  2.3227924E+01
 1.8842751E+01  2.3244326E+01
 1.8854252E+01  2.3272575E+01
 1.8865751E+01  2.3321213E+01
 1.8877251E+01  2.3334532E+01
 1.8888750E+01  2.3324450E+01
 1.8900251E+01  2.3337276E+01
 1.8911751E+01  2.3394003E+01
 1.8923250E+01  2.3460503E+01
 1.8934752E+01  2.3487150E+01
 1.8946251E+01  2.3526331E+01
 1.8957750E+01  2.3458771E+01
 1.8969252E+01  2.3331100E+01
 1.8980751E+01  2.3259886E+01
 1.8992250E+01  2.3248260E+01
 1.9003752E+01  2.3258770E+01
 1.9015251E+01  2.3268370E+01
 1.9026751E+01  2.3289070E+01
 1.9038252E+01  2.3279402E+01
 1.9049751E+01  2.3211206E+01
 1.9061251E+01  2.3234343E+01
 1.9072750E+01  2.3250139E+01
 1.9084251E+01  2.3291883E+01
 1.9095751E+01  2.3316133E+01
 1.9107250E+01  2.3337126E+01
 1.9118752E+01  2.3299431E+01
 1.9130251E+01  2.3307127E+01
 1.9141750E+01  2.3347715E+01
 1.9153252E+01  2.3395546E+01
 1.9164751E+01  2.3399685E+01
 1.9176250E+01  2.3354937E+01
 1.9187752E+01  2.3309034E+01
 1.9199251E+01  2.3253126E+01
 1.9210751E+01  2.3236277E+01
 1.9222252E+01  2.3245541E+01
 1.9233751E+01  2.3287432E+01
 1.9245251E+01  2.3353062E+01
 1.9256750E+01  2.3441835E+01
 1.9268251E+01  2.3501457E+01
 1.9279751E+01  2.3472015E+01
 1.9291250E+01  2.3446140E+01
 1.9302752E+01  2.3453995E+01
 1.9314251E+01  2.3447361E+01
 1.9325750E+01  2.3431776E+01
 1.9337252E+01  2.3392769E+01
 1.9348751E+01  2.3377636E+01
 1.9360250E+01  2.3351910E+01
 1.9371752E+01  2.3399172E+01
 1.9383251E+01  2.3421576E+01
 1.9394751E+01  2.3422688E+01
 1.9406250E+01  2.3382280E+01
 1.9417751E+01  2.3384871E+01
 1.9429251E+01  2.3439182E+01
 1.9440750E+01  2.3412479E+01
 1.9452251E+01  2.3429062E+01
 1.9463751E+01  2.3429964E+01
 1.9475250E+01  2.3459600E+01
 1.9486752E+01  2.3410334E+01
 1.9498251E+01  2.3418247E+01
 1.9509750E+01  2.3384043E+01
 1.9521252E+01  2.3431702E+01
 1.9532751E+01  2.3470045E+01
 1.9544250E+01  2.3531094E+01
 1.9555752E+01  2.3480272E+01
 1.9567251E+01  2.3465164E+01
 1.9578751E+01  2.3482876E+01
 1.9590250E+01  2.3509047E+01
 1.9601751E+01  2.3556149E+01
 1.9613251E+01  2.3611427E+01
 1.9624750E+01  2.3670313E+01
 1.9636251E+01  2.3729162E+01
 1.9647751E+01  2.3816900E+01
 1.9659250E+01  2.3936199E+01
 1.9670752E+01  2.4051020E+01
 1.9682251E+01  2.4202999E+01
 1.9693750E+01  2.4403484E+01
 1.9705252E+01  2.4576345E+01
 1.9716751E+01  2.4753197E+01
 1.9728251E+01  2.4799616E+01
 1.9739752E+01  2.4806993E+01
 1.9751251E+01  2.4735954E+01
 1.9762751E+01  2.4624540E+01
 1.9774250E+01  2.4480810E+01
 1.9785751E+01  2.4384768E+01
 1.9797251E+01  2.4440414E+01
 1.9808750E+01  2.4622377E+01
 1.9820251E+01  2.4889536E+01
 1.9831751E+01  2.5219913E+01
 1.9843250E+01  2.5582220E+01
 1.9854752E+01  2.5763306E+01
 1.9866251E+01  2.5758005E+01
 1.9877750E+01  2.5585623E+01
 1.9889252E+01  2.5314791E+01
 1.9900751E+01  2.4999302E+01
 1.9912251E+01  2.4625057E+01
 1.9923752E+01  2.4339512E+01
 1.9935251E+01  2.4093491E+01
 1.9946751E+01  2.3956871E+01
 1.9958250E+01  2.3834421E+01
 1.9969751E+01  2.3765177E+01
 1.9981251E+01  2.3677364E+01
 1.9992750E+01  2.3644972E+01
 2.0004251E+01  2.3640036E+01
 2.0015751E+01  2.3618469E+01
 2.0027250E+01  2.3613440E+01
 2.0038752E+01  2.3598843E+01
 2.0050251E+01  2.3632566E+01
 2.0061750E+01  2.3609665E+01
 2.0073252E+01  2.3623955E+01
 2.0084751E+01  2.3580898E+01
 2.0096251E+01  2.3587873E+01
 2.0107752E+01  2.3599934E+01
 2.0119251E+01  2.3614080E+01
 2.0130751E+01  2.3601873E+01
 2.0142250E+01  2.3580444E+01
 2.0153751E+01  2.3578070E+01
 2.0165251E+01  2.3599171E+01
 2.0176750E+01  2.3613045E+01
 2.0188251E+01  2.3600988E+01
 2.0199751E+01  2.3536217E+01
 2.0211250E+01  2.3522110E+01
 2.0222752E+01  2.3492100E+01
 2.0234251E+01  2.3488333E+01
 2.0245750E+01  2.3507599E+01
 2.0257252E+01  2.3496088E+01
 2.0268751E+01  2.3450525E+01
 2.0280251E+01  2.3442856E+01
 2.0291752E+01  2.3430407E+01
 2.0303251E+01  2.3415995E+01
 2.0314751E+01  2.3379650E+01
 2.0326250E+01  2.3400331E+01
 2.0337751E+01  2.3445898E+01
 2.0349251E+01  2.3531982E+01
 2.0360750E+01  2.3576313E+01
 2.0372252E+01  2.3612961E+01
 2.0383751E+01  2.3595785E+01
 2.0395250E+01  2.3633148E+01
 2.0406752E+01  2.3650841E+01
 2.0418251E+01  2.3649424E+01
 2.0429750E+01  2.3618172E+01
 2.0441252E+01  2.3578655E+01
 2.0452751E+01  2.3582523E+01
 2.0464251E+01  2.3567921E+01
 2.0475752E+01  2.3536913E+01
 2.0487251E+01  2.3552032E+01
 2.0498751E+01  2.3558855E+01
 2.0510250E+01  2.3580639E+01
 2.0521751E+01  2.3573696E+01
 2.0533251E+01  2.3585098E+01
 2.0544750E+01  2.3645279E+01
 2.0556252E+01  2.3694910E+01
 2.0567751E+01  2.3739309E+01
 2.0579250E+01  2.3715164E+01
 2.0590752E+01  2.3756350E+01
 2.0602251E+01  2.3780140E+01
 2.0613750E+01  2.3848284E+01
 2.0625252E+01  2.3857660E+01
 2.0636751E+01  2.3858923E+01
 2.0648251E+01  2.3829504E+01
 2.0659752E+01  2.3848480E+01
 2.0671251E+01  2.3854868E+01
 2.0682751E+01  2.3910280E+01
 2.0694250E+01  2.3996780E+01
 2.0705751E+01  2.4152880E+01
 2.0717251E+01  2.4371717E+01
 2.0728750E+01  2.4528957E+01
 2.0740252E+01  2.4623138E+01
 2.0751751E+01  2.4755634E+01
 2.0763250E+01  2.4751265E+01
 2.0774752E+01  2.4713278E+01
 2.0786251E+01  2.4544600E+01
 2.0797750E+01  2.4430784E+01
 2.0809252E+01  2.4275469E+01
 2.0820751E+01  2.4147993E+01
 2.0832251E+01  2.3982517E+01
 2.0843752E+01  2.3863407E+01
 2.0855251E+01  2.3789440E+01
 2.0866751E+01  2.3760036E+01
 2.0878250E+01  2.3768530E+01
 2.0889751E+01  2.3833824E+01
 2.0901251E+01  2.3874666E+01
 2.0912750E+01  2.3872156E+01
 2.0924252E+01  2.3844557E+01
 2.0935751E+01  2.3854956E+01
 2.0947250E+01  2.3833315E+01
 2.0958752E+01  2.3799004E+01
 2.0970251E+01  2.3761826E+01
 2.0981750E+01  2.3777958E+01
 2.0993252E+01  2.3790571E+01
 2.1004751E+01  2.3771749E+01
 2.1016251E+01  2.3710318E+01
 2.1027752E+01  2.3705601E+01
 2.1039251E+01  2.3722109E+01
 2.1050751E+01  2.3686277E+01
 2.1062250E+01  2.3692160E+01
 2.1073751E+01  2.3738659E+01
 2.1085251E+01  2.3762856E+01
 2.1096750E+01  2.3722597E+01
 2.1108252E+01  2.3717089E+01
 2.1119751E+01  2.3754650E+01
 2.1131250E+01  2.3797659E+01
 2.1142752E+01  2.3836456E+01
 2.1154251E+01  2.3869745E+01
 2.1165751E+01  2.3890545E+01
 2.1177252E+01  2.3924221E+01
 2.1188751E+01  2.3926767E+01
 2.1200251E+01  2.3865681E+01
 2.1211752E+01  2.3821501E+01
 2.1223251E+01  2.3755554E+01
 2.1234751E+01  2.3734919E+01
 2.1246250E+01  2.3761314E+01
 2.1257751E+01  2.3789856E+01
 2.1269251E+01  2.3793264E+01
 2.1280750E+01  2.3792219E+01
 2.1292252E+01  2.3789635E+01
 2.1303751E+01  2.3736919E+01
 2.1315250E+01  2.3723415E+01
 2.1326752E+01  2.3781610E+01
 2.1338251E+01  2.3869400E+01
 2.1349751E+01  2.3935812E+01
 2.1361252E+01  2.3998795E+01
 2.1372751E+01  2.3996675E+01
 2.1384251E+01  2.3924658E+01
 2.1395752E+01  2.3857210E+01
 2.1407251E+01  2.3829666E+01
 2.1418751E+01  2.3839041E+01
 2.1430250E+01  2.3815126E+01
 2.1441751E+01  2.3809324E+01
 2.1453251E+01  2.3809191E+01
 2.1464750E+01  2.3833635E+01
 2.1476252E+01  2.3818119E+01
 2.1487751E+01  2.3874838E+01
 2.1499250E+01  2.3907337E+01
 2.1510752E+01  2.3900875E+01
 2.1522251E+01  2.3910814E+01
 2.1533751E+01  2.3910517E+01
 2.1545252E+01  2.3944572E+01
 2.1556751E+01  2.3965082E+01
 2.1568251E+01  2.3951094E+01
 2.1579752E+01  2.3947180E+01
 2.1591251E+01  2.3910307E+01
 2.1602751E+01  2.3949930E+01
 2.1614250E+01  2.3964613E+01
 2.1625751E+01  2.3961847E+01
 2.1637251E+01  2.3938334E+01
 2.1648750E+01  2.3919411E+01
 2.1660252E+01  2.3946642E+01
 2.1671751E+01  2.3977598E+01
 2.1683250E+01  2.4015940E+01
 2.1694752E+01  2.3985243E+01
 2.1706251E+01  2.3983368E+01
 2.1717751E+01  2.3975529E+01
 2.1729252E+01  2.3963018E+01
 2.1740751E+01  2.3971014E+01
 2.1752251E+01  2.3970963E+01
 2.1763752E+01  2.3973450E+01
 2.1775251E+01  2.3963310E+01
 2.1786751E+01  2.3915974E+01
 2.1798250E+01  2.3926378E+01
 2.1809752E+01  2.3926113E+01
 2.1821251E+01  2.3939093E+01
 2.1832750E+01  2.3900694E+01
 2.1844252E+01  2.3874168E+01
 2.1855751E+01  2.3933231E+01
 2.1867250E+01  2.3968487E+01
 2.1878752E+01  2.4009809E+01
 2.1890251E+01  2.3972153E+01
 2.1901751E+01  2.4010597E+01
 2.1913252E+01  2.4043516E+01
 2.1924751E+01  2.4066267E+01
 2.1936251E+01  2.4050154E+01
 2.1947752E+01  2.4036415E+01
 2.1959251E+01  2.4047890E+01
 2.1970751E+01  2.4056452E+01
 2.1982250E+01  2.4057367E+01
 2.1993752E+01  2.4071083E+01
 2.2005251E+01  2.4079365E+01
 2.2016750E+01  2.4078732E+01
 2.2028252E+01  2.4097187E+01
 2.2039751E+01  2.4062525E+01
 2.2051250E+01  2.4153799E+01
 2.2062752E+01  2.4283300E+01
 2.2074251E+01  2.4325027E+01
 2.2085751E+01  2.4272783E+01
 2.2097252E+01  2.4247173E+01
 2.2108751E+01  2.4233355E+01
 2.2120251E+01  2.4211874E+01
 2.2131752E+01  2.4252138E+01
 2.2143251E+01  2.4285059E+01
 2.2154751E+01  2.4279148E+01
 2.2166250E+01  2.4307440E+01
 2.2177752E+01  2.4256382E+01
 2.2189251E+01  2.4236507E+01
 2.2200750E+01  2.4218857E+01
 2.2212252E+01  2.4225416E+01
 2.2223751E+01  2.4216681E+01
 2.2235250E+01  2.4231520E+01
 2.2246752E+01  2.4273176E+01
 2.2258251E+01  2.4267878E+01
 2.2269751E+01  2.4261564E+01
 2.2281252E+01  2.4251072E+01
 2.2292751E+01  2.4277672E+01
 2.2304251E+01  2.4318638E+01
 2.2315752E+01  2.4379005E+01
 2.2327251E+01  2.4389366E+01
 2.2338751E+01  2.4402254E+01
 2.2350250E+01  2.4433332E+01
 2.2361752E+01  2.4405933E+01
 2.2373251E+01  2.4396475E+01
 2.2384750E+01  2.4347738E+01
 2.2396252E+01  2.4347803E+01
 2.2407751E+01  2.4324959E+01
 2.2419250E+01  2.4361603E+01
 2.2430752E+01  2.4432163E+01
 2.2442251E+01  2.4487549E+01
 2.2453751E+01  2.4514196E+01
 2.2465252E+01  2.4456232E+01
 2.2476751E+01  2.4411562E+01
 2.2488251E+01  2.4409245E+01
 2.2499752E+01  2.4471611E+01
 2.2511251E+01  2.4548994E+01
 2.2522751E+01  2.4624111E+01
 2.2534250E+01  2.4589836E+01
 2.2545752E+01  2.4597454E+01
 2.2557251E+01  2.4604401E+01
 2.2568750E+01  2.4639957E+01
 2.2580252E+01  2.4668873E+01
 2.2591751E+01  2.4670910E+01
 2.2603251E+01  2.4747919E+01
 2.2614752E+01  2.4786200E+01
 2.2626251E+01  2.4824448E+01
 2.2637751E+01  2.4838381E+01
 2.2649252E+01  2.4841511E+01
 2.2660751E+01  2.4878183E+01
 2.2672251E+01  2.4896299E+01
 2.2683752E+01  2.4965401E+01
 2.2695251E+01  2.5016430E+01
 2.2706751E+01  2.5016237E+01
 2.2718250E+01  2.5003122E+01
 2.2729752E+01  2.4984604E+01
 2.2741251E+01  2.5015291E+01
 2.2752750E+01  2.5051954E+01
 2.2764252E+01  2.5081764E+01
 2.2775751E+01  2.5096088E+01
 2.2787251E+01  2.5063019E+01
 2.2798752E+01  2.5105789E+01
 2.2810251E+01  2.5140589E+01
 2.2821751E+01  2.5198410E+01
 2.2833252E+01  2.5260244E+01
 2.2844751E+01  2.5353523E+01
 2.2856251E+01  2.5401846E+01
 2.2867750E+01  2.5402864E+01
 2.2879251E+01  2.5454218E+01
 2.2890751E+01  2.5514101E+01
 2.2902250E+01  2.5571695E+01
 2.2913752E+01  2.5666775E+01
 2.2925251E+01  2.5753244E+01
 2.2936750E+01  2.5778507E+01
 2.2948252E+01  2.5758251E+01
 2.2959751E+01  2.5751072E+01
 2.2971251E+01  2.5816393E+01
 2.2982752E+01  2.5921293E+01
 2.2994251E+01  2.6042223E+01
