F:\20151113_APS_34IDE\\Brian\Particle1\OCV\Data_0075.tif
2-Theta Angle (Degrees)
Intensity
       2000
 5.7500005E-03  0.0000000E+00
 1.7250001E-02  0.0000000E+00
 2.8750001E-02  0.0000000E+00
 4.0250003E-02  0.0000000E+00
 5.1750004E-02  0.0000000E+00
 6.3250005E-02  0.0000000E+00
 7.4750006E-02  0.0000000E+00
 8.6250007E-02  0.0000000E+00
 9.7750008E-02  0.0000000E+00
 1.0925001E-01  0.0000000E+00
 1.2075000E-01  0.0000000E+00
 1.3225001E-01  0.0000000E+00
 1.4375001E-01  0.0000000E+00
 1.5525001E-01  0.0000000E+00
 1.6675001E-01  0.0000000E+00
 1.7825001E-01  0.0000000E+00
 1.8975002E-01  0.0000000E+00
 2.0125002E-01  0.0000000E+00
 2.1275002E-01  0.0000000E+00
 2.2425000E-01  0.0000000E+00
 2.3575000E-01  0.0000000E+00
 2.4725001E-01  0.0000000E+00
 2.5875002E-01  0.0000000E+00
 2.7025002E-01  0.0000000E+00
 2.8175002E-01  0.0000000E+00
 2.9325002E-01  0.0000000E+00
 3.0475003E-01  0.0000000E+00
 3.1625003E-01  0.0000000E+00
 3.2775003E-01  0.0000000E+00
 3.3925003E-01  0.0000000E+00
 3.5075003E-01  0.0000000E+00
 3.6225003E-01  0.0000000E+00
 3.7375003E-01  0.0000000E+00
 3.8525003E-01  0.0000000E+00
 3.9675003E-01  0.0000000E+00
 4.0825003E-01  0.0000000E+00
 4.1975003E-01  0.0000000E+00
 4.3125004E-01  0.0000000E+00
 4.4275001E-01  0.0000000E+00
 4.5425001E-01  0.0000000E+00
 4.6575001E-01  0.0000000E+00
 4.7725001E-01  0.0000000E+00
 4.8875001E-01  0.0000000E+00
 5.0025004E-01  0.0000000E+00
 5.1175004E-01  0.0000000E+00
 5.2325004E-01  0.0000000E+00
 5.3475004E-01  0.0000000E+00
 5.4625005E-01  0.0000000E+00
 5.5775005E-01  0.0000000E+00
 5.6925005E-01  0.0000000E+00
 5.8075005E-01  0.0000000E+00
 5.9225005E-01  0.0000000E+00
 6.0375005E-01  0.0000000E+00
 6.1525005E-01  0.0000000E+00
 6.2675005E-01  0.0000000E+00
 6.3825005E-01  0.0000000E+00
 6.4975005E-01  0.0000000E+00
 6.6125005E-01  0.0000000E+00
 6.7275006E-01  0.0000000E+00
 6.8425006E-01  0.0000000E+00
 6.9575006E-01  0.0000000E+00
 7.0725006E-01  0.0000000E+00
 7.1875006E-01  0.0000000E+00
 7.3025006E-01  0.0000000E+00
 7.4175006E-01  0.0000000E+00
 7.5325006E-01  0.0000000E+00
 7.6475006E-01  0.0000000E+00
 7.7625006E-01  0.0000000E+00
 7.8775007E-01  0.0000000E+00
 7.9925007E-01  0.0000000E+00
 8.1075007E-01  0.0000000E+00
 8.2225007E-01  0.0000000E+00
 8.3375007E-01  0.0000000E+00
 8.4525007E-01  0.0000000E+00
 8.5675007E-01  0.0000000E+00
 8.6825007E-01  0.0000000E+00
 8.7975001E-01  0.0000000E+00
 8.9125001E-01  0.0000000E+00
 9.0275002E-01  0.0000000E+00
 9.1425002E-01  0.0000000E+00
 9.2575002E-01  0.0000000E+00
 9.3725002E-01  0.0000000E+00
 9.4875002E-01  0.0000000E+00
 9.6025002E-01  0.0000000E+00
 9.7175002E-01  0.0000000E+00
 9.8325002E-01  0.0000000E+00
 9.9475002E-01  0.0000000E+00
 1.0062500E+00  0.0000000E+00
 1.0177500E+00  0.0000000E+00
 1.0292500E+00  0.0000000E+00
 1.0407500E+00  0.0000000E+00
 1.0522500E+00  0.0000000E+00
 1.0637500E+00  0.0000000E+00
 1.0752500E+00  0.0000000E+00
 1.0867500E+00  0.0000000E+00
 1.0982500E+00  0.0000000E+00
 1.1097500E+00  0.0000000E+00
 1.1212500E+00  0.0000000E+00
 1.1327500E+00  0.0000000E+00
 1.1442500E+00  0.0000000E+00
 1.1557500E+00  0.0000000E+00
 1.1672500E+00  0.0000000E+00
 1.1787500E+00  0.0000000E+00
 1.1902500E+00  0.0000000E+00
 1.2017500E+00  0.0000000E+00
 1.2132500E+00  0.0000000E+00
 1.2247500E+00  0.0000000E+00
 1.2362500E+00  0.0000000E+00
 1.2477500E+00  0.0000000E+00
 1.2592500E+00  0.0000000E+00
 1.2707500E+00  0.0000000E+00
 1.2822500E+00  0.0000000E+00
 1.2937500E+00  0.0000000E+00
 1.3052500E+00  0.0000000E+00
 1.3167500E+00  0.0000000E+00
 1.3282501E+00  0.0000000E+00
 1.3397501E+00  0.0000000E+00
 1.3512501E+00  0.0000000E+00
 1.3627501E+00  0.0000000E+00
 1.3742501E+00  0.0000000E+00
 1.3857501E+00  0.0000000E+00
 1.3972501E+00  0.0000000E+00
 1.4087501E+00  0.0000000E+00
 1.4202501E+00  0.0000000E+00
 1.4317501E+00  0.0000000E+00
 1.4432501E+00  0.0000000E+00
 1.4547501E+00  0.0000000E+00
 1.4662501E+00  0.0000000E+00
 1.4777501E+00  0.0000000E+00
 1.4892501E+00  0.0000000E+00
 1.5007501E+00  0.0000000E+00
 1.5122501E+00  0.0000000E+00
 1.5237501E+00  0.0000000E+00
 1.5352501E+00  0.0000000E+00
 1.5467501E+00  0.0000000E+00
 1.5582501E+00  0.0000000E+00
 1.5697501E+00  0.0000000E+00
 1.5812501E+00  0.0000000E+00
 1.5927501E+00  0.0000000E+00
 1.6042501E+00  0.0000000E+00
 1.6157501E+00  0.0000000E+00
 1.6272501E+00  0.0000000E+00
 1.6387501E+00  0.0000000E+00
 1.6502501E+00  0.0000000E+00
 1.6617501E+00  0.0000000E+00
 1.6732501E+00  0.0000000E+00
 1.6847501E+00  0.0000000E+00
 1.6962501E+00  0.0000000E+00
 1.7077501E+00  0.0000000E+00
 1.7192501E+00  0.0000000E+00
 1.7307501E+00  0.0000000E+00
 1.7422501E+00  0.0000000E+00
 1.7537501E+00  0.0000000E+00
 1.7652501E+00  0.0000000E+00
 1.7767501E+00  0.0000000E+00
 1.7882501E+00  0.0000000E+00
 1.7997501E+00  0.0000000E+00
 1.8112501E+00  0.0000000E+00
 1.8227501E+00  0.0000000E+00
 1.8342501E+00  0.0000000E+00
 1.8457501E+00  0.0000000E+00
 1.8572501E+00  0.0000000E+00
 1.8687501E+00  0.0000000E+00
 1.8802501E+00  0.0000000E+00
 1.8917501E+00  0.0000000E+00
 1.9032501E+00  0.0000000E+00
 1.9147501E+00  0.0000000E+00
 1.9262501E+00  0.0000000E+00
 1.9377501E+00  0.0000000E+00
 1.9492501E+00  0.0000000E+00
 1.9607501E+00  0.0000000E+00
 1.9722501E+00  0.0000000E+00
 1.9837501E+00  0.0000000E+00
 1.9952501E+00  0.0000000E+00
 2.0067501E+00  0.0000000E+00
 2.0182500E+00  0.0000000E+00
 2.0297501E+00  0.0000000E+00
 2.0412500E+00  0.0000000E+00
 2.0527501E+00  0.0000000E+00
 2.0642500E+00  0.0000000E+00
 2.0757501E+00  0.0000000E+00
 2.0872500E+00  0.0000000E+00
 2.0987501E+00  0.0000000E+00
 2.1102500E+00  0.0000000E+00
 2.1217501E+00  0.0000000E+00
 2.1332500E+00  0.0000000E+00
 2.1447501E+00  0.0000000E+00
 2.1562500E+00  0.0000000E+00
 2.1677501E+00  0.0000000E+00
 2.1792500E+00  0.0000000E+00
 2.1907501E+00  0.0000000E+00
 2.2022500E+00  0.0000000E+00
 2.2137501E+00  0.0000000E+00
 2.2252500E+00  0.0000000E+00
 2.2367501E+00  0.0000000E+00
 2.2482500E+00  0.0000000E+00
 2.2597501E+00  0.0000000E+00
 2.2712500E+00  0.0000000E+00
 2.2827501E+00  0.0000000E+00
 2.2942500E+00  0.0000000E+00
 2.3057501E+00  0.0000000E+00
 2.3172500E+00  0.0000000E+00
 2.3287501E+00  0.0000000E+00
 2.3402500E+00  0.0000000E+00
 2.3517501E+00  0.0000000E+00
 2.3632500E+00  0.0000000E+00
 2.3747501E+00  0.0000000E+00
 2.3862500E+00  0.0000000E+00
 2.3977501E+00  0.0000000E+00
 2.4092500E+00  0.0000000E+00
 2.4207501E+00  0.0000000E+00
 2.4322500E+00  0.0000000E+00
 2.4437501E+00  0.0000000E+00
 2.4552500E+00  0.0000000E+00
 2.4667501E+00  0.0000000E+00
 2.4782500E+00  0.0000000E+00
 2.4897501E+00  0.0000000E+00
 2.5012500E+00  0.0000000E+00
 2.5127501E+00  0.0000000E+00
 2.5242500E+00  0.0000000E+00
 2.5357502E+00  0.0000000E+00
 2.5472500E+00  0.0000000E+00
 2.5587502E+00  0.0000000E+00
 2.5702500E+00  0.0000000E+00
 2.5817502E+00  0.0000000E+00
 2.5932500E+00  0.0000000E+00
 2.6047502E+00  0.0000000E+00
 2.6162500E+00  0.0000000E+00
 2.6277502E+00  0.0000000E+00
 2.6392500E+00  0.0000000E+00
 2.6507502E+00  0.0000000E+00
 2.6622500E+00  0.0000000E+00
 2.6737502E+00  0.0000000E+00
 2.6852500E+00  0.0000000E+00
 2.6967502E+00  0.0000000E+00
 2.7082500E+00  0.0000000E+00
 2.7197502E+00  0.0000000E+00
 2.7312500E+00  0.0000000E+00
 2.7427502E+00  0.0000000E+00
 2.7542500E+00  0.0000000E+00
 2.7657502E+00  0.0000000E+00
 2.7772501E+00  0.0000000E+00
 2.7887502E+00  0.0000000E+00
 2.8002501E+00  0.0000000E+00
 2.8117502E+00  0.0000000E+00
 2.8232501E+00  3.5925522E+01
 2.8347502E+00  3.4401054E+01
 2.8462501E+00  3.4728649E+01
 2.8577502E+00  3.4725735E+01
 2.8692501E+00  3.4911892E+01
 2.8807502E+00  3.5698353E+01
 2.8922501E+00  3.6315117E+01
 2.9037502E+00  3.6777336E+01
 2.9152501E+00  3.6564960E+01
 2.9267502E+00  3.6257710E+01
 2.9382501E+00  3.5847866E+01
 2.9497502E+00  3.6107365E+01
 2.9612501E+00  3.5978184E+01
 2.9727502E+00  3.6408264E+01
 2.9842501E+00  3.6587273E+01
 2.9957502E+00  3.6905430E+01
 3.0072501E+00  3.7160030E+01
 3.0187502E+00  3.7318905E+01
 3.0302501E+00  3.7423046E+01
 3.0417502E+00  3.7333797E+01
 3.0532501E+00  3.6949551E+01
 3.0647502E+00  3.6525494E+01
 3.0762501E+00  3.6618519E+01
 3.0877502E+00  3.6743332E+01
 3.0992501E+00  3.6906754E+01
 3.1107502E+00  3.6329899E+01
 3.1222501E+00  3.5890076E+01
 3.1337502E+00  3.5339226E+01
 3.1452501E+00  3.5245110E+01
 3.1567502E+00  3.4959316E+01
 3.1682501E+00  3.5042339E+01
 3.1797502E+00  3.5288853E+01
 3.1912501E+00  3.5325409E+01
 3.2027502E+00  3.5432701E+01
 3.2142501E+00  3.5595642E+01
 3.2257502E+00  3.5699280E+01
 3.2372501E+00  3.5463356E+01
 3.2487502E+00  3.5009876E+01
 3.2602501E+00  3.4913162E+01
 3.2717502E+00  3.4657524E+01
 3.2832501E+00  3.4462444E+01
 3.2947502E+00  3.4441677E+01
 3.3062501E+00  3.4718948E+01
 3.3177502E+00  3.4937855E+01
 3.3292501E+00  3.4750401E+01
 3.3407502E+00  3.4740738E+01
 3.3522501E+00  3.4652290E+01
 3.3637502E+00  3.4834305E+01
 3.3752501E+00  3.4721024E+01
 3.3867502E+00  3.4901127E+01
 3.3982501E+00  3.4755562E+01
 3.4097502E+00  3.4752304E+01
 3.4212501E+00  3.4625416E+01
 3.4327502E+00  3.4919853E+01
 3.4442501E+00  3.5127056E+01
 3.4557502E+00  3.5201080E+01
 3.4672501E+00  3.5246387E+01
 3.4787502E+00  3.5176540E+01
 3.4902501E+00  3.5263142E+01
 3.5017502E+00  3.4841904E+01
 3.5132501E+00  3.4640461E+01
 3.5247502E+00  3.4472576E+01
 3.5362501E+00  3.4471848E+01
 3.5477502E+00  3.4558060E+01
 3.5592501E+00  3.4468258E+01
 3.5707502E+00  3.4606667E+01
 3.5822501E+00  3.4536324E+01
 3.5937502E+00  3.4377068E+01
 3.6052501E+00  3.4137833E+01
 3.6167502E+00  3.3952049E+01
 3.6282501E+00  3.3844669E+01
 3.6397502E+00  3.3726906E+01
 3.6512501E+00  3.3689003E+01
 3.6627502E+00  3.3598484E+01
 3.6742501E+00  3.3498558E+01
 3.6857502E+00  3.3364262E+01
 3.6972501E+00  3.3180878E+01
 3.7087502E+00  3.3141598E+01
 3.7202501E+00  3.3026043E+01
 3.7317502E+00  3.3169342E+01
 3.7432501E+00  3.3200253E+01
 3.7547503E+00  3.3328064E+01
 3.7662501E+00  3.3321384E+01
 3.7777503E+00  3.3216465E+01
 3.7892501E+00  3.3061142E+01
 3.8007503E+00  3.3325050E+01
 3.8122501E+00  3.3363026E+01
 3.8237503E+00  3.3997810E+01
 3.8352501E+00  3.5332520E+01
 3.8467503E+00  3.5176601E+01
 3.8582501E+00  3.5033165E+01
 3.8697503E+00  3.3153698E+01
 3.8812501E+00  3.3100262E+01
 3.8927503E+00  3.2751461E+01
 3.9042501E+00  3.2523434E+01
 3.9157503E+00  3.2455658E+01
 3.9272501E+00  3.2378223E+01
 3.9387503E+00  3.2449932E+01
 3.9502501E+00  3.2562088E+01
 3.9617503E+00  3.2704716E+01
 3.9732502E+00  3.2844112E+01
 3.9847503E+00  3.2933819E+01
 3.9962502E+00  3.3101383E+01
 4.0077500E+00  3.3039364E+01
 4.0192504E+00  3.3113750E+01
 4.0307503E+00  3.2868454E+01
 4.0422502E+00  3.2814140E+01
 4.0537500E+00  3.2620979E+01
 4.0652504E+00  3.2584618E+01
 4.0767503E+00  3.2310371E+01
 4.0882502E+00  3.2376316E+01
 4.0997500E+00  3.2458305E+01
 4.1112504E+00  3.2603306E+01
 4.1227503E+00  3.2614681E+01
 4.1342502E+00  3.2638542E+01
 4.1457500E+00  3.2734634E+01
 4.1572504E+00  3.2632362E+01
 4.1687503E+00  3.2773193E+01
 4.1802502E+00  3.2753613E+01
 4.1917500E+00  3.3011379E+01
 4.2032504E+00  3.2852482E+01
 4.2147503E+00  3.2783627E+01
 4.2262502E+00  3.2818043E+01
 4.2377501E+00  3.2734772E+01
 4.2492504E+00  3.2665981E+01
 4.2607503E+00  3.2499947E+01
 4.2722502E+00  3.2447273E+01
 4.2837501E+00  3.2460186E+01
 4.2952504E+00  3.2381310E+01
 4.3067503E+00  3.2395248E+01
 4.3182502E+00  3.2413475E+01
 4.3297501E+00  3.2400974E+01
 4.3412504E+00  3.2433529E+01
 4.3527503E+00  3.2289150E+01
 4.3642502E+00  3.2330357E+01
 4.3757501E+00  3.2166954E+01
 4.3872504E+00  3.2096836E+01
 4.3987503E+00  3.1973366E+01
 4.4102502E+00  3.2123077E+01
 4.4217501E+00  3.2251244E+01
 4.4332504E+00  3.2439960E+01
 4.4447503E+00  3.2433502E+01
 4.4562502E+00  3.2363258E+01
 4.4677501E+00  3.2355560E+01
 4.4792504E+00  3.2465927E+01
 4.4907503E+00  3.2623283E+01
 4.5022502E+00  3.2960743E+01
 4.5137501E+00  3.3134010E+01
 4.5252504E+00  3.3287670E+01
 4.5367503E+00  3.3219406E+01
 4.5482502E+00  3.2960175E+01
 4.5597501E+00  3.2782509E+01
 4.5712504E+00  3.2652020E+01
 4.5827503E+00  3.2523361E+01
 4.5942502E+00  3.2649685E+01
 4.6057501E+00  3.2658146E+01
 4.6172504E+00  3.2913887E+01
 4.6287503E+00  3.2978622E+01
 4.6402502E+00  3.3199417E+01
 4.6517501E+00  3.3301250E+01
 4.6632504E+00  3.3269657E+01
 4.6747503E+00  3.3118870E+01
 4.6862502E+00  3.2940887E+01
 4.6977501E+00  3.2833557E+01
 4.7092505E+00  3.2798878E+01
 4.7207503E+00  3.2899418E+01
 4.7322502E+00  3.2862694E+01
 4.7437501E+00  3.2893661E+01
 4.7552505E+00  3.2836735E+01
 4.7667503E+00  3.2974915E+01
 4.7782502E+00  3.2971699E+01
 4.7897501E+00  3.3209656E+01
 4.8012505E+00  3.3062523E+01
 4.8127503E+00  3.2966167E+01
 4.8242502E+00  3.2621380E+01
 4.8357501E+00  3.2643429E+01
 4.8472505E+00  3.2744923E+01
 4.8587503E+00  3.2817234E+01
 4.8702502E+00  3.2683029E+01
 4.8817501E+00  3.2627995E+01
 4.8932505E+00  3.2603958E+01
 4.9047503E+00  3.2657021E+01
 4.9162502E+00  3.2735989E+01
 4.9277501E+00  3.2845802E+01
 4.9392505E+00  3.2924259E+01
 4.9507504E+00  3.3027298E+01
 4.9622502E+00  3.2967567E+01
 4.9737501E+00  3.2992271E+01
 4.9852505E+00  3.2929455E+01
 4.9967504E+00  3.2945137E+01
 5.0082502E+00  3.3026451E+01
 5.0197501E+00  3.3054142E+01
 5.0312505E+00  3.3143379E+01
 5.0427504E+00  3.3212402E+01
 5.0542502E+00  3.3310635E+01
 5.0657501E+00  3.3400864E+01
 5.0772505E+00  3.3394215E+01
 5.0887504E+00  3.3518158E+01
 5.1002502E+00  3.3503231E+01
 5.1117501E+00  3.3660912E+01
 5.1232505E+00  3.3570652E+01
 5.1347504E+00  3.3560852E+01
 5.1462502E+00  3.3421082E+01
 5.1577501E+00  3.3456440E+01
 5.1692505E+00  3.3454025E+01
 5.1807504E+00  3.3551323E+01
 5.1922503E+00  3.3535732E+01
 5.2037501E+00  3.3696632E+01
 5.2152505E+00  3.3769627E+01
 5.2267504E+00  3.3962547E+01
 5.2382503E+00  3.4004032E+01
 5.2497501E+00  3.3972416E+01
 5.2612505E+00  3.3948471E+01
 5.2727504E+00  3.3968216E+01
 5.2842503E+00  3.4108315E+01
 5.2957501E+00  3.4260269E+01
 5.3072500E+00  3.4270889E+01
 5.3187504E+00  3.4443512E+01
 5.3302503E+00  3.4468098E+01
 5.3417501E+00  3.4527115E+01
 5.3532500E+00  3.4541252E+01
 5.3647504E+00  3.4545300E+01
 5.3762503E+00  3.4646339E+01
 5.3877501E+00  3.4664478E+01
 5.3992500E+00  3.4698231E+01
 5.4107504E+00  3.4678688E+01
 5.4222503E+00  3.4554855E+01
 5.4337502E+00  3.4459782E+01
 5.4452500E+00  3.4442528E+01
 5.4567504E+00  3.4434822E+01
 5.4682503E+00  3.4456947E+01
 5.4797502E+00  3.4540073E+01
 5.4912500E+00  3.4621254E+01
 5.5027504E+00  3.4881817E+01
 5.5142503E+00  3.5123146E+01
 5.5257502E+00  3.5231739E+01
 5.5372500E+00  3.5122047E+01
 5.5487504E+00  3.4946629E+01
 5.5602503E+00  3.4776459E+01
 5.5717502E+00  3.4772739E+01
 5.5832500E+00  3.4742256E+01
 5.5947504E+00  3.4841858E+01
 5.6062503E+00  3.4956306E+01
 5.6177502E+00  3.5016354E+01
 5.6292500E+00  3.4982864E+01
 5.6407504E+00  3.4992336E+01
 5.6522503E+00  3.4957085E+01
 5.6637502E+00  3.5069405E+01
 5.6752501E+00  3.5144672E+01
 5.6867504E+00  3.5243465E+01
 5.6982503E+00  3.5335915E+01
 5.7097502E+00  3.5341862E+01
 5.7212501E+00  3.5373055E+01
 5.7327504E+00  3.5493542E+01
 5.7442503E+00  3.5620464E+01
 5.7557502E+00  3.5716465E+01
 5.7672501E+00  3.5836163E+01
 5.7787504E+00  3.5937576E+01
 5.7902503E+00  3.6097507E+01
 5.8017502E+00  3.6126255E+01
 5.8132501E+00  3.6159367E+01
 5.8247504E+00  3.6277321E+01
 5.8362503E+00  3.6422878E+01
 5.8477502E+00  3.6652634E+01
 5.8592501E+00  3.6781517E+01
 5.8707504E+00  3.6963486E+01
 5.8822503E+00  3.7307278E+01
 5.8937502E+00  3.7784328E+01
 5.9052501E+00  3.8155605E+01
 5.9167504E+00  3.8979393E+01
 5.9282503E+00  4.0189533E+01
 5.9397502E+00  4.1762596E+01
 5.9512501E+00  4.7588425E+01
 5.9627504E+00  5.2793617E+01
 5.9742503E+00  5.6663025E+01
 5.9857502E+00  5.8670200E+01
 5.9972501E+00  5.7248226E+01
 6.0087504E+00  5.4853943E+01
 6.0202503E+00  4.9281246E+01
 6.0317502E+00  4.4451462E+01
 6.0432501E+00  4.2140633E+01
 6.0547504E+00  3.9234425E+01
 6.0662503E+00  3.8175510E+01
 6.0777502E+00  3.7669418E+01
 6.0892501E+00  3.7475929E+01
 6.1007504E+00  3.7292469E+01
 6.1122503E+00  3.7158768E+01
 6.1237502E+00  3.7083565E+01
 6.1352501E+00  3.6927773E+01
 6.1467505E+00  3.6846184E+01
 6.1582503E+00  3.6838421E+01
 6.1697502E+00  3.6902004E+01
 6.1812501E+00  3.7142979E+01
 6.1927505E+00  3.7274055E+01
 6.2042503E+00  3.7375839E+01
 6.2157502E+00  3.7412079E+01
 6.2272501E+00  3.7382805E+01
 6.2387505E+00  3.7305710E+01
 6.2502503E+00  3.7324802E+01
 6.2617502E+00  3.7331974E+01
 6.2732501E+00  3.7524704E+01
 6.2847505E+00  3.7568604E+01
 6.2962503E+00  3.7672825E+01
 6.3077502E+00  3.7693531E+01
 6.3192501E+00  3.7840652E+01
 6.3307505E+00  3.7884907E+01
 6.3422503E+00  3.8005932E+01
 6.3537502E+00  3.8112396E+01
 6.3652501E+00  3.8216953E+01
 6.3767505E+00  3.8301559E+01
 6.3882504E+00  3.8450691E+01
 6.3997502E+00  3.8485523E+01
 6.4112501E+00  3.8494312E+01
 6.4227505E+00  3.8342037E+01
 6.4342504E+00  3.8334846E+01
 6.4457502E+00  3.8348560E+01
 6.4572501E+00  3.8472614E+01
 6.4687505E+00  3.8675087E+01
 6.4802504E+00  3.8820072E+01
 6.4917502E+00  3.8932640E+01
 6.5032501E+00  3.9067497E+01
 6.5147505E+00  3.9230110E+01
 6.5262504E+00  3.9294331E+01
 6.5377502E+00  3.9316639E+01
 6.5492501E+00  3.9286907E+01
 6.5607505E+00  3.9389805E+01
 6.5722504E+00  3.9452099E+01
 6.5837502E+00  3.9617111E+01
 6.5952501E+00  3.9713196E+01
 6.6067505E+00  3.9776188E+01
 6.6182504E+00  3.9839283E+01
 6.6297503E+00  3.9894424E+01
 6.6412501E+00  3.9954315E+01
 6.6527505E+00  4.0048813E+01
 6.6642504E+00  4.0236813E+01
 6.6757503E+00  4.0372902E+01
 6.6872501E+00  4.0405113E+01
 6.6987505E+00  4.0435268E+01
 6.7102504E+00  4.0491161E+01
 6.7217503E+00  4.0696705E+01
 6.7332501E+00  4.0776192E+01
 6.7447505E+00  4.0842480E+01
 6.7562504E+00  4.0866394E+01
 6.7677503E+00  4.0899662E+01
 6.7792501E+00  4.0978374E+01
 6.7907505E+00  4.1098423E+01
 6.8022504E+00  4.1217739E+01
 6.8137503E+00  4.1358032E+01
 6.8252501E+00  4.1384422E+01
 6.8367505E+00  4.1456112E+01
 6.8482504E+00  4.1446110E+01
 6.8597503E+00  4.1468346E+01
 6.8712502E+00  4.1416771E+01
 6.8827505E+00  4.1534412E+01
 6.8942504E+00  4.1568699E+01
 6.9057503E+00  4.1782433E+01
 6.9172502E+00  4.1881916E+01
 6.9287505E+00  4.1986778E+01
 6.9402504E+00  4.2000553E+01
 6.9517503E+00  4.2051952E+01
 6.9632502E+00  4.2163025E+01
 6.9747505E+00  4.2279026E+01
 6.9862504E+00  4.2325478E+01
 6.9977503E+00  4.2324650E+01
 7.0092502E+00  4.2247219E+01
 7.0207505E+00  4.2211548E+01
 7.0322504E+00  4.2223927E+01
 7.0437503E+00  4.2272396E+01
 7.0552502E+00  4.2301811E+01
 7.0667505E+00  4.2400925E+01
 7.0782504E+00  4.2429832E+01
 7.0897503E+00  4.2619080E+01
 7.1012502E+00  4.2671986E+01
 7.1127505E+00  4.2988827E+01
 7.1242504E+00  4.3063026E+01
 7.1357503E+00  4.3234432E+01
 7.1472502E+00  4.3190102E+01
 7.1587505E+00  4.3299919E+01
 7.1702504E+00  4.3336750E+01
 7.1817503E+00  4.3361618E+01
 7.1932502E+00  4.3342365E+01
 7.2047505E+00  4.3339867E+01
 7.2162504E+00  4.3391663E+01
 7.2277503E+00  4.3602245E+01
 7.2392502E+00  4.3738503E+01
 7.2507505E+00  4.3963329E+01
 7.2622504E+00  4.4001389E+01
 7.2737503E+00  4.4030136E+01
 7.2852502E+00  4.3938774E+01
 7.2967505E+00  4.3831791E+01
 7.3082504E+00  4.3743324E+01
 7.3197503E+00  4.3758255E+01
 7.3312502E+00  4.3782261E+01
 7.3427505E+00  4.3874367E+01
 7.3542504E+00  4.3891712E+01
 7.3657503E+00  4.3922268E+01
 7.3772502E+00  4.3920502E+01
 7.3887506E+00  4.3937584E+01
 7.4002504E+00  4.3883450E+01
 7.4117503E+00  4.3892220E+01
 7.4232502E+00  4.3865665E+01
 7.4347506E+00  4.3975845E+01
 7.4462504E+00  4.4097748E+01
 7.4577503E+00  4.4259647E+01
 7.4692502E+00  4.4273338E+01
 7.4807506E+00  4.4289162E+01
 7.4922504E+00  4.4287052E+01
 7.5037503E+00  4.4367825E+01
 7.5152502E+00  4.4303810E+01
 7.5267506E+00  4.4252594E+01
 7.5382504E+00  4.4235062E+01
 7.5497503E+00  4.4230160E+01
 7.5612502E+00  4.4359264E+01
 7.5727506E+00  4.4366306E+01
 7.5842505E+00  4.4363598E+01
 7.5957503E+00  4.4364147E+01
 7.6072502E+00  4.4417828E+01
 7.6187506E+00  4.4431122E+01
 7.6302505E+00  4.4347782E+01
 7.6417503E+00  4.4346878E+01
 7.6532502E+00  4.4375019E+01
 7.6647506E+00  4.4368359E+01
 7.6762505E+00  4.4382519E+01
 7.6877503E+00  4.4393078E+01
 7.6992502E+00  4.4520504E+01
 7.7107506E+00  4.4568451E+01
 7.7222505E+00  4.4641609E+01
 7.7337503E+00  4.4589272E+01
 7.7452502E+00  4.4427380E+01
 7.7567506E+00  4.4335690E+01
 7.7682505E+00  4.4208801E+01
 7.7797503E+00  4.4198242E+01
 7.7912502E+00  4.4134087E+01
 7.8027506E+00  4.4189934E+01
 7.8142505E+00  4.4158295E+01
 7.8257504E+00  4.4212189E+01
 7.8372502E+00  4.4171955E+01
 7.8487506E+00  4.4145958E+01
 7.8602505E+00  4.4071548E+01
 7.8717504E+00  4.3990578E+01
 7.8832502E+00  4.3997391E+01
 7.8947506E+00  4.3924850E+01
 7.9062505E+00  4.3873165E+01
 7.9177504E+00  4.3778763E+01
 7.9292502E+00  4.3707844E+01
 7.9407506E+00  4.3639294E+01
 7.9522505E+00  4.3592682E+01
 7.9637504E+00  4.3520409E+01
 7.9752502E+00  4.3490597E+01
 7.9867506E+00  4.3525723E+01
 7.9982505E+00  4.3538773E+01
 8.0097504E+00  4.3472683E+01
 8.0212507E+00  4.3362167E+01
 8.0327501E+00  4.3264019E+01
 8.0442505E+00  4.3288998E+01
 8.0557508E+00  4.3235195E+01
 8.0672503E+00  4.3217121E+01
 8.0787506E+00  4.3152546E+01
 8.0902500E+00  4.3097927E+01
 8.1017504E+00  4.2989449E+01
 8.1132507E+00  4.2803768E+01
 8.1247501E+00  4.2651127E+01
 8.1362505E+00  4.2571251E+01
 8.1477509E+00  4.2537315E+01
 8.1592503E+00  4.2457661E+01
 8.1707506E+00  4.2393845E+01
 8.1822500E+00  4.2260975E+01
 8.1937504E+00  4.2202045E+01
 8.2052507E+00  4.2079700E+01
 8.2167501E+00  4.1906715E+01
 8.2282505E+00  4.1701733E+01
 8.2397509E+00  4.1518394E+01
 8.2512503E+00  4.1456387E+01
 8.2627506E+00  4.1294258E+01
 8.2742500E+00  4.1189224E+01
 8.2857504E+00  4.1059155E+01
 8.2972507E+00  4.1072037E+01
 8.3087502E+00  4.0913143E+01
 8.3202505E+00  4.0828175E+01
 8.3317509E+00  4.0604694E+01
 8.3432503E+00  4.0454777E+01
 8.3547506E+00  4.0221851E+01
 8.3662500E+00  4.0078148E+01
 8.3777504E+00  3.9881634E+01
 8.3892508E+00  3.9670410E+01
 8.4007502E+00  3.9448959E+01
 8.4122505E+00  3.9283287E+01
 8.4237509E+00  3.9110298E+01
 8.4352503E+00  3.9035263E+01
 8.4467506E+00  3.8821877E+01
 8.4582500E+00  3.8738804E+01
 8.4697504E+00  3.8683090E+01
 8.4812508E+00  3.8468216E+01
 8.4927502E+00  3.8225857E+01
 8.5042505E+00  3.7855995E+01
 8.5157509E+00  3.7706501E+01
 8.5272503E+00  3.7623505E+01
 8.5387506E+00  3.7476341E+01
 8.5502501E+00  3.7302692E+01
 8.5617504E+00  3.7077892E+01
 8.5732508E+00  3.6850117E+01
 8.5847502E+00  3.6630726E+01
 8.5962505E+00  3.6433220E+01
 8.6077509E+00  3.6266426E+01
 8.6192503E+00  3.6202515E+01
 8.6307507E+00  3.6083260E+01
 8.6422501E+00  3.5955017E+01
 8.6537504E+00  3.5732910E+01
 8.6652508E+00  3.5530018E+01
 8.6767502E+00  3.5365437E+01
 8.6882505E+00  3.5429020E+01
 8.6997509E+00  3.5568012E+01
 8.7112503E+00  3.6037407E+01
 8.7227507E+00  3.6375282E+01
 8.7342501E+00  3.6457390E+01
 8.7457504E+00  3.6136330E+01
 8.7572508E+00  3.5409416E+01
 8.7687502E+00  3.4897686E+01
 8.7802505E+00  3.4175327E+01
 8.7917500E+00  3.3889103E+01
 8.8032503E+00  3.3462357E+01
 8.8147507E+00  3.3302410E+01
 8.8262501E+00  3.3062077E+01
 8.8377504E+00  3.2909409E+01
 8.8492508E+00  3.2707047E+01
 8.8607502E+00  3.2798775E+01
 8.8722506E+00  3.2766792E+01
 8.8837500E+00  3.2835320E+01
 8.8952503E+00  3.2669212E+01
 8.9067507E+00  3.2544006E+01
 8.9182501E+00  3.2255493E+01
 8.9297504E+00  3.1891390E+01
 8.9412508E+00  3.1620390E+01
 8.9527502E+00  3.1427856E+01
 8.9642506E+00  3.1306581E+01
 8.9757500E+00  3.1124437E+01
 8.9872503E+00  3.0975540E+01
 8.9987507E+00  3.0760969E+01
 9.0102501E+00  3.0581295E+01
 9.0217505E+00  3.0397398E+01
 9.0332508E+00  3.0271690E+01
 9.0447502E+00  3.0123486E+01
 9.0562506E+00  3.0005703E+01
 9.0677500E+00  2.9869759E+01
 9.0792503E+00  2.9756552E+01
 9.0907507E+00  2.9567232E+01
 9.1022501E+00  2.9452108E+01
 9.1137505E+00  2.9347521E+01
 9.1252508E+00  2.9356623E+01
 9.1367502E+00  2.9350603E+01
 9.1482506E+00  2.9358337E+01
 9.1597500E+00  2.9235889E+01
 9.1712503E+00  2.9093044E+01
 9.1827507E+00  2.8831535E+01
 9.1942501E+00  2.8719542E+01
 9.2057505E+00  2.8594467E+01
 9.2172508E+00  2.8434221E+01
 9.2287502E+00  2.8256052E+01
 9.2402506E+00  2.8065372E+01
 9.2517500E+00  2.7983088E+01
 9.2632504E+00  2.7894236E+01
 9.2747507E+00  2.7812088E+01
 9.2862501E+00  2.7753958E+01
 9.2977505E+00  2.7673336E+01
 9.3092508E+00  2.7541500E+01
 9.3207502E+00  2.7417793E+01
 9.3322506E+00  2.7261730E+01
 9.3437500E+00  2.7173468E+01
 9.3552504E+00  2.7017992E+01
 9.3667507E+00  2.6951162E+01
 9.3782501E+00  2.6918959E+01
 9.3897505E+00  2.6876184E+01
 9.4012508E+00  2.6863771E+01
 9.4127502E+00  2.6830465E+01
 9.4242506E+00  2.6821722E+01
 9.4357500E+00  2.6783548E+01
 9.4472504E+00  2.6687162E+01
 9.4587507E+00  2.6606054E+01
 9.4702501E+00  2.6537481E+01
 9.4817505E+00  2.6506199E+01
 9.4932508E+00  2.6453115E+01
 9.5047503E+00  2.6409035E+01
 9.5162506E+00  2.6287027E+01
 9.5277500E+00  2.6195166E+01
 9.5392504E+00  2.6113592E+01
 9.5507507E+00  2.6023533E+01
 9.5622501E+00  2.5990076E+01
 9.5737505E+00  2.5903229E+01
 9.5852509E+00  2.5815708E+01
 9.5967503E+00  2.5758833E+01
 9.6082506E+00  2.5709206E+01
 9.6197500E+00  2.5719807E+01
 9.6312504E+00  2.5688143E+01
 9.6427507E+00  2.5630678E+01
 9.6542501E+00  2.5519178E+01
 9.6657505E+00  2.5400734E+01
 9.6772509E+00  2.5295759E+01
 9.6887503E+00  2.5224319E+01
 9.7002506E+00  2.5234842E+01
 9.7117500E+00  2.5238071E+01
 9.7232504E+00  2.5238541E+01
 9.7347507E+00  2.5170761E+01
 9.7462502E+00  2.5139021E+01
 9.7577505E+00  2.5038765E+01
 9.7692509E+00  2.4996553E+01
 9.7807503E+00  2.4954163E+01
 9.7922506E+00  2.4954203E+01
 9.8037500E+00  2.4916004E+01
 9.8152504E+00  2.4789402E+01
 9.8267508E+00  2.4686432E+01
 9.8382502E+00  2.4572788E+01
 9.8497505E+00  2.4533785E+01
 9.8612509E+00  2.4576546E+01
 9.8727503E+00  2.4631325E+01
 9.8842506E+00  2.4682381E+01
 9.8957500E+00  2.4696686E+01
 9.9072504E+00  2.4650118E+01
 9.9187508E+00  2.4590586E+01
 9.9302502E+00  2.4512146E+01
 9.9417505E+00  2.4457464E+01
 9.9532509E+00  2.4425699E+01
 9.9647503E+00  2.4435415E+01
 9.9762506E+00  2.4460772E+01
 9.9877501E+00  2.4419052E+01
 9.9992504E+00  2.4362984E+01
 1.0010751E+01  2.4264433E+01
 1.0022250E+01  2.4241562E+01
 1.0033751E+01  2.4223667E+01
 1.0045251E+01  2.4183281E+01
 1.0056750E+01  2.4081072E+01
 1.0068251E+01  2.3997879E+01
 1.0079750E+01  2.3892300E+01
 1.0091250E+01  2.3831947E+01
 1.0102751E+01  2.3711460E+01
 1.0114250E+01  2.3686392E+01
 1.0125751E+01  2.3727970E+01
 1.0137251E+01  2.3745197E+01
 1.0148750E+01  2.3818592E+01
 1.0160251E+01  2.3856043E+01
 1.0171750E+01  2.3858152E+01
 1.0183250E+01  2.3792971E+01
 1.0194751E+01  2.3696447E+01
 1.0206250E+01  2.3684464E+01
 1.0217751E+01  2.3686438E+01
 1.0229251E+01  2.3714258E+01
 1.0240750E+01  2.3671659E+01
 1.0252251E+01  2.3621672E+01
 1.0263750E+01  2.3508450E+01
 1.0275250E+01  2.3422039E+01
 1.0286751E+01  2.3391653E+01
 1.0298250E+01  2.3420944E+01
 1.0309751E+01  2.3410088E+01
 1.0321251E+01  2.3401915E+01
 1.0332750E+01  2.3372370E+01
 1.0344251E+01  2.3381207E+01
 1.0355750E+01  2.3311863E+01
 1.0367250E+01  2.3198013E+01
 1.0378751E+01  2.3148462E+01
 1.0390250E+01  2.3232861E+01
 1.0401751E+01  2.3340660E+01
 1.0413251E+01  2.3393948E+01
 1.0424750E+01  2.3372017E+01
 1.0436251E+01  2.3374590E+01
 1.0447750E+01  2.3377863E+01
 1.0459250E+01  2.3451044E+01
 1.0470751E+01  2.3423447E+01
 1.0482250E+01  2.3396606E+01
 1.0493751E+01  2.3291971E+01
 1.0505251E+01  2.3202158E+01
 1.0516750E+01  2.3170204E+01
 1.0528251E+01  2.3069828E+01
 1.0539750E+01  2.3045471E+01
 1.0551250E+01  2.3019594E+01
 1.0562751E+01  2.3016537E+01
 1.0574250E+01  2.2976990E+01
 1.0585751E+01  2.2912088E+01
 1.0597251E+01  2.2895582E+01
 1.0608750E+01  2.2901827E+01
 1.0620251E+01  2.2904030E+01
 1.0631750E+01  2.2923735E+01
 1.0643250E+01  2.2990482E+01
 1.0654751E+01  2.3005169E+01
 1.0666250E+01  2.3042059E+01
 1.0677751E+01  2.2957010E+01
 1.0689251E+01  2.2958443E+01
 1.0700750E+01  2.2937555E+01
 1.0712251E+01  2.2922655E+01
 1.0723750E+01  2.2917971E+01
 1.0735250E+01  2.2851219E+01
 1.0746751E+01  2.2880678E+01
 1.0758250E+01  2.2856789E+01
 1.0769751E+01  2.2883266E+01
 1.0781251E+01  2.2888550E+01
 1.0792750E+01  2.2842804E+01
 1.0804251E+01  2.2779501E+01
 1.0815750E+01  2.2643526E+01
 1.0827250E+01  2.2648678E+01
 1.0838751E+01  2.2611013E+01
 1.0850250E+01  2.2666769E+01
 1.0861751E+01  2.2674547E+01
 1.0873251E+01  2.2728992E+01
 1.0884750E+01  2.2727468E+01
 1.0896251E+01  2.2707836E+01
 1.0907750E+01  2.2717796E+01
 1.0919250E+01  2.2758610E+01
 1.0930751E+01  2.2774277E+01
 1.0942250E+01  2.2709951E+01
 1.0953751E+01  2.2638138E+01
 1.0965251E+01  2.2571211E+01
 1.0976750E+01  2.2552954E+01
 1.0988251E+01  2.2543701E+01
 1.0999750E+01  2.2552660E+01
 1.1011250E+01  2.2559040E+01
 1.1022751E+01  2.2597588E+01
 1.1034250E+01  2.2597652E+01
 1.1045751E+01  2.2599236E+01
 1.1057251E+01  2.2573616E+01
 1.1068750E+01  2.2550352E+01
 1.1080251E+01  2.2531046E+01
 1.1091750E+01  2.2500687E+01
 1.1103251E+01  2.2482576E+01
 1.1114751E+01  2.2481495E+01
 1.1126250E+01  2.2488636E+01
 1.1137751E+01  2.2482044E+01
 1.1149251E+01  2.2559380E+01
 1.1160750E+01  2.2607338E+01
 1.1172251E+01  2.2604401E+01
 1.1183750E+01  2.2467991E+01
 1.1195251E+01  2.2353884E+01
 1.1206751E+01  2.2321316E+01
 1.1218250E+01  2.2331730E+01
 1.1229751E+01  2.2306324E+01
 1.1241251E+01  2.2360928E+01
 1.1252750E+01  2.2437923E+01
 1.1264251E+01  2.2473310E+01
 1.1275750E+01  2.2477541E+01
 1.1287251E+01  2.2460819E+01
 1.1298751E+01  2.2513067E+01
 1.1310250E+01  2.2499359E+01
 1.1321751E+01  2.2477259E+01
 1.1333251E+01  2.2464872E+01
 1.1344750E+01  2.2511662E+01
 1.1356251E+01  2.2525154E+01
 1.1367750E+01  2.2589245E+01
 1.1379251E+01  2.2611677E+01
 1.1390751E+01  2.2637863E+01
 1.1402250E+01  2.2765942E+01
 1.1413751E+01  2.2739210E+01
 1.1425251E+01  2.2812750E+01
 1.1436750E+01  2.2784325E+01
 1.1448251E+01  2.2862448E+01
 1.1459750E+01  2.2874290E+01
 1.1471251E+01  2.2888823E+01
 1.1482751E+01  2.2932224E+01
 1.1494250E+01  2.3051622E+01
 1.1505751E+01  2.3147039E+01
 1.1517251E+01  2.3344549E+01
 1.1528750E+01  2.3982241E+01
 1.1540251E+01  2.4474430E+01
 1.1551750E+01  2.5644955E+01
 1.1563251E+01  2.7247883E+01
 1.1574751E+01  2.8011610E+01
 1.1586250E+01  3.0011066E+01
 1.1597751E+01  3.0316269E+01
 1.1609251E+01  3.0228470E+01
 1.1620750E+01  2.9468992E+01
 1.1632251E+01  2.7736444E+01
 1.1643750E+01  2.6909132E+01
 1.1655251E+01  2.4753883E+01
 1.1666751E+01  2.3980577E+01
 1.1678250E+01  2.3622204E+01
 1.1689751E+01  2.3182772E+01
 1.1701251E+01  2.3006378E+01
 1.1712750E+01  2.2841927E+01
 1.1724251E+01  2.2700020E+01
 1.1735750E+01  2.2678068E+01
 1.1747251E+01  2.2661495E+01
 1.1758751E+01  2.2675829E+01
 1.1770250E+01  2.2626825E+01
 1.1781751E+01  2.2583719E+01
 1.1793251E+01  2.2565893E+01
 1.1804750E+01  2.2603724E+01
 1.1816251E+01  2.2574631E+01
 1.1827750E+01  2.2526819E+01
 1.1839251E+01  2.2447050E+01
 1.1850751E+01  2.2387213E+01
 1.1862250E+01  2.2382635E+01
 1.1873751E+01  2.2362312E+01
 1.1885251E+01  2.2357580E+01
 1.1896750E+01  2.2409441E+01
 1.1908251E+01  2.2492804E+01
 1.1919750E+01  2.2623562E+01
 1.1931251E+01  2.2686502E+01
 1.1942751E+01  2.2836632E+01
 1.1954250E+01  2.3008978E+01
 1.1965751E+01  2.3159813E+01
 1.1977251E+01  2.3388380E+01
 1.1988750E+01  2.3469584E+01
 1.2000251E+01  2.3491667E+01
 1.2011750E+01  2.3318092E+01
 1.2023251E+01  2.3256153E+01
 1.2034751E+01  2.3236847E+01
 1.2046250E+01  2.3279799E+01
 1.2057751E+01  2.3295593E+01
 1.2069251E+01  2.3494617E+01
 1.2080750E+01  2.3673166E+01
 1.2092251E+01  2.3970268E+01
 1.2103750E+01  2.4090895E+01
 1.2115251E+01  2.4167877E+01
 1.2126751E+01  2.4000494E+01
 1.2138250E+01  2.3788532E+01
 1.2149751E+01  2.3464758E+01
 1.2161251E+01  2.3222071E+01
 1.2172750E+01  2.3013300E+01
 1.2184251E+01  2.2904091E+01
 1.2195750E+01  2.2802078E+01
 1.2207251E+01  2.2712025E+01
 1.2218751E+01  2.2661459E+01
 1.2230250E+01  2.2600706E+01
 1.2241751E+01  2.2587843E+01
 1.2253251E+01  2.2545422E+01
 1.2264750E+01  2.2542841E+01
 1.2276251E+01  2.2525732E+01
 1.2287750E+01  2.2543753E+01
 1.2299251E+01  2.2561604E+01
 1.2310751E+01  2.2583345E+01
 1.2322250E+01  2.2572718E+01
 1.2333751E+01  2.2545017E+01
 1.2345250E+01  2.2494781E+01
 1.2356750E+01  2.2512728E+01
 1.2368251E+01  2.2526684E+01
 1.2379750E+01  2.2564381E+01
 1.2391251E+01  2.2602270E+01
 1.2402751E+01  2.2625378E+01
 1.2414250E+01  2.2655895E+01
 1.2425751E+01  2.2664516E+01
 1.2437250E+01  2.2677311E+01
 1.2448750E+01  2.2686171E+01
 1.2460251E+01  2.2671669E+01
 1.2471750E+01  2.2710873E+01
 1.2483251E+01  2.2753332E+01
 1.2494751E+01  2.2729055E+01
 1.2506250E+01  2.2683304E+01
 1.2517751E+01  2.2639088E+01
 1.2529250E+01  2.2649191E+01
 1.2540751E+01  2.2622772E+01
 1.2552251E+01  2.2608961E+01
 1.2563750E+01  2.2629549E+01
 1.2575251E+01  2.2647427E+01
 1.2586751E+01  2.2636526E+01
 1.2598250E+01  2.2668949E+01
 1.2609751E+01  2.2711998E+01
 1.2621250E+01  2.2747742E+01
 1.2632751E+01  2.2792513E+01
 1.2644251E+01  2.2737040E+01
 1.2655750E+01  2.2728865E+01
 1.2667251E+01  2.2681707E+01
 1.2678751E+01  2.2740452E+01
 1.2690250E+01  2.2798956E+01
 1.2701751E+01  2.2799803E+01
 1.2713250E+01  2.2818443E+01
 1.2724751E+01  2.2797468E+01
 1.2736251E+01  2.2808876E+01
 1.2747750E+01  2.2852591E+01
 1.2759251E+01  2.2911264E+01
 1.2770751E+01  2.2931995E+01
 1.2782250E+01  2.2972116E+01
 1.2793751E+01  2.2952873E+01
 1.2805250E+01  2.2997143E+01
 1.2816751E+01  2.2973064E+01
 1.2828251E+01  2.3023132E+01
 1.2839750E+01  2.3032919E+01
 1.2851251E+01  2.3078508E+01
 1.2862751E+01  2.3087826E+01
 1.2874250E+01  2.3195524E+01
 1.2885751E+01  2.3297361E+01
 1.2897250E+01  2.3394514E+01
 1.2908751E+01  2.3492430E+01
 1.2920251E+01  2.3600571E+01
 1.2931750E+01  2.3734411E+01
 1.2943251E+01  2.3769737E+01
 1.2954751E+01  2.3791002E+01
 1.2966250E+01  2.3829304E+01
 1.2977751E+01  2.3883884E+01
 1.2989250E+01  2.3952236E+01
 1.3000751E+01  2.4018808E+01
 1.3012251E+01  2.4100208E+01
 1.3023750E+01  2.4166468E+01
 1.3035251E+01  2.4273352E+01
 1.3046751E+01  2.4344780E+01
 1.3058250E+01  2.4380978E+01
 1.3069751E+01  2.4351635E+01
 1.3081250E+01  2.4340113E+01
 1.3092751E+01  2.4377010E+01
 1.3104251E+01  2.4479851E+01
 1.3115750E+01  2.4626347E+01
 1.3127251E+01  2.4756145E+01
 1.3138751E+01  2.4894300E+01
 1.3150250E+01  2.5083063E+01
 1.3161751E+01  2.5228056E+01
 1.3173250E+01  2.5365894E+01
 1.3184751E+01  2.5422907E+01
 1.3196251E+01  2.5535093E+01
 1.3207750E+01  2.5665571E+01
 1.3219251E+01  2.5847382E+01
 1.3230751E+01  2.6025267E+01
 1.3242250E+01  2.6196999E+01
 1.3253751E+01  2.6355347E+01
 1.3265250E+01  2.6517687E+01
 1.3276751E+01  2.6691217E+01
 1.3288251E+01  2.6841152E+01
 1.3299750E+01  2.7003073E+01
 1.3311251E+01  2.7057213E+01
 1.3322751E+01  2.7197042E+01
 1.3334250E+01  2.7363792E+01
 1.3345751E+01  2.7502775E+01
 1.3357250E+01  2.7664164E+01
 1.3368751E+01  2.7696791E+01
 1.3380251E+01  2.7890583E+01
 1.3391750E+01  2.8025909E+01
 1.3403251E+01  2.8223160E+01
 1.3414751E+01  2.8390862E+01
 1.3426250E+01  2.8467178E+01
 1.3437751E+01  2.8619207E+01
 1.3449250E+01  2.8670931E+01
 1.3460751E+01  2.8831018E+01
 1.3472251E+01  2.8931534E+01
 1.3483750E+01  2.9144915E+01
 1.3495251E+01  2.9271690E+01
 1.3506751E+01  2.9443939E+01
 1.3518250E+01  2.9532394E+01
 1.3529751E+01  2.9652405E+01
 1.3541250E+01  2.9744696E+01
 1.3552751E+01  2.9787132E+01
 1.3564251E+01  2.9838453E+01
 1.3575750E+01  2.9813021E+01
 1.3587251E+01  2.9830639E+01
 1.3598751E+01  2.9835342E+01
 1.3610250E+01  2.9866425E+01
 1.3621751E+01  2.9858793E+01
 1.3633250E+01  2.9845686E+01
 1.3644751E+01  2.9731005E+01
 1.3656251E+01  2.9652693E+01
 1.3667750E+01  2.9621044E+01
 1.3679251E+01  2.9649712E+01
 1.3690751E+01  2.9659872E+01
 1.3702250E+01  2.9597132E+01
 1.3713751E+01  2.9523746E+01
 1.3725250E+01  2.9441517E+01
 1.3736751E+01  2.9408285E+01
 1.3748251E+01  2.9346022E+01
 1.3759750E+01  2.9270472E+01
 1.3771251E+01  2.9165569E+01
 1.3782751E+01  2.9103142E+01
 1.3794250E+01  2.9057079E+01
 1.3805751E+01  2.9062059E+01
 1.3817250E+01  2.9073263E+01
 1.3828751E+01  2.9110935E+01
 1.3840251E+01  2.9164909E+01
 1.3851750E+01  2.9275892E+01
 1.3863251E+01  2.9364990E+01
 1.3874751E+01  2.9483845E+01
 1.3886250E+01  2.9769485E+01
 1.3897751E+01  3.0256926E+01
 1.3909250E+01  3.0846560E+01
 1.3920751E+01  3.1661654E+01
 1.3932251E+01  3.2309380E+01
 1.3943750E+01  3.2875053E+01
 1.3955251E+01  3.3140789E+01
 1.3966751E+01  3.3021793E+01
 1.3978251E+01  3.2509861E+01
 1.3989751E+01  3.1547344E+01
 1.4001250E+01  3.0641371E+01
 1.4012751E+01  2.9651970E+01
 1.4024251E+01  2.8907270E+01
 1.4035750E+01  2.8343161E+01
 1.4047251E+01  2.7984514E+01
 1.4058751E+01  2.7782293E+01
 1.4070251E+01  2.7690540E+01
 1.4081751E+01  2.7633518E+01
 1.4093250E+01  2.7526281E+01
 1.4104751E+01  2.7448545E+01
 1.4116251E+01  2.7361900E+01
 1.4127750E+01  2.7318237E+01
 1.4139251E+01  2.7279083E+01
 1.4150751E+01  2.7228460E+01
 1.4162251E+01  2.7183489E+01
 1.4173751E+01  2.7059130E+01
 1.4185250E+01  2.6910061E+01
 1.4196751E+01  2.6809021E+01
 1.4208251E+01  2.6787903E+01
 1.4219750E+01  2.6758646E+01
 1.4231251E+01  2.6653948E+01
 1.4242751E+01  2.6543943E+01
 1.4254251E+01  2.6485027E+01
 1.4265751E+01  2.6426615E+01
 1.4277250E+01  2.6355892E+01
 1.4288751E+01  2.6333849E+01
 1.4300251E+01  2.6248106E+01
 1.4311750E+01  2.6195568E+01
 1.4323251E+01  2.6030355E+01
 1.4334751E+01  2.6035454E+01
 1.4346251E+01  2.6002792E+01
 1.4357751E+01  2.6002293E+01
 1.4369250E+01  2.5955244E+01
 1.4380751E+01  2.5918623E+01
 1.4392251E+01  2.5882011E+01
 1.4403750E+01  2.5782986E+01
 1.4415251E+01  2.5766247E+01
 1.4426751E+01  2.5709410E+01
 1.4438251E+01  2.5684996E+01
 1.4449751E+01  2.5612797E+01
 1.4461250E+01  2.5614481E+01
 1.4472751E+01  2.5594570E+01
 1.4484251E+01  2.5616865E+01
 1.4495750E+01  2.5654751E+01
 1.4507251E+01  2.5664492E+01
 1.4518751E+01  2.5577190E+01
 1.4530251E+01  2.5519600E+01
 1.4541751E+01  2.5593605E+01
 1.4553250E+01  2.5668844E+01
 1.4564751E+01  2.5670998E+01
 1.4576251E+01  2.5588552E+01
 1.4587750E+01  2.5487183E+01
 1.4599251E+01  2.5385469E+01
 1.4610751E+01  2.5336336E+01
 1.4622251E+01  2.5402868E+01
 1.4633751E+01  2.5432432E+01
 1.4645250E+01  2.5459753E+01
 1.4656751E+01  2.5394793E+01
 1.4668251E+01  2.5406914E+01
 1.4679750E+01  2.5335096E+01
 1.4691251E+01  2.5320032E+01
 1.4702751E+01  2.5252768E+01
 1.4714251E+01  2.5227236E+01
 1.4725751E+01  2.5146551E+01
 1.4737250E+01  2.5113516E+01
 1.4748751E+01  2.5059267E+01
 1.4760251E+01  2.5044889E+01
 1.4771750E+01  2.5023426E+01
 1.4783251E+01  2.4982788E+01
 1.4794751E+01  2.4950977E+01
 1.4806251E+01  2.4948200E+01
 1.4817751E+01  2.4900784E+01
 1.4829250E+01  2.4892870E+01
 1.4840751E+01  2.4859381E+01
 1.4852251E+01  2.4879080E+01
 1.4863750E+01  2.4875277E+01
 1.4875251E+01  2.4861977E+01
 1.4886751E+01  2.4906122E+01
 1.4898251E+01  2.4933870E+01
 1.4909751E+01  2.4983955E+01
 1.4921250E+01  2.4997877E+01
 1.4932751E+01  2.4957842E+01
 1.4944251E+01  2.4871300E+01
 1.4955750E+01  2.4778639E+01
 1.4967251E+01  2.4718445E+01
 1.4978751E+01  2.4748983E+01
 1.4990251E+01  2.4729139E+01
 1.5001751E+01  2.4740442E+01
 1.5013250E+01  2.4770622E+01
 1.5024751E+01  2.4828552E+01
 1.5036251E+01  2.4841145E+01
 1.5047750E+01  2.4829409E+01
 1.5059251E+01  2.4859705E+01
 1.5070751E+01  2.4882708E+01
 1.5082251E+01  2.4856689E+01
 1.5093751E+01  2.4853285E+01
 1.5105250E+01  2.4862719E+01
 1.5116751E+01  2.4946693E+01
 1.5128251E+01  2.5037567E+01
 1.5139750E+01  2.5369661E+01
 1.5151251E+01  2.5765993E+01
 1.5162751E+01  2.6616821E+01
 1.5174251E+01  2.7277420E+01
 1.5185751E+01  2.7897573E+01
 1.5197250E+01  2.8095781E+01
 1.5208751E+01  2.8010456E+01
 1.5220251E+01  2.7615406E+01
 1.5231750E+01  2.6863741E+01
 1.5243251E+01  2.6228432E+01
 1.5254751E+01  2.5648359E+01
 1.5266251E+01  2.5176554E+01
 1.5277751E+01  2.4954681E+01
 1.5289250E+01  2.4828739E+01
 1.5300751E+01  2.4788946E+01
 1.5312251E+01  2.4740911E+01
 1.5323750E+01  2.4678217E+01
 1.5335251E+01  2.4629330E+01
 1.5346751E+01  2.4561243E+01
 1.5358251E+01  2.4568850E+01
 1.5369751E+01  2.4587488E+01
 1.5381250E+01  2.4554035E+01
 1.5392751E+01  2.4520258E+01
 1.5404251E+01  2.4492630E+01
 1.5415751E+01  2.4475697E+01
 1.5427251E+01  2.4507271E+01
 1.5438751E+01  2.4566191E+01
 1.5450251E+01  2.4639643E+01
 1.5461751E+01  2.4629089E+01
 1.5473250E+01  2.4581467E+01
 1.5484751E+01  2.4555750E+01
 1.5496251E+01  2.4504433E+01
 1.5507751E+01  2.4453306E+01
 1.5519251E+01  2.4394461E+01
 1.5530751E+01  2.4380825E+01
 1.5542251E+01  2.4387383E+01
 1.5553751E+01  2.4406609E+01
 1.5565250E+01  2.4409279E+01
 1.5576751E+01  2.4387156E+01
 1.5588251E+01  2.4374842E+01
 1.5599751E+01  2.4388689E+01
 1.5611251E+01  2.4386343E+01
 1.5622751E+01  2.4368931E+01
 1.5634251E+01  2.4387857E+01
 1.5645751E+01  2.4416086E+01
 1.5657250E+01  2.4439453E+01
 1.5668751E+01  2.4448711E+01
 1.5680251E+01  2.4464304E+01
 1.5691751E+01  2.4509775E+01
 1.5703251E+01  2.4502750E+01
 1.5714751E+01  2.4536959E+01
 1.5726251E+01  2.4536196E+01
 1.5737751E+01  2.4492397E+01
 1.5749250E+01  2.4495096E+01
 1.5760751E+01  2.4478956E+01
 1.5772251E+01  2.4561525E+01
 1.5783751E+01  2.4559347E+01
 1.5795251E+01  2.4633579E+01
 1.5806751E+01  2.4701153E+01
 1.5818251E+01  2.4717577E+01
 1.5829751E+01  2.4678480E+01
 1.5841250E+01  2.4613703E+01
 1.5852751E+01  2.4621523E+01
 1.5864251E+01  2.4559362E+01
 1.5875751E+01  2.4575548E+01
 1.5887251E+01  2.4533720E+01
 1.5898750E+01  2.4578735E+01
 1.5910251E+01  2.4549873E+01
 1.5921751E+01  2.4569614E+01
 1.5933250E+01  2.4514582E+01
 1.5944751E+01  2.4477543E+01
 1.5956251E+01  2.4448849E+01
 1.5967751E+01  2.4416475E+01
 1.5979251E+01  2.4428078E+01
 1.5990750E+01  2.4486370E+01
 1.6002251E+01  2.4578899E+01
 1.6013750E+01  2.4639513E+01
 1.6025251E+01  2.4677614E+01
 1.6036751E+01  2.4650042E+01
 1.6048250E+01  2.4679180E+01
 1.6059752E+01  2.4669455E+01
 1.6071251E+01  2.4656704E+01
 1.6082750E+01  2.4637394E+01
 1.6094252E+01  2.4626383E+01
 1.6105751E+01  2.4657541E+01
 1.6117250E+01  2.4679604E+01
 1.6128750E+01  2.4655186E+01
 1.6140251E+01  2.4701704E+01
 1.6151751E+01  2.4646029E+01
 1.6163250E+01  2.4753590E+01
 1.6174751E+01  2.4752457E+01
 1.6186251E+01  2.4893330E+01
 1.6197750E+01  2.4879620E+01
 1.6209251E+01  2.5083902E+01
 1.6220751E+01  2.5039803E+01
 1.6232250E+01  2.5158564E+01
 1.6243752E+01  2.5127510E+01
 1.6255251E+01  2.5245052E+01
 1.6266750E+01  2.5351059E+01
 1.6278252E+01  2.5261295E+01
 1.6289751E+01  2.5348213E+01
 1.6301250E+01  2.5068268E+01
 1.6312750E+01  2.5193928E+01
 1.6324251E+01  2.4945396E+01
 1.6335751E+01  2.4953636E+01
 1.6347250E+01  2.4779070E+01
 1.6358751E+01  2.4767906E+01
 1.6370251E+01  2.4674486E+01
 1.6381750E+01  2.4576805E+01
 1.6393251E+01  2.4522953E+01
 1.6404751E+01  2.4542553E+01
 1.6416250E+01  2.4595154E+01
 1.6427752E+01  2.4599142E+01
 1.6439251E+01  2.4631115E+01
 1.6450750E+01  2.4646173E+01
 1.6462252E+01  2.4646587E+01
 1.6473751E+01  2.4574558E+01
 1.6485250E+01  2.4555054E+01
 1.6496750E+01  2.4578175E+01
 1.6508251E+01  2.4612526E+01
 1.6519751E+01  2.4622112E+01
 1.6531250E+01  2.4635452E+01
 1.6542751E+01  2.4677052E+01
 1.6554251E+01  2.4635910E+01
 1.6565750E+01  2.4549406E+01
 1.6577251E+01  2.4496220E+01
 1.6588751E+01  2.4547533E+01
 1.6600250E+01  2.4616014E+01
 1.6611752E+01  2.4685816E+01
 1.6623251E+01  2.4643047E+01
 1.6634750E+01  2.4648638E+01
 1.6646252E+01  2.4582703E+01
 1.6657751E+01  2.4609308E+01
 1.6669250E+01  2.4608284E+01
 1.6680750E+01  2.4599602E+01
 1.6692251E+01  2.4553946E+01
 1.6703751E+01  2.4510670E+01
 1.6715250E+01  2.4495253E+01
 1.6726751E+01  2.4511770E+01
 1.6738251E+01  2.4506702E+01
 1.6749750E+01  2.4526407E+01
 1.6761251E+01  2.4501434E+01
 1.6772751E+01  2.4485340E+01
 1.6784250E+01  2.4434269E+01
 1.6795752E+01  2.4356722E+01
 1.6807251E+01  2.4343582E+01
 1.6818750E+01  2.4330799E+01
 1.6830252E+01  2.4325666E+01
 1.6841751E+01  2.4312029E+01
 1.6853251E+01  2.4330208E+01
 1.6864750E+01  2.4378292E+01
 1.6876251E+01  2.4411955E+01
 1.6887751E+01  2.4437611E+01
 1.6899250E+01  2.4405062E+01
 1.6910751E+01  2.4412689E+01
 1.6922251E+01  2.4466486E+01
 1.6933750E+01  2.4443094E+01
 1.6945251E+01  2.4395523E+01
 1.6956751E+01  2.4315762E+01
 1.6968250E+01  2.4294180E+01
 1.6979752E+01  2.4296036E+01
 1.6991251E+01  2.4309223E+01
 1.7002750E+01  2.4268320E+01
 1.7014252E+01  2.4311802E+01
 1.7025751E+01  2.4320555E+01
 1.7037251E+01  2.4323349E+01
 1.7048750E+01  2.4201366E+01
 1.7060251E+01  2.4179750E+01
 1.7071751E+01  2.4122313E+01
 1.7083250E+01  2.4097157E+01
 1.7094751E+01  2.4076904E+01
 1.7106251E+01  2.4094398E+01
 1.7117750E+01  2.4122637E+01
 1.7129251E+01  2.4164631E+01
 1.7140751E+01  2.4207521E+01
 1.7152250E+01  2.4190580E+01
 1.7163752E+01  2.4138395E+01
 1.7175251E+01  2.4097824E+01
 1.7186750E+01  2.4084782E+01
 1.7198252E+01  2.4108007E+01
 1.7209751E+01  2.4119230E+01
 1.7221251E+01  2.4084146E+01
 1.7232750E+01  2.4094799E+01
 1.7244251E+01  2.4133600E+01
 1.7255751E+01  2.4146572E+01
 1.7267250E+01  2.4195490E+01
 1.7278751E+01  2.4108517E+01
 1.7290251E+01  2.4177126E+01
 1.7301750E+01  2.4084169E+01
 1.7313251E+01  2.4109669E+01
 1.7324751E+01  2.4057510E+01
 1.7336250E+01  2.4008484E+01
 1.7347752E+01  2.3991936E+01
 1.7359251E+01  2.3969629E+01
 1.7370750E+01  2.3996382E+01
 1.7382252E+01  2.3981377E+01
 1.7393751E+01  2.3987829E+01
 1.7405251E+01  2.3977205E+01
 1.7416750E+01  2.3967138E+01
 1.7428251E+01  2.4012051E+01
 1.7439751E+01  2.4052164E+01
 1.7451250E+01  2.4067495E+01
 1.7462751E+01  2.4006672E+01
 1.7474251E+01  2.3989569E+01
 1.7485750E+01  2.3956484E+01
 1.7497252E+01  2.3904381E+01
 1.7508751E+01  2.3853872E+01
 1.7520250E+01  2.3803980E+01
 1.7531752E+01  2.3771246E+01
 1.7543251E+01  2.3808031E+01
 1.7554750E+01  2.3798031E+01
 1.7566252E+01  2.3810284E+01
 1.7577751E+01  2.3789595E+01
 1.7589251E+01  2.3818520E+01
 1.7600750E+01  2.3854134E+01
 1.7612251E+01  2.3836546E+01
 1.7623751E+01  2.3870497E+01
 1.7635250E+01  2.3858212E+01
 1.7646751E+01  2.3792042E+01
 1.7658251E+01  2.3716269E+01
 1.7669750E+01  2.3682673E+01
 1.7681252E+01  2.3721256E+01
 1.7692751E+01  2.3770830E+01
 1.7704250E+01  2.3795116E+01
 1.7715752E+01  2.3803091E+01
 1.7727251E+01  2.3793737E+01
 1.7738750E+01  2.3762888E+01
 1.7750252E+01  2.3757008E+01
 1.7761751E+01  2.3736156E+01
 1.7773251E+01  2.3735209E+01
 1.7784750E+01  2.3730375E+01
 1.7796251E+01  2.3736986E+01
 1.7807751E+01  2.3745544E+01
 1.7819250E+01  2.3767672E+01
 1.7830751E+01  2.3775320E+01
 1.7842251E+01  2.3761219E+01
 1.7853750E+01  2.3759611E+01
 1.7865252E+01  2.3760265E+01
 1.7876751E+01  2.3766739E+01
 1.7888250E+01  2.3775677E+01
 1.7899752E+01  2.3782261E+01
 1.7911251E+01  2.3800499E+01
 1.7922750E+01  2.3848852E+01
 1.7934252E+01  2.3864922E+01
 1.7945751E+01  2.3871952E+01
 1.7957251E+01  2.3878468E+01
 1.7968750E+01  2.3947218E+01
 1.7980251E+01  2.4029671E+01
 1.7991751E+01  2.4135401E+01
 1.8003250E+01  2.4236124E+01
 1.8014751E+01  2.4366945E+01
 1.8026251E+01  2.4525175E+01
 1.8037750E+01  2.4734264E+01
 1.8049252E+01  2.4935055E+01
 1.8060751E+01  2.5150425E+01
 1.8072250E+01  2.5308397E+01
 1.8083752E+01  2.5499897E+01
 1.8095251E+01  2.5559294E+01
 1.8106750E+01  2.5662756E+01
 1.8118252E+01  2.5587282E+01
 1.8129751E+01  2.5519398E+01
 1.8141251E+01  2.5319469E+01
 1.8152750E+01  2.5135223E+01
 1.8164251E+01  2.4850348E+01
 1.8175751E+01  2.4627476E+01
 1.8187250E+01  2.4373755E+01
 1.8198751E+01  2.4163099E+01
 1.8210251E+01  2.3978491E+01
 1.8221750E+01  2.3878794E+01
 1.8233252E+01  2.3842930E+01
 1.8244751E+01  2.3822939E+01
 1.8256250E+01  2.3757296E+01
 1.8267752E+01  2.3656387E+01
 1.8279251E+01  2.3594711E+01
 1.8290751E+01  2.3555271E+01
 1.8302252E+01  2.3538893E+01
 1.8313751E+01  2.3505733E+01
 1.8325251E+01  2.3522341E+01
 1.8336750E+01  2.3568253E+01
 1.8348251E+01  2.3633957E+01
 1.8359751E+01  2.3693283E+01
 1.8371250E+01  2.3672667E+01
 1.8382751E+01  2.3631399E+01
 1.8394251E+01  2.3625751E+01
 1.8405750E+01  2.3651539E+01
 1.8417252E+01  2.3663782E+01
 1.8428751E+01  2.3618849E+01
 1.8440250E+01  2.3620245E+01
 1.8451752E+01  2.3586569E+01
 1.8463251E+01  2.3589138E+01
 1.8474751E+01  2.3516211E+01
 1.8486252E+01  2.3462709E+01
 1.8497751E+01  2.3429794E+01
 1.8509251E+01  2.3447353E+01
 1.8520750E+01  2.3516550E+01
 1.8532251E+01  2.3546535E+01
 1.8543751E+01  2.3557323E+01
 1.8555250E+01  2.3556232E+01
 1.8566751E+01  2.3542383E+01
 1.8578251E+01  2.3558462E+01
 1.8589750E+01  2.3571770E+01
 1.8601252E+01  2.3581303E+01
 1.8612751E+01  2.3505545E+01
 1.8624250E+01  2.3477106E+01
 1.8635752E+01  2.3472862E+01
 1.8647251E+01  2.3480680E+01
 1.8658751E+01  2.3408779E+01
 1.8670252E+01  2.3404209E+01
 1.8681751E+01  2.3449451E+01
 1.8693251E+01  2.3460421E+01
 1.8704750E+01  2.3441149E+01
 1.8716251E+01  2.3364500E+01
 1.8727751E+01  2.3345297E+01
 1.8739250E+01  2.3307606E+01
 1.8750751E+01  2.3316317E+01
 1.8762251E+01  2.3303942E+01
 1.8773750E+01  2.3308048E+01
 1.8785252E+01  2.3331697E+01
 1.8796751E+01  2.3411314E+01
 1.8808250E+01  2.3454424E+01
 1.8819752E+01  2.3519051E+01
 1.8831251E+01  2.3518400E+01
 1.8842751E+01  2.3501919E+01
 1.8854252E+01  2.3437971E+01
 1.8865751E+01  2.3390800E+01
 1.8877251E+01  2.3369387E+01
 1.8888750E+01  2.3368143E+01
 1.8900251E+01  2.3432884E+01
 1.8911751E+01  2.3477543E+01
 1.8923250E+01  2.3502947E+01
 1.8934752E+01  2.3465439E+01
 1.8946251E+01  2.3506899E+01
 1.8957750E+01  2.3524059E+01
 1.8969252E+01  2.3551643E+01
 1.8980751E+01  2.3516338E+01
 1.8992250E+01  2.3513433E+01
 1.9003752E+01  2.3495674E+01
 1.9015251E+01  2.3532892E+01
 1.9026751E+01  2.3565790E+01
 1.9038252E+01  2.3566084E+01
 1.9049751E+01  2.3539267E+01
 1.9061251E+01  2.3536173E+01
 1.9072750E+01  2.3527674E+01
 1.9084251E+01  2.3486591E+01
 1.9095751E+01  2.3480114E+01
 1.9107250E+01  2.3453169E+01
 1.9118752E+01  2.3457718E+01
 1.9130251E+01  2.3446283E+01
 1.9141750E+01  2.3402267E+01
 1.9153252E+01  2.3399618E+01
 1.9164751E+01  2.3368652E+01
 1.9176250E+01  2.3408308E+01
 1.9187752E+01  2.3403515E+01
 1.9199251E+01  2.3445923E+01
 1.9210751E+01  2.3491282E+01
 1.9222252E+01  2.3500677E+01
 1.9233751E+01  2.3464842E+01
 1.9245251E+01  2.3447138E+01
 1.9256750E+01  2.3471035E+01
 1.9268251E+01  2.3497370E+01
 1.9279751E+01  2.3449257E+01
 1.9291250E+01  2.3447269E+01
 1.9302752E+01  2.3432627E+01
 1.9314251E+01  2.3467230E+01
 1.9325750E+01  2.3446096E+01
 1.9337252E+01  2.3445599E+01
 1.9348751E+01  2.3430687E+01
 1.9360250E+01  2.3411238E+01
 1.9371752E+01  2.3444990E+01
 1.9383251E+01  2.3406752E+01
 1.9394751E+01  2.3432945E+01
 1.9406250E+01  2.3451900E+01
 1.9417751E+01  2.3507851E+01
 1.9429251E+01  2.3510397E+01
 1.9440750E+01  2.3516108E+01
 1.9452251E+01  2.3502325E+01
 1.9463751E+01  2.3523670E+01
 1.9475250E+01  2.3598661E+01
 1.9486752E+01  2.3640322E+01
 1.9498251E+01  2.3667747E+01
 1.9509750E+01  2.3670742E+01
 1.9521252E+01  2.3730045E+01
 1.9532751E+01  2.3691006E+01
 1.9544250E+01  2.3711296E+01
 1.9555752E+01  2.3662706E+01
 1.9567251E+01  2.3728912E+01
 1.9578751E+01  2.3732985E+01
 1.9590250E+01  2.3790022E+01
 1.9601751E+01  2.3785547E+01
 1.9613251E+01  2.3854788E+01
 1.9624750E+01  2.3961700E+01
 1.9636251E+01  2.4183352E+01
 1.9647751E+01  2.4448439E+01
 1.9659250E+01  2.4775312E+01
 1.9670752E+01  2.5157818E+01
 1.9682251E+01  2.5654398E+01
 1.9693750E+01  2.5979973E+01
 1.9705252E+01  2.6266863E+01
 1.9716751E+01  2.6470772E+01
 1.9728251E+01  2.6713659E+01
 1.9739752E+01  2.6858639E+01
 1.9751251E+01  2.6806166E+01
 1.9762751E+01  2.6667923E+01
 1.9774250E+01  2.6182173E+01
 1.9785751E+01  2.5928675E+01
 1.9797251E+01  2.5776350E+01
 1.9808750E+01  2.6006968E+01
 1.9820251E+01  2.6562807E+01
 1.9831751E+01  2.7346058E+01
 1.9843250E+01  2.8115921E+01
 1.9854752E+01  2.8410292E+01
 1.9866251E+01  2.8322048E+01
 1.9877750E+01  2.7849936E+01
 1.9889252E+01  2.7066864E+01
 1.9900751E+01  2.6357342E+01
 1.9912251E+01  2.5572491E+01
 1.9923752E+01  2.5076736E+01
 1.9935251E+01  2.4528246E+01
 1.9946751E+01  2.4316732E+01
 1.9958250E+01  2.4122215E+01
 1.9969751E+01  2.4047352E+01
 1.9981251E+01  2.3951153E+01
 1.9992750E+01  2.3940662E+01
 2.0004251E+01  2.3878923E+01
 2.0015751E+01  2.3863283E+01
 2.0027250E+01  2.3819233E+01
 2.0038752E+01  2.3840300E+01
 2.0050251E+01  2.3827135E+01
 2.0061750E+01  2.3822552E+01
 2.0073252E+01  2.3798576E+01
 2.0084751E+01  2.3783649E+01
 2.0096251E+01  2.3828611E+01
 2.0107752E+01  2.3816446E+01
 2.0119251E+01  2.3762243E+01
 2.0130751E+01  2.3689154E+01
 2.0142250E+01  2.3662964E+01
 2.0153751E+01  2.3652145E+01
 2.0165251E+01  2.3659245E+01
 2.0176750E+01  2.3678307E+01
 2.0188251E+01  2.3666349E+01
 2.0199751E+01  2.3659267E+01
 2.0211250E+01  2.3696640E+01
 2.0222752E+01  2.3749020E+01
 2.0234251E+01  2.3786970E+01
 2.0245750E+01  2.3771746E+01
 2.0257252E+01  2.3740913E+01
 2.0268751E+01  2.3708155E+01
 2.0280251E+01  2.3769798E+01
 2.0291752E+01  2.3757221E+01
 2.0303251E+01  2.3692909E+01
 2.0314751E+01  2.3681377E+01
 2.0326250E+01  2.3683348E+01
 2.0337751E+01  2.3681698E+01
 2.0349251E+01  2.3655313E+01
 2.0360750E+01  2.3645245E+01
 2.0372252E+01  2.3588184E+01
 2.0383751E+01  2.3572657E+01
 2.0395250E+01  2.3540251E+01
 2.0406752E+01  2.3555359E+01
 2.0418251E+01  2.3586004E+01
 2.0429750E+01  2.3660133E+01
 2.0441252E+01  2.3700251E+01
 2.0452751E+01  2.3715885E+01
 2.0464251E+01  2.3667999E+01
 2.0475752E+01  2.3647541E+01
 2.0487251E+01  2.3666553E+01
 2.0498751E+01  2.3699072E+01
 2.0510250E+01  2.3679008E+01
 2.0521751E+01  2.3637554E+01
 2.0533251E+01  2.3643026E+01
 2.0544750E+01  2.3717754E+01
 2.0556252E+01  2.3803904E+01
 2.0567751E+01  2.3838984E+01
 2.0579250E+01  2.3803333E+01
 2.0590752E+01  2.3797356E+01
 2.0602251E+01  2.3856194E+01
 2.0613750E+01  2.3972548E+01
 2.0625252E+01  2.4028889E+01
 2.0636751E+01  2.4040310E+01
 2.0648251E+01  2.4051600E+01
 2.0659752E+01  2.4123779E+01
 2.0671251E+01  2.4211224E+01
 2.0682751E+01  2.4396044E+01
 2.0694250E+01  2.4632723E+01
 2.0705751E+01  2.5055532E+01
 2.0717251E+01  2.5421362E+01
 2.0728750E+01  2.5889757E+01
 2.0740252E+01  2.6365715E+01
 2.0751751E+01  2.6732195E+01
 2.0763250E+01  2.7227560E+01
 2.0774752E+01  2.7330677E+01
 2.0786251E+01  2.7227598E+01
 2.0797750E+01  2.6735373E+01
 2.0809252E+01  2.6188734E+01
 2.0820751E+01  2.5512371E+01
 2.0832251E+01  2.4877089E+01
 2.0843752E+01  2.4544943E+01
 2.0855251E+01  2.4254919E+01
 2.0866751E+01  2.4130919E+01
 2.0878250E+01  2.4057867E+01
 2.0889751E+01  2.4004810E+01
 2.0901251E+01  2.3944500E+01
 2.0912750E+01  2.3928732E+01
 2.0924252E+01  2.3941380E+01
 2.0935751E+01  2.3970907E+01
 2.0947250E+01  2.4002100E+01
 2.0958752E+01  2.4019724E+01
 2.0970251E+01  2.4004824E+01
 2.0981750E+01  2.3977308E+01
 2.0993252E+01  2.3984243E+01
 2.1004751E+01  2.3929733E+01
 2.1016251E+01  2.3895458E+01
 2.1027752E+01  2.3898907E+01
 2.1039251E+01  2.3937262E+01
 2.1050751E+01  2.3947859E+01
 2.1062250E+01  2.3924675E+01
 2.1073751E+01  2.3974731E+01
 2.1085251E+01  2.3946611E+01
 2.1096750E+01  2.3873564E+01
 2.1108252E+01  2.3837265E+01
 2.1119751E+01  2.3868212E+01
 2.1131250E+01  2.3851078E+01
 2.1142752E+01  2.3823225E+01
 2.1154251E+01  2.3800549E+01
 2.1165751E+01  2.3869780E+01
 2.1177252E+01  2.3922764E+01
 2.1188751E+01  2.3935513E+01
 2.1200251E+01  2.3913940E+01
 2.1211752E+01  2.3867847E+01
 2.1223251E+01  2.3790892E+01
 2.1234751E+01  2.3745584E+01
 2.1246250E+01  2.3832218E+01
 2.1257751E+01  2.3906790E+01
 2.1269251E+01  2.3918053E+01
 2.1280750E+01  2.3918966E+01
 2.1292252E+01  2.3949617E+01
 2.1303751E+01  2.3955214E+01
 2.1315250E+01  2.3922987E+01
 2.1326752E+01  2.3895153E+01
 2.1338251E+01  2.3872206E+01
 2.1349751E+01  2.3863914E+01
 2.1361252E+01  2.3914030E+01
 2.1372751E+01  2.3941704E+01
 2.1384251E+01  2.3916313E+01
 2.1395752E+01  2.3906969E+01
 2.1407251E+01  2.3884975E+01
 2.1418751E+01  2.3897497E+01
 2.1430250E+01  2.3887840E+01
 2.1441751E+01  2.3908760E+01
 2.1453251E+01  2.3916971E+01
 2.1464750E+01  2.3880936E+01
 2.1476252E+01  2.3872616E+01
 2.1487751E+01  2.3914442E+01
 2.1499250E+01  2.3967499E+01
 2.1510752E+01  2.3981560E+01
 2.1522251E+01  2.3981712E+01
 2.1533751E+01  2.3972685E+01
 2.1545252E+01  2.3990665E+01
 2.1556751E+01  2.4018608E+01
 2.1568251E+01  2.4015873E+01
 2.1579752E+01  2.4018934E+01
 2.1591251E+01  2.4000359E+01
 2.1602751E+01  2.4033140E+01
 2.1614250E+01  2.4045740E+01
 2.1625751E+01  2.4071316E+01
 2.1637251E+01  2.4098360E+01
 2.1648750E+01  2.4125856E+01
 2.1660252E+01  2.4143284E+01
 2.1671751E+01  2.4141739E+01
 2.1683250E+01  2.4125965E+01
 2.1694752E+01  2.4052992E+01
 2.1706251E+01  2.3997938E+01
 2.1717751E+01  2.3969433E+01
 2.1729252E+01  2.3982767E+01
 2.1740751E+01  2.3982218E+01
 2.1752251E+01  2.3931271E+01
 2.1763752E+01  2.3907442E+01
 2.1775251E+01  2.3931250E+01
 2.1786751E+01  2.3941975E+01
 2.1798250E+01  2.3990480E+01
 2.1809752E+01  2.3993946E+01
 2.1821251E+01  2.4036842E+01
 2.1832750E+01  2.4019468E+01
 2.1844252E+01  2.4041605E+01
 2.1855751E+01  2.4027428E+01
 2.1867250E+01  2.4064407E+01
 2.1878752E+01  2.4109034E+01
 2.1890251E+01  2.4157633E+01
 2.1901751E+01  2.4180332E+01
 2.1913252E+01  2.4199759E+01
 2.1924751E+01  2.4194016E+01
 2.1936251E+01  2.4178219E+01
 2.1947752E+01  2.4163626E+01
 2.1959251E+01  2.4138420E+01
 2.1970751E+01  2.4158911E+01
 2.1982250E+01  2.4180929E+01
 2.1993752E+01  2.4179409E+01
 2.2005251E+01  2.4208513E+01
 2.2016750E+01  2.4266176E+01
 2.2028252E+01  2.4291035E+01
 2.2039751E+01  2.4265715E+01
 2.2051250E+01  2.4238485E+01
 2.2062752E+01  2.4225698E+01
 2.2074251E+01  2.4222919E+01
 2.2085751E+01  2.4228312E+01
 2.2097252E+01  2.4221447E+01
 2.2108751E+01  2.4248156E+01
 2.2120251E+01  2.4322775E+01
 2.2131752E+01  2.4363070E+01
 2.2143251E+01  2.4361452E+01
 2.2154751E+01  2.4339657E+01
 2.2166250E+01  2.4337727E+01
 2.2177752E+01  2.4304750E+01
 2.2189251E+01  2.4221781E+01
 2.2200750E+01  2.4203598E+01
 2.2212252E+01  2.4175846E+01
 2.2223751E+01  2.4188431E+01
 2.2235250E+01  2.4203924E+01
 2.2246752E+01  2.4235813E+01
 2.2258251E+01  2.4298193E+01
 2.2269751E+01  2.4311012E+01
 2.2281252E+01  2.4382332E+01
 2.2292751E+01  2.4417540E+01
 2.2304251E+01  2.4456812E+01
 2.2315752E+01  2.4423855E+01
 2.2327251E+01  2.4400703E+01
 2.2338751E+01  2.4420931E+01
 2.2350250E+01  2.4475475E+01
 2.2361752E+01  2.4491102E+01
 2.2373251E+01  2.4540375E+01
 2.2384750E+01  2.4495628E+01
 2.2396252E+01  2.4520060E+01
 2.2407751E+01  2.4525280E+01
 2.2419250E+01  2.4516172E+01
 2.2430752E+01  2.4528175E+01
 2.2442251E+01  2.4601587E+01
 2.2453751E+01  2.4674952E+01
 2.2465252E+01  2.4683857E+01
 2.2476751E+01  2.4630552E+01
 2.2488251E+01  2.4591122E+01
 2.2499752E+01  2.4588715E+01
 2.2511251E+01  2.4592072E+01
 2.2522751E+01  2.4651815E+01
 2.2534250E+01  2.4717974E+01
 2.2545752E+01  2.4795168E+01
 2.2557251E+01  2.4770844E+01
 2.2568750E+01  2.4789278E+01
 2.2580252E+01  2.4770212E+01
 2.2591751E+01  2.4762341E+01
 2.2603251E+01  2.4757704E+01
 2.2614752E+01  2.4825960E+01
 2.2626251E+01  2.4874813E+01
 2.2637751E+01  2.4874794E+01
 2.2649252E+01  2.4861362E+01
 2.2660751E+01  2.4844908E+01
 2.2672251E+01  2.4888720E+01
 2.2683752E+01  2.4935965E+01
 2.2695251E+01  2.5007109E+01
 2.2706751E+01  2.5020151E+01
 2.2718250E+01  2.5082472E+01
 2.2729752E+01  2.5098940E+01
 2.2741251E+01  2.5162460E+01
 2.2752750E+01  2.5192383E+01
 2.2764252E+01  2.5190353E+01
 2.2775751E+01  2.5159025E+01
 2.2787251E+01  2.5162165E+01
 2.2798752E+01  2.5217300E+01
 2.2810251E+01  2.5322916E+01
 2.2821751E+01  2.5400089E+01
 2.2833252E+01  2.5458952E+01
 2.2844751E+01  2.5507919E+01
 2.2856251E+01  2.5557487E+01
 2.2867750E+01  2.5595371E+01
 2.2879251E+01  2.5597385E+01
 2.2890751E+01  2.5659958E+01
 2.2902250E+01  2.5674814E+01
 2.2913752E+01  2.5789953E+01
 2.2925251E+01  2.5865719E+01
 2.2936750E+01  2.5911592E+01
 2.2948252E+01  2.5908686E+01
 2.2959751E+01  2.5946798E+01
 2.2971251E+01  2.6090193E+01
 2.2982752E+01  2.6237513E+01
 2.2994251E+01  2.6363657E+01
