F:\20151113_APS_34IDE\\Brian\Particle1\OCV\Data_0032.tif
2-Theta Angle (Degrees)
Intensity
       2000
 5.7500005E-03  0.0000000E+00
 1.7250001E-02  0.0000000E+00
 2.8750001E-02  0.0000000E+00
 4.0250003E-02  0.0000000E+00
 5.1750004E-02  0.0000000E+00
 6.3250005E-02  0.0000000E+00
 7.4750006E-02  0.0000000E+00
 8.6250007E-02  0.0000000E+00
 9.7750008E-02  0.0000000E+00
 1.0925001E-01  0.0000000E+00
 1.2075000E-01  0.0000000E+00
 1.3225001E-01  0.0000000E+00
 1.4375001E-01  0.0000000E+00
 1.5525001E-01  0.0000000E+00
 1.6675001E-01  0.0000000E+00
 1.7825001E-01  0.0000000E+00
 1.8975002E-01  0.0000000E+00
 2.0125002E-01  0.0000000E+00
 2.1275002E-01  0.0000000E+00
 2.2425000E-01  0.0000000E+00
 2.3575000E-01  0.0000000E+00
 2.4725001E-01  0.0000000E+00
 2.5875002E-01  0.0000000E+00
 2.7025002E-01  0.0000000E+00
 2.8175002E-01  0.0000000E+00
 2.9325002E-01  0.0000000E+00
 3.0475003E-01  0.0000000E+00
 3.1625003E-01  0.0000000E+00
 3.2775003E-01  0.0000000E+00
 3.3925003E-01  0.0000000E+00
 3.5075003E-01  0.0000000E+00
 3.6225003E-01  0.0000000E+00
 3.7375003E-01  0.0000000E+00
 3.8525003E-01  0.0000000E+00
 3.9675003E-01  0.0000000E+00
 4.0825003E-01  0.0000000E+00
 4.1975003E-01  0.0000000E+00
 4.3125004E-01  0.0000000E+00
 4.4275001E-01  0.0000000E+00
 4.5425001E-01  0.0000000E+00
 4.6575001E-01  0.0000000E+00
 4.7725001E-01  0.0000000E+00
 4.8875001E-01  0.0000000E+00
 5.0025004E-01  0.0000000E+00
 5.1175004E-01  0.0000000E+00
 5.2325004E-01  0.0000000E+00
 5.3475004E-01  0.0000000E+00
 5.4625005E-01  0.0000000E+00
 5.5775005E-01  0.0000000E+00
 5.6925005E-01  0.0000000E+00
 5.8075005E-01  0.0000000E+00
 5.9225005E-01  0.0000000E+00
 6.0375005E-01  0.0000000E+00
 6.1525005E-01  0.0000000E+00
 6.2675005E-01  0.0000000E+00
 6.3825005E-01  0.0000000E+00
 6.4975005E-01  0.0000000E+00
 6.6125005E-01  0.0000000E+00
 6.7275006E-01  0.0000000E+00
 6.8425006E-01  0.0000000E+00
 6.9575006E-01  0.0000000E+00
 7.0725006E-01  0.0000000E+00
 7.1875006E-01  0.0000000E+00
 7.3025006E-01  0.0000000E+00
 7.4175006E-01  0.0000000E+00
 7.5325006E-01  0.0000000E+00
 7.6475006E-01  0.0000000E+00
 7.7625006E-01  0.0000000E+00
 7.8775007E-01  0.0000000E+00
 7.9925007E-01  0.0000000E+00
 8.1075007E-01  0.0000000E+00
 8.2225007E-01  0.0000000E+00
 8.3375007E-01  0.0000000E+00
 8.4525007E-01  0.0000000E+00
 8.5675007E-01  0.0000000E+00
 8.6825007E-01  0.0000000E+00
 8.7975001E-01  0.0000000E+00
 8.9125001E-01  0.0000000E+00
 9.0275002E-01  0.0000000E+00
 9.1425002E-01  0.0000000E+00
 9.2575002E-01  0.0000000E+00
 9.3725002E-01  0.0000000E+00
 9.4875002E-01  0.0000000E+00
 9.6025002E-01  0.0000000E+00
 9.7175002E-01  0.0000000E+00
 9.8325002E-01  0.0000000E+00
 9.9475002E-01  0.0000000E+00
 1.0062500E+00  0.0000000E+00
 1.0177500E+00  0.0000000E+00
 1.0292500E+00  0.0000000E+00
 1.0407500E+00  0.0000000E+00
 1.0522500E+00  0.0000000E+00
 1.0637500E+00  0.0000000E+00
 1.0752500E+00  0.0000000E+00
 1.0867500E+00  0.0000000E+00
 1.0982500E+00  0.0000000E+00
 1.1097500E+00  0.0000000E+00
 1.1212500E+00  0.0000000E+00
 1.1327500E+00  0.0000000E+00
 1.1442500E+00  0.0000000E+00
 1.1557500E+00  0.0000000E+00
 1.1672500E+00  0.0000000E+00
 1.1787500E+00  0.0000000E+00
 1.1902500E+00  0.0000000E+00
 1.2017500E+00  0.0000000E+00
 1.2132500E+00  0.0000000E+00
 1.2247500E+00  0.0000000E+00
 1.2362500E+00  0.0000000E+00
 1.2477500E+00  0.0000000E+00
 1.2592500E+00  0.0000000E+00
 1.2707500E+00  0.0000000E+00
 1.2822500E+00  0.0000000E+00
 1.2937500E+00  0.0000000E+00
 1.3052500E+00  0.0000000E+00
 1.3167500E+00  0.0000000E+00
 1.3282501E+00  0.0000000E+00
 1.3397501E+00  0.0000000E+00
 1.3512501E+00  0.0000000E+00
 1.3627501E+00  0.0000000E+00
 1.3742501E+00  0.0000000E+00
 1.3857501E+00  0.0000000E+00
 1.3972501E+00  0.0000000E+00
 1.4087501E+00  0.0000000E+00
 1.4202501E+00  0.0000000E+00
 1.4317501E+00  0.0000000E+00
 1.4432501E+00  0.0000000E+00
 1.4547501E+00  0.0000000E+00
 1.4662501E+00  0.0000000E+00
 1.4777501E+00  0.0000000E+00
 1.4892501E+00  0.0000000E+00
 1.5007501E+00  0.0000000E+00
 1.5122501E+00  0.0000000E+00
 1.5237501E+00  0.0000000E+00
 1.5352501E+00  0.0000000E+00
 1.5467501E+00  0.0000000E+00
 1.5582501E+00  0.0000000E+00
 1.5697501E+00  0.0000000E+00
 1.5812501E+00  0.0000000E+00
 1.5927501E+00  0.0000000E+00
 1.6042501E+00  0.0000000E+00
 1.6157501E+00  0.0000000E+00
 1.6272501E+00  0.0000000E+00
 1.6387501E+00  0.0000000E+00
 1.6502501E+00  0.0000000E+00
 1.6617501E+00  0.0000000E+00
 1.6732501E+00  0.0000000E+00
 1.6847501E+00  0.0000000E+00
 1.6962501E+00  0.0000000E+00
 1.7077501E+00  0.0000000E+00
 1.7192501E+00  0.0000000E+00
 1.7307501E+00  0.0000000E+00
 1.7422501E+00  0.0000000E+00
 1.7537501E+00  0.0000000E+00
 1.7652501E+00  0.0000000E+00
 1.7767501E+00  0.0000000E+00
 1.7882501E+00  0.0000000E+00
 1.7997501E+00  0.0000000E+00
 1.8112501E+00  0.0000000E+00
 1.8227501E+00  0.0000000E+00
 1.8342501E+00  0.0000000E+00
 1.8457501E+00  0.0000000E+00
 1.8572501E+00  0.0000000E+00
 1.8687501E+00  0.0000000E+00
 1.8802501E+00  0.0000000E+00
 1.8917501E+00  0.0000000E+00
 1.9032501E+00  0.0000000E+00
 1.9147501E+00  0.0000000E+00
 1.9262501E+00  0.0000000E+00
 1.9377501E+00  0.0000000E+00
 1.9492501E+00  0.0000000E+00
 1.9607501E+00  0.0000000E+00
 1.9722501E+00  0.0000000E+00
 1.9837501E+00  0.0000000E+00
 1.9952501E+00  0.0000000E+00
 2.0067501E+00  0.0000000E+00
 2.0182500E+00  0.0000000E+00
 2.0297501E+00  0.0000000E+00
 2.0412500E+00  0.0000000E+00
 2.0527501E+00  0.0000000E+00
 2.0642500E+00  0.0000000E+00
 2.0757501E+00  0.0000000E+00
 2.0872500E+00  0.0000000E+00
 2.0987501E+00  0.0000000E+00
 2.1102500E+00  0.0000000E+00
 2.1217501E+00  0.0000000E+00
 2.1332500E+00  0.0000000E+00
 2.1447501E+00  0.0000000E+00
 2.1562500E+00  0.0000000E+00
 2.1677501E+00  0.0000000E+00
 2.1792500E+00  0.0000000E+00
 2.1907501E+00  0.0000000E+00
 2.2022500E+00  0.0000000E+00
 2.2137501E+00  0.0000000E+00
 2.2252500E+00  0.0000000E+00
 2.2367501E+00  0.0000000E+00
 2.2482500E+00  0.0000000E+00
 2.2597501E+00  0.0000000E+00
 2.2712500E+00  0.0000000E+00
 2.2827501E+00  0.0000000E+00
 2.2942500E+00  0.0000000E+00
 2.3057501E+00  0.0000000E+00
 2.3172500E+00  0.0000000E+00
 2.3287501E+00  0.0000000E+00
 2.3402500E+00  0.0000000E+00
 2.3517501E+00  0.0000000E+00
 2.3632500E+00  0.0000000E+00
 2.3747501E+00  0.0000000E+00
 2.3862500E+00  0.0000000E+00
 2.3977501E+00  0.0000000E+00
 2.4092500E+00  0.0000000E+00
 2.4207501E+00  0.0000000E+00
 2.4322500E+00  0.0000000E+00
 2.4437501E+00  0.0000000E+00
 2.4552500E+00  0.0000000E+00
 2.4667501E+00  0.0000000E+00
 2.4782500E+00  0.0000000E+00
 2.4897501E+00  0.0000000E+00
 2.5012500E+00  0.0000000E+00
 2.5127501E+00  0.0000000E+00
 2.5242500E+00  0.0000000E+00
 2.5357502E+00  0.0000000E+00
 2.5472500E+00  0.0000000E+00
 2.5587502E+00  0.0000000E+00
 2.5702500E+00  0.0000000E+00
 2.5817502E+00  0.0000000E+00
 2.5932500E+00  0.0000000E+00
 2.6047502E+00  0.0000000E+00
 2.6162500E+00  0.0000000E+00
 2.6277502E+00  0.0000000E+00
 2.6392500E+00  0.0000000E+00
 2.6507502E+00  0.0000000E+00
 2.6622500E+00  0.0000000E+00
 2.6737502E+00  0.0000000E+00
 2.6852500E+00  0.0000000E+00
 2.6967502E+00  0.0000000E+00
 2.7082500E+00  0.0000000E+00
 2.7197502E+00  0.0000000E+00
 2.7312500E+00  0.0000000E+00
 2.7427502E+00  0.0000000E+00
 2.7542500E+00  0.0000000E+00
 2.7657502E+00  0.0000000E+00
 2.7772501E+00  0.0000000E+00
 2.7887502E+00  0.0000000E+00
 2.8002501E+00  0.0000000E+00
 2.8117502E+00  0.0000000E+00
 2.8232501E+00  3.1793236E+01
 2.8347502E+00  3.3751740E+01
 2.8462501E+00  3.4280319E+01
 2.8577502E+00  3.4931038E+01
 2.8692501E+00  3.5284092E+01
 2.8807502E+00  3.5634510E+01
 2.8922501E+00  3.5609150E+01
 2.9037502E+00  3.6085457E+01
 2.9152501E+00  3.6448990E+01
 2.9267502E+00  3.7110455E+01
 2.9382501E+00  3.6955219E+01
 2.9497502E+00  3.6767879E+01
 2.9612501E+00  3.6314423E+01
 2.9727502E+00  3.6154850E+01
 2.9842501E+00  3.6314888E+01
 2.9957502E+00  3.6464584E+01
 3.0072501E+00  3.6566525E+01
 3.0187502E+00  3.6443188E+01
 3.0302501E+00  3.6689659E+01
 3.0417502E+00  3.6684246E+01
 3.0532501E+00  3.6819019E+01
 3.0647502E+00  3.6493599E+01
 3.0762501E+00  3.6559437E+01
 3.0877502E+00  3.6348221E+01
 3.0992501E+00  3.6204525E+01
 3.1107502E+00  3.5927349E+01
 3.1222501E+00  3.5928883E+01
 3.1337502E+00  3.5892818E+01
 3.1452501E+00  3.5941010E+01
 3.1567502E+00  3.6178284E+01
 3.1682501E+00  3.6073914E+01
 3.1797502E+00  3.6232933E+01
 3.1912501E+00  3.6196297E+01
 3.2027502E+00  3.5934624E+01
 3.2142501E+00  3.5748558E+01
 3.2257502E+00  3.5735027E+01
 3.2372501E+00  3.5808689E+01
 3.2487502E+00  3.6350872E+01
 3.2602501E+00  3.6626472E+01
 3.2717502E+00  3.6681183E+01
 3.2832501E+00  3.6388901E+01
 3.2947502E+00  3.5888252E+01
 3.3062501E+00  3.5473003E+01
 3.3177502E+00  3.5282074E+01
 3.3292501E+00  3.4951454E+01
 3.3407502E+00  3.4868809E+01
 3.3522501E+00  3.4893978E+01
 3.3637502E+00  3.4942341E+01
 3.3752501E+00  3.5248306E+01
 3.3867502E+00  3.5193150E+01
 3.3982501E+00  3.5203274E+01
 3.4097502E+00  3.4938988E+01
 3.4212501E+00  3.4935200E+01
 3.4327502E+00  3.4728924E+01
 3.4442501E+00  3.4661228E+01
 3.4557502E+00  3.4774643E+01
 3.4672501E+00  3.4814037E+01
 3.4787502E+00  3.4928734E+01
 3.4902501E+00  3.4647926E+01
 3.5017502E+00  3.4314056E+01
 3.5132501E+00  3.3809357E+01
 3.5247502E+00  3.3352371E+01
 3.5362501E+00  3.3380253E+01
 3.5477502E+00  3.3231228E+01
 3.5592501E+00  3.3349762E+01
 3.5707502E+00  3.3264938E+01
 3.5822501E+00  3.3328697E+01
 3.5937502E+00  3.3300049E+01
 3.6052501E+00  3.3174511E+01
 3.6167502E+00  3.3081467E+01
 3.6282501E+00  3.2839077E+01
 3.6397502E+00  3.2652039E+01
 3.6512501E+00  3.2841812E+01
 3.6627502E+00  3.3006142E+01
 3.6742501E+00  3.3325394E+01
 3.6857502E+00  3.3233551E+01
 3.6972501E+00  3.3341824E+01
 3.7087502E+00  3.3481815E+01
 3.7202501E+00  3.3556534E+01
 3.7317502E+00  3.3462990E+01
 3.7432501E+00  3.3452271E+01
 3.7547503E+00  3.3522758E+01
 3.7662501E+00  3.3451061E+01
 3.7777503E+00  3.3367203E+01
 3.7892501E+00  3.3203720E+01
 3.8007503E+00  3.3142967E+01
 3.8122501E+00  3.3079235E+01
 3.8237503E+00  3.3088696E+01
 3.8352501E+00  3.3278172E+01
 3.8467503E+00  3.3206501E+01
 3.8582501E+00  3.3143242E+01
 3.8697503E+00  3.3036091E+01
 3.8812501E+00  3.3046577E+01
 3.8927503E+00  3.2896183E+01
 3.9042501E+00  3.2713394E+01
 3.9157503E+00  3.2514927E+01
 3.9272501E+00  3.2628231E+01
 3.9387503E+00  3.2908329E+01
 3.9502501E+00  3.2918217E+01
 3.9617503E+00  3.2897324E+01
 3.9732502E+00  3.2818722E+01
 3.9847503E+00  3.2919037E+01
 3.9962502E+00  3.2776031E+01
 4.0077500E+00  3.2724579E+01
 4.0192504E+00  3.2711559E+01
 4.0307503E+00  3.2607330E+01
 4.0422502E+00  3.2502136E+01
 4.0537500E+00  3.2482063E+01
 4.0652504E+00  3.2661907E+01
 4.0767503E+00  3.2707855E+01
 4.0882502E+00  3.2836529E+01
 4.0997500E+00  3.2917149E+01
 4.1112504E+00  3.3017994E+01
 4.1227503E+00  3.2758720E+01
 4.1342502E+00  3.2745941E+01
 4.1457500E+00  3.2669205E+01
 4.1572504E+00  3.2637711E+01
 4.1687503E+00  3.2499084E+01
 4.1802502E+00  3.2544281E+01
 4.1917500E+00  3.2657288E+01
 4.2032504E+00  3.2793636E+01
 4.2147503E+00  3.2795456E+01
 4.2262502E+00  3.2897148E+01
 4.2377501E+00  3.2930706E+01
 4.2492504E+00  3.2826321E+01
 4.2607503E+00  3.2892746E+01
 4.2722502E+00  3.2846237E+01
 4.2837501E+00  3.2926033E+01
 4.2952504E+00  3.2883938E+01
 4.3067503E+00  3.2804951E+01
 4.3182502E+00  3.2824085E+01
 4.3297501E+00  3.2747833E+01
 4.3412504E+00  3.2719437E+01
 4.3527503E+00  3.2669891E+01
 4.3642502E+00  3.2672432E+01
 4.3757501E+00  3.2579418E+01
 4.3872504E+00  3.2623989E+01
 4.3987503E+00  3.2505306E+01
 4.4102502E+00  3.2711002E+01
 4.4217501E+00  3.2637352E+01
 4.4332504E+00  3.2725834E+01
 4.4447503E+00  3.2656357E+01
 4.4562502E+00  3.2640800E+01
 4.4677501E+00  3.2772270E+01
 4.4792504E+00  3.2786045E+01
 4.4907503E+00  3.2945827E+01
 4.5022502E+00  3.3023491E+01
 4.5137501E+00  3.3204346E+01
 4.5252504E+00  3.3582066E+01
 4.5367503E+00  3.3723713E+01
 4.5482502E+00  3.3888042E+01
 4.5597501E+00  3.3793182E+01
 4.5712504E+00  3.3985455E+01
 4.5827503E+00  3.3802868E+01
 4.5942502E+00  3.3779896E+01
 4.6057501E+00  3.3552547E+01
 4.6172504E+00  3.3618526E+01
 4.6287503E+00  3.3552643E+01
 4.6402502E+00  3.3619335E+01
 4.6517501E+00  3.3556015E+01
 4.6632504E+00  3.3480072E+01
 4.6747503E+00  3.3205296E+01
 4.6862502E+00  3.3103157E+01
 4.6977501E+00  3.3118996E+01
 4.7092505E+00  3.3153973E+01
 4.7207503E+00  3.3129482E+01
 4.7322502E+00  3.3120182E+01
 4.7437501E+00  3.3261326E+01
 4.7552505E+00  3.3330173E+01
 4.7667503E+00  3.3382236E+01
 4.7782502E+00  3.3234741E+01
 4.7897501E+00  3.3215210E+01
 4.8012505E+00  3.3121449E+01
 4.8127503E+00  3.3116306E+01
 4.8242502E+00  3.3046967E+01
 4.8357501E+00  3.3047646E+01
 4.8472505E+00  3.3042324E+01
 4.8587503E+00  3.3106983E+01
 4.8702502E+00  3.3119057E+01
 4.8817501E+00  3.3167061E+01
 4.8932505E+00  3.3144726E+01
 4.9047503E+00  3.3154598E+01
 4.9162502E+00  3.3207569E+01
 4.9277501E+00  3.3230042E+01
 4.9392505E+00  3.3390984E+01
 4.9507504E+00  3.3435337E+01
 4.9622502E+00  3.3498505E+01
 4.9737501E+00  3.3360607E+01
 4.9852505E+00  3.3382278E+01
 4.9967504E+00  3.3379925E+01
 5.0082502E+00  3.3403484E+01
 5.0197501E+00  3.3412586E+01
 5.0312505E+00  3.3522499E+01
 5.0427504E+00  3.3671329E+01
 5.0542502E+00  3.3657284E+01
 5.0657501E+00  3.3705463E+01
 5.0772505E+00  3.3692715E+01
 5.0887504E+00  3.3808964E+01
 5.1002502E+00  3.3917309E+01
 5.1117501E+00  3.3968826E+01
 5.1232505E+00  3.4148056E+01
 5.1347504E+00  3.4128979E+01
 5.1462502E+00  3.4193901E+01
 5.1577501E+00  3.4115917E+01
 5.1692505E+00  3.4045708E+01
 5.1807504E+00  3.4040630E+01
 5.1922503E+00  3.4136021E+01
 5.2037501E+00  3.4358582E+01
 5.2152505E+00  3.4519531E+01
 5.2267504E+00  3.4566986E+01
 5.2382503E+00  3.4508575E+01
 5.2497501E+00  3.4460407E+01
 5.2612505E+00  3.4493782E+01
 5.2727504E+00  3.4465149E+01
 5.2842503E+00  3.4612072E+01
 5.2957501E+00  3.4603497E+01
 5.3072500E+00  3.4737118E+01
 5.3187504E+00  3.4779106E+01
 5.3302503E+00  3.4959167E+01
 5.3417501E+00  3.4963707E+01
 5.3532500E+00  3.5007038E+01
 5.3647504E+00  3.5019272E+01
 5.3762503E+00  3.5119003E+01
 5.3877501E+00  3.5268597E+01
 5.3992500E+00  3.5261417E+01
 5.4107504E+00  3.5180729E+01
 5.4222503E+00  3.4943542E+01
 5.4337502E+00  3.4768364E+01
 5.4452500E+00  3.4842712E+01
 5.4567504E+00  3.4972866E+01
 5.4682503E+00  3.5046230E+01
 5.4797502E+00  3.5062836E+01
 5.4912500E+00  3.4946064E+01
 5.5027504E+00  3.4965614E+01
 5.5142503E+00  3.4987179E+01
 5.5257502E+00  3.5075871E+01
 5.5372500E+00  3.5136383E+01
 5.5487504E+00  3.5161636E+01
 5.5602503E+00  3.5283703E+01
 5.5717502E+00  3.5365269E+01
 5.5832500E+00  3.5434631E+01
 5.5947504E+00  3.5549328E+01
 5.6062503E+00  3.5664581E+01
 5.6177502E+00  3.5734798E+01
 5.6292500E+00  3.5727245E+01
 5.6407504E+00  3.5739502E+01
 5.6522503E+00  3.5746799E+01
 5.6637502E+00  3.5890678E+01
 5.6752501E+00  3.5935688E+01
 5.6867504E+00  3.6000755E+01
 5.6982503E+00  3.5951786E+01
 5.7097502E+00  3.5899601E+01
 5.7212501E+00  3.5866154E+01
 5.7327504E+00  3.5881687E+01
 5.7442503E+00  3.5896034E+01
 5.7557502E+00  3.5964420E+01
 5.7672501E+00  3.6013512E+01
 5.7787504E+00  3.5954731E+01
 5.7902503E+00  3.5933914E+01
 5.8017502E+00  3.5826603E+01
 5.8132501E+00  3.5891224E+01
 5.8247504E+00  3.5927166E+01
 5.8362503E+00  3.6010845E+01
 5.8477502E+00  3.6093082E+01
 5.8592501E+00  3.6103817E+01
 5.8707504E+00  3.6256531E+01
 5.8822503E+00  3.6442825E+01
 5.8937502E+00  3.6714066E+01
 5.9052501E+00  3.6928444E+01
 5.9167504E+00  3.7082142E+01
 5.9282503E+00  3.7529186E+01
 5.9397502E+00  3.7911018E+01
 5.9512501E+00  3.8679134E+01
 5.9627504E+00  3.9548874E+01
 5.9742503E+00  3.9941433E+01
 5.9857502E+00  4.0499535E+01
 5.9972501E+00  4.0171555E+01
 6.0087504E+00  3.9756756E+01
 6.0202503E+00  3.8865555E+01
 6.0317502E+00  3.8041161E+01
 6.0432501E+00  3.7717121E+01
 6.0547504E+00  3.7268524E+01
 6.0662503E+00  3.7177670E+01
 6.0777502E+00  3.7183331E+01
 6.0892501E+00  3.7249443E+01
 6.1007504E+00  3.7283489E+01
 6.1122503E+00  3.7320755E+01
 6.1237502E+00  3.7390575E+01
 6.1352501E+00  3.7274651E+01
 6.1467505E+00  3.7151619E+01
 6.1582503E+00  3.7047626E+01
 6.1697502E+00  3.7064671E+01
 6.1812501E+00  3.7075401E+01
 6.1927505E+00  3.7168003E+01
 6.2042503E+00  3.7212978E+01
 6.2157502E+00  3.7304207E+01
 6.2272501E+00  3.7365665E+01
 6.2387505E+00  3.7458828E+01
 6.2502503E+00  3.7577385E+01
 6.2617502E+00  3.7669857E+01
 6.2732501E+00  3.7811069E+01
 6.2847505E+00  3.7810921E+01
 6.2962503E+00  3.7843399E+01
 6.3077502E+00  3.7919834E+01
 6.3192501E+00  3.7945606E+01
 6.3307505E+00  3.8017872E+01
 6.3422503E+00  3.8053257E+01
 6.3537502E+00  3.8228287E+01
 6.3652501E+00  3.8290871E+01
 6.3767505E+00  3.8371906E+01
 6.3882504E+00  3.8434193E+01
 6.3997502E+00  3.8473110E+01
 6.4112501E+00  3.8566231E+01
 6.4227505E+00  3.8690174E+01
 6.4342504E+00  3.8816143E+01
 6.4457502E+00  3.8865547E+01
 6.4572501E+00  3.8838650E+01
 6.4687505E+00  3.9010181E+01
 6.4802504E+00  3.9200294E+01
 6.4917502E+00  3.9317356E+01
 6.5032501E+00  3.9625462E+01
 6.5147505E+00  3.9716560E+01
 6.5262504E+00  3.9920441E+01
 6.5377502E+00  3.9789600E+01
 6.5492501E+00  3.9755539E+01
 6.5607505E+00  3.9743439E+01
 6.5722504E+00  3.9732418E+01
 6.5837502E+00  3.9798321E+01
 6.5952501E+00  3.9783234E+01
 6.6067505E+00  3.9859249E+01
 6.6182504E+00  3.9968540E+01
 6.6297503E+00  4.0147800E+01
 6.6412501E+00  4.0323696E+01
 6.6527505E+00  4.0455051E+01
 6.6642504E+00  4.0620552E+01
 6.6757503E+00  4.0710541E+01
 6.6872501E+00  4.0785858E+01
 6.6987505E+00  4.0869068E+01
 6.7102504E+00  4.0990845E+01
 6.7217503E+00  4.1087242E+01
 6.7332501E+00  4.1104965E+01
 6.7447505E+00  4.1085663E+01
 6.7562504E+00  4.1131615E+01
 6.7677503E+00  4.1155891E+01
 6.7792501E+00  4.1250336E+01
 6.7907505E+00  4.1358505E+01
 6.8022504E+00  4.1456543E+01
 6.8137503E+00  4.1611767E+01
 6.8252501E+00  4.1794823E+01
 6.8367505E+00  4.1891117E+01
 6.8482504E+00  4.2002338E+01
 6.8597503E+00  4.2079979E+01
 6.8712502E+00  4.2186657E+01
 6.8827505E+00  4.2285427E+01
 6.8942504E+00  4.2327538E+01
 6.9057503E+00  4.2423653E+01
 6.9172502E+00  4.2497269E+01
 6.9287505E+00  4.2494606E+01
 6.9402504E+00  4.2596043E+01
 6.9517503E+00  4.2544182E+01
 6.9632502E+00  4.2594894E+01
 6.9747505E+00  4.2601089E+01
 6.9862504E+00  4.2620026E+01
 6.9977503E+00  4.2633465E+01
 7.0092502E+00  4.2666622E+01
 7.0207505E+00  4.2855057E+01
 7.0322504E+00  4.3016029E+01
 7.0437503E+00  4.3107098E+01
 7.0552502E+00  4.3167000E+01
 7.0667505E+00  4.3211678E+01
 7.0782504E+00  4.3265842E+01
 7.0897503E+00  4.3369606E+01
 7.1012502E+00  4.3480701E+01
 7.1127505E+00  4.3676559E+01
 7.1242504E+00  4.3855869E+01
 7.1357503E+00  4.3942837E+01
 7.1472502E+00  4.3987427E+01
 7.1587505E+00  4.3942173E+01
 7.1702504E+00  4.4022232E+01
 7.1817503E+00  4.4003334E+01
 7.1932502E+00  4.4004986E+01
 7.2047505E+00  4.4036411E+01
 7.2162504E+00  4.4103111E+01
 7.2277503E+00  4.4166199E+01
 7.2392502E+00  4.4197937E+01
 7.2507505E+00  4.4235104E+01
 7.2622504E+00  4.4263042E+01
 7.2737503E+00  4.4162582E+01
 7.2852502E+00  4.4183285E+01
 7.2967505E+00  4.4107746E+01
 7.3082504E+00  4.4195026E+01
 7.3197503E+00  4.4304127E+01
 7.3312502E+00  4.4447964E+01
 7.3427505E+00  4.4595055E+01
 7.3542504E+00  4.4724102E+01
 7.3657503E+00  4.4748413E+01
 7.3772502E+00  4.4816845E+01
 7.3887506E+00  4.4773846E+01
 7.4002504E+00  4.4845947E+01
 7.4117503E+00  4.4912724E+01
 7.4232502E+00  4.4865864E+01
 7.4347506E+00  4.4875957E+01
 7.4462504E+00  4.4789585E+01
 7.4577503E+00  4.4795219E+01
 7.4692502E+00  4.4761883E+01
 7.4807506E+00  4.4751247E+01
 7.4922504E+00  4.4728374E+01
 7.5037503E+00  4.4665211E+01
 7.5152502E+00  4.4629536E+01
 7.5267506E+00  4.4571941E+01
 7.5382504E+00  4.4592430E+01
 7.5497503E+00  4.4529091E+01
 7.5612502E+00  4.4684155E+01
 7.5727506E+00  4.4730572E+01
 7.5842505E+00  4.4720985E+01
 7.5957503E+00  4.4671692E+01
 7.6072502E+00  4.4632938E+01
 7.6187506E+00  4.4729187E+01
 7.6302505E+00  4.4737869E+01
 7.6417503E+00  4.4848988E+01
 7.6532502E+00  4.4916176E+01
 7.6647506E+00  4.4960011E+01
 7.6762505E+00  4.4951687E+01
 7.6877503E+00  4.4851791E+01
 7.6992502E+00  4.4803745E+01
 7.7107506E+00  4.4678246E+01
 7.7222505E+00  4.4710705E+01
 7.7337503E+00  4.4733627E+01
 7.7452502E+00  4.4841373E+01
 7.7567506E+00  4.4959435E+01
 7.7682505E+00  4.5018909E+01
 7.7797503E+00  4.5039940E+01
 7.7912502E+00  4.5029110E+01
 7.8027506E+00  4.4944622E+01
 7.8142505E+00  4.4957901E+01
 7.8257504E+00  4.4838158E+01
 7.8372502E+00  4.4805214E+01
 7.8487506E+00  4.4733044E+01
 7.8602505E+00  4.4668079E+01
 7.8717504E+00  4.4559700E+01
 7.8832502E+00  4.4428585E+01
 7.8947506E+00  4.4410721E+01
 7.9062505E+00  4.4458069E+01
 7.9177504E+00  4.4499287E+01
 7.9292502E+00  4.4524418E+01
 7.9407506E+00  4.4617939E+01
 7.9522505E+00  4.4603607E+01
 7.9637504E+00  4.4501438E+01
 7.9752502E+00  4.4362099E+01
 7.9867506E+00  4.4319103E+01
 7.9982505E+00  4.4323311E+01
 8.0097504E+00  4.4344490E+01
 8.0212507E+00  4.4277069E+01
 8.0327501E+00  4.4176258E+01
 8.0442505E+00  4.4071682E+01
 8.0557508E+00  4.3914230E+01
 8.0672503E+00  4.3749599E+01
 8.0787506E+00  4.3595108E+01
 8.0902500E+00  4.3479294E+01
 8.1017504E+00  4.3434292E+01
 8.1132507E+00  4.3345036E+01
 8.1247501E+00  4.3165253E+01
 8.1362505E+00  4.3009327E+01
 8.1477509E+00  4.2837757E+01
 8.1592503E+00  4.2693172E+01
 8.1707506E+00  4.2595154E+01
 8.1822500E+00  4.2372398E+01
 8.1937504E+00  4.2284866E+01
 8.2052507E+00  4.2091839E+01
 8.2167501E+00  4.2025284E+01
 8.2282505E+00  4.1909283E+01
 8.2397509E+00  4.1791348E+01
 8.2512503E+00  4.1656281E+01
 8.2627506E+00  4.1540714E+01
 8.2742500E+00  4.1446354E+01
 8.2857504E+00  4.1382214E+01
 8.2972507E+00  4.1357765E+01
 8.3087502E+00  4.1344833E+01
 8.3202505E+00  4.1269661E+01
 8.3317509E+00  4.1067429E+01
 8.3432503E+00  4.0892212E+01
 8.3547506E+00  4.0736176E+01
 8.3662500E+00  4.0515793E+01
 8.3777504E+00  4.0309006E+01
 8.3892508E+00  4.0072372E+01
 8.4007502E+00  3.9931473E+01
 8.4122505E+00  3.9745934E+01
 8.4237509E+00  3.9539471E+01
 8.4352503E+00  3.9343700E+01
 8.4467506E+00  3.9207817E+01
 8.4582500E+00  3.9067886E+01
 8.4697504E+00  3.9025902E+01
 8.4812508E+00  3.8856823E+01
 8.4927502E+00  3.8682243E+01
 8.5042505E+00  3.8479095E+01
 8.5157509E+00  3.8269432E+01
 8.5272503E+00  3.8124252E+01
 8.5387506E+00  3.8005062E+01
 8.5502501E+00  3.7884956E+01
 8.5617504E+00  3.7717022E+01
 8.5732508E+00  3.7504139E+01
 8.5847502E+00  3.7286152E+01
 8.5962505E+00  3.7021332E+01
 8.6077509E+00  3.6816776E+01
 8.6192503E+00  3.6628265E+01
 8.6307507E+00  3.6542728E+01
 8.6422501E+00  3.6386372E+01
 8.6537504E+00  3.6155262E+01
 8.6652508E+00  3.5988468E+01
 8.6767502E+00  3.5810753E+01
 8.6882505E+00  3.5707172E+01
 8.6997509E+00  3.5520836E+01
 8.7112503E+00  3.5257523E+01
 8.7227507E+00  3.5031780E+01
 8.7342501E+00  3.4781414E+01
 8.7457504E+00  3.4574741E+01
 8.7572508E+00  3.4361347E+01
 8.7687502E+00  3.4275143E+01
 8.7802505E+00  3.4086510E+01
 8.7917500E+00  3.3983795E+01
 8.8032503E+00  3.3816544E+01
 8.8147507E+00  3.3742504E+01
 8.8262501E+00  3.3604855E+01
 8.8377504E+00  3.3423805E+01
 8.8492508E+00  3.3259056E+01
 8.8607502E+00  3.3040745E+01
 8.8722506E+00  3.2866245E+01
 8.8837500E+00  3.2670738E+01
 8.8952503E+00  3.2441219E+01
 8.9067507E+00  3.2315716E+01
 8.9182501E+00  3.2081627E+01
 8.9297504E+00  3.2018703E+01
 8.9412508E+00  3.1791376E+01
 8.9527502E+00  3.1695883E+01
 8.9642506E+00  3.1546217E+01
 8.9757500E+00  3.1389736E+01
 8.9872503E+00  3.1265026E+01
 8.9987507E+00  3.1102282E+01
 9.0102501E+00  3.0985445E+01
 9.0217505E+00  3.0862633E+01
 9.0332508E+00  3.0736971E+01
 9.0447502E+00  3.0656723E+01
 9.0562506E+00  3.0559908E+01
 9.0677500E+00  3.0486374E+01
 9.0792503E+00  3.0305759E+01
 9.0907507E+00  3.0189661E+01
 9.1022501E+00  2.9984039E+01
 9.1137505E+00  2.9878746E+01
 9.1252508E+00  2.9744764E+01
 9.1367502E+00  2.9682482E+01
 9.1482506E+00  2.9569708E+01
 9.1597500E+00  2.9412037E+01
 9.1712503E+00  2.9271746E+01
 9.1827507E+00  2.9067276E+01
 9.1942501E+00  2.8940897E+01
 9.2057505E+00  2.8715784E+01
 9.2172508E+00  2.8652819E+01
 9.2287502E+00  2.8476400E+01
 9.2402506E+00  2.8394600E+01
 9.2517500E+00  2.8325344E+01
 9.2632504E+00  2.8351686E+01
 9.2747507E+00  2.8350504E+01
 9.2862501E+00  2.8221741E+01
 9.2977505E+00  2.8121613E+01
 9.3092508E+00  2.8011747E+01
 9.3207502E+00  2.7944534E+01
 9.3322506E+00  2.7810045E+01
 9.3437500E+00  2.7649979E+01
 9.3552504E+00  2.7508932E+01
 9.3667507E+00  2.7406939E+01
 9.3782501E+00  2.7357260E+01
 9.3897505E+00  2.7323721E+01
 9.4012508E+00  2.7265985E+01
 9.4127502E+00  2.7183218E+01
 9.4242506E+00  2.7015036E+01
 9.4357500E+00  2.6898495E+01
 9.4472504E+00  2.6789387E+01
 9.4587507E+00  2.6725595E+01
 9.4702501E+00  2.6626734E+01
 9.4817505E+00  2.6590042E+01
 9.4932508E+00  2.6563444E+01
 9.5047503E+00  2.6513174E+01
 9.5162506E+00  2.6472393E+01
 9.5277500E+00  2.6405962E+01
 9.5392504E+00  2.6317190E+01
 9.5507507E+00  2.6196348E+01
 9.5622501E+00  2.6096115E+01
 9.5737505E+00  2.6018198E+01
 9.5852509E+00  2.5923458E+01
 9.5967503E+00  2.5928728E+01
 9.6082506E+00  2.5877207E+01
 9.6197500E+00  2.5869192E+01
 9.6312504E+00  2.5825226E+01
 9.6427507E+00  2.5758537E+01
 9.6542501E+00  2.5713158E+01
 9.6657505E+00  2.5619595E+01
 9.6772509E+00  2.5529192E+01
 9.6887503E+00  2.5457064E+01
 9.7002506E+00  2.5404892E+01
 9.7117500E+00  2.5476816E+01
 9.7232504E+00  2.5496229E+01
 9.7347507E+00  2.5417421E+01
 9.7462502E+00  2.5336082E+01
 9.7577505E+00  2.5183760E+01
 9.7692509E+00  2.5134710E+01
 9.7807503E+00  2.5075302E+01
 9.7922506E+00  2.5064730E+01
 9.8037500E+00  2.5048222E+01
 9.8152504E+00  2.5026981E+01
 9.8267508E+00  2.4977041E+01
 9.8382502E+00  2.4950569E+01
 9.8497505E+00  2.4868931E+01
 9.8612509E+00  2.4850315E+01
 9.8727503E+00  2.4828430E+01
 9.8842506E+00  2.4776453E+01
 9.8957500E+00  2.4743153E+01
 9.9072504E+00  2.4703810E+01
 9.9187508E+00  2.4637489E+01
 9.9302502E+00  2.4552174E+01
 9.9417505E+00  2.4461699E+01
 9.9532509E+00  2.4476965E+01
 9.9647503E+00  2.4502222E+01
 9.9762506E+00  2.4497412E+01
 9.9877501E+00  2.4493301E+01
 9.9992504E+00  2.4486708E+01
 1.0010751E+01  2.4434742E+01
 1.0022250E+01  2.4389814E+01
 1.0033751E+01  2.4359320E+01
 1.0045251E+01  2.4275597E+01
 1.0056750E+01  2.4235106E+01
 1.0068251E+01  2.4173244E+01
 1.0079750E+01  2.4137505E+01
 1.0091250E+01  2.4094227E+01
 1.0102751E+01  2.4036688E+01
 1.0114250E+01  2.4021065E+01
 1.0125751E+01  2.4021837E+01
 1.0137251E+01  2.3992004E+01
 1.0148750E+01  2.4013557E+01
 1.0160251E+01  2.3988144E+01
 1.0171750E+01  2.3943226E+01
 1.0183250E+01  2.3930809E+01
 1.0194751E+01  2.3854258E+01
 1.0206250E+01  2.3835825E+01
 1.0217751E+01  2.3820816E+01
 1.0229251E+01  2.3830441E+01
 1.0240750E+01  2.3843143E+01
 1.0252251E+01  2.3780991E+01
 1.0263750E+01  2.3778067E+01
 1.0275250E+01  2.3727051E+01
 1.0286751E+01  2.3693466E+01
 1.0298250E+01  2.3695864E+01
 1.0309751E+01  2.3696291E+01
 1.0321251E+01  2.3692369E+01
 1.0332750E+01  2.3661268E+01
 1.0344251E+01  2.3664656E+01
 1.0355750E+01  2.3661011E+01
 1.0367250E+01  2.3601713E+01
 1.0378751E+01  2.3588310E+01
 1.0390250E+01  2.3609911E+01
 1.0401751E+01  2.3655840E+01
 1.0413251E+01  2.3622957E+01
 1.0424750E+01  2.3593523E+01
 1.0436251E+01  2.3514198E+01
 1.0447750E+01  2.3478292E+01
 1.0459250E+01  2.3458744E+01
 1.0470751E+01  2.3473642E+01
 1.0482250E+01  2.3466801E+01
 1.0493751E+01  2.3412348E+01
 1.0505251E+01  2.3353504E+01
 1.0516750E+01  2.3339533E+01
 1.0528251E+01  2.3310015E+01
 1.0539750E+01  2.3283691E+01
 1.0551250E+01  2.3262697E+01
 1.0562751E+01  2.3289867E+01
 1.0574250E+01  2.3264637E+01
 1.0585751E+01  2.3241940E+01
 1.0597251E+01  2.3202971E+01
 1.0608750E+01  2.3193987E+01
 1.0620251E+01  2.3134026E+01
 1.0631750E+01  2.3041946E+01
 1.0643250E+01  2.2984457E+01
 1.0654751E+01  2.2967218E+01
 1.0666250E+01  2.2997618E+01
 1.0677751E+01  2.3006813E+01
 1.0689251E+01  2.3035799E+01
 1.0700750E+01  2.3058868E+01
 1.0712251E+01  2.3061998E+01
 1.0723750E+01  2.3097969E+01
 1.0735250E+01  2.3113884E+01
 1.0746751E+01  2.3154863E+01
 1.0758250E+01  2.3143141E+01
 1.0769751E+01  2.3123352E+01
 1.0781251E+01  2.3092171E+01
 1.0792750E+01  2.3034527E+01
 1.0804251E+01  2.2937599E+01
 1.0815750E+01  2.2841965E+01
 1.0827250E+01  2.2826828E+01
 1.0838751E+01  2.2807201E+01
 1.0850250E+01  2.2841148E+01
 1.0861751E+01  2.2844126E+01
 1.0873251E+01  2.2885935E+01
 1.0884750E+01  2.2888302E+01
 1.0896251E+01  2.2832853E+01
 1.0907750E+01  2.2849306E+01
 1.0919250E+01  2.2857359E+01
 1.0930751E+01  2.2841387E+01
 1.0942250E+01  2.2768391E+01
 1.0953751E+01  2.2700693E+01
 1.0965251E+01  2.2711540E+01
 1.0976750E+01  2.2710302E+01
 1.0988251E+01  2.2678293E+01
 1.0999750E+01  2.2685947E+01
 1.1011250E+01  2.2655237E+01
 1.1022751E+01  2.2717985E+01
 1.1034250E+01  2.2681448E+01
 1.1045751E+01  2.2658144E+01
 1.1057251E+01  2.2627941E+01
 1.1068750E+01  2.2664175E+01
 1.1080251E+01  2.2717463E+01
 1.1091750E+01  2.2696764E+01
 1.1103251E+01  2.2643726E+01
 1.1114751E+01  2.2587576E+01
 1.1126250E+01  2.2590149E+01
 1.1137751E+01  2.2589092E+01
 1.1149251E+01  2.2605282E+01
 1.1160750E+01  2.2647665E+01
 1.1172251E+01  2.2634668E+01
 1.1183750E+01  2.2669575E+01
 1.1195251E+01  2.2602354E+01
 1.1206751E+01  2.2590744E+01
 1.1218250E+01  2.2570826E+01
 1.1229751E+01  2.2564507E+01
 1.1241251E+01  2.2632494E+01
 1.1252750E+01  2.2653770E+01
 1.1264251E+01  2.2704025E+01
 1.1275750E+01  2.2729509E+01
 1.1287251E+01  2.2725554E+01
 1.1298751E+01  2.2748802E+01
 1.1310250E+01  2.2704905E+01
 1.1321751E+01  2.2681057E+01
 1.1333251E+01  2.2607285E+01
 1.1344750E+01  2.2555708E+01
 1.1356251E+01  2.2490307E+01
 1.1367750E+01  2.2494633E+01
 1.1379251E+01  2.2492729E+01
 1.1390751E+01  2.2581182E+01
 1.1402250E+01  2.2764093E+01
 1.1413751E+01  2.2817724E+01
 1.1425251E+01  2.2848635E+01
 1.1436750E+01  2.2807726E+01
 1.1448251E+01  2.2843004E+01
 1.1459750E+01  2.2845760E+01
 1.1471251E+01  2.2788324E+01
 1.1482751E+01  2.2753229E+01
 1.1494250E+01  2.2748222E+01
 1.1505751E+01  2.2724388E+01
 1.1517251E+01  2.2790268E+01
 1.1528750E+01  2.2992960E+01
 1.1540251E+01  2.3180902E+01
 1.1551750E+01  2.3581779E+01
 1.1563251E+01  2.3997160E+01
 1.1574751E+01  2.4268145E+01
 1.1586250E+01  2.4638029E+01
 1.1597751E+01  2.4727371E+01
 1.1609251E+01  2.4714575E+01
 1.1620750E+01  2.4541170E+01
 1.1632251E+01  2.4183815E+01
 1.1643750E+01  2.3819323E+01
 1.1655251E+01  2.3338432E+01
 1.1666751E+01  2.3009264E+01
 1.1678250E+01  2.2885735E+01
 1.1689751E+01  2.2640127E+01
 1.1701251E+01  2.2585068E+01
 1.1712750E+01  2.2543247E+01
 1.1724251E+01  2.2550478E+01
 1.1735750E+01  2.2488920E+01
 1.1747251E+01  2.2546103E+01
 1.1758751E+01  2.2568878E+01
 1.1770250E+01  2.2559626E+01
 1.1781751E+01  2.2525349E+01
 1.1793251E+01  2.2477980E+01
 1.1804750E+01  2.2468966E+01
 1.1816251E+01  2.2464346E+01
 1.1827750E+01  2.2436815E+01
 1.1839251E+01  2.2444803E+01
 1.1850751E+01  2.2416353E+01
 1.1862250E+01  2.2483543E+01
 1.1873751E+01  2.2525698E+01
 1.1885251E+01  2.2610981E+01
 1.1896750E+01  2.2661039E+01
 1.1908251E+01  2.2717724E+01
 1.1919750E+01  2.2738815E+01
 1.1931251E+01  2.2775080E+01
 1.1942751E+01  2.2799711E+01
 1.1954250E+01  2.2859447E+01
 1.1965751E+01  2.2927094E+01
 1.1977251E+01  2.3033560E+01
 1.1988750E+01  2.3124092E+01
 1.2000251E+01  2.3185377E+01
 1.2011750E+01  2.3212879E+01
 1.2023251E+01  2.3175028E+01
 1.2034751E+01  2.3195791E+01
 1.2046250E+01  2.3178448E+01
 1.2057751E+01  2.3238373E+01
 1.2069251E+01  2.3392834E+01
 1.2080750E+01  2.3673519E+01
 1.2092251E+01  2.4032736E+01
 1.2103750E+01  2.4493904E+01
 1.2115251E+01  2.4454529E+01
 1.2126751E+01  2.4469263E+01
 1.2138250E+01  2.3972725E+01
 1.2149751E+01  2.3810968E+01
 1.2161251E+01  2.3366329E+01
 1.2172750E+01  2.3126053E+01
 1.2184251E+01  2.2935936E+01
 1.2195750E+01  2.2808886E+01
 1.2207251E+01  2.2676905E+01
 1.2218751E+01  2.2628229E+01
 1.2230250E+01  2.2571012E+01
 1.2241751E+01  2.2602684E+01
 1.2253251E+01  2.2575317E+01
 1.2264750E+01  2.2643515E+01
 1.2276251E+01  2.2651590E+01
 1.2287750E+01  2.2742109E+01
 1.2299251E+01  2.2723581E+01
 1.2310751E+01  2.2718199E+01
 1.2322250E+01  2.2671543E+01
 1.2333751E+01  2.2679890E+01
 1.2345250E+01  2.2712656E+01
 1.2356750E+01  2.2709696E+01
 1.2368251E+01  2.2725483E+01
 1.2379750E+01  2.2702499E+01
 1.2391251E+01  2.2684202E+01
 1.2402751E+01  2.2678860E+01
 1.2414250E+01  2.2718620E+01
 1.2425751E+01  2.2724831E+01
 1.2437250E+01  2.2753466E+01
 1.2448750E+01  2.2750658E+01
 1.2460251E+01  2.2809725E+01
 1.2471750E+01  2.2800859E+01
 1.2483251E+01  2.2837172E+01
 1.2494751E+01  2.2803949E+01
 1.2506250E+01  2.2771685E+01
 1.2517751E+01  2.2743938E+01
 1.2529250E+01  2.2829130E+01
 1.2540751E+01  2.2855902E+01
 1.2552251E+01  2.2892918E+01
 1.2563750E+01  2.2892576E+01
 1.2575251E+01  2.2946545E+01
 1.2586751E+01  2.2950403E+01
 1.2598250E+01  2.2913418E+01
 1.2609751E+01  2.2922770E+01
 1.2621250E+01  2.2967382E+01
 1.2632751E+01  2.3015686E+01
 1.2644251E+01  2.3018742E+01
 1.2655750E+01  2.2993191E+01
 1.2667251E+01  2.2957584E+01
 1.2678751E+01  2.2891071E+01
 1.2690250E+01  2.2842680E+01
 1.2701751E+01  2.2860174E+01
 1.2713250E+01  2.2906157E+01
 1.2724751E+01  2.2925457E+01
 1.2736251E+01  2.2992340E+01
 1.2747750E+01  2.3034893E+01
 1.2759251E+01  2.3079082E+01
 1.2770751E+01  2.3107325E+01
 1.2782250E+01  2.3154486E+01
 1.2793751E+01  2.3202606E+01
 1.2805250E+01  2.3252138E+01
 1.2816751E+01  2.3340406E+01
 1.2828251E+01  2.3427078E+01
 1.2839750E+01  2.3467249E+01
 1.2851251E+01  2.3523983E+01
 1.2862751E+01  2.3565189E+01
 1.2874250E+01  2.3596275E+01
 1.2885751E+01  2.3661949E+01
 1.2897250E+01  2.3746069E+01
 1.2908751E+01  2.3788553E+01
 1.2920251E+01  2.3780762E+01
 1.2931750E+01  2.3821619E+01
 1.2943251E+01  2.3865185E+01
 1.2954751E+01  2.3978617E+01
 1.2966250E+01  2.3986080E+01
 1.2977751E+01  2.4078690E+01
 1.2989250E+01  2.4004427E+01
 1.3000751E+01  2.4043966E+01
 1.3012251E+01  2.4015432E+01
 1.3023750E+01  2.4166786E+01
 1.3035251E+01  2.4336514E+01
 1.3046751E+01  2.4494785E+01
 1.3058250E+01  2.4646736E+01
 1.3069751E+01  2.4670145E+01
 1.3081250E+01  2.4735573E+01
 1.3092751E+01  2.4737408E+01
 1.3104251E+01  2.4870331E+01
 1.3115750E+01  2.4982168E+01
 1.3127251E+01  2.5075083E+01
 1.3138751E+01  2.5145262E+01
 1.3150250E+01  2.5245810E+01
 1.3161751E+01  2.5344673E+01
 1.3173250E+01  2.5412811E+01
 1.3184751E+01  2.5502081E+01
 1.3196251E+01  2.5634476E+01
 1.3207750E+01  2.5856258E+01
 1.3219251E+01  2.6023682E+01
 1.3230751E+01  2.6269138E+01
 1.3242250E+01  2.6437038E+01
 1.3253751E+01  2.6616631E+01
 1.3265250E+01  2.6653362E+01
 1.3276751E+01  2.6708818E+01
 1.3288251E+01  2.6826794E+01
 1.3299750E+01  2.6972673E+01
 1.3311251E+01  2.7097761E+01
 1.3322751E+01  2.7280691E+01
 1.3334250E+01  2.7524120E+01
 1.3345751E+01  2.7764654E+01
 1.3357250E+01  2.7932611E+01
 1.3368751E+01  2.8045713E+01
 1.3380251E+01  2.8219711E+01
 1.3391750E+01  2.8358501E+01
 1.3403251E+01  2.8504484E+01
 1.3414751E+01  2.8620445E+01
 1.3426250E+01  2.8782860E+01
 1.3437751E+01  2.8899101E+01
 1.3449250E+01  2.9014036E+01
 1.3460751E+01  2.9117208E+01
 1.3472251E+01  2.9230448E+01
 1.3483750E+01  2.9407419E+01
 1.3495251E+01  2.9462004E+01
 1.3506751E+01  2.9608997E+01
 1.3518250E+01  2.9616199E+01
 1.3529751E+01  2.9661995E+01
 1.3541250E+01  2.9661863E+01
 1.3552751E+01  2.9656620E+01
 1.3564251E+01  2.9740789E+01
 1.3575750E+01  2.9838043E+01
 1.3587251E+01  2.9878113E+01
 1.3598751E+01  2.9892504E+01
 1.3610250E+01  2.9812336E+01
 1.3621751E+01  2.9792944E+01
 1.3633250E+01  2.9709169E+01
 1.3644751E+01  2.9697647E+01
 1.3656251E+01  2.9675650E+01
 1.3667750E+01  2.9708036E+01
 1.3679251E+01  2.9687452E+01
 1.3690751E+01  2.9703768E+01
 1.3702250E+01  2.9646095E+01
 1.3713751E+01  2.9581202E+01
 1.3725250E+01  2.9460104E+01
 1.3736751E+01  2.9424314E+01
 1.3748251E+01  2.9401279E+01
 1.3759750E+01  2.9444145E+01
 1.3771251E+01  2.9440910E+01
 1.3782751E+01  2.9374025E+01
 1.3794250E+01  2.9278353E+01
 1.3805751E+01  2.9181669E+01
 1.3817250E+01  2.9141092E+01
 1.3828751E+01  2.9149794E+01
 1.3840251E+01  2.9121685E+01
 1.3851750E+01  2.9186916E+01
 1.3863251E+01  2.9155596E+01
 1.3874751E+01  2.9130024E+01
 1.3886250E+01  2.9057114E+01
 1.3897751E+01  2.9066082E+01
 1.3909250E+01  2.9181532E+01
 1.3920751E+01  2.9411787E+01
 1.3932251E+01  2.9612322E+01
 1.3943750E+01  2.9802599E+01
 1.3955251E+01  2.9741371E+01
 1.3966751E+01  2.9701723E+01
 1.3978251E+01  2.9360071E+01
 1.3989751E+01  2.9101570E+01
 1.4001250E+01  2.8719389E+01
 1.4012751E+01  2.8487492E+01
 1.4024251E+01  2.8215176E+01
 1.4035750E+01  2.7993649E+01
 1.4047251E+01  2.7845797E+01
 1.4058751E+01  2.7675459E+01
 1.4070251E+01  2.7599457E+01
 1.4081751E+01  2.7447598E+01
 1.4093250E+01  2.7384655E+01
 1.4104751E+01  2.7274019E+01
 1.4116251E+01  2.7252359E+01
 1.4127750E+01  2.7233036E+01
 1.4139251E+01  2.7220079E+01
 1.4150751E+01  2.7176868E+01
 1.4162251E+01  2.7183561E+01
 1.4173751E+01  2.7107267E+01
 1.4185250E+01  2.7119003E+01
 1.4196751E+01  2.7057825E+01
 1.4208251E+01  2.7036705E+01
 1.4219750E+01  2.6928329E+01
 1.4231251E+01  2.6776510E+01
 1.4242751E+01  2.6686884E+01
 1.4254251E+01  2.6614105E+01
 1.4265751E+01  2.6581047E+01
 1.4277250E+01  2.6514557E+01
 1.4288751E+01  2.6433027E+01
 1.4300251E+01  2.6353596E+01
 1.4311750E+01  2.6312687E+01
 1.4323251E+01  2.6243534E+01
 1.4334751E+01  2.6223272E+01
 1.4346251E+01  2.6178076E+01
 1.4357751E+01  2.6211103E+01
 1.4369250E+01  2.6205078E+01
 1.4380751E+01  2.6208879E+01
 1.4392251E+01  2.6207426E+01
 1.4403750E+01  2.6201204E+01
 1.4415251E+01  2.6232141E+01
 1.4426751E+01  2.6147392E+01
 1.4438251E+01  2.6096630E+01
 1.4449751E+01  2.6010216E+01
 1.4461250E+01  2.5969620E+01
 1.4472751E+01  2.5897633E+01
 1.4484251E+01  2.5789202E+01
 1.4495750E+01  2.5716610E+01
 1.4507251E+01  2.5671959E+01
 1.4518751E+01  2.5658962E+01
 1.4530251E+01  2.5672209E+01
 1.4541751E+01  2.5680939E+01
 1.4553250E+01  2.5685266E+01
 1.4564751E+01  2.5594770E+01
 1.4576251E+01  2.5556154E+01
 1.4587750E+01  2.5503910E+01
 1.4599251E+01  2.5489971E+01
 1.4610751E+01  2.5474539E+01
 1.4622251E+01  2.5457987E+01
 1.4633751E+01  2.5448212E+01
 1.4645250E+01  2.5455099E+01
 1.4656751E+01  2.5413673E+01
 1.4668251E+01  2.5399172E+01
 1.4679750E+01  2.5349285E+01
 1.4691251E+01  2.5326504E+01
 1.4702751E+01  2.5275581E+01
 1.4714251E+01  2.5248741E+01
 1.4725751E+01  2.5258072E+01
 1.4737250E+01  2.5279131E+01
 1.4748751E+01  2.5264811E+01
 1.4760251E+01  2.5229830E+01
 1.4771750E+01  2.5200054E+01
 1.4783251E+01  2.5174490E+01
 1.4794751E+01  2.5208849E+01
 1.4806251E+01  2.5202312E+01
 1.4817751E+01  2.5181250E+01
 1.4829250E+01  2.5172632E+01
 1.4840751E+01  2.5204962E+01
 1.4852251E+01  2.5223412E+01
 1.4863750E+01  2.5135696E+01
 1.4875251E+01  2.5051014E+01
 1.4886751E+01  2.5026707E+01
 1.4898251E+01  2.5051395E+01
 1.4909751E+01  2.5077074E+01
 1.4921250E+01  2.5048943E+01
 1.4932751E+01  2.5037989E+01
 1.4944251E+01  2.5062418E+01
 1.4955750E+01  2.5122267E+01
 1.4967251E+01  2.5142712E+01
 1.4978751E+01  2.5146729E+01
 1.4990251E+01  2.5112196E+01
 1.5001751E+01  2.5053753E+01
 1.5013250E+01  2.5022354E+01
 1.5024751E+01  2.4993818E+01
 1.5036251E+01  2.4953596E+01
 1.5047750E+01  2.4879446E+01
 1.5059251E+01  2.4856991E+01
 1.5070751E+01  2.4830086E+01
 1.5082251E+01  2.4808428E+01
 1.5093751E+01  2.4795961E+01
 1.5105250E+01  2.4874407E+01
 1.5116751E+01  2.4972387E+01
 1.5128251E+01  2.5079182E+01
 1.5139750E+01  2.5281336E+01
 1.5151251E+01  2.5406427E+01
 1.5162751E+01  2.5756243E+01
 1.5174251E+01  2.6017815E+01
 1.5185751E+01  2.6305214E+01
 1.5197250E+01  2.6451065E+01
 1.5208751E+01  2.6551003E+01
 1.5220251E+01  2.6572668E+01
 1.5231750E+01  2.6297539E+01
 1.5243251E+01  2.5971563E+01
 1.5254751E+01  2.5702549E+01
 1.5266251E+01  2.5421082E+01
 1.5277751E+01  2.5257650E+01
 1.5289250E+01  2.5069260E+01
 1.5300751E+01  2.5001938E+01
 1.5312251E+01  2.4946934E+01
 1.5323750E+01  2.4884789E+01
 1.5335251E+01  2.4848158E+01
 1.5346751E+01  2.4782738E+01
 1.5358251E+01  2.4745766E+01
 1.5369751E+01  2.4722689E+01
 1.5381250E+01  2.4706884E+01
 1.5392751E+01  2.4715897E+01
 1.5404251E+01  2.4690540E+01
 1.5415751E+01  2.4665457E+01
 1.5427251E+01  2.4631071E+01
 1.5438751E+01  2.4638102E+01
 1.5450251E+01  2.4646645E+01
 1.5461751E+01  2.4713432E+01
 1.5473250E+01  2.4669348E+01
 1.5484751E+01  2.4693584E+01
 1.5496251E+01  2.4629465E+01
 1.5507751E+01  2.4620972E+01
 1.5519251E+01  2.4575344E+01
 1.5530751E+01  2.4566351E+01
 1.5542251E+01  2.4590260E+01
 1.5553751E+01  2.4623983E+01
 1.5565250E+01  2.4677742E+01
 1.5576751E+01  2.4664820E+01
 1.5588251E+01  2.4690912E+01
 1.5599751E+01  2.4669874E+01
 1.5611251E+01  2.4674129E+01
 1.5622751E+01  2.4648167E+01
 1.5634251E+01  2.4630077E+01
 1.5645751E+01  2.4631340E+01
 1.5657250E+01  2.4628912E+01
 1.5668751E+01  2.4651777E+01
 1.5680251E+01  2.4706367E+01
 1.5691751E+01  2.4760414E+01
 1.5703251E+01  2.4785786E+01
 1.5714751E+01  2.4789639E+01
 1.5726251E+01  2.4793182E+01
 1.5737751E+01  2.4809011E+01
 1.5749250E+01  2.4773825E+01
 1.5760751E+01  2.4738577E+01
 1.5772251E+01  2.4700506E+01
 1.5783751E+01  2.4698021E+01
 1.5795251E+01  2.4677258E+01
 1.5806751E+01  2.4682907E+01
 1.5818251E+01  2.4661892E+01
 1.5829751E+01  2.4650446E+01
 1.5841250E+01  2.4619141E+01
 1.5852751E+01  2.4615309E+01
 1.5864251E+01  2.4607965E+01
 1.5875751E+01  2.4621737E+01
 1.5887251E+01  2.4632580E+01
 1.5898750E+01  2.4687191E+01
 1.5910251E+01  2.4802839E+01
 1.5921751E+01  2.4898226E+01
 1.5933250E+01  2.4945715E+01
 1.5944751E+01  2.4945299E+01
 1.5956251E+01  2.4927826E+01
 1.5967751E+01  2.4901171E+01
 1.5979251E+01  2.4868586E+01
 1.5990750E+01  2.4862398E+01
 1.6002251E+01  2.4841352E+01
 1.6013750E+01  2.4797558E+01
 1.6025251E+01  2.4833874E+01
 1.6036751E+01  2.4874891E+01
 1.6048250E+01  2.4897655E+01
 1.6059752E+01  2.4882973E+01
 1.6071251E+01  2.4857586E+01
 1.6082750E+01  2.4871117E+01
 1.6094252E+01  2.4863506E+01
 1.6105751E+01  2.4891983E+01
 1.6117250E+01  2.4909836E+01
 1.6128750E+01  2.4883272E+01
 1.6140251E+01  2.4849434E+01
 1.6151751E+01  2.4839130E+01
 1.6163250E+01  2.4901363E+01
 1.6174751E+01  2.4926176E+01
 1.6186251E+01  2.5075502E+01
 1.6197750E+01  2.5077497E+01
 1.6209251E+01  2.5228956E+01
 1.6220751E+01  2.5145645E+01
 1.6232250E+01  2.5191607E+01
 1.6243752E+01  2.5143024E+01
 1.6255251E+01  2.5205317E+01
 1.6266750E+01  2.5356947E+01
 1.6278252E+01  2.5283125E+01
 1.6289751E+01  2.5390749E+01
 1.6301250E+01  2.5119484E+01
 1.6312750E+01  2.5194284E+01
 1.6324251E+01  2.4917807E+01
 1.6335751E+01  2.4954069E+01
 1.6347250E+01  2.4798792E+01
 1.6358751E+01  2.4802544E+01
 1.6370251E+01  2.4741537E+01
 1.6381750E+01  2.4750227E+01
 1.6393251E+01  2.4741217E+01
 1.6404751E+01  2.4739689E+01
 1.6416250E+01  2.4761364E+01
 1.6427752E+01  2.4736216E+01
 1.6439251E+01  2.4744976E+01
 1.6450750E+01  2.4694204E+01
 1.6462252E+01  2.4740593E+01
 1.6473751E+01  2.4714680E+01
 1.6485250E+01  2.4762922E+01
 1.6496750E+01  2.4729639E+01
 1.6508251E+01  2.4793093E+01
 1.6519751E+01  2.4809116E+01
 1.6531250E+01  2.4853455E+01
 1.6542751E+01  2.4843538E+01
 1.6554251E+01  2.4797031E+01
 1.6565750E+01  2.4732588E+01
 1.6577251E+01  2.4661459E+01
 1.6588751E+01  2.4644781E+01
 1.6600250E+01  2.4651424E+01
 1.6611752E+01  2.4673574E+01
 1.6623251E+01  2.4680201E+01
 1.6634750E+01  2.4627928E+01
 1.6646252E+01  2.4594812E+01
 1.6657751E+01  2.4543678E+01
 1.6669250E+01  2.4555267E+01
 1.6680750E+01  2.4547871E+01
 1.6692251E+01  2.4588797E+01
 1.6703751E+01  2.4595388E+01
 1.6715250E+01  2.4584160E+01
 1.6726751E+01  2.4539070E+01
 1.6738251E+01  2.4498039E+01
 1.6749750E+01  2.4487652E+01
 1.6761251E+01  2.4473997E+01
 1.6772751E+01  2.4488344E+01
 1.6784250E+01  2.4533422E+01
 1.6795752E+01  2.4580643E+01
 1.6807251E+01  2.4602104E+01
 1.6818750E+01  2.4558151E+01
 1.6830252E+01  2.4548019E+01
 1.6841751E+01  2.4560839E+01
 1.6853251E+01  2.4545584E+01
 1.6864750E+01  2.4532545E+01
 1.6876251E+01  2.4534971E+01
 1.6887751E+01  2.4600883E+01
 1.6899250E+01  2.4622520E+01
 1.6910751E+01  2.4587246E+01
 1.6922251E+01  2.4575476E+01
 1.6933750E+01  2.4526537E+01
 1.6945251E+01  2.4542469E+01
 1.6956751E+01  2.4488235E+01
 1.6968250E+01  2.4450499E+01
 1.6979752E+01  2.4401054E+01
 1.6991251E+01  2.4404264E+01
 1.7002750E+01  2.4415558E+01
 1.7014252E+01  2.4391649E+01
 1.7025751E+01  2.4365831E+01
 1.7037251E+01  2.4361404E+01
 1.7048750E+01  2.4303942E+01
 1.7060251E+01  2.4263981E+01
 1.7071751E+01  2.4205833E+01
 1.7083250E+01  2.4182642E+01
 1.7094751E+01  2.4124620E+01
 1.7106251E+01  2.4109438E+01
 1.7117750E+01  2.4099298E+01
 1.7129251E+01  2.4173174E+01
 1.7140751E+01  2.4255445E+01
 1.7152250E+01  2.4301523E+01
 1.7163752E+01  2.4330133E+01
 1.7175251E+01  2.4321743E+01
 1.7186750E+01  2.4285355E+01
 1.7198252E+01  2.4218264E+01
 1.7209751E+01  2.4173468E+01
 1.7221251E+01  2.4156073E+01
 1.7232750E+01  2.4123524E+01
 1.7244251E+01  2.4061687E+01
 1.7255751E+01  2.4034019E+01
 1.7267250E+01  2.3997599E+01
 1.7278751E+01  2.4065153E+01
 1.7290251E+01  2.4093382E+01
 1.7301750E+01  2.4199804E+01
 1.7313251E+01  2.4202463E+01
 1.7324751E+01  2.4253813E+01
 1.7336250E+01  2.4264023E+01
 1.7347752E+01  2.4244759E+01
 1.7359251E+01  2.4180098E+01
 1.7370750E+01  2.4151447E+01
 1.7382252E+01  2.4151474E+01
 1.7393751E+01  2.4157595E+01
 1.7405251E+01  2.4148294E+01
 1.7416750E+01  2.4136988E+01
 1.7428251E+01  2.4071598E+01
 1.7439751E+01  2.4054626E+01
 1.7451250E+01  2.4059830E+01
 1.7462751E+01  2.4096556E+01
 1.7474251E+01  2.4100008E+01
 1.7485750E+01  2.4122074E+01
 1.7497252E+01  2.4048609E+01
 1.7508751E+01  2.3983727E+01
 1.7520250E+01  2.3925402E+01
 1.7531752E+01  2.3937792E+01
 1.7543251E+01  2.4026649E+01
 1.7554750E+01  2.4052238E+01
 1.7566252E+01  2.4047283E+01
 1.7577751E+01  2.4032042E+01
 1.7589251E+01  2.4027588E+01
 1.7600750E+01  2.4067110E+01
 1.7612251E+01  2.4035404E+01
 1.7623751E+01  2.4064842E+01
 1.7635250E+01  2.3992466E+01
 1.7646751E+01  2.3933647E+01
 1.7658251E+01  2.3880426E+01
 1.7669750E+01  2.3905289E+01
 1.7681252E+01  2.3927046E+01
 1.7692751E+01  2.3983751E+01
 1.7704250E+01  2.3983641E+01
 1.7715752E+01  2.3960625E+01
 1.7727251E+01  2.3890511E+01
 1.7738750E+01  2.3893105E+01
 1.7750252E+01  2.3896532E+01
 1.7761751E+01  2.3915785E+01
 1.7773251E+01  2.3954233E+01
 1.7784750E+01  2.3996122E+01
 1.7796251E+01  2.4012442E+01
 1.7807751E+01  2.3958441E+01
 1.7819250E+01  2.3904964E+01
 1.7830751E+01  2.3901434E+01
 1.7842251E+01  2.3903286E+01
 1.7853750E+01  2.3931452E+01
 1.7865252E+01  2.3913450E+01
 1.7876751E+01  2.3843836E+01
 1.7888250E+01  2.3800276E+01
 1.7899752E+01  2.3780411E+01
 1.7911251E+01  2.3819788E+01
 1.7922750E+01  2.3825794E+01
 1.7934252E+01  2.3811991E+01
 1.7945751E+01  2.3810055E+01
 1.7957251E+01  2.3808491E+01
 1.7968750E+01  2.3831314E+01
 1.7980251E+01  2.3916500E+01
 1.7991751E+01  2.4011147E+01
 1.8003250E+01  2.4127756E+01
 1.8014751E+01  2.4244316E+01
 1.8026251E+01  2.4267473E+01
 1.8037750E+01  2.4421648E+01
 1.8049252E+01  2.4364639E+01
 1.8060751E+01  2.4535646E+01
 1.8072250E+01  2.4397335E+01
 1.8083752E+01  2.4434202E+01
 1.8095251E+01  2.4351608E+01
 1.8106750E+01  2.4331161E+01
 1.8118252E+01  2.4253525E+01
 1.8129751E+01  2.4158928E+01
 1.8141251E+01  2.4056068E+01
 1.8152750E+01  2.3980772E+01
 1.8164251E+01  2.3883739E+01
 1.8175751E+01  2.3823193E+01
 1.8187250E+01  2.3751703E+01
 1.8198751E+01  2.3737982E+01
 1.8210251E+01  2.3721224E+01
 1.8221750E+01  2.3699745E+01
 1.8233252E+01  2.3661678E+01
 1.8244751E+01  2.3602533E+01
 1.8256250E+01  2.3617792E+01
 1.8267752E+01  2.3577106E+01
 1.8279251E+01  2.3572887E+01
 1.8290751E+01  2.3532887E+01
 1.8302252E+01  2.3520771E+01
 1.8313751E+01  2.3513090E+01
 1.8325251E+01  2.3500404E+01
 1.8336750E+01  2.3538082E+01
 1.8348251E+01  2.3580952E+01
 1.8359751E+01  2.3646317E+01
 1.8371250E+01  2.3660116E+01
 1.8382751E+01  2.3666067E+01
 1.8394251E+01  2.3690353E+01
 1.8405750E+01  2.3713264E+01
 1.8417252E+01  2.3688137E+01
 1.8428751E+01  2.3631250E+01
 1.8440250E+01  2.3589634E+01
 1.8451752E+01  2.3573318E+01
 1.8463251E+01  2.3585852E+01
 1.8474751E+01  2.3592285E+01
 1.8486252E+01  2.3601175E+01
 1.8497751E+01  2.3662895E+01
 1.8509251E+01  2.3690699E+01
 1.8520750E+01  2.3709312E+01
 1.8532251E+01  2.3658266E+01
 1.8543751E+01  2.3589119E+01
 1.8555250E+01  2.3586054E+01
 1.8566751E+01  2.3523939E+01
 1.8578251E+01  2.3514071E+01
 1.8589750E+01  2.3524221E+01
 1.8601252E+01  2.3574202E+01
 1.8612751E+01  2.3558617E+01
 1.8624250E+01  2.3523731E+01
 1.8635752E+01  2.3510849E+01
 1.8647251E+01  2.3504444E+01
 1.8658751E+01  2.3479221E+01
 1.8670252E+01  2.3488674E+01
 1.8681751E+01  2.3526438E+01
 1.8693251E+01  2.3535013E+01
 1.8704750E+01  2.3550295E+01
 1.8716251E+01  2.3592867E+01
 1.8727751E+01  2.3658504E+01
 1.8739250E+01  2.3638725E+01
 1.8750751E+01  2.3616825E+01
 1.8762251E+01  2.3612028E+01
 1.8773750E+01  2.3609011E+01
 1.8785252E+01  2.3607254E+01
 1.8796751E+01  2.3576756E+01
 1.8808250E+01  2.3514750E+01
 1.8819752E+01  2.3452276E+01
 1.8831251E+01  2.3402725E+01
 1.8842751E+01  2.3451691E+01
 1.8854252E+01  2.3461639E+01
 1.8865751E+01  2.3475439E+01
 1.8877251E+01  2.3431864E+01
 1.8888750E+01  2.3402014E+01
 1.8900251E+01  2.3397499E+01
 1.8911751E+01  2.3365341E+01
 1.8923250E+01  2.3394875E+01
 1.8934752E+01  2.3445963E+01
 1.8946251E+01  2.3566792E+01
 1.8957750E+01  2.3613714E+01
 1.8969252E+01  2.3622429E+01
 1.8980751E+01  2.3580889E+01
 1.8992250E+01  2.3550888E+01
 1.9003752E+01  2.3585674E+01
 1.9015251E+01  2.3605169E+01
 1.9026751E+01  2.3684855E+01
 1.9038252E+01  2.3687086E+01
 1.9049751E+01  2.3684826E+01
 1.9061251E+01  2.3680395E+01
 1.9072750E+01  2.3678928E+01
 1.9084251E+01  2.3633381E+01
 1.9095751E+01  2.3593132E+01
 1.9107250E+01  2.3587812E+01
 1.9118752E+01  2.3590273E+01
 1.9130251E+01  2.3581549E+01
 1.9141750E+01  2.3597153E+01
 1.9153252E+01  2.3631430E+01
 1.9164751E+01  2.3621016E+01
 1.9176250E+01  2.3571541E+01
 1.9187752E+01  2.3542547E+01
 1.9199251E+01  2.3516369E+01
 1.9210751E+01  2.3553831E+01
 1.9222252E+01  2.3528032E+01
 1.9233751E+01  2.3546906E+01
 1.9245251E+01  2.3550737E+01
 1.9256750E+01  2.3621033E+01
 1.9268251E+01  2.3643450E+01
 1.9279751E+01  2.3638350E+01
 1.9291250E+01  2.3640308E+01
 1.9302752E+01  2.3667849E+01
 1.9314251E+01  2.3688526E+01
 1.9325750E+01  2.3641972E+01
 1.9337252E+01  2.3648220E+01
 1.9348751E+01  2.3634302E+01
 1.9360250E+01  2.3639204E+01
 1.9371752E+01  2.3609531E+01
 1.9383251E+01  2.3641474E+01
 1.9394751E+01  2.3669664E+01
 1.9406250E+01  2.3686214E+01
 1.9417751E+01  2.3681492E+01
 1.9429251E+01  2.3649109E+01
 1.9440750E+01  2.3648060E+01
 1.9452251E+01  2.3628456E+01
 1.9463751E+01  2.3675232E+01
 1.9475250E+01  2.3711071E+01
 1.9486752E+01  2.3757301E+01
 1.9498251E+01  2.3754208E+01
 1.9509750E+01  2.3733316E+01
 1.9521252E+01  2.3733557E+01
 1.9532751E+01  2.3695129E+01
 1.9544250E+01  2.3685875E+01
 1.9555752E+01  2.3635674E+01
 1.9567251E+01  2.3604477E+01
 1.9578751E+01  2.3673035E+01
 1.9590250E+01  2.3714777E+01
 1.9601751E+01  2.3790844E+01
 1.9613251E+01  2.3800909E+01
 1.9624750E+01  2.3825041E+01
 1.9636251E+01  2.3839006E+01
 1.9647751E+01  2.3885452E+01
 1.9659250E+01  2.4042221E+01
 1.9670752E+01  2.4129082E+01
 1.9682251E+01  2.4299446E+01
 1.9693750E+01  2.4434492E+01
 1.9705252E+01  2.4543701E+01
 1.9716751E+01  2.4568424E+01
 1.9728251E+01  2.4593914E+01
 1.9739752E+01  2.4598263E+01
 1.9751251E+01  2.4519299E+01
 1.9762751E+01  2.4430670E+01
 1.9774250E+01  2.4269039E+01
 1.9785751E+01  2.4165565E+01
 1.9797251E+01  2.4068293E+01
 1.9808750E+01  2.4061810E+01
 1.9820251E+01  2.4087887E+01
 1.9831751E+01  2.4244549E+01
 1.9843250E+01  2.4315954E+01
 1.9854752E+01  2.4407269E+01
 1.9866251E+01  2.4399673E+01
 1.9877750E+01  2.4334812E+01
 1.9889252E+01  2.4255924E+01
 1.9900751E+01  2.4170582E+01
 1.9912251E+01  2.4086065E+01
 1.9923752E+01  2.3973761E+01
 1.9935251E+01  2.3864998E+01
 1.9946751E+01  2.3801579E+01
 1.9958250E+01  2.3743023E+01
 1.9969751E+01  2.3768919E+01
 1.9981251E+01  2.3772055E+01
 1.9992750E+01  2.3809126E+01
 2.0004251E+01  2.3835579E+01
 2.0015751E+01  2.3848351E+01
 2.0027250E+01  2.3842434E+01
 2.0038752E+01  2.3796291E+01
 2.0050251E+01  2.3766842E+01
 2.0061750E+01  2.3714657E+01
 2.0073252E+01  2.3702471E+01
 2.0084751E+01  2.3675436E+01
 2.0096251E+01  2.3658079E+01
 2.0107752E+01  2.3662630E+01
 2.0119251E+01  2.3685001E+01
 2.0130751E+01  2.3732262E+01
 2.0142250E+01  2.3725151E+01
 2.0153751E+01  2.3711121E+01
 2.0165251E+01  2.3720005E+01
 2.0176750E+01  2.3767862E+01
 2.0188251E+01  2.3780434E+01
 2.0199751E+01  2.3769987E+01
 2.0211250E+01  2.3753439E+01
 2.0222752E+01  2.3803499E+01
 2.0234251E+01  2.3860409E+01
 2.0245750E+01  2.3881016E+01
 2.0257252E+01  2.3826777E+01
 2.0268751E+01  2.3769979E+01
 2.0280251E+01  2.3796946E+01
 2.0291752E+01  2.3825884E+01
 2.0303251E+01  2.3780247E+01
 2.0314751E+01  2.3754143E+01
 2.0326250E+01  2.3782988E+01
 2.0337751E+01  2.3802340E+01
 2.0349251E+01  2.3832127E+01
 2.0360750E+01  2.3846148E+01
 2.0372252E+01  2.3841110E+01
 2.0383751E+01  2.3820827E+01
 2.0395250E+01  2.3826086E+01
 2.0406752E+01  2.3821445E+01
 2.0418251E+01  2.3839914E+01
 2.0429750E+01  2.3854399E+01
 2.0441252E+01  2.3852053E+01
 2.0452751E+01  2.3833195E+01
 2.0464251E+01  2.3776495E+01
 2.0475752E+01  2.3750525E+01
 2.0487251E+01  2.3720581E+01
 2.0498751E+01  2.3767786E+01
 2.0510250E+01  2.3752991E+01
 2.0521751E+01  2.3783142E+01
 2.0533251E+01  2.3760977E+01
 2.0544750E+01  2.3767645E+01
 2.0556252E+01  2.3815914E+01
 2.0567751E+01  2.3825109E+01
 2.0579250E+01  2.3859005E+01
 2.0590752E+01  2.3937252E+01
 2.0602251E+01  2.4017815E+01
 2.0613750E+01  2.4081640E+01
 2.0625252E+01  2.4103006E+01
 2.0636751E+01  2.4122086E+01
 2.0648251E+01  2.4046137E+01
 2.0659752E+01  2.4004650E+01
 2.0671251E+01  2.3973549E+01
 2.0682751E+01  2.4019487E+01
 2.0694250E+01  2.4141514E+01
 2.0705751E+01  2.4307278E+01
 2.0717251E+01  2.4676844E+01
 2.0728750E+01  2.4943571E+01
 2.0740252E+01  2.5443901E+01
 2.0751751E+01  2.6441717E+01
 2.0763250E+01  2.6626038E+01
 2.0774752E+01  2.7742235E+01
 2.0786251E+01  2.7356281E+01
 2.0797750E+01  2.7428312E+01
 2.0809252E+01  2.6149183E+01
 2.0820751E+01  2.5945166E+01
 2.0832251E+01  2.5123610E+01
 2.0843752E+01  2.4598831E+01
 2.0855251E+01  2.4445499E+01
 2.0866751E+01  2.4143848E+01
 2.0878250E+01  2.4162060E+01
 2.0889751E+01  2.4117834E+01
 2.0901251E+01  2.4135782E+01
 2.0912750E+01  2.4151810E+01
 2.0924252E+01  2.4165987E+01
 2.0935751E+01  2.4220280E+01
 2.0947250E+01  2.4203423E+01
 2.0958752E+01  2.4135105E+01
 2.0970251E+01  2.4023405E+01
 2.0981750E+01  2.3982178E+01
 2.0993252E+01  2.3955065E+01
 2.1004751E+01  2.3960863E+01
 2.1016251E+01  2.3949078E+01
 2.1027752E+01  2.3973360E+01
 2.1039251E+01  2.3989115E+01
 2.1050751E+01  2.3939934E+01
 2.1062250E+01  2.3949671E+01
 2.1073751E+01  2.3927219E+01
 2.1085251E+01  2.3952517E+01
 2.1096750E+01  2.3934057E+01
 2.1108252E+01  2.4016113E+01
 2.1119751E+01  2.4028334E+01
 2.1131250E+01  2.4038683E+01
 2.1142752E+01  2.3983334E+01
 2.1154251E+01  2.3893820E+01
 2.1165751E+01  2.3855768E+01
 2.1177252E+01  2.3859045E+01
 2.1188751E+01  2.3915432E+01
 2.1200251E+01  2.3892290E+01
 2.1211752E+01  2.3927454E+01
 2.1223251E+01  2.3901459E+01
 2.1234751E+01  2.3927511E+01
 2.1246250E+01  2.3953150E+01
 2.1257751E+01  2.4025928E+01
 2.1269251E+01  2.4045607E+01
 2.1280750E+01  2.4015877E+01
 2.1292252E+01  2.3977039E+01
 2.1303751E+01  2.3933218E+01
 2.1315250E+01  2.3905535E+01
 2.1326752E+01  2.3908159E+01
 2.1338251E+01  2.3907715E+01
 2.1349751E+01  2.3925972E+01
 2.1361252E+01  2.3994625E+01
 2.1372751E+01  2.4035122E+01
 2.1384251E+01  2.4017672E+01
 2.1395752E+01  2.3953148E+01
 2.1407251E+01  2.3905478E+01
 2.1418751E+01  2.3929741E+01
 2.1430250E+01  2.3959797E+01
 2.1441751E+01  2.3988480E+01
 2.1453251E+01  2.3967554E+01
 2.1464750E+01  2.3983603E+01
 2.1476252E+01  2.3992323E+01
 2.1487751E+01  2.4047396E+01
 2.1499250E+01  2.4070374E+01
 2.1510752E+01  2.4076567E+01
 2.1522251E+01  2.4073792E+01
 2.1533751E+01  2.4104956E+01
 2.1545252E+01  2.4121550E+01
 2.1556751E+01  2.4114645E+01
 2.1568251E+01  2.4087061E+01
 2.1579752E+01  2.4091242E+01
 2.1591251E+01  2.4093321E+01
 2.1602751E+01  2.4110451E+01
 2.1614250E+01  2.4092804E+01
 2.1625751E+01  2.4094837E+01
 2.1637251E+01  2.4100115E+01
 2.1648750E+01  2.4112503E+01
 2.1660252E+01  2.4092848E+01
 2.1671751E+01  2.4133532E+01
 2.1683250E+01  2.4158855E+01
 2.1694752E+01  2.4152822E+01
 2.1706251E+01  2.4155033E+01
 2.1717751E+01  2.4197590E+01
 2.1729252E+01  2.4212627E+01
 2.1740751E+01  2.4215321E+01
 2.1752251E+01  2.4212061E+01
 2.1763752E+01  2.4183645E+01
 2.1775251E+01  2.4171148E+01
 2.1786751E+01  2.4173273E+01
 2.1798250E+01  2.4209770E+01
 2.1809752E+01  2.4225489E+01
 2.1821251E+01  2.4276308E+01
 2.1832750E+01  2.4280279E+01
 2.1844252E+01  2.4305010E+01
 2.1855751E+01  2.4294928E+01
 2.1867250E+01  2.4339962E+01
 2.1878752E+01  2.4394163E+01
 2.1890251E+01  2.4398327E+01
 2.1901751E+01  2.4344362E+01
 2.1913252E+01  2.4277767E+01
 2.1924751E+01  2.4256811E+01
 2.1936251E+01  2.4271513E+01
 2.1947752E+01  2.4268217E+01
 2.1959251E+01  2.4267956E+01
 2.1970751E+01  2.4278591E+01
 2.1982250E+01  2.4283770E+01
 2.1993752E+01  2.4286352E+01
 2.2005251E+01  2.4273335E+01
 2.2016750E+01  2.4285091E+01
 2.2028252E+01  2.4310156E+01
 2.2039751E+01  2.4310003E+01
 2.2051250E+01  2.4338051E+01
 2.2062752E+01  2.4329563E+01
 2.2074251E+01  2.4352467E+01
 2.2085751E+01  2.4342257E+01
 2.2097252E+01  2.4331556E+01
 2.2108751E+01  2.4351583E+01
 2.2120251E+01  2.4429007E+01
 2.2131752E+01  2.4443241E+01
 2.2143251E+01  2.4459303E+01
 2.2154751E+01  2.4408323E+01
 2.2166250E+01  2.4401781E+01
 2.2177752E+01  2.4363592E+01
 2.2189251E+01  2.4384787E+01
 2.2200750E+01  2.4385313E+01
 2.2212252E+01  2.4407999E+01
 2.2223751E+01  2.4415939E+01
 2.2235250E+01  2.4424620E+01
 2.2246752E+01  2.4496284E+01
 2.2258251E+01  2.4587357E+01
 2.2269751E+01  2.4632950E+01
 2.2281252E+01  2.4645931E+01
 2.2292751E+01  2.4638105E+01
 2.2304251E+01  2.4661802E+01
 2.2315752E+01  2.4660246E+01
 2.2327251E+01  2.4635229E+01
 2.2338751E+01  2.4635458E+01
 2.2350250E+01  2.4625765E+01
 2.2361752E+01  2.4612711E+01
 2.2373251E+01  2.4564560E+01
 2.2384750E+01  2.4558830E+01
 2.2396252E+01  2.4549454E+01
 2.2407751E+01  2.4550995E+01
 2.2419250E+01  2.4559868E+01
 2.2430752E+01  2.4624126E+01
 2.2442251E+01  2.4695150E+01
 2.2453751E+01  2.4753130E+01
 2.2465252E+01  2.4742668E+01
 2.2476751E+01  2.4702589E+01
 2.2488251E+01  2.4698990E+01
 2.2499752E+01  2.4696396E+01
 2.2511251E+01  2.4700260E+01
 2.2522751E+01  2.4726017E+01
 2.2534250E+01  2.4758720E+01
 2.2545752E+01  2.4791130E+01
 2.2557251E+01  2.4841007E+01
 2.2568750E+01  2.4857313E+01
 2.2580252E+01  2.4902695E+01
 2.2591751E+01  2.4955814E+01
 2.2603251E+01  2.4989298E+01
 2.2614752E+01  2.5033211E+01
 2.2626251E+01  2.5045349E+01
 2.2637751E+01  2.5056808E+01
 2.2649252E+01  2.5042820E+01
 2.2660751E+01  2.5081112E+01
 2.2672251E+01  2.5114643E+01
 2.2683752E+01  2.5167994E+01
 2.2695251E+01  2.5230083E+01
 2.2706751E+01  2.5281115E+01
 2.2718250E+01  2.5332212E+01
 2.2729752E+01  2.5324301E+01
 2.2741251E+01  2.5269655E+01
 2.2752750E+01  2.5258865E+01
 2.2764252E+01  2.5285784E+01
 2.2775751E+01  2.5327448E+01
 2.2787251E+01  2.5300400E+01
 2.2798752E+01  2.5361259E+01
 2.2810251E+01  2.5374428E+01
 2.2821751E+01  2.5443747E+01
 2.2833252E+01  2.5493290E+01
 2.2844751E+01  2.5559624E+01
 2.2856251E+01  2.5568344E+01
 2.2867750E+01  2.5639923E+01
 2.2879251E+01  2.5683567E+01
 2.2890751E+01  2.5797798E+01
 2.2902250E+01  2.5812737E+01
 2.2913752E+01  2.5903891E+01
 2.2925251E+01  2.5959946E+01
 2.2936750E+01  2.5970428E+01
 2.2948252E+01  2.5951874E+01
 2.2959751E+01  2.5927822E+01
 2.2971251E+01  2.6027460E+01
 2.2982752E+01  2.6082813E+01
 2.2994251E+01  2.6162428E+01
