F:\20151113_APS_34IDE\\Brian\Particle1\OCV\Data_0039.tif
2-Theta Angle (Degrees)
Intensity
       2000
 5.7500005E-03  0.0000000E+00
 1.7250001E-02  0.0000000E+00
 2.8750001E-02  0.0000000E+00
 4.0250003E-02  0.0000000E+00
 5.1750004E-02  0.0000000E+00
 6.3250005E-02  0.0000000E+00
 7.4750006E-02  0.0000000E+00
 8.6250007E-02  0.0000000E+00
 9.7750008E-02  0.0000000E+00
 1.0925001E-01  0.0000000E+00
 1.2075000E-01  0.0000000E+00
 1.3225001E-01  0.0000000E+00
 1.4375001E-01  0.0000000E+00
 1.5525001E-01  0.0000000E+00
 1.6675001E-01  0.0000000E+00
 1.7825001E-01  0.0000000E+00
 1.8975002E-01  0.0000000E+00
 2.0125002E-01  0.0000000E+00
 2.1275002E-01  0.0000000E+00
 2.2425000E-01  0.0000000E+00
 2.3575000E-01  0.0000000E+00
 2.4725001E-01  0.0000000E+00
 2.5875002E-01  0.0000000E+00
 2.7025002E-01  0.0000000E+00
 2.8175002E-01  0.0000000E+00
 2.9325002E-01  0.0000000E+00
 3.0475003E-01  0.0000000E+00
 3.1625003E-01  0.0000000E+00
 3.2775003E-01  0.0000000E+00
 3.3925003E-01  0.0000000E+00
 3.5075003E-01  0.0000000E+00
 3.6225003E-01  0.0000000E+00
 3.7375003E-01  0.0000000E+00
 3.8525003E-01  0.0000000E+00
 3.9675003E-01  0.0000000E+00
 4.0825003E-01  0.0000000E+00
 4.1975003E-01  0.0000000E+00
 4.3125004E-01  0.0000000E+00
 4.4275001E-01  0.0000000E+00
 4.5425001E-01  0.0000000E+00
 4.6575001E-01  0.0000000E+00
 4.7725001E-01  0.0000000E+00
 4.8875001E-01  0.0000000E+00
 5.0025004E-01  0.0000000E+00
 5.1175004E-01  0.0000000E+00
 5.2325004E-01  0.0000000E+00
 5.3475004E-01  0.0000000E+00
 5.4625005E-01  0.0000000E+00
 5.5775005E-01  0.0000000E+00
 5.6925005E-01  0.0000000E+00
 5.8075005E-01  0.0000000E+00
 5.9225005E-01  0.0000000E+00
 6.0375005E-01  0.0000000E+00
 6.1525005E-01  0.0000000E+00
 6.2675005E-01  0.0000000E+00
 6.3825005E-01  0.0000000E+00
 6.4975005E-01  0.0000000E+00
 6.6125005E-01  0.0000000E+00
 6.7275006E-01  0.0000000E+00
 6.8425006E-01  0.0000000E+00
 6.9575006E-01  0.0000000E+00
 7.0725006E-01  0.0000000E+00
 7.1875006E-01  0.0000000E+00
 7.3025006E-01  0.0000000E+00
 7.4175006E-01  0.0000000E+00
 7.5325006E-01  0.0000000E+00
 7.6475006E-01  0.0000000E+00
 7.7625006E-01  0.0000000E+00
 7.8775007E-01  0.0000000E+00
 7.9925007E-01  0.0000000E+00
 8.1075007E-01  0.0000000E+00
 8.2225007E-01  0.0000000E+00
 8.3375007E-01  0.0000000E+00
 8.4525007E-01  0.0000000E+00
 8.5675007E-01  0.0000000E+00
 8.6825007E-01  0.0000000E+00
 8.7975001E-01  0.0000000E+00
 8.9125001E-01  0.0000000E+00
 9.0275002E-01  0.0000000E+00
 9.1425002E-01  0.0000000E+00
 9.2575002E-01  0.0000000E+00
 9.3725002E-01  0.0000000E+00
 9.4875002E-01  0.0000000E+00
 9.6025002E-01  0.0000000E+00
 9.7175002E-01  0.0000000E+00
 9.8325002E-01  0.0000000E+00
 9.9475002E-01  0.0000000E+00
 1.0062500E+00  0.0000000E+00
 1.0177500E+00  0.0000000E+00
 1.0292500E+00  0.0000000E+00
 1.0407500E+00  0.0000000E+00
 1.0522500E+00  0.0000000E+00
 1.0637500E+00  0.0000000E+00
 1.0752500E+00  0.0000000E+00
 1.0867500E+00  0.0000000E+00
 1.0982500E+00  0.0000000E+00
 1.1097500E+00  0.0000000E+00
 1.1212500E+00  0.0000000E+00
 1.1327500E+00  0.0000000E+00
 1.1442500E+00  0.0000000E+00
 1.1557500E+00  0.0000000E+00
 1.1672500E+00  0.0000000E+00
 1.1787500E+00  0.0000000E+00
 1.1902500E+00  0.0000000E+00
 1.2017500E+00  0.0000000E+00
 1.2132500E+00  0.0000000E+00
 1.2247500E+00  0.0000000E+00
 1.2362500E+00  0.0000000E+00
 1.2477500E+00  0.0000000E+00
 1.2592500E+00  0.0000000E+00
 1.2707500E+00  0.0000000E+00
 1.2822500E+00  0.0000000E+00
 1.2937500E+00  0.0000000E+00
 1.3052500E+00  0.0000000E+00
 1.3167500E+00  0.0000000E+00
 1.3282501E+00  0.0000000E+00
 1.3397501E+00  0.0000000E+00
 1.3512501E+00  0.0000000E+00
 1.3627501E+00  0.0000000E+00
 1.3742501E+00  0.0000000E+00
 1.3857501E+00  0.0000000E+00
 1.3972501E+00  0.0000000E+00
 1.4087501E+00  0.0000000E+00
 1.4202501E+00  0.0000000E+00
 1.4317501E+00  0.0000000E+00
 1.4432501E+00  0.0000000E+00
 1.4547501E+00  0.0000000E+00
 1.4662501E+00  0.0000000E+00
 1.4777501E+00  0.0000000E+00
 1.4892501E+00  0.0000000E+00
 1.5007501E+00  0.0000000E+00
 1.5122501E+00  0.0000000E+00
 1.5237501E+00  0.0000000E+00
 1.5352501E+00  0.0000000E+00
 1.5467501E+00  0.0000000E+00
 1.5582501E+00  0.0000000E+00
 1.5697501E+00  0.0000000E+00
 1.5812501E+00  0.0000000E+00
 1.5927501E+00  0.0000000E+00
 1.6042501E+00  0.0000000E+00
 1.6157501E+00  0.0000000E+00
 1.6272501E+00  0.0000000E+00
 1.6387501E+00  0.0000000E+00
 1.6502501E+00  0.0000000E+00
 1.6617501E+00  0.0000000E+00
 1.6732501E+00  0.0000000E+00
 1.6847501E+00  0.0000000E+00
 1.6962501E+00  0.0000000E+00
 1.7077501E+00  0.0000000E+00
 1.7192501E+00  0.0000000E+00
 1.7307501E+00  0.0000000E+00
 1.7422501E+00  0.0000000E+00
 1.7537501E+00  0.0000000E+00
 1.7652501E+00  0.0000000E+00
 1.7767501E+00  0.0000000E+00
 1.7882501E+00  0.0000000E+00
 1.7997501E+00  0.0000000E+00
 1.8112501E+00  0.0000000E+00
 1.8227501E+00  0.0000000E+00
 1.8342501E+00  0.0000000E+00
 1.8457501E+00  0.0000000E+00
 1.8572501E+00  0.0000000E+00
 1.8687501E+00  0.0000000E+00
 1.8802501E+00  0.0000000E+00
 1.8917501E+00  0.0000000E+00
 1.9032501E+00  0.0000000E+00
 1.9147501E+00  0.0000000E+00
 1.9262501E+00  0.0000000E+00
 1.9377501E+00  0.0000000E+00
 1.9492501E+00  0.0000000E+00
 1.9607501E+00  0.0000000E+00
 1.9722501E+00  0.0000000E+00
 1.9837501E+00  0.0000000E+00
 1.9952501E+00  0.0000000E+00
 2.0067501E+00  0.0000000E+00
 2.0182500E+00  0.0000000E+00
 2.0297501E+00  0.0000000E+00
 2.0412500E+00  0.0000000E+00
 2.0527501E+00  0.0000000E+00
 2.0642500E+00  0.0000000E+00
 2.0757501E+00  0.0000000E+00
 2.0872500E+00  0.0000000E+00
 2.0987501E+00  0.0000000E+00
 2.1102500E+00  0.0000000E+00
 2.1217501E+00  0.0000000E+00
 2.1332500E+00  0.0000000E+00
 2.1447501E+00  0.0000000E+00
 2.1562500E+00  0.0000000E+00
 2.1677501E+00  0.0000000E+00
 2.1792500E+00  0.0000000E+00
 2.1907501E+00  0.0000000E+00
 2.2022500E+00  0.0000000E+00
 2.2137501E+00  0.0000000E+00
 2.2252500E+00  0.0000000E+00
 2.2367501E+00  0.0000000E+00
 2.2482500E+00  0.0000000E+00
 2.2597501E+00  0.0000000E+00
 2.2712500E+00  0.0000000E+00
 2.2827501E+00  0.0000000E+00
 2.2942500E+00  0.0000000E+00
 2.3057501E+00  0.0000000E+00
 2.3172500E+00  0.0000000E+00
 2.3287501E+00  0.0000000E+00
 2.3402500E+00  0.0000000E+00
 2.3517501E+00  0.0000000E+00
 2.3632500E+00  0.0000000E+00
 2.3747501E+00  0.0000000E+00
 2.3862500E+00  0.0000000E+00
 2.3977501E+00  0.0000000E+00
 2.4092500E+00  0.0000000E+00
 2.4207501E+00  0.0000000E+00
 2.4322500E+00  0.0000000E+00
 2.4437501E+00  0.0000000E+00
 2.4552500E+00  0.0000000E+00
 2.4667501E+00  0.0000000E+00
 2.4782500E+00  0.0000000E+00
 2.4897501E+00  0.0000000E+00
 2.5012500E+00  0.0000000E+00
 2.5127501E+00  0.0000000E+00
 2.5242500E+00  0.0000000E+00
 2.5357502E+00  0.0000000E+00
 2.5472500E+00  0.0000000E+00
 2.5587502E+00  0.0000000E+00
 2.5702500E+00  0.0000000E+00
 2.5817502E+00  0.0000000E+00
 2.5932500E+00  0.0000000E+00
 2.6047502E+00  0.0000000E+00
 2.6162500E+00  0.0000000E+00
 2.6277502E+00  0.0000000E+00
 2.6392500E+00  0.0000000E+00
 2.6507502E+00  0.0000000E+00
 2.6622500E+00  0.0000000E+00
 2.6737502E+00  0.0000000E+00
 2.6852500E+00  0.0000000E+00
 2.6967502E+00  0.0000000E+00
 2.7082500E+00  0.0000000E+00
 2.7197502E+00  0.0000000E+00
 2.7312500E+00  0.0000000E+00
 2.7427502E+00  0.0000000E+00
 2.7542500E+00  0.0000000E+00
 2.7657502E+00  0.0000000E+00
 2.7772501E+00  0.0000000E+00
 2.7887502E+00  0.0000000E+00
 2.8002501E+00  0.0000000E+00
 2.8117502E+00  0.0000000E+00
 2.8232501E+00  3.4104534E+01
 2.8347502E+00  3.3521687E+01
 2.8462501E+00  3.4026005E+01
 2.8577502E+00  3.4035347E+01
 2.8692501E+00  3.4526333E+01
 2.8807502E+00  3.4872261E+01
 2.8922501E+00  3.5406708E+01
 2.9037502E+00  3.5982109E+01
 2.9152501E+00  3.6637913E+01
 2.9267502E+00  3.6532394E+01
 2.9382501E+00  3.6947411E+01
 2.9497502E+00  3.6929836E+01
 2.9612501E+00  3.7099247E+01
 2.9727502E+00  3.6589211E+01
 2.9842501E+00  3.6186726E+01
 2.9957502E+00  3.6172459E+01
 3.0072501E+00  3.6248760E+01
 3.0187502E+00  3.6534004E+01
 3.0302501E+00  3.6206272E+01
 3.0417502E+00  3.5941692E+01
 3.0532501E+00  3.5216694E+01
 3.0647502E+00  3.5266670E+01
 3.0762501E+00  3.5428398E+01
 3.0877502E+00  3.5811012E+01
 3.0992501E+00  3.5968464E+01
 3.1107502E+00  3.6049423E+01
 3.1222501E+00  3.6130478E+01
 3.1337502E+00  3.6111629E+01
 3.1452501E+00  3.5913216E+01
 3.1567502E+00  3.5621708E+01
 3.1682501E+00  3.5478607E+01
 3.1797502E+00  3.5482300E+01
 3.1912501E+00  3.5293488E+01
 3.2027502E+00  3.5299622E+01
 3.2142501E+00  3.5287983E+01
 3.2257502E+00  3.5334774E+01
 3.2372501E+00  3.4978668E+01
 3.2487502E+00  3.4516335E+01
 3.2602501E+00  3.4121777E+01
 3.2717502E+00  3.3673489E+01
 3.2832501E+00  3.3332466E+01
 3.2947502E+00  3.3292316E+01
 3.3062501E+00  3.3582989E+01
 3.3177502E+00  3.3770214E+01
 3.3292501E+00  3.4220169E+01
 3.3407502E+00  3.4377655E+01
 3.3522501E+00  3.4583794E+01
 3.3637502E+00  3.4407104E+01
 3.3752501E+00  3.4481632E+01
 3.3867502E+00  3.3983418E+01
 3.3982501E+00  3.3689075E+01
 3.4097502E+00  3.3040771E+01
 3.4212501E+00  3.3211689E+01
 3.4327502E+00  3.3361702E+01
 3.4442501E+00  3.3663116E+01
 3.4557502E+00  3.3766048E+01
 3.4672501E+00  3.3923309E+01
 3.4787502E+00  3.4149895E+01
 3.4902501E+00  3.4273659E+01
 3.5017502E+00  3.4146885E+01
 3.5132501E+00  3.3919552E+01
 3.5247502E+00  3.3583256E+01
 3.5362501E+00  3.3487801E+01
 3.5477502E+00  3.3225739E+01
 3.5592501E+00  3.3232162E+01
 3.5707502E+00  3.3058704E+01
 3.5822501E+00  3.2960716E+01
 3.5937502E+00  3.2983334E+01
 3.6052501E+00  3.2895313E+01
 3.6167502E+00  3.2878250E+01
 3.6282501E+00  3.2778393E+01
 3.6397502E+00  3.2801853E+01
 3.6512501E+00  3.2802700E+01
 3.6627502E+00  3.2783466E+01
 3.6742501E+00  3.2895138E+01
 3.6857502E+00  3.3058174E+01
 3.6972501E+00  3.2842041E+01
 3.7087502E+00  3.2777618E+01
 3.7202501E+00  3.2610912E+01
 3.7317502E+00  3.2639557E+01
 3.7432501E+00  3.2557713E+01
 3.7547503E+00  3.2383141E+01
 3.7662501E+00  3.2616692E+01
 3.7777503E+00  3.2625237E+01
 3.7892501E+00  3.2675308E+01
 3.8007503E+00  3.2264462E+01
 3.8122501E+00  3.2226410E+01
 3.8237503E+00  3.2085144E+01
 3.8352501E+00  3.2062897E+01
 3.8467503E+00  3.2091637E+01
 3.8582501E+00  3.2035908E+01
 3.8697503E+00  3.2104290E+01
 3.8812501E+00  3.2138844E+01
 3.8927503E+00  3.2068638E+01
 3.9042501E+00  3.2053875E+01
 3.9157503E+00  3.1992277E+01
 3.9272501E+00  3.1978504E+01
 3.9387503E+00  3.2076431E+01
 3.9502501E+00  3.2149597E+01
 3.9617503E+00  3.2069511E+01
 3.9732502E+00  3.2123863E+01
 3.9847503E+00  3.2067123E+01
 3.9962502E+00  3.2158260E+01
 4.0077500E+00  3.2179440E+01
 4.0192504E+00  3.2105862E+01
 4.0307503E+00  3.1996586E+01
 4.0422502E+00  3.1961485E+01
 4.0537500E+00  3.1916801E+01
 4.0652504E+00  3.2073112E+01
 4.0767503E+00  3.2210449E+01
 4.0882502E+00  3.2485149E+01
 4.0997500E+00  3.2542934E+01
 4.1112504E+00  3.2485813E+01
 4.1227503E+00  3.2299274E+01
 4.1342502E+00  3.2289639E+01
 4.1457500E+00  3.2287033E+01
 4.1572504E+00  3.2226254E+01
 4.1687503E+00  3.2021774E+01
 4.1802502E+00  3.1914434E+01
 4.1917500E+00  3.1798754E+01
 4.2032504E+00  3.1839174E+01
 4.2147503E+00  3.1889105E+01
 4.2262502E+00  3.2133297E+01
 4.2377501E+00  3.2328812E+01
 4.2492504E+00  3.2365471E+01
 4.2607503E+00  3.2475719E+01
 4.2722502E+00  3.2383678E+01
 4.2837501E+00  3.2399284E+01
 4.2952504E+00  3.2252144E+01
 4.3067503E+00  3.2196236E+01
 4.3182502E+00  3.2214428E+01
 4.3297501E+00  3.2267284E+01
 4.3412504E+00  3.2287380E+01
 4.3527503E+00  3.2226173E+01
 4.3642502E+00  3.2099689E+01
 4.3757501E+00  3.2052536E+01
 4.3872504E+00  3.2040688E+01
 4.3987503E+00  3.2027283E+01
 4.4102502E+00  3.2070374E+01
 4.4217501E+00  3.2022339E+01
 4.4332504E+00  3.2141712E+01
 4.4447503E+00  3.2143272E+01
 4.4562502E+00  3.2118679E+01
 4.4677501E+00  3.2103909E+01
 4.4792504E+00  3.2082226E+01
 4.4907503E+00  3.2075104E+01
 4.5022502E+00  3.2072014E+01
 4.5137501E+00  3.1989847E+01
 4.5252504E+00  3.1973459E+01
 4.5367503E+00  3.1849701E+01
 4.5482502E+00  3.1954838E+01
 4.5597501E+00  3.1965712E+01
 4.5712504E+00  3.2102688E+01
 4.5827503E+00  3.2212296E+01
 4.5942502E+00  3.2319424E+01
 4.6057501E+00  3.2341530E+01
 4.6172504E+00  3.2216251E+01
 4.6287503E+00  3.2172581E+01
 4.6402502E+00  3.2193432E+01
 4.6517501E+00  3.2427559E+01
 4.6632504E+00  3.2535255E+01
 4.6747503E+00  3.2633099E+01
 4.6862502E+00  3.2614159E+01
 4.6977501E+00  3.2616562E+01
 4.7092505E+00  3.2568291E+01
 4.7207503E+00  3.2376793E+01
 4.7322502E+00  3.2270004E+01
 4.7437501E+00  3.2197128E+01
 4.7552505E+00  3.2153397E+01
 4.7667503E+00  3.2207943E+01
 4.7782502E+00  3.2137539E+01
 4.7897501E+00  3.2165180E+01
 4.8012505E+00  3.2135071E+01
 4.8127503E+00  3.2264606E+01
 4.8242502E+00  3.2325348E+01
 4.8357501E+00  3.2334953E+01
 4.8472505E+00  3.2352776E+01
 4.8587503E+00  3.2487709E+01
 4.8702502E+00  3.2573353E+01
 4.8817501E+00  3.2671177E+01
 4.8932505E+00  3.2653049E+01
 4.9047503E+00  3.2625198E+01
 4.9162502E+00  3.2591610E+01
 4.9277501E+00  3.2507702E+01
 4.9392505E+00  3.2558807E+01
 4.9507504E+00  3.2554192E+01
 4.9622502E+00  3.2577084E+01
 4.9737501E+00  3.2718571E+01
 4.9852505E+00  3.2754768E+01
 4.9967504E+00  3.2808804E+01
 5.0082502E+00  3.2741989E+01
 5.0197501E+00  3.2726730E+01
 5.0312505E+00  3.2707218E+01
 5.0427504E+00  3.2734596E+01
 5.0542502E+00  3.2689548E+01
 5.0657501E+00  3.2701847E+01
 5.0772505E+00  3.2702263E+01
 5.0887504E+00  3.2836269E+01
 5.1002502E+00  3.2960079E+01
 5.1117501E+00  3.3062805E+01
 5.1232505E+00  3.2991142E+01
 5.1347504E+00  3.3183022E+01
 5.1462502E+00  3.3199654E+01
 5.1577501E+00  3.3258926E+01
 5.1692505E+00  3.3269737E+01
 5.1807504E+00  3.3398014E+01
 5.1922503E+00  3.3499218E+01
 5.2037501E+00  3.3514412E+01
 5.2152505E+00  3.3478455E+01
 5.2267504E+00  3.3532776E+01
 5.2382503E+00  3.3534744E+01
 5.2497501E+00  3.3622009E+01
 5.2612505E+00  3.3641712E+01
 5.2727504E+00  3.3747757E+01
 5.2842503E+00  3.3859882E+01
 5.2957501E+00  3.4055817E+01
 5.3072500E+00  3.4062218E+01
 5.3187504E+00  3.4120831E+01
 5.3302503E+00  3.4064350E+01
 5.3417501E+00  3.4148514E+01
 5.3532500E+00  3.4231716E+01
 5.3647504E+00  3.4304211E+01
 5.3762503E+00  3.4282818E+01
 5.3877501E+00  3.4194092E+01
 5.3992500E+00  3.4069481E+01
 5.4107504E+00  3.4047478E+01
 5.4222503E+00  3.4028877E+01
 5.4337502E+00  3.4013458E+01
 5.4452500E+00  3.4170189E+01
 5.4567504E+00  3.4221859E+01
 5.4682503E+00  3.4323971E+01
 5.4797502E+00  3.4344540E+01
 5.4912500E+00  3.4304646E+01
 5.5027504E+00  3.4301559E+01
 5.5142503E+00  3.4380585E+01
 5.5257502E+00  3.4386070E+01
 5.5372500E+00  3.4437820E+01
 5.5487504E+00  3.4404495E+01
 5.5602503E+00  3.4425190E+01
 5.5717502E+00  3.4630367E+01
 5.5832500E+00  3.4716320E+01
 5.5947504E+00  3.4872135E+01
 5.6062503E+00  3.4959282E+01
 5.6177502E+00  3.4937134E+01
 5.6292500E+00  3.4952682E+01
 5.6407504E+00  3.4867302E+01
 5.6522503E+00  3.4990978E+01
 5.6637502E+00  3.5065758E+01
 5.6752501E+00  3.5201530E+01
 5.6867504E+00  3.5214619E+01
 5.6982503E+00  3.5306969E+01
 5.7097502E+00  3.5309834E+01
 5.7212501E+00  3.5365536E+01
 5.7327504E+00  3.5564957E+01
 5.7442503E+00  3.5622204E+01
 5.7557502E+00  3.5729729E+01
 5.7672501E+00  3.5630264E+01
 5.7787504E+00  3.5772003E+01
 5.7902503E+00  3.5888309E+01
 5.8017502E+00  3.6031853E+01
 5.8132501E+00  3.6077320E+01
 5.8247504E+00  3.6117798E+01
 5.8362503E+00  3.6114166E+01
 5.8477502E+00  3.6197731E+01
 5.8592501E+00  3.6219391E+01
 5.8707504E+00  3.6542496E+01
 5.8822503E+00  3.6780186E+01
 5.8937502E+00  3.7937607E+01
 5.9052501E+00  3.8835377E+01
 5.9167504E+00  4.0665665E+01
 5.9282503E+00  4.3393288E+01
 5.9397502E+00  4.7774998E+01
 5.9512501E+00  5.0307198E+01
 5.9627504E+00  5.7747204E+01
 5.9742503E+00  5.6944572E+01
 5.9857502E+00  6.0308392E+01
 5.9972501E+00  5.3114941E+01
 6.0087504E+00  5.2086102E+01
 6.0202503E+00  4.6208050E+01
 6.0317502E+00  4.3332680E+01
 6.0432501E+00  4.0285439E+01
 6.0547504E+00  3.9060570E+01
 6.0662503E+00  3.8063141E+01
 6.0777502E+00  3.7628483E+01
 6.0892501E+00  3.7394676E+01
 6.1007504E+00  3.7267208E+01
 6.1122503E+00  3.7219398E+01
 6.1237502E+00  3.7148079E+01
 6.1352501E+00  3.6950047E+01
 6.1467505E+00  3.6877354E+01
 6.1582503E+00  3.6956589E+01
 6.1697502E+00  3.6952518E+01
 6.1812501E+00  3.7017677E+01
 6.1927505E+00  3.7003311E+01
 6.2042503E+00  3.7031910E+01
 6.2157502E+00  3.7158821E+01
 6.2272501E+00  3.7230633E+01
 6.2387505E+00  3.7270367E+01
 6.2502503E+00  3.7295052E+01
 6.2617502E+00  3.7209538E+01
 6.2732501E+00  3.7275700E+01
 6.2847505E+00  3.7382664E+01
 6.2962503E+00  3.7443096E+01
 6.3077502E+00  3.7487770E+01
 6.3192501E+00  3.7415207E+01
 6.3307505E+00  3.7437687E+01
 6.3422503E+00  3.7446434E+01
 6.3537502E+00  3.7570259E+01
 6.3652501E+00  3.7683361E+01
 6.3767505E+00  3.7912289E+01
 6.3882504E+00  3.8076061E+01
 6.3997502E+00  3.8155083E+01
 6.4112501E+00  3.8127941E+01
 6.4227505E+00  3.8134514E+01
 6.4342504E+00  3.8181374E+01
 6.4457502E+00  3.8231876E+01
 6.4572501E+00  3.8230228E+01
 6.4687505E+00  3.8283260E+01
 6.4802504E+00  3.8315056E+01
 6.4917502E+00  3.8389603E+01
 6.5032501E+00  3.8619473E+01
 6.5147505E+00  3.8797394E+01
 6.5262504E+00  3.8947243E+01
 6.5377502E+00  3.8860569E+01
 6.5492501E+00  3.8821159E+01
 6.5607505E+00  3.8854683E+01
 6.5722504E+00  3.8879704E+01
 6.5837502E+00  3.8908779E+01
 6.5952501E+00  3.8954788E+01
 6.6067505E+00  3.9031387E+01
 6.6182504E+00  3.9154808E+01
 6.6297503E+00  3.9253628E+01
 6.6412501E+00  3.9394352E+01
 6.6527505E+00  3.9497219E+01
 6.6642504E+00  3.9660728E+01
 6.6757503E+00  3.9733231E+01
 6.6872501E+00  3.9848022E+01
 6.6987505E+00  3.9885059E+01
 6.7102504E+00  4.0063446E+01
 6.7217503E+00  4.0167191E+01
 6.7332501E+00  4.0269814E+01
 6.7447505E+00  4.0364166E+01
 6.7562504E+00  4.0563828E+01
 6.7677503E+00  4.0647839E+01
 6.7792501E+00  4.0677708E+01
 6.7907505E+00  4.0677387E+01
 6.8022504E+00  4.0724079E+01
 6.8137503E+00  4.0864700E+01
 6.8252501E+00  4.0936943E+01
 6.8367505E+00  4.1073719E+01
 6.8482504E+00  4.1176945E+01
 6.8597503E+00  4.1343071E+01
 6.8712502E+00  4.1572708E+01
 6.8827505E+00  4.1686962E+01
 6.8942504E+00  4.1787693E+01
 6.9057503E+00  4.1801075E+01
 6.9172502E+00  4.1865688E+01
 6.9287505E+00  4.1868198E+01
 6.9402504E+00  4.1845211E+01
 6.9517503E+00  4.1671539E+01
 6.9632502E+00  4.1483971E+01
 6.9747505E+00  4.1392319E+01
 6.9862504E+00  4.1460167E+01
 6.9977503E+00  4.1517658E+01
 7.0092502E+00  4.1542313E+01
 7.0207505E+00  4.1640839E+01
 7.0322504E+00  4.1761086E+01
 7.0437503E+00  4.1942131E+01
 7.0552502E+00  4.2119720E+01
 7.0667505E+00  4.2263287E+01
 7.0782504E+00  4.2368572E+01
 7.0897503E+00  4.2405960E+01
 7.1012502E+00  4.2483353E+01
 7.1127505E+00  4.2587475E+01
 7.1242504E+00  4.2727291E+01
 7.1357503E+00  4.2776730E+01
 7.1472502E+00  4.2794598E+01
 7.1587505E+00  4.2761692E+01
 7.1702504E+00  4.2793060E+01
 7.1817503E+00  4.2816311E+01
 7.1932502E+00  4.2906036E+01
 7.2047505E+00  4.2944813E+01
 7.2162504E+00  4.2969513E+01
 7.2277503E+00  4.3023418E+01
 7.2392502E+00  4.3071190E+01
 7.2507505E+00  4.3208275E+01
 7.2622504E+00  4.3218140E+01
 7.2737503E+00  4.3273304E+01
 7.2852502E+00  4.3352802E+01
 7.2967505E+00  4.3461216E+01
 7.3082504E+00  4.3522423E+01
 7.3197503E+00  4.3572456E+01
 7.3312502E+00  4.3597736E+01
 7.3427505E+00  4.3627110E+01
 7.3542504E+00  4.3548351E+01
 7.3657503E+00  4.3474831E+01
 7.3772502E+00  4.3480820E+01
 7.3887506E+00  4.3465919E+01
 7.4002504E+00  4.3624466E+01
 7.4117503E+00  4.3682632E+01
 7.4232502E+00  4.3801338E+01
 7.4347506E+00  4.3860195E+01
 7.4462504E+00  4.3942963E+01
 7.4577503E+00  4.4064575E+01
 7.4692502E+00  4.4035595E+01
 7.4807506E+00  4.4033443E+01
 7.4922504E+00  4.3958374E+01
 7.5037503E+00  4.3940697E+01
 7.5152502E+00  4.3924767E+01
 7.5267506E+00  4.3988537E+01
 7.5382504E+00  4.4097576E+01
 7.5497503E+00  4.4069279E+01
 7.5612502E+00  4.4048550E+01
 7.5727506E+00  4.4006638E+01
 7.5842505E+00  4.4022896E+01
 7.5957503E+00  4.4002529E+01
 7.6072502E+00  4.4005226E+01
 7.6187506E+00  4.3955116E+01
 7.6302505E+00  4.3981766E+01
 7.6417503E+00  4.3893841E+01
 7.6532502E+00  4.3866959E+01
 7.6647506E+00  4.3750160E+01
 7.6762505E+00  4.3737785E+01
 7.6877503E+00  4.3698769E+01
 7.6992502E+00  4.3685394E+01
 7.7107506E+00  4.3761719E+01
 7.7222505E+00  4.3862747E+01
 7.7337503E+00  4.4012310E+01
 7.7452502E+00  4.4063553E+01
 7.7567506E+00  4.4174438E+01
 7.7682505E+00  4.4166302E+01
 7.7797503E+00  4.4177219E+01
 7.7912502E+00  4.4106400E+01
 7.8027506E+00  4.4027161E+01
 7.8142505E+00  4.3944225E+01
 7.8257504E+00  4.3923294E+01
 7.8372502E+00  4.3923073E+01
 7.8487506E+00  4.3862045E+01
 7.8602505E+00  4.3760647E+01
 7.8717504E+00  4.3490623E+01
 7.8832502E+00  4.3273167E+01
 7.8947506E+00  4.3154625E+01
 7.9062505E+00  4.3232445E+01
 7.9177504E+00  4.3301983E+01
 7.9292502E+00  4.3317032E+01
 7.9407506E+00  4.3304890E+01
 7.9522505E+00  4.3283630E+01
 7.9637504E+00  4.3190964E+01
 7.9752502E+00  4.3280487E+01
 7.9867506E+00  4.3316154E+01
 7.9982505E+00  4.3485073E+01
 8.0097504E+00  4.3431187E+01
 8.0212507E+00  4.3389439E+01
 8.0327501E+00  4.3268654E+01
 8.0442505E+00  4.3028717E+01
 8.0557508E+00  4.2899204E+01
 8.0672503E+00  4.2615776E+01
 8.0787506E+00  4.2525394E+01
 8.0902500E+00  4.2355991E+01
 8.1017504E+00  4.2404076E+01
 8.1132507E+00  4.2402317E+01
 8.1247501E+00  4.2373669E+01
 8.1362505E+00  4.2257294E+01
 8.1477509E+00  4.2127426E+01
 8.1592503E+00  4.1949821E+01
 8.1707506E+00  4.1841518E+01
 8.1822500E+00  4.1667019E+01
 8.1937504E+00  4.1629498E+01
 8.2052507E+00  4.1560928E+01
 8.2167501E+00  4.1397034E+01
 8.2282505E+00  4.1292526E+01
 8.2397509E+00  4.1114094E+01
 8.2512503E+00  4.1030045E+01
 8.2627506E+00  4.0828064E+01
 8.2742500E+00  4.0676811E+01
 8.2857504E+00  4.0519619E+01
 8.2972507E+00  4.0372097E+01
 8.3087502E+00  4.0201836E+01
 8.3202505E+00  4.0136250E+01
 8.3317509E+00  4.0054504E+01
 8.3432503E+00  3.9957668E+01
 8.3547506E+00  3.9836456E+01
 8.3662500E+00  3.9736763E+01
 8.3777504E+00  3.9576561E+01
 8.3892508E+00  3.9506279E+01
 8.4007502E+00  3.9415649E+01
 8.4122505E+00  3.9357613E+01
 8.4237509E+00  3.9208954E+01
 8.4352503E+00  3.8959866E+01
 8.4467506E+00  3.8818092E+01
 8.4582500E+00  3.8537022E+01
 8.4697504E+00  3.8294323E+01
 8.4812508E+00  3.8024151E+01
 8.4927502E+00  3.7712791E+01
 8.5042505E+00  3.7432842E+01
 8.5157509E+00  3.7221260E+01
 8.5272503E+00  3.7088440E+01
 8.5387506E+00  3.7049057E+01
 8.5502501E+00  3.6910877E+01
 8.5617504E+00  3.6833427E+01
 8.5732508E+00  3.6744942E+01
 8.5847502E+00  3.6562176E+01
 8.5962505E+00  3.6467152E+01
 8.6077509E+00  3.6277321E+01
 8.6192503E+00  3.6190350E+01
 8.6307507E+00  3.6023003E+01
 8.6422501E+00  3.5833565E+01
 8.6537504E+00  3.5527267E+01
 8.6652508E+00  3.5244148E+01
 8.6767502E+00  3.4975262E+01
 8.6882505E+00  3.4848511E+01
 8.6997509E+00  3.4689453E+01
 8.7112503E+00  3.4515129E+01
 8.7227507E+00  3.4355640E+01
 8.7342501E+00  3.4186756E+01
 8.7457504E+00  3.4017647E+01
 8.7572508E+00  3.3889488E+01
 8.7687502E+00  3.3698837E+01
 8.7802505E+00  3.3527103E+01
 8.7917500E+00  3.3336559E+01
 8.8032503E+00  3.3190838E+01
 8.8147507E+00  3.3117184E+01
 8.8262501E+00  3.2973286E+01
 8.8377504E+00  3.2886414E+01
 8.8492508E+00  3.2752239E+01
 8.8607502E+00  3.2576210E+01
 8.8722506E+00  3.2505672E+01
 8.8837500E+00  3.2351372E+01
 8.8952503E+00  3.2237480E+01
 8.9067507E+00  3.2044064E+01
 8.9182501E+00  3.1837057E+01
 8.9297504E+00  3.1636829E+01
 8.9412508E+00  3.1464401E+01
 8.9527502E+00  3.1295446E+01
 8.9642506E+00  3.1201496E+01
 8.9757500E+00  3.1015844E+01
 8.9872503E+00  3.0854628E+01
 8.9987507E+00  3.0590897E+01
 9.0102501E+00  3.0350136E+01
 9.0217505E+00  3.0136557E+01
 9.0332508E+00  3.0055138E+01
 9.0447502E+00  3.0002308E+01
 9.0562506E+00  2.9922585E+01
 9.0677500E+00  2.9899319E+01
 9.0792503E+00  2.9874771E+01
 9.0907507E+00  2.9876369E+01
 9.1022501E+00  2.9792156E+01
 9.1137505E+00  2.9565096E+01
 9.1252508E+00  2.9372480E+01
 9.1367502E+00  2.9114893E+01
 9.1482506E+00  2.8991064E+01
 9.1597500E+00  2.8880005E+01
 9.1712503E+00  2.8775501E+01
 9.1827507E+00  2.8676050E+01
 9.1942501E+00  2.8535812E+01
 9.2057505E+00  2.8400461E+01
 9.2172508E+00  2.8330582E+01
 9.2287502E+00  2.8209255E+01
 9.2402506E+00  2.8174999E+01
 9.2517500E+00  2.8112719E+01
 9.2632504E+00  2.8053507E+01
 9.2747507E+00  2.7986139E+01
 9.2862501E+00  2.7888023E+01
 9.2977505E+00  2.7809996E+01
 9.3092508E+00  2.7699440E+01
 9.3207502E+00  2.7595766E+01
 9.3322506E+00  2.7478897E+01
 9.3437500E+00  2.7432123E+01
 9.3552504E+00  2.7413198E+01
 9.3667507E+00  2.7432577E+01
 9.3782501E+00  2.7389948E+01
 9.3897505E+00  2.7313387E+01
 9.4012508E+00  2.7180101E+01
 9.4127502E+00  2.7079845E+01
 9.4242506E+00  2.6921988E+01
 9.4357500E+00  2.6844406E+01
 9.4472504E+00  2.6709793E+01
 9.4587507E+00  2.6658476E+01
 9.4702501E+00  2.6576759E+01
 9.4817505E+00  2.6530748E+01
 9.4932508E+00  2.6489052E+01
 9.5047503E+00  2.6528273E+01
 9.5162506E+00  2.6569155E+01
 9.5277500E+00  2.6479738E+01
 9.5392504E+00  2.6367777E+01
 9.5507507E+00  2.6195549E+01
 9.5622501E+00  2.6108126E+01
 9.5737505E+00  2.5922377E+01
 9.5852509E+00  2.5789677E+01
 9.5967503E+00  2.5713737E+01
 9.6082506E+00  2.5701912E+01
 9.6197500E+00  2.5723476E+01
 9.6312504E+00  2.5670006E+01
 9.6427507E+00  2.5638964E+01
 9.6542501E+00  2.5550718E+01
 9.6657505E+00  2.5504091E+01
 9.6772509E+00  2.5384083E+01
 9.6887503E+00  2.5306967E+01
 9.7002506E+00  2.5311979E+01
 9.7117500E+00  2.5361311E+01
 9.7232504E+00  2.5340879E+01
 9.7347507E+00  2.5280077E+01
 9.7462502E+00  2.5202553E+01
 9.7577505E+00  2.5159636E+01
 9.7692509E+00  2.5092978E+01
 9.7807503E+00  2.5012371E+01
 9.7922506E+00  2.4949749E+01
 9.8037500E+00  2.4873251E+01
 9.8152504E+00  2.4797522E+01
 9.8267508E+00  2.4759460E+01
 9.8382502E+00  2.4767170E+01
 9.8497505E+00  2.4814081E+01
 9.8612509E+00  2.4850798E+01
 9.8727503E+00  2.4826296E+01
 9.8842506E+00  2.4773808E+01
 9.8957500E+00  2.4786291E+01
 9.9072504E+00  2.4744555E+01
 9.9187508E+00  2.4754511E+01
 9.9302502E+00  2.4619772E+01
 9.9417505E+00  2.4571787E+01
 9.9532509E+00  2.4438171E+01
 9.9647503E+00  2.4368013E+01
 9.9762506E+00  2.4296305E+01
 9.9877501E+00  2.4212570E+01
 9.9992504E+00  2.4207222E+01
 1.0010751E+01  2.4141413E+01
 1.0022250E+01  2.4187767E+01
 1.0033751E+01  2.4131819E+01
 1.0045251E+01  2.4141384E+01
 1.0056750E+01  2.4043497E+01
 1.0068251E+01  2.4070930E+01
 1.0079750E+01  2.4022289E+01
 1.0091250E+01  2.4021332E+01
 1.0102751E+01  2.3975555E+01
 1.0114250E+01  2.4003788E+01
 1.0125751E+01  2.4030342E+01
 1.0137251E+01  2.3979195E+01
 1.0148750E+01  2.3986570E+01
 1.0160251E+01  2.3971346E+01
 1.0171750E+01  2.3968269E+01
 1.0183250E+01  2.3951109E+01
 1.0194751E+01  2.3899948E+01
 1.0206250E+01  2.3905104E+01
 1.0217751E+01  2.3852657E+01
 1.0229251E+01  2.3833576E+01
 1.0240750E+01  2.3798721E+01
 1.0252251E+01  2.3747404E+01
 1.0263750E+01  2.3724232E+01
 1.0275250E+01  2.3698730E+01
 1.0286751E+01  2.3679216E+01
 1.0298250E+01  2.3682043E+01
 1.0309751E+01  2.3703438E+01
 1.0321251E+01  2.3683714E+01
 1.0332750E+01  2.3641325E+01
 1.0344251E+01  2.3589956E+01
 1.0355750E+01  2.3533283E+01
 1.0367250E+01  2.3480137E+01
 1.0378751E+01  2.3396473E+01
 1.0390250E+01  2.3413824E+01
 1.0401751E+01  2.3401276E+01
 1.0413251E+01  2.3436386E+01
 1.0424750E+01  2.3367208E+01
 1.0436251E+01  2.3317478E+01
 1.0447750E+01  2.3194693E+01
 1.0459250E+01  2.3232544E+01
 1.0470751E+01  2.3274124E+01
 1.0482250E+01  2.3349752E+01
 1.0493751E+01  2.3341919E+01
 1.0505251E+01  2.3325392E+01
 1.0516750E+01  2.3256914E+01
 1.0528251E+01  2.3197975E+01
 1.0539750E+01  2.3151918E+01
 1.0551250E+01  2.3133852E+01
 1.0562751E+01  2.3115314E+01
 1.0574250E+01  2.3062721E+01
 1.0585751E+01  2.3037851E+01
 1.0597251E+01  2.2991131E+01
 1.0608750E+01  2.2950432E+01
 1.0620251E+01  2.2950064E+01
 1.0631750E+01  2.2984985E+01
 1.0643250E+01  2.3074694E+01
 1.0654751E+01  2.3120710E+01
 1.0666250E+01  2.3115490E+01
 1.0677751E+01  2.3084562E+01
 1.0689251E+01  2.3004299E+01
 1.0700750E+01  2.2990591E+01
 1.0712251E+01  2.2980042E+01
 1.0723750E+01  2.3020317E+01
 1.0735250E+01  2.3028168E+01
 1.0746751E+01  2.3014406E+01
 1.0758250E+01  2.2968056E+01
 1.0769751E+01  2.2933681E+01
 1.0781251E+01  2.2891500E+01
 1.0792750E+01  2.2881994E+01
 1.0804251E+01  2.2825090E+01
 1.0815750E+01  2.2761822E+01
 1.0827250E+01  2.2789822E+01
 1.0838751E+01  2.2781767E+01
 1.0850250E+01  2.2823956E+01
 1.0861751E+01  2.2794861E+01
 1.0873251E+01  2.2788090E+01
 1.0884750E+01  2.2710993E+01
 1.0896251E+01  2.2629801E+01
 1.0907750E+01  2.2619942E+01
 1.0919250E+01  2.2663240E+01
 1.0930751E+01  2.2686611E+01
 1.0942250E+01  2.2669350E+01
 1.0953751E+01  2.2655750E+01
 1.0965251E+01  2.2666969E+01
 1.0976750E+01  2.2653202E+01
 1.0988251E+01  2.2640381E+01
 1.0999750E+01  2.2618881E+01
 1.1011250E+01  2.2689381E+01
 1.1022751E+01  2.2705101E+01
 1.1034250E+01  2.2709070E+01
 1.1045751E+01  2.2653025E+01
 1.1057251E+01  2.2619179E+01
 1.1068750E+01  2.2631178E+01
 1.1080251E+01  2.2629400E+01
 1.1091750E+01  2.2657446E+01
 1.1103251E+01  2.2661549E+01
 1.1114751E+01  2.2679348E+01
 1.1126250E+01  2.2695198E+01
 1.1137751E+01  2.2655918E+01
 1.1149251E+01  2.2621830E+01
 1.1160750E+01  2.2636820E+01
 1.1172251E+01  2.2654192E+01
 1.1183750E+01  2.2662958E+01
 1.1195251E+01  2.2575909E+01
 1.1206751E+01  2.2549940E+01
 1.1218250E+01  2.2533455E+01
 1.1229751E+01  2.2565130E+01
 1.1241251E+01  2.2603973E+01
 1.1252750E+01  2.2641359E+01
 1.1264251E+01  2.2609123E+01
 1.1275750E+01  2.2584621E+01
 1.1287251E+01  2.2450968E+01
 1.1298751E+01  2.2387871E+01
 1.1310250E+01  2.2312231E+01
 1.1321751E+01  2.2326120E+01
 1.1333251E+01  2.2341963E+01
 1.1344750E+01  2.2367147E+01
 1.1356251E+01  2.2461258E+01
 1.1367750E+01  2.2546354E+01
 1.1379251E+01  2.2695610E+01
 1.1390751E+01  2.2740471E+01
 1.1402250E+01  2.2985685E+01
 1.1413751E+01  2.3017849E+01
 1.1425251E+01  2.3050848E+01
 1.1436750E+01  2.2935698E+01
 1.1448251E+01  2.2936541E+01
 1.1459750E+01  2.2981974E+01
 1.1471251E+01  2.3031334E+01
 1.1482751E+01  2.3024405E+01
 1.1494250E+01  2.3065395E+01
 1.1505751E+01  2.3116072E+01
 1.1517251E+01  2.3371311E+01
 1.1528750E+01  2.3910950E+01
 1.1540251E+01  2.4649673E+01
 1.1551750E+01  2.5683681E+01
 1.1563251E+01  2.6870937E+01
 1.1574751E+01  2.8372225E+01
 1.1586250E+01  2.9865313E+01
 1.1597751E+01  3.0379814E+01
 1.1609251E+01  2.9832920E+01
 1.1620750E+01  2.8700382E+01
 1.1632251E+01  2.7133255E+01
 1.1643750E+01  2.5869864E+01
 1.1655251E+01  2.4529655E+01
 1.1666751E+01  2.3843338E+01
 1.1678250E+01  2.3288776E+01
 1.1689751E+01  2.2958864E+01
 1.1701251E+01  2.2827147E+01
 1.1712750E+01  2.2729649E+01
 1.1724251E+01  2.2607853E+01
 1.1735750E+01  2.2610203E+01
 1.1747251E+01  2.2645504E+01
 1.1758751E+01  2.2665485E+01
 1.1770250E+01  2.2667240E+01
 1.1781751E+01  2.2598206E+01
 1.1793251E+01  2.2593508E+01
 1.1804750E+01  2.2613110E+01
 1.1816251E+01  2.2666161E+01
 1.1827750E+01  2.2715477E+01
 1.1839251E+01  2.2748430E+01
 1.1850751E+01  2.2702452E+01
 1.1862250E+01  2.2720621E+01
 1.1873751E+01  2.2647501E+01
 1.1885251E+01  2.2654905E+01
 1.1896750E+01  2.2651014E+01
 1.1908251E+01  2.2665380E+01
 1.1919750E+01  2.2798193E+01
 1.1931251E+01  2.2931887E+01
 1.1942751E+01  2.3091660E+01
 1.1954250E+01  2.3383114E+01
 1.1965751E+01  2.3521000E+01
 1.1977251E+01  2.3746960E+01
 1.1988750E+01  2.3960487E+01
 1.2000251E+01  2.3994377E+01
 1.2011750E+01  2.4097622E+01
 1.2023251E+01  2.4027580E+01
 1.2034751E+01  2.4126268E+01
 1.2046250E+01  2.4308609E+01
 1.2057751E+01  2.4661949E+01
 1.2069251E+01  2.5454262E+01
 1.2080750E+01  2.6340076E+01
 1.2092251E+01  2.7554092E+01
 1.2103750E+01  2.8050611E+01
 1.2115251E+01  2.8056807E+01
 1.2126751E+01  2.7238590E+01
 1.2138250E+01  2.6396151E+01
 1.2149751E+01  2.5421526E+01
 1.2161251E+01  2.4497669E+01
 1.2172750E+01  2.3822372E+01
 1.2184251E+01  2.3335064E+01
 1.2195750E+01  2.3060497E+01
 1.2207251E+01  2.2879486E+01
 1.2218751E+01  2.2784813E+01
 1.2230250E+01  2.2724323E+01
 1.2241751E+01  2.2677179E+01
 1.2253251E+01  2.2659864E+01
 1.2264750E+01  2.2626570E+01
 1.2276251E+01  2.2600296E+01
 1.2287750E+01  2.2594355E+01
 1.2299251E+01  2.2606354E+01
 1.2310751E+01  2.2742086E+01
 1.2322250E+01  2.2734610E+01
 1.2333751E+01  2.2782589E+01
 1.2345250E+01  2.2721870E+01
 1.2356750E+01  2.2739960E+01
 1.2368251E+01  2.2744265E+01
 1.2379750E+01  2.2779430E+01
 1.2391251E+01  2.2806005E+01
 1.2402751E+01  2.2721401E+01
 1.2414250E+01  2.2606018E+01
 1.2425751E+01  2.2573208E+01
 1.2437250E+01  2.2611517E+01
 1.2448750E+01  2.2660847E+01
 1.2460251E+01  2.2692402E+01
 1.2471750E+01  2.2668112E+01
 1.2483251E+01  2.2693972E+01
 1.2494751E+01  2.2667206E+01
 1.2506250E+01  2.2679157E+01
 1.2517751E+01  2.2668879E+01
 1.2529250E+01  2.2694834E+01
 1.2540751E+01  2.2751711E+01
 1.2552251E+01  2.2780685E+01
 1.2563750E+01  2.2800863E+01
 1.2575251E+01  2.2854681E+01
 1.2586751E+01  2.2852684E+01
 1.2598250E+01  2.2874914E+01
 1.2609751E+01  2.2850742E+01
 1.2621250E+01  2.2921076E+01
 1.2632751E+01  2.2969957E+01
 1.2644251E+01  2.2969006E+01
 1.2655750E+01  2.2928322E+01
 1.2667251E+01  2.2855932E+01
 1.2678751E+01  2.2873932E+01
 1.2690250E+01  2.2895529E+01
 1.2701751E+01  2.2945505E+01
 1.2713250E+01  2.3059412E+01
 1.2724751E+01  2.3100256E+01
 1.2736251E+01  2.3160574E+01
 1.2747750E+01  2.3183746E+01
 1.2759251E+01  2.3244171E+01
 1.2770751E+01  2.3228354E+01
 1.2782250E+01  2.3246489E+01
 1.2793751E+01  2.3231688E+01
 1.2805250E+01  2.3240299E+01
 1.2816751E+01  2.3255972E+01
 1.2828251E+01  2.3302128E+01
 1.2839750E+01  2.3357187E+01
 1.2851251E+01  2.3310293E+01
 1.2862751E+01  2.3309549E+01
 1.2874250E+01  2.3323128E+01
 1.2885751E+01  2.3390291E+01
 1.2897250E+01  2.3470467E+01
 1.2908751E+01  2.3601831E+01
 1.2920251E+01  2.3676052E+01
 1.2931750E+01  2.3722509E+01
 1.2943251E+01  2.3740168E+01
 1.2954751E+01  2.3768028E+01
 1.2966250E+01  2.3821274E+01
 1.2977751E+01  2.3875328E+01
 1.2989250E+01  2.3933325E+01
 1.3000751E+01  2.3997339E+01
 1.3012251E+01  2.4076078E+01
 1.3023750E+01  2.4150196E+01
 1.3035251E+01  2.4253838E+01
 1.3046751E+01  2.4319149E+01
 1.3058250E+01  2.4426634E+01
 1.3069751E+01  2.4442085E+01
 1.3081250E+01  2.4489119E+01
 1.3092751E+01  2.4593018E+01
 1.3104251E+01  2.4731697E+01
 1.3115750E+01  2.4870155E+01
 1.3127251E+01  2.4975830E+01
 1.3138751E+01  2.5079519E+01
 1.3150250E+01  2.5208393E+01
 1.3161751E+01  2.5321472E+01
 1.3173250E+01  2.5481100E+01
 1.3184751E+01  2.5568947E+01
 1.3196251E+01  2.5670750E+01
 1.3207750E+01  2.5776306E+01
 1.3219251E+01  2.5953964E+01
 1.3230751E+01  2.6184771E+01
 1.3242250E+01  2.6364866E+01
 1.3253751E+01  2.6455301E+01
 1.3265250E+01  2.6549297E+01
 1.3276751E+01  2.6626894E+01
 1.3288251E+01  2.6791506E+01
 1.3299750E+01  2.6870359E+01
 1.3311251E+01  2.6972893E+01
 1.3322751E+01  2.7089190E+01
 1.3334250E+01  2.7220772E+01
 1.3345751E+01  2.7429951E+01
 1.3357250E+01  2.7574461E+01
 1.3368751E+01  2.7772945E+01
 1.3380251E+01  2.7952843E+01
 1.3391750E+01  2.8085613E+01
 1.3403251E+01  2.8258787E+01
 1.3414751E+01  2.8295536E+01
 1.3426250E+01  2.8440355E+01
 1.3437751E+01  2.8518761E+01
 1.3449250E+01  2.8681339E+01
 1.3460751E+01  2.8798435E+01
 1.3472251E+01  2.8867981E+01
 1.3483750E+01  2.8996969E+01
 1.3495251E+01  2.9101013E+01
 1.3506751E+01  2.9243103E+01
 1.3518250E+01  2.9326912E+01
 1.3529751E+01  2.9385485E+01
 1.3541250E+01  2.9454479E+01
 1.3552751E+01  2.9456188E+01
 1.3564251E+01  2.9484489E+01
 1.3575750E+01  2.9512791E+01
 1.3587251E+01  2.9539026E+01
 1.3598751E+01  2.9563147E+01
 1.3610250E+01  2.9582989E+01
 1.3621751E+01  2.9689177E+01
 1.3633250E+01  2.9699196E+01
 1.3644751E+01  2.9699703E+01
 1.3656251E+01  2.9681406E+01
 1.3667750E+01  2.9720039E+01
 1.3679251E+01  2.9651665E+01
 1.3690751E+01  2.9573183E+01
 1.3702250E+01  2.9529894E+01
 1.3713751E+01  2.9545515E+01
 1.3725250E+01  2.9562738E+01
 1.3736751E+01  2.9585337E+01
 1.3748251E+01  2.9586954E+01
 1.3759750E+01  2.9606092E+01
 1.3771251E+01  2.9569824E+01
 1.3782751E+01  2.9627567E+01
 1.3794250E+01  2.9656595E+01
 1.3805751E+01  2.9767637E+01
 1.3817250E+01  2.9908175E+01
 1.3828751E+01  2.9992586E+01
 1.3840251E+01  3.0108347E+01
 1.3851750E+01  3.0335505E+01
 1.3863251E+01  3.0838144E+01
 1.3874751E+01  3.1968296E+01
 1.3886250E+01  3.4016850E+01
 1.3897751E+01  3.6339664E+01
 1.3909250E+01  4.0928318E+01
 1.3920751E+01  4.4910053E+01
 1.3932251E+01  4.8371895E+01
 1.3943750E+01  5.0643681E+01
 1.3955251E+01  5.0987885E+01
 1.3966751E+01  5.0305721E+01
 1.3978251E+01  4.6692211E+01
 1.3989751E+01  4.2529221E+01
 1.4001250E+01  3.8701439E+01
 1.4012751E+01  3.4694927E+01
 1.4024251E+01  3.2457428E+01
 1.4035750E+01  3.0756166E+01
 1.4047251E+01  2.9817579E+01
 1.4058751E+01  2.9287281E+01
 1.4070251E+01  2.8898474E+01
 1.4081751E+01  2.8636545E+01
 1.4093250E+01  2.8407362E+01
 1.4104751E+01  2.8136600E+01
 1.4116251E+01  2.7903143E+01
 1.4127750E+01  2.7658981E+01
 1.4139251E+01  2.7514549E+01
 1.4150751E+01  2.7370924E+01
 1.4162251E+01  2.7326731E+01
 1.4173751E+01  2.7196859E+01
 1.4185250E+01  2.7113884E+01
 1.4196751E+01  2.6952070E+01
 1.4208251E+01  2.6872347E+01
 1.4219750E+01  2.6771442E+01
 1.4231251E+01  2.6651768E+01
 1.4242751E+01  2.6571880E+01
 1.4254251E+01  2.6473253E+01
 1.4265751E+01  2.6446541E+01
 1.4277250E+01  2.6349117E+01
 1.4288751E+01  2.6400730E+01
 1.4300251E+01  2.6392982E+01
 1.4311750E+01  2.6400314E+01
 1.4323251E+01  2.6309710E+01
 1.4334751E+01  2.6285831E+01
 1.4346251E+01  2.6279381E+01
 1.4357751E+01  2.6284512E+01
 1.4369250E+01  2.6222261E+01
 1.4380751E+01  2.6185144E+01
 1.4392251E+01  2.6118916E+01
 1.4403750E+01  2.6056961E+01
 1.4415251E+01  2.5965485E+01
 1.4426751E+01  2.5889904E+01
 1.4438251E+01  2.5854996E+01
 1.4449751E+01  2.5886532E+01
 1.4461250E+01  2.5834833E+01
 1.4472751E+01  2.5776491E+01
 1.4484251E+01  2.5675985E+01
 1.4495750E+01  2.5627653E+01
 1.4507251E+01  2.5573265E+01
 1.4518751E+01  2.5571789E+01
 1.4530251E+01  2.5625559E+01
 1.4541751E+01  2.5645428E+01
 1.4553250E+01  2.5664167E+01
 1.4564751E+01  2.5621862E+01
 1.4576251E+01  2.5595705E+01
 1.4587750E+01  2.5504387E+01
 1.4599251E+01  2.5449789E+01
 1.4610751E+01  2.5455469E+01
 1.4622251E+01  2.5422602E+01
 1.4633751E+01  2.5405638E+01
 1.4645250E+01  2.5318216E+01
 1.4656751E+01  2.5319395E+01
 1.4668251E+01  2.5309307E+01
 1.4679750E+01  2.5350180E+01
 1.4691251E+01  2.5334208E+01
 1.4702751E+01  2.5326139E+01
 1.4714251E+01  2.5270258E+01
 1.4725751E+01  2.5284849E+01
 1.4737250E+01  2.5276196E+01
 1.4748751E+01  2.5231777E+01
 1.4760251E+01  2.5168978E+01
 1.4771750E+01  2.5134041E+01
 1.4783251E+01  2.5117373E+01
 1.4794751E+01  2.5072556E+01
 1.4806251E+01  2.5002932E+01
 1.4817751E+01  2.4959986E+01
 1.4829250E+01  2.4944979E+01
 1.4840751E+01  2.4974367E+01
 1.4852251E+01  2.5007557E+01
 1.4863750E+01  2.4996969E+01
 1.4875251E+01  2.4964365E+01
 1.4886751E+01  2.4919220E+01
 1.4898251E+01  2.4899969E+01
 1.4909751E+01  2.4897408E+01
 1.4921250E+01  2.4859682E+01
 1.4932751E+01  2.4895473E+01
 1.4944251E+01  2.4888479E+01
 1.4955750E+01  2.4894882E+01
 1.4967251E+01  2.4861111E+01
 1.4978751E+01  2.4910881E+01
 1.4990251E+01  2.4900198E+01
 1.5001751E+01  2.4936142E+01
 1.5013250E+01  2.4924162E+01
 1.5024751E+01  2.4992237E+01
 1.5036251E+01  2.4908461E+01
 1.5047750E+01  2.4862570E+01
 1.5059251E+01  2.4778681E+01
 1.5070751E+01  2.4728125E+01
 1.5082251E+01  2.4682720E+01
 1.5093751E+01  2.4690933E+01
 1.5105250E+01  2.4852188E+01
 1.5116751E+01  2.4961704E+01
 1.5128251E+01  2.5131828E+01
 1.5139750E+01  2.5276896E+01
 1.5151251E+01  2.5574486E+01
 1.5162751E+01  2.5923750E+01
 1.5174251E+01  2.6388590E+01
 1.5185751E+01  2.6680258E+01
 1.5197250E+01  2.7214716E+01
 1.5208751E+01  2.7250006E+01
 1.5220251E+01  2.7082235E+01
 1.5231750E+01  2.6615513E+01
 1.5243251E+01  2.6135290E+01
 1.5254751E+01  2.5816742E+01
 1.5266251E+01  2.5286184E+01
 1.5277751E+01  2.5222515E+01
 1.5289250E+01  2.5060415E+01
 1.5300751E+01  2.4967987E+01
 1.5312251E+01  2.4903179E+01
 1.5323750E+01  2.4810339E+01
 1.5335251E+01  2.4799995E+01
 1.5346751E+01  2.4710945E+01
 1.5358251E+01  2.4734747E+01
 1.5369751E+01  2.4708542E+01
 1.5381250E+01  2.4661842E+01
 1.5392751E+01  2.4592636E+01
 1.5404251E+01  2.4595976E+01
 1.5415751E+01  2.4593800E+01
 1.5427251E+01  2.4569292E+01
 1.5438751E+01  2.4580479E+01
 1.5450251E+01  2.4581795E+01
 1.5461751E+01  2.4566149E+01
 1.5473250E+01  2.4523638E+01
 1.5484751E+01  2.4563112E+01
 1.5496251E+01  2.4593260E+01
 1.5507751E+01  2.4648478E+01
 1.5519251E+01  2.4662262E+01
 1.5530751E+01  2.4696505E+01
 1.5542251E+01  2.4643957E+01
 1.5553751E+01  2.4656483E+01
 1.5565250E+01  2.4626339E+01
 1.5576751E+01  2.4596884E+01
 1.5588251E+01  2.4515617E+01
 1.5599751E+01  2.4516409E+01
 1.5611251E+01  2.4523376E+01
 1.5622751E+01  2.4580004E+01
 1.5634251E+01  2.4615303E+01
 1.5645751E+01  2.4644379E+01
 1.5657250E+01  2.4635193E+01
 1.5668751E+01  2.4656120E+01
 1.5680251E+01  2.4631304E+01
 1.5691751E+01  2.4609440E+01
 1.5703251E+01  2.4604319E+01
 1.5714751E+01  2.4587332E+01
 1.5726251E+01  2.4609726E+01
 1.5737751E+01  2.4575006E+01
 1.5749250E+01  2.4653015E+01
 1.5760751E+01  2.4649464E+01
 1.5772251E+01  2.4663574E+01
 1.5783751E+01  2.4639795E+01
 1.5795251E+01  2.4689850E+01
 1.5806751E+01  2.4712753E+01
 1.5818251E+01  2.4718790E+01
 1.5829751E+01  2.4676846E+01
 1.5841250E+01  2.4635839E+01
 1.5852751E+01  2.4584415E+01
 1.5864251E+01  2.4591372E+01
 1.5875751E+01  2.4645445E+01
 1.5887251E+01  2.4740347E+01
 1.5898750E+01  2.4770662E+01
 1.5910251E+01  2.4840342E+01
 1.5921751E+01  2.4827969E+01
 1.5933250E+01  2.4799643E+01
 1.5944751E+01  2.4649424E+01
 1.5956251E+01  2.4577787E+01
 1.5967751E+01  2.4529108E+01
 1.5979251E+01  2.4574944E+01
 1.5990750E+01  2.4632082E+01
 1.6002251E+01  2.4700882E+01
 1.6013750E+01  2.4762167E+01
 1.6025251E+01  2.4771753E+01
 1.6036751E+01  2.4744349E+01
 1.6048250E+01  2.4734600E+01
 1.6059752E+01  2.4753428E+01
 1.6071251E+01  2.4729048E+01
 1.6082750E+01  2.4717669E+01
 1.6094252E+01  2.4715532E+01
 1.6105751E+01  2.4763281E+01
 1.6117250E+01  2.4775856E+01
 1.6128750E+01  2.4771414E+01
 1.6140251E+01  2.4845182E+01
 1.6151751E+01  2.4847874E+01
 1.6163250E+01  2.4947687E+01
 1.6174751E+01  2.4916910E+01
 1.6186251E+01  2.5076536E+01
 1.6197750E+01  2.5047974E+01
 1.6209251E+01  2.5322699E+01
 1.6220751E+01  2.5277590E+01
 1.6232250E+01  2.5562971E+01
 1.6243752E+01  2.5632463E+01
 1.6255251E+01  2.5813791E+01
 1.6266750E+01  2.5946436E+01
 1.6278252E+01  2.5705179E+01
 1.6289751E+01  2.5763807E+01
 1.6301250E+01  2.5225086E+01
 1.6312750E+01  2.5310068E+01
 1.6324251E+01  2.4910507E+01
 1.6335751E+01  2.4946623E+01
 1.6347250E+01  2.4772142E+01
 1.6358751E+01  2.4774824E+01
 1.6370251E+01  2.4723410E+01
 1.6381750E+01  2.4711449E+01
 1.6393251E+01  2.4726925E+01
 1.6404751E+01  2.4706190E+01
 1.6416250E+01  2.4687664E+01
 1.6427752E+01  2.4672840E+01
 1.6439251E+01  2.4697609E+01
 1.6450750E+01  2.4676783E+01
 1.6462252E+01  2.4681217E+01
 1.6473751E+01  2.4638863E+01
 1.6485250E+01  2.4679508E+01
 1.6496750E+01  2.4653486E+01
 1.6508251E+01  2.4655222E+01
 1.6519751E+01  2.4608503E+01
 1.6531250E+01  2.4602819E+01
 1.6542751E+01  2.4614552E+01
 1.6554251E+01  2.4618807E+01
 1.6565750E+01  2.4603022E+01
 1.6577251E+01  2.4612036E+01
 1.6588751E+01  2.4650013E+01
 1.6600250E+01  2.4691528E+01
 1.6611752E+01  2.4780708E+01
 1.6623251E+01  2.4739990E+01
 1.6634750E+01  2.4735600E+01
 1.6646252E+01  2.4652992E+01
 1.6657751E+01  2.4660578E+01
 1.6669250E+01  2.4645594E+01
 1.6680750E+01  2.4644730E+01
 1.6692251E+01  2.4642036E+01
 1.6703751E+01  2.4607096E+01
 1.6715250E+01  2.4628670E+01
 1.6726751E+01  2.4596474E+01
 1.6738251E+01  2.4586700E+01
 1.6749750E+01  2.4578018E+01
 1.6761251E+01  2.4546890E+01
 1.6772751E+01  2.4527805E+01
 1.6784250E+01  2.4469120E+01
 1.6795752E+01  2.4512135E+01
 1.6807251E+01  2.4530064E+01
 1.6818750E+01  2.4546471E+01
 1.6830252E+01  2.4521618E+01
 1.6841751E+01  2.4522682E+01
 1.6853251E+01  2.4550865E+01
 1.6864750E+01  2.4521938E+01
 1.6876251E+01  2.4544811E+01
 1.6887751E+01  2.4475252E+01
 1.6899250E+01  2.4517710E+01
 1.6910751E+01  2.4424173E+01
 1.6922251E+01  2.4469179E+01
 1.6933750E+01  2.4448009E+01
 1.6945251E+01  2.4453468E+01
 1.6956751E+01  2.4395075E+01
 1.6968250E+01  2.4376045E+01
 1.6979752E+01  2.4358923E+01
 1.6991251E+01  2.4337915E+01
 1.7002750E+01  2.4320826E+01
 1.7014252E+01  2.4378086E+01
 1.7025751E+01  2.4411518E+01
 1.7037251E+01  2.4379623E+01
 1.7048750E+01  2.4379816E+01
 1.7060251E+01  2.4365332E+01
 1.7071751E+01  2.4361956E+01
 1.7083250E+01  2.4301680E+01
 1.7094751E+01  2.4285288E+01
 1.7106251E+01  2.4276104E+01
 1.7117750E+01  2.4262129E+01
 1.7129251E+01  2.4290096E+01
 1.7140751E+01  2.4335838E+01
 1.7152250E+01  2.4349379E+01
 1.7163752E+01  2.4335608E+01
 1.7175251E+01  2.4320538E+01
 1.7186750E+01  2.4277561E+01
 1.7198252E+01  2.4219980E+01
 1.7209751E+01  2.4195375E+01
 1.7221251E+01  2.4236919E+01
 1.7232750E+01  2.4232826E+01
 1.7244251E+01  2.4259178E+01
 1.7255751E+01  2.4188972E+01
 1.7267250E+01  2.4203747E+01
 1.7278751E+01  2.4140680E+01
 1.7290251E+01  2.4133631E+01
 1.7301750E+01  2.4116808E+01
 1.7313251E+01  2.4170860E+01
 1.7324751E+01  2.4204229E+01
 1.7336250E+01  2.4202065E+01
 1.7347752E+01  2.4149149E+01
 1.7359251E+01  2.4095295E+01
 1.7370750E+01  2.4036043E+01
 1.7382252E+01  2.4004147E+01
 1.7393751E+01  2.4015078E+01
 1.7405251E+01  2.4061428E+01
 1.7416750E+01  2.4091078E+01
 1.7428251E+01  2.4124212E+01
 1.7439751E+01  2.4163383E+01
 1.7451250E+01  2.4162766E+01
 1.7462751E+01  2.4143946E+01
 1.7474251E+01  2.4071655E+01
 1.7485750E+01  2.4030975E+01
 1.7497252E+01  2.4004480E+01
 1.7508751E+01  2.4015835E+01
 1.7520250E+01  2.4029074E+01
 1.7531752E+01  2.4080666E+01
 1.7543251E+01  2.4125515E+01
 1.7554750E+01  2.4133141E+01
 1.7566252E+01  2.4103559E+01
 1.7577751E+01  2.4104519E+01
 1.7589251E+01  2.4095531E+01
 1.7600750E+01  2.4104437E+01
 1.7612251E+01  2.4060184E+01
 1.7623751E+01  2.4056242E+01
 1.7635250E+01  2.3946394E+01
 1.7646751E+01  2.3893511E+01
 1.7658251E+01  2.3819019E+01
 1.7669750E+01  2.3829390E+01
 1.7681252E+01  2.3868225E+01
 1.7692751E+01  2.3944853E+01
 1.7704250E+01  2.3957510E+01
 1.7715752E+01  2.3937197E+01
 1.7727251E+01  2.3894133E+01
 1.7738750E+01  2.3874544E+01
 1.7750252E+01  2.3809444E+01
 1.7761751E+01  2.3817657E+01
 1.7773251E+01  2.3877626E+01
 1.7784750E+01  2.3937443E+01
 1.7796251E+01  2.3960117E+01
 1.7807751E+01  2.3905962E+01
 1.7819250E+01  2.3936192E+01
 1.7830751E+01  2.3908665E+01
 1.7842251E+01  2.3957262E+01
 1.7853750E+01  2.3926708E+01
 1.7865252E+01  2.3933016E+01
 1.7876751E+01  2.3878431E+01
 1.7888250E+01  2.3884142E+01
 1.7899752E+01  2.3893026E+01
 1.7911251E+01  2.3943941E+01
 1.7922750E+01  2.3963297E+01
 1.7934252E+01  2.3960606E+01
 1.7945751E+01  2.3962408E+01
 1.7957251E+01  2.4002060E+01
 1.7968750E+01  2.4079855E+01
 1.7980251E+01  2.4172462E+01
 1.7991751E+01  2.4319099E+01
 1.8003250E+01  2.4445719E+01
 1.8014751E+01  2.4588606E+01
 1.8026251E+01  2.4676264E+01
 1.8037750E+01  2.4764832E+01
 1.8049252E+01  2.4790539E+01
 1.8060751E+01  2.4848297E+01
 1.8072250E+01  2.4939507E+01
 1.8083752E+01  2.5099735E+01
 1.8095251E+01  2.5363850E+01
 1.8106750E+01  2.5469337E+01
 1.8118252E+01  2.5628426E+01
 1.8129751E+01  2.5477264E+01
 1.8141251E+01  2.5286919E+01
 1.8152750E+01  2.4859030E+01
 1.8164251E+01  2.4573620E+01
 1.8175751E+01  2.4322727E+01
 1.8187250E+01  2.4090057E+01
 1.8198751E+01  2.3952475E+01
 1.8210251E+01  2.3892698E+01
 1.8221750E+01  2.3891844E+01
 1.8233252E+01  2.3846741E+01
 1.8244751E+01  2.3833942E+01
 1.8256250E+01  2.3863337E+01
 1.8267752E+01  2.3858036E+01
 1.8279251E+01  2.3854229E+01
 1.8290751E+01  2.3809870E+01
 1.8302252E+01  2.3811218E+01
 1.8313751E+01  2.3777124E+01
 1.8325251E+01  2.3759394E+01
 1.8336750E+01  2.3777279E+01
 1.8348251E+01  2.3798788E+01
 1.8359751E+01  2.3796318E+01
 1.8371250E+01  2.3766159E+01
 1.8382751E+01  2.3721733E+01
 1.8394251E+01  2.3722136E+01
 1.8405750E+01  2.3720896E+01
 1.8417252E+01  2.3744804E+01
 1.8428751E+01  2.3729931E+01
 1.8440250E+01  2.3723177E+01
 1.8451752E+01  2.3725002E+01
 1.8463251E+01  2.3705181E+01
 1.8474751E+01  2.3703321E+01
 1.8486252E+01  2.3664858E+01
 1.8497751E+01  2.3685951E+01
 1.8509251E+01  2.3644302E+01
 1.8520750E+01  2.3605570E+01
 1.8532251E+01  2.3547628E+01
 1.8543751E+01  2.3571531E+01
 1.8555250E+01  2.3626780E+01
 1.8566751E+01  2.3654325E+01
 1.8578251E+01  2.3696487E+01
 1.8589750E+01  2.3723108E+01
 1.8601252E+01  2.3755705E+01
 1.8612751E+01  2.3729506E+01
 1.8624250E+01  2.3674953E+01
 1.8635752E+01  2.3678106E+01
 1.8647251E+01  2.3658228E+01
 1.8658751E+01  2.3628641E+01
 1.8670252E+01  2.3624304E+01
 1.8681751E+01  2.3681093E+01
 1.8693251E+01  2.3725197E+01
 1.8704750E+01  2.3707821E+01
 1.8716251E+01  2.3659740E+01
 1.8727751E+01  2.3615618E+01
 1.8739250E+01  2.3629791E+01
 1.8750751E+01  2.3612726E+01
 1.8762251E+01  2.3599792E+01
 1.8773750E+01  2.3554789E+01
 1.8785252E+01  2.3554855E+01
 1.8796751E+01  2.3571877E+01
 1.8808250E+01  2.3556765E+01
 1.8819752E+01  2.3548775E+01
 1.8831251E+01  2.3563400E+01
 1.8842751E+01  2.3606611E+01
 1.8854252E+01  2.3600565E+01
 1.8865751E+01  2.3545021E+01
 1.8877251E+01  2.3486349E+01
 1.8888750E+01  2.3438881E+01
 1.8900251E+01  2.3485107E+01
 1.8911751E+01  2.3526279E+01
 1.8923250E+01  2.3583025E+01
 1.8934752E+01  2.3594563E+01
 1.8946251E+01  2.3680700E+01
 1.8957750E+01  2.3704639E+01
 1.8969252E+01  2.3733570E+01
 1.8980751E+01  2.3683252E+01
 1.8992250E+01  2.3642162E+01
 1.9003752E+01  2.3595585E+01
 1.9015251E+01  2.3609640E+01
 1.9026751E+01  2.3616049E+01
 1.9038252E+01  2.3618813E+01
 1.9049751E+01  2.3612469E+01
 1.9061251E+01  2.3621372E+01
 1.9072750E+01  2.3644508E+01
 1.9084251E+01  2.3674377E+01
 1.9095751E+01  2.3607857E+01
 1.9107250E+01  2.3591116E+01
 1.9118752E+01  2.3587637E+01
 1.9130251E+01  2.3675739E+01
 1.9141750E+01  2.3664930E+01
 1.9153252E+01  2.3704370E+01
 1.9164751E+01  2.3638418E+01
 1.9176250E+01  2.3587618E+01
 1.9187752E+01  2.3571165E+01
 1.9199251E+01  2.3634407E+01
 1.9210751E+01  2.3708652E+01
 1.9222252E+01  2.3696762E+01
 1.9233751E+01  2.3694750E+01
 1.9245251E+01  2.3651848E+01
 1.9256750E+01  2.3653591E+01
 1.9268251E+01  2.3671650E+01
 1.9279751E+01  2.3682615E+01
 1.9291250E+01  2.3721807E+01
 1.9302752E+01  2.3727030E+01
 1.9314251E+01  2.3756100E+01
 1.9325750E+01  2.3719690E+01
 1.9337252E+01  2.3744936E+01
 1.9348751E+01  2.3743198E+01
 1.9360250E+01  2.3794636E+01
 1.9371752E+01  2.3804678E+01
 1.9383251E+01  2.3838982E+01
 1.9394751E+01  2.3869190E+01
 1.9406250E+01  2.3867718E+01
 1.9417751E+01  2.3829153E+01
 1.9429251E+01  2.3803255E+01
 1.9440750E+01  2.3781897E+01
 1.9452251E+01  2.3814501E+01
 1.9463751E+01  2.3818581E+01
 1.9475250E+01  2.3815269E+01
 1.9486752E+01  2.3796297E+01
 1.9498251E+01  2.3790144E+01
 1.9509750E+01  2.3828735E+01
 1.9521252E+01  2.3863108E+01
 1.9532751E+01  2.3926109E+01
 1.9544250E+01  2.4021288E+01
 1.9555752E+01  2.4044043E+01
 1.9567251E+01  2.4097950E+01
 1.9578751E+01  2.4110081E+01
 1.9590250E+01  2.4149673E+01
 1.9601751E+01  2.4187185E+01
 1.9613251E+01  2.4286268E+01
 1.9624750E+01  2.4463171E+01
 1.9636251E+01  2.4764273E+01
 1.9647751E+01  2.5099533E+01
 1.9659250E+01  2.5881060E+01
 1.9670752E+01  2.6590975E+01
 1.9682251E+01  2.7582130E+01
 1.9693750E+01  2.8810793E+01
 1.9705252E+01  2.9581142E+01
 1.9716751E+01  3.0298496E+01
 1.9728251E+01  2.9939177E+01
 1.9739752E+01  2.9441092E+01
 1.9751251E+01  2.8178606E+01
 1.9762751E+01  2.6999002E+01
 1.9774250E+01  2.6322924E+01
 1.9785751E+01  2.5841814E+01
 1.9797251E+01  2.5901241E+01
 1.9808750E+01  2.6077866E+01
 1.9820251E+01  2.6567200E+01
 1.9831751E+01  2.7355133E+01
 1.9843250E+01  2.7979845E+01
 1.9854752E+01  2.8801205E+01
 1.9866251E+01  2.8610556E+01
 1.9877750E+01  2.8623564E+01
 1.9889252E+01  2.7696590E+01
 1.9900751E+01  2.7027880E+01
 1.9912251E+01  2.6101959E+01
 1.9923752E+01  2.5372736E+01
 1.9935251E+01  2.4919209E+01
 1.9946751E+01  2.4550119E+01
 1.9958250E+01  2.4365793E+01
 1.9969751E+01  2.4204319E+01
 1.9981251E+01  2.4123796E+01
 1.9992750E+01  2.4096611E+01
 2.0004251E+01  2.4077801E+01
 2.0015751E+01  2.4058533E+01
 2.0027250E+01  2.4013893E+01
 2.0038752E+01  2.4011358E+01
 2.0050251E+01  2.4004156E+01
 2.0061750E+01  2.4011824E+01
 2.0073252E+01  2.3989923E+01
 2.0084751E+01  2.4028419E+01
 2.0096251E+01  2.4027355E+01
 2.0107752E+01  2.4039244E+01
 2.0119251E+01  2.4027397E+01
 2.0130751E+01  2.3984678E+01
 2.0142250E+01  2.3928837E+01
 2.0153751E+01  2.3866245E+01
 2.0165251E+01  2.3846928E+01
 2.0176750E+01  2.3864576E+01
 2.0188251E+01  2.3877745E+01
 2.0199751E+01  2.3893541E+01
 2.0211250E+01  2.3893139E+01
 2.0222752E+01  2.3922909E+01
 2.0234251E+01  2.3869686E+01
 2.0245750E+01  2.3885525E+01
 2.0257252E+01  2.3878103E+01
 2.0268751E+01  2.3915531E+01
 2.0280251E+01  2.3925367E+01
 2.0291752E+01  2.3954893E+01
 2.0303251E+01  2.3974857E+01
 2.0314751E+01  2.3944183E+01
 2.0326250E+01  2.3923851E+01
 2.0337751E+01  2.3943712E+01
 2.0349251E+01  2.3988760E+01
 2.0360750E+01  2.3979885E+01
 2.0372252E+01  2.3912798E+01
 2.0383751E+01  2.3863020E+01
 2.0395250E+01  2.3871498E+01
 2.0406752E+01  2.3895590E+01
 2.0418251E+01  2.3968155E+01
 2.0429750E+01  2.3941755E+01
 2.0441252E+01  2.3918678E+01
 2.0452751E+01  2.3862101E+01
 2.0464251E+01  2.3838253E+01
 2.0475752E+01  2.3864548E+01
 2.0487251E+01  2.3860258E+01
 2.0498751E+01  2.3901236E+01
 2.0510250E+01  2.3879452E+01
 2.0521751E+01  2.3863199E+01
 2.0533251E+01  2.5138502E+01
 2.0544750E+01  6.0479038E+01
 2.0556252E+01  6.2136826E+01
 2.0567751E+01  8.6747574E+01
 2.0579250E+01  1.1086334E+02
 2.0590752E+01  1.1255354E+02
 2.0602251E+01  1.0566568E+02
 2.0613750E+01  8.1632507E+01
 2.0625252E+01  7.2805000E+01
 2.0636751E+01  2.4660973E+01
 2.0648251E+01  2.4374134E+01
 2.0659752E+01  2.4263680E+01
 2.0671251E+01  2.4322870E+01
 2.0682751E+01  2.4521065E+01
 2.0694250E+01  2.4809366E+01
 2.0705751E+01  2.5308994E+01
 2.0717251E+01  2.5906895E+01
 2.0728750E+01  2.6569042E+01
 2.0740252E+01  2.7320847E+01
 2.0751751E+01  2.8065042E+01
 2.0763250E+01  2.8644472E+01
 2.0774752E+01  2.8868204E+01
 2.0786251E+01  2.8634386E+01
 2.0797750E+01  2.7837446E+01
 2.0809252E+01  2.6974558E+01
 2.0820751E+01  2.5961613E+01
 2.0832251E+01  2.5337656E+01
 2.0843752E+01  2.4814119E+01
 2.0855251E+01  2.4600653E+01
 2.0866751E+01  2.4440405E+01
 2.0878250E+01  2.4316233E+01
 2.0889751E+01  2.4265600E+01
 2.0901251E+01  2.4259598E+01
 2.0912750E+01  2.4255245E+01
 2.0924252E+01  2.4218388E+01
 2.0935751E+01  2.4211853E+01
 2.0947250E+01  2.4238220E+01
 2.0958752E+01  2.4166964E+01
 2.0970251E+01  2.4140751E+01
 2.0981750E+01  2.4089399E+01
 2.0993252E+01  2.4093924E+01
 2.1004751E+01  2.4112776E+01
 2.1016251E+01  2.4129698E+01
 2.1027752E+01  2.4119846E+01
 2.1039251E+01  2.4090620E+01
 2.1050751E+01  2.3977831E+01
 2.1062250E+01  2.3926659E+01
 2.1073751E+01  2.3927589E+01
 2.1085251E+01  2.3928574E+01
 2.1096750E+01  2.3898741E+01
 2.1108252E+01  2.3891987E+01
 2.1119751E+01  2.3977798E+01
 2.1131250E+01  2.4014582E+01
 2.1142752E+01  2.4022627E+01
 2.1154251E+01  2.3949329E+01
 2.1165751E+01  2.3958216E+01
 2.1177252E+01  2.3976265E+01
 2.1188751E+01  2.3971518E+01
 2.1200251E+01  2.4011902E+01
 2.1211752E+01  2.4024445E+01
 2.1223251E+01  2.4035646E+01
 2.1234751E+01  2.4041447E+01
 2.1246250E+01  2.4057911E+01
 2.1257751E+01  2.4088556E+01
 2.1269251E+01  2.4081867E+01
 2.1280750E+01  2.4085407E+01
 2.1292252E+01  2.4081930E+01
 2.1303751E+01  2.4091347E+01
 2.1315250E+01  2.4068533E+01
 2.1326752E+01  2.4076727E+01
 2.1338251E+01  2.4053225E+01
 2.1349751E+01  2.4039736E+01
 2.1361252E+01  2.4035091E+01
 2.1372751E+01  2.4093225E+01
 2.1384251E+01  2.4084402E+01
 2.1395752E+01  2.4079531E+01
 2.1407251E+01  2.4085419E+01
 2.1418751E+01  2.4111370E+01
 2.1430250E+01  2.4077435E+01
 2.1441751E+01  2.4037029E+01
 2.1453251E+01  2.4002487E+01
 2.1464750E+01  2.4034424E+01
 2.1476252E+01  2.4011990E+01
 2.1487751E+01  2.4049397E+01
 2.1499250E+01  2.4032722E+01
 2.1510752E+01  2.4079361E+01
 2.1522251E+01  2.4088234E+01
 2.1533751E+01  2.4082066E+01
 2.1545252E+01  2.4056538E+01
 2.1556751E+01  2.4069565E+01
 2.1568251E+01  2.4070126E+01
 2.1579752E+01  2.4062080E+01
 2.1591251E+01  2.4105354E+01
 2.1602751E+01  2.4231911E+01
 2.1614250E+01  2.4317595E+01
 2.1625751E+01  2.4312504E+01
 2.1637251E+01  2.4226061E+01
 2.1648750E+01  2.4204649E+01
 2.1660252E+01  2.4194715E+01
 2.1671751E+01  2.4187220E+01
 2.1683250E+01  2.4159777E+01
 2.1694752E+01  2.4151018E+01
 2.1706251E+01  2.4129816E+01
 2.1717751E+01  2.4143843E+01
 2.1729252E+01  2.4149101E+01
 2.1740751E+01  2.4159449E+01
 2.1752251E+01  2.4131737E+01
 2.1763752E+01  2.4177641E+01
 2.1775251E+01  2.4217438E+01
 2.1786751E+01  2.4255646E+01
 2.1798250E+01  2.4329025E+01
 2.1809752E+01  2.4399675E+01
 2.1821251E+01  2.4391041E+01
 2.1832750E+01  2.4330700E+01
 2.1844252E+01  2.4305031E+01
 2.1855751E+01  2.4308897E+01
 2.1867250E+01  2.4295225E+01
 2.1878752E+01  2.4308844E+01
 2.1890251E+01  2.4292606E+01
 2.1901751E+01  2.4269352E+01
 2.1913252E+01  2.4238348E+01
 2.1924751E+01  2.4291330E+01
 2.1936251E+01  2.4345940E+01
 2.1947752E+01  2.4364801E+01
 2.1959251E+01  2.4344559E+01
 2.1970751E+01  2.4331367E+01
 2.1982250E+01  2.4314003E+01
 2.1993752E+01  2.4271252E+01
 2.2005251E+01  2.4264923E+01
 2.2016750E+01  2.4286762E+01
 2.2028252E+01  2.4281591E+01
 2.2039751E+01  2.4289946E+01
 2.2051250E+01  2.4285633E+01
 2.2062752E+01  2.4294933E+01
 2.2074251E+01  2.4295094E+01
 2.2085751E+01  2.4348545E+01
 2.2097252E+01  2.4370548E+01
 2.2108751E+01  2.4382858E+01
 2.2120251E+01  2.4431278E+01
 2.2131752E+01  2.4438259E+01
 2.2143251E+01  2.4447779E+01
 2.2154751E+01  2.4429260E+01
 2.2166250E+01  2.4415642E+01
 2.2177752E+01  2.4379679E+01
 2.2189251E+01  2.4321882E+01
 2.2200750E+01  2.4291477E+01
 2.2212252E+01  2.4341951E+01
 2.2223751E+01  2.4413935E+01
 2.2235250E+01  2.4449656E+01
 2.2246752E+01  2.4476416E+01
 2.2258251E+01  2.4475019E+01
 2.2269751E+01  2.4491699E+01
 2.2281252E+01  2.4473604E+01
 2.2292751E+01  2.4500916E+01
 2.2304251E+01  2.4548491E+01
 2.2315752E+01  2.4579947E+01
 2.2327251E+01  2.4583595E+01
 2.2338751E+01  2.4552101E+01
 2.2350250E+01  2.4529440E+01
 2.2361752E+01  2.4510483E+01
 2.2373251E+01  2.4567705E+01
 2.2384750E+01  2.4611086E+01
 2.2396252E+01  2.4603481E+01
 2.2407751E+01  2.4587034E+01
 2.2419250E+01  2.4606894E+01
 2.2430752E+01  2.4655279E+01
 2.2442251E+01  2.4723207E+01
 2.2453751E+01  2.4786154E+01
 2.2465252E+01  2.4766413E+01
 2.2476751E+01  2.4740513E+01
 2.2488251E+01  2.4753220E+01
 2.2499752E+01  2.4834003E+01
 2.2511251E+01  2.4893856E+01
 2.2522751E+01  2.4926912E+01
 2.2534250E+01  2.4950064E+01
 2.2545752E+01  2.4980219E+01
 2.2557251E+01  2.5002983E+01
 2.2568750E+01  2.4984583E+01
 2.2580252E+01  2.4952291E+01
 2.2591751E+01  2.4975935E+01
 2.2603251E+01  2.5020897E+01
 2.2614752E+01  2.5082075E+01
 2.2626251E+01  2.5086025E+01
 2.2637751E+01  2.5052086E+01
 2.2649252E+01  2.5011293E+01
 2.2660751E+01  2.4983459E+01
 2.2672251E+01  2.4967257E+01
 2.2683752E+01  2.5038397E+01
 2.2695251E+01  2.5156603E+01
 2.2706751E+01  2.5223162E+01
 2.2718250E+01  2.5226524E+01
 2.2729752E+01  2.5238165E+01
 2.2741251E+01  2.5298285E+01
 2.2752750E+01  2.5381605E+01
 2.2764252E+01  2.5438643E+01
 2.2775751E+01  2.5473427E+01
 2.2787251E+01  2.5484636E+01
 2.2798752E+01  2.5537542E+01
 2.2810251E+01  2.5587259E+01
 2.2821751E+01  2.5625832E+01
 2.2833252E+01  2.5657642E+01
 2.2844751E+01  2.5647049E+01
 2.2856251E+01  2.5643476E+01
 2.2867750E+01  2.5706526E+01
 2.2879251E+01  2.5778690E+01
 2.2890751E+01  2.5907669E+01
 2.2902250E+01  2.5991026E+01
 2.2913752E+01  2.6069672E+01
 2.2925251E+01  2.6156574E+01
 2.2936750E+01  2.6166494E+01
 2.2948252E+01  2.6253902E+01
 2.2959751E+01  2.6307720E+01
 2.2971251E+01  2.6436340E+01
 2.2982752E+01  2.6627050E+01
 2.2994251E+01  2.6783958E+01
