F:\20151113_APS_34IDE\\Brian\Particle1\OCV\Data_0081.tif
2-Theta Angle (Degrees)
Intensity
       2000
 5.7500005E-03  0.0000000E+00
 1.7250001E-02  0.0000000E+00
 2.8750001E-02  0.0000000E+00
 4.0250003E-02  0.0000000E+00
 5.1750004E-02  0.0000000E+00
 6.3250005E-02  0.0000000E+00
 7.4750006E-02  0.0000000E+00
 8.6250007E-02  0.0000000E+00
 9.7750008E-02  0.0000000E+00
 1.0925001E-01  0.0000000E+00
 1.2075000E-01  0.0000000E+00
 1.3225001E-01  0.0000000E+00
 1.4375001E-01  0.0000000E+00
 1.5525001E-01  0.0000000E+00
 1.6675001E-01  0.0000000E+00
 1.7825001E-01  0.0000000E+00
 1.8975002E-01  0.0000000E+00
 2.0125002E-01  0.0000000E+00
 2.1275002E-01  0.0000000E+00
 2.2425000E-01  0.0000000E+00
 2.3575000E-01  0.0000000E+00
 2.4725001E-01  0.0000000E+00
 2.5875002E-01  0.0000000E+00
 2.7025002E-01  0.0000000E+00
 2.8175002E-01  0.0000000E+00
 2.9325002E-01  0.0000000E+00
 3.0475003E-01  0.0000000E+00
 3.1625003E-01  0.0000000E+00
 3.2775003E-01  0.0000000E+00
 3.3925003E-01  0.0000000E+00
 3.5075003E-01  0.0000000E+00
 3.6225003E-01  0.0000000E+00
 3.7375003E-01  0.0000000E+00
 3.8525003E-01  0.0000000E+00
 3.9675003E-01  0.0000000E+00
 4.0825003E-01  0.0000000E+00
 4.1975003E-01  0.0000000E+00
 4.3125004E-01  0.0000000E+00
 4.4275001E-01  0.0000000E+00
 4.5425001E-01  0.0000000E+00
 4.6575001E-01  0.0000000E+00
 4.7725001E-01  0.0000000E+00
 4.8875001E-01  0.0000000E+00
 5.0025004E-01  0.0000000E+00
 5.1175004E-01  0.0000000E+00
 5.2325004E-01  0.0000000E+00
 5.3475004E-01  0.0000000E+00
 5.4625005E-01  0.0000000E+00
 5.5775005E-01  0.0000000E+00
 5.6925005E-01  0.0000000E+00
 5.8075005E-01  0.0000000E+00
 5.9225005E-01  0.0000000E+00
 6.0375005E-01  0.0000000E+00
 6.1525005E-01  0.0000000E+00
 6.2675005E-01  0.0000000E+00
 6.3825005E-01  0.0000000E+00
 6.4975005E-01  0.0000000E+00
 6.6125005E-01  0.0000000E+00
 6.7275006E-01  0.0000000E+00
 6.8425006E-01  0.0000000E+00
 6.9575006E-01  0.0000000E+00
 7.0725006E-01  0.0000000E+00
 7.1875006E-01  0.0000000E+00
 7.3025006E-01  0.0000000E+00
 7.4175006E-01  0.0000000E+00
 7.5325006E-01  0.0000000E+00
 7.6475006E-01  0.0000000E+00
 7.7625006E-01  0.0000000E+00
 7.8775007E-01  0.0000000E+00
 7.9925007E-01  0.0000000E+00
 8.1075007E-01  0.0000000E+00
 8.2225007E-01  0.0000000E+00
 8.3375007E-01  0.0000000E+00
 8.4525007E-01  0.0000000E+00
 8.5675007E-01  0.0000000E+00
 8.6825007E-01  0.0000000E+00
 8.7975001E-01  0.0000000E+00
 8.9125001E-01  0.0000000E+00
 9.0275002E-01  0.0000000E+00
 9.1425002E-01  0.0000000E+00
 9.2575002E-01  0.0000000E+00
 9.3725002E-01  0.0000000E+00
 9.4875002E-01  0.0000000E+00
 9.6025002E-01  0.0000000E+00
 9.7175002E-01  0.0000000E+00
 9.8325002E-01  0.0000000E+00
 9.9475002E-01  0.0000000E+00
 1.0062500E+00  0.0000000E+00
 1.0177500E+00  0.0000000E+00
 1.0292500E+00  0.0000000E+00
 1.0407500E+00  0.0000000E+00
 1.0522500E+00  0.0000000E+00
 1.0637500E+00  0.0000000E+00
 1.0752500E+00  0.0000000E+00
 1.0867500E+00  0.0000000E+00
 1.0982500E+00  0.0000000E+00
 1.1097500E+00  0.0000000E+00
 1.1212500E+00  0.0000000E+00
 1.1327500E+00  0.0000000E+00
 1.1442500E+00  0.0000000E+00
 1.1557500E+00  0.0000000E+00
 1.1672500E+00  0.0000000E+00
 1.1787500E+00  0.0000000E+00
 1.1902500E+00  0.0000000E+00
 1.2017500E+00  0.0000000E+00
 1.2132500E+00  0.0000000E+00
 1.2247500E+00  0.0000000E+00
 1.2362500E+00  0.0000000E+00
 1.2477500E+00  0.0000000E+00
 1.2592500E+00  0.0000000E+00
 1.2707500E+00  0.0000000E+00
 1.2822500E+00  0.0000000E+00
 1.2937500E+00  0.0000000E+00
 1.3052500E+00  0.0000000E+00
 1.3167500E+00  0.0000000E+00
 1.3282501E+00  0.0000000E+00
 1.3397501E+00  0.0000000E+00
 1.3512501E+00  0.0000000E+00
 1.3627501E+00  0.0000000E+00
 1.3742501E+00  0.0000000E+00
 1.3857501E+00  0.0000000E+00
 1.3972501E+00  0.0000000E+00
 1.4087501E+00  0.0000000E+00
 1.4202501E+00  0.0000000E+00
 1.4317501E+00  0.0000000E+00
 1.4432501E+00  0.0000000E+00
 1.4547501E+00  0.0000000E+00
 1.4662501E+00  0.0000000E+00
 1.4777501E+00  0.0000000E+00
 1.4892501E+00  0.0000000E+00
 1.5007501E+00  0.0000000E+00
 1.5122501E+00  0.0000000E+00
 1.5237501E+00  0.0000000E+00
 1.5352501E+00  0.0000000E+00
 1.5467501E+00  0.0000000E+00
 1.5582501E+00  0.0000000E+00
 1.5697501E+00  0.0000000E+00
 1.5812501E+00  0.0000000E+00
 1.5927501E+00  0.0000000E+00
 1.6042501E+00  0.0000000E+00
 1.6157501E+00  0.0000000E+00
 1.6272501E+00  0.0000000E+00
 1.6387501E+00  0.0000000E+00
 1.6502501E+00  0.0000000E+00
 1.6617501E+00  0.0000000E+00
 1.6732501E+00  0.0000000E+00
 1.6847501E+00  0.0000000E+00
 1.6962501E+00  0.0000000E+00
 1.7077501E+00  0.0000000E+00
 1.7192501E+00  0.0000000E+00
 1.7307501E+00  0.0000000E+00
 1.7422501E+00  0.0000000E+00
 1.7537501E+00  0.0000000E+00
 1.7652501E+00  0.0000000E+00
 1.7767501E+00  0.0000000E+00
 1.7882501E+00  0.0000000E+00
 1.7997501E+00  0.0000000E+00
 1.8112501E+00  0.0000000E+00
 1.8227501E+00  0.0000000E+00
 1.8342501E+00  0.0000000E+00
 1.8457501E+00  0.0000000E+00
 1.8572501E+00  0.0000000E+00
 1.8687501E+00  0.0000000E+00
 1.8802501E+00  0.0000000E+00
 1.8917501E+00  0.0000000E+00
 1.9032501E+00  0.0000000E+00
 1.9147501E+00  0.0000000E+00
 1.9262501E+00  0.0000000E+00
 1.9377501E+00  0.0000000E+00
 1.9492501E+00  0.0000000E+00
 1.9607501E+00  0.0000000E+00
 1.9722501E+00  0.0000000E+00
 1.9837501E+00  0.0000000E+00
 1.9952501E+00  0.0000000E+00
 2.0067501E+00  0.0000000E+00
 2.0182500E+00  0.0000000E+00
 2.0297501E+00  0.0000000E+00
 2.0412500E+00  0.0000000E+00
 2.0527501E+00  0.0000000E+00
 2.0642500E+00  0.0000000E+00
 2.0757501E+00  0.0000000E+00
 2.0872500E+00  0.0000000E+00
 2.0987501E+00  0.0000000E+00
 2.1102500E+00  0.0000000E+00
 2.1217501E+00  0.0000000E+00
 2.1332500E+00  0.0000000E+00
 2.1447501E+00  0.0000000E+00
 2.1562500E+00  0.0000000E+00
 2.1677501E+00  0.0000000E+00
 2.1792500E+00  0.0000000E+00
 2.1907501E+00  0.0000000E+00
 2.2022500E+00  0.0000000E+00
 2.2137501E+00  0.0000000E+00
 2.2252500E+00  0.0000000E+00
 2.2367501E+00  0.0000000E+00
 2.2482500E+00  0.0000000E+00
 2.2597501E+00  0.0000000E+00
 2.2712500E+00  0.0000000E+00
 2.2827501E+00  0.0000000E+00
 2.2942500E+00  0.0000000E+00
 2.3057501E+00  0.0000000E+00
 2.3172500E+00  0.0000000E+00
 2.3287501E+00  0.0000000E+00
 2.3402500E+00  0.0000000E+00
 2.3517501E+00  0.0000000E+00
 2.3632500E+00  0.0000000E+00
 2.3747501E+00  0.0000000E+00
 2.3862500E+00  0.0000000E+00
 2.3977501E+00  0.0000000E+00
 2.4092500E+00  0.0000000E+00
 2.4207501E+00  0.0000000E+00
 2.4322500E+00  0.0000000E+00
 2.4437501E+00  0.0000000E+00
 2.4552500E+00  0.0000000E+00
 2.4667501E+00  0.0000000E+00
 2.4782500E+00  0.0000000E+00
 2.4897501E+00  0.0000000E+00
 2.5012500E+00  0.0000000E+00
 2.5127501E+00  0.0000000E+00
 2.5242500E+00  0.0000000E+00
 2.5357502E+00  0.0000000E+00
 2.5472500E+00  0.0000000E+00
 2.5587502E+00  0.0000000E+00
 2.5702500E+00  0.0000000E+00
 2.5817502E+00  0.0000000E+00
 2.5932500E+00  0.0000000E+00
 2.6047502E+00  0.0000000E+00
 2.6162500E+00  0.0000000E+00
 2.6277502E+00  0.0000000E+00
 2.6392500E+00  0.0000000E+00
 2.6507502E+00  0.0000000E+00
 2.6622500E+00  0.0000000E+00
 2.6737502E+00  0.0000000E+00
 2.6852500E+00  0.0000000E+00
 2.6967502E+00  0.0000000E+00
 2.7082500E+00  0.0000000E+00
 2.7197502E+00  0.0000000E+00
 2.7312500E+00  0.0000000E+00
 2.7427502E+00  0.0000000E+00
 2.7542500E+00  0.0000000E+00
 2.7657502E+00  0.0000000E+00
 2.7772501E+00  0.0000000E+00
 2.7887502E+00  0.0000000E+00
 2.8002501E+00  0.0000000E+00
 2.8117502E+00  0.0000000E+00
 2.8232501E+00  3.2244083E+01
 2.8347502E+00  3.2953255E+01
 2.8462501E+00  3.2929157E+01
 2.8577502E+00  3.2972485E+01
 2.8692501E+00  3.3258896E+01
 2.8807502E+00  3.3821232E+01
 2.8922501E+00  3.4278522E+01
 2.9037502E+00  3.4501408E+01
 2.9152501E+00  3.4370815E+01
 2.9267502E+00  3.4378651E+01
 2.9382501E+00  3.4353035E+01
 2.9497502E+00  3.4666519E+01
 2.9612501E+00  3.4683338E+01
 2.9727502E+00  3.4869389E+01
 2.9842501E+00  3.4840584E+01
 2.9957502E+00  3.5205914E+01
 3.0072501E+00  3.5588821E+01
 3.0187502E+00  3.6220432E+01
 3.0302501E+00  3.6254120E+01
 3.0417502E+00  3.6331367E+01
 3.0532501E+00  3.5517380E+01
 3.0647502E+00  3.5186264E+01
 3.0762501E+00  3.4693386E+01
 3.0877502E+00  3.4552120E+01
 3.0992501E+00  3.4253609E+01
 3.1107502E+00  3.3662292E+01
 3.1222501E+00  3.3772976E+01
 3.1337502E+00  3.3873337E+01
 3.1452501E+00  3.4517097E+01
 3.1567502E+00  3.4728130E+01
 3.1682501E+00  3.4835739E+01
 3.1797502E+00  3.5303696E+01
 3.1912501E+00  3.5040333E+01
 3.2027502E+00  3.4941971E+01
 3.2142501E+00  3.4473751E+01
 3.2257502E+00  3.4384666E+01
 3.2372501E+00  3.4095093E+01
 3.2487502E+00  3.3630474E+01
 3.2602501E+00  3.3621056E+01
 3.2717502E+00  3.3586250E+01
 3.2832501E+00  3.3738605E+01
 3.2947502E+00  3.3704758E+01
 3.3062501E+00  3.3823730E+01
 3.3177502E+00  3.4027000E+01
 3.3292501E+00  3.4018570E+01
 3.3407502E+00  3.3722187E+01
 3.3522501E+00  3.3284122E+01
 3.3637502E+00  3.3318142E+01
 3.3752501E+00  3.3438084E+01
 3.3867502E+00  3.3602764E+01
 3.3982501E+00  3.3508331E+01
 3.4097502E+00  3.3812603E+01
 3.4212501E+00  3.3718513E+01
 3.4327502E+00  3.3996120E+01
 3.4442501E+00  3.3923592E+01
 3.4557502E+00  3.4152000E+01
 3.4672501E+00  3.4229008E+01
 3.4787502E+00  3.4040966E+01
 3.4902501E+00  3.4002354E+01
 3.5017502E+00  3.3674732E+01
 3.5132501E+00  3.3609371E+01
 3.5247502E+00  3.3214367E+01
 3.5362501E+00  3.3376801E+01
 3.5477502E+00  3.3088520E+01
 3.5592501E+00  3.3002422E+01
 3.5707502E+00  3.2898186E+01
 3.5822501E+00  3.2718433E+01
 3.5937502E+00  3.2857136E+01
 3.6052501E+00  3.2864281E+01
 3.6167502E+00  3.3136353E+01
 3.6282501E+00  3.3258335E+01
 3.6397502E+00  3.3238701E+01
 3.6512501E+00  3.3082329E+01
 3.6627502E+00  3.3019493E+01
 3.6742501E+00  3.2818851E+01
 3.6857502E+00  3.2849789E+01
 3.6972501E+00  3.2783497E+01
 3.7087502E+00  3.2710960E+01
 3.7202501E+00  3.2764881E+01
 3.7317502E+00  3.2873135E+01
 3.7432501E+00  3.3025654E+01
 3.7547503E+00  3.2921524E+01
 3.7662501E+00  3.2945412E+01
 3.7777503E+00  3.2876415E+01
 3.7892501E+00  3.2767387E+01
 3.8007503E+00  3.2439777E+01
 3.8122501E+00  3.2327362E+01
 3.8237503E+00  3.2105698E+01
 3.8352501E+00  3.2040943E+01
 3.8467503E+00  3.1917503E+01
 3.8582501E+00  3.1982002E+01
 3.8697503E+00  3.2113869E+01
 3.8812501E+00  3.2274792E+01
 3.8927503E+00  3.2317635E+01
 3.9042501E+00  3.2482914E+01
 3.9157503E+00  3.2503223E+01
 3.9272501E+00  3.2675007E+01
 3.9387503E+00  3.2736591E+01
 3.9502501E+00  3.2519276E+01
 3.9617503E+00  3.2434921E+01
 3.9732502E+00  3.2180099E+01
 3.9847503E+00  3.2099400E+01
 3.9962502E+00  3.1848278E+01
 4.0077500E+00  3.1666851E+01
 4.0192504E+00  3.1616001E+01
 4.0307503E+00  3.1541815E+01
 4.0422502E+00  3.1711750E+01
 4.0537500E+00  3.1796192E+01
 4.0652504E+00  3.1983234E+01
 4.0767503E+00  3.2011486E+01
 4.0882502E+00  3.2066093E+01
 4.0997500E+00  3.2005680E+01
 4.1112504E+00  3.1960241E+01
 4.1227503E+00  3.1648554E+01
 4.1342502E+00  3.1594570E+01
 4.1457500E+00  3.1492416E+01
 4.1572504E+00  3.1672298E+01
 4.1687503E+00  3.1584103E+01
 4.1802502E+00  3.1498455E+01
 4.1917500E+00  3.1399841E+01
 4.2032504E+00  3.1285986E+01
 4.2147503E+00  3.1303923E+01
 4.2262502E+00  3.1377905E+01
 4.2377501E+00  3.1282970E+01
 4.2492504E+00  3.1251566E+01
 4.2607503E+00  3.1273542E+01
 4.2722502E+00  3.1367758E+01
 4.2837501E+00  3.1455467E+01
 4.2952504E+00  3.1277050E+01
 4.3067503E+00  3.1383396E+01
 4.3182502E+00  3.1475452E+01
 4.3297501E+00  3.1744610E+01
 4.3412504E+00  3.1832247E+01
 4.3527503E+00  3.2003494E+01
 4.3642502E+00  3.1904190E+01
 4.3757501E+00  3.2069141E+01
 4.3872504E+00  3.2130325E+01
 4.3987503E+00  3.2243042E+01
 4.4102502E+00  3.2144958E+01
 4.4217501E+00  3.2101685E+01
 4.4332504E+00  3.2064186E+01
 4.4447503E+00  3.2119030E+01
 4.4562502E+00  3.2183891E+01
 4.4677501E+00  3.2321735E+01
 4.4792504E+00  3.2353870E+01
 4.4907503E+00  3.2300575E+01
 4.5022502E+00  3.2355392E+01
 4.5137501E+00  3.2362797E+01
 4.5252504E+00  3.2561520E+01
 4.5367503E+00  3.2663464E+01
 4.5482502E+00  3.2720146E+01
 4.5597501E+00  3.2591042E+01
 4.5712504E+00  3.2399391E+01
 4.5827503E+00  3.2364433E+01
 4.5942502E+00  3.2337994E+01
 4.6057501E+00  3.2273281E+01
 4.6172504E+00  3.2271915E+01
 4.6287503E+00  3.2393456E+01
 4.6402502E+00  3.2486752E+01
 4.6517501E+00  3.2601665E+01
 4.6632504E+00  3.2612148E+01
 4.6747503E+00  3.2722820E+01
 4.6862502E+00  3.2774532E+01
 4.6977501E+00  3.2755650E+01
 4.7092505E+00  3.2648624E+01
 4.7207503E+00  3.2596191E+01
 4.7322502E+00  3.2432827E+01
 4.7437501E+00  3.2501461E+01
 4.7552505E+00  3.2336151E+01
 4.7667503E+00  3.2393013E+01
 4.7782502E+00  3.2311192E+01
 4.7897501E+00  3.2406105E+01
 4.8012505E+00  3.2281078E+01
 4.8127503E+00  3.2204319E+01
 4.8242502E+00  3.2103283E+01
 4.8357501E+00  3.2082664E+01
 4.8472505E+00  3.2216370E+01
 4.8587503E+00  3.2310745E+01
 4.8702502E+00  3.2452358E+01
 4.8817501E+00  3.2607697E+01
 4.8932505E+00  3.2672623E+01
 4.9047503E+00  3.2674473E+01
 4.9162502E+00  3.2621902E+01
 4.9277501E+00  3.2488880E+01
 4.9392505E+00  3.2540321E+01
 4.9507504E+00  3.2651623E+01
 4.9622502E+00  3.2766914E+01
 4.9737501E+00  3.2799885E+01
 4.9852505E+00  3.2875854E+01
 4.9967504E+00  3.3023228E+01
 5.0082502E+00  3.3186340E+01
 5.0197501E+00  3.3188038E+01
 5.0312505E+00  3.3260231E+01
 5.0427504E+00  3.3284279E+01
 5.0542502E+00  3.3237473E+01
 5.0657501E+00  3.3301323E+01
 5.0772505E+00  3.3301315E+01
 5.0887504E+00  3.3557983E+01
 5.1002502E+00  3.3543892E+01
 5.1117501E+00  3.3655403E+01
 5.1232505E+00  3.3722878E+01
 5.1347504E+00  3.3784283E+01
 5.1462502E+00  3.3822521E+01
 5.1577501E+00  3.3783623E+01
 5.1692505E+00  3.3764656E+01
 5.1807504E+00  3.3763721E+01
 5.1922503E+00  3.3846703E+01
 5.2037501E+00  3.3800797E+01
 5.2152505E+00  3.3824486E+01
 5.2267504E+00  3.3783184E+01
 5.2382503E+00  3.3896973E+01
 5.2497501E+00  3.3881958E+01
 5.2612505E+00  3.3842861E+01
 5.2727504E+00  3.3806065E+01
 5.2842503E+00  3.3872013E+01
 5.2957501E+00  3.3966473E+01
 5.3072500E+00  3.4098808E+01
 5.3187504E+00  3.4243134E+01
 5.3302503E+00  3.4322510E+01
 5.3417501E+00  3.4320316E+01
 5.3532500E+00  3.4286316E+01
 5.3647504E+00  3.4323067E+01
 5.3762503E+00  3.4335594E+01
 5.3877501E+00  3.4426880E+01
 5.3992500E+00  3.4448681E+01
 5.4107504E+00  3.4482258E+01
 5.4222503E+00  3.4441246E+01
 5.4337502E+00  3.4316147E+01
 5.4452500E+00  3.4355610E+01
 5.4567504E+00  3.4382488E+01
 5.4682503E+00  3.4405327E+01
 5.4797502E+00  3.4416985E+01
 5.4912500E+00  3.4367531E+01
 5.5027504E+00  3.4492676E+01
 5.5142503E+00  3.4573307E+01
 5.5257502E+00  3.4846436E+01
 5.5372500E+00  3.4897270E+01
 5.5487504E+00  3.4962318E+01
 5.5602503E+00  3.4880199E+01
 5.5717502E+00  3.4892208E+01
 5.5832500E+00  3.4855507E+01
 5.5947504E+00  3.4945332E+01
 5.6062503E+00  3.5132778E+01
 5.6177502E+00  3.5366692E+01
 5.6292500E+00  3.5458290E+01
 5.6407504E+00  3.5450504E+01
 5.6522503E+00  3.5447746E+01
 5.6637502E+00  3.5589321E+01
 5.6752501E+00  3.5797028E+01
 5.6867504E+00  3.6010899E+01
 5.6982503E+00  3.6031033E+01
 5.7097502E+00  3.6024555E+01
 5.7212501E+00  3.6027187E+01
 5.7327504E+00  3.6069492E+01
 5.7442503E+00  3.6174374E+01
 5.7557502E+00  3.6279690E+01
 5.7672501E+00  3.6301552E+01
 5.7787504E+00  3.6373116E+01
 5.7902503E+00  3.6466923E+01
 5.8017502E+00  3.6550808E+01
 5.8132501E+00  3.6783951E+01
 5.8247504E+00  3.6999062E+01
 5.8362503E+00  3.7356041E+01
 5.8477502E+00  3.7683475E+01
 5.8592501E+00  3.7977238E+01
 5.8707504E+00  3.8574368E+01
 5.8822503E+00  3.9401608E+01
 5.8937502E+00  4.0820869E+01
 5.9052501E+00  4.3411766E+01
 5.9167504E+00  4.8255398E+01
 5.9282503E+00  5.7005398E+01
 5.9397502E+00  6.8751236E+01
 5.9512501E+00  8.5384613E+01
 5.9627504E+00  9.6134888E+01
 5.9742503E+00  1.1147890E+02
 5.9857502E+00  1.1835072E+02
 5.9972501E+00  1.1375026E+02
 6.0087504E+00  1.0973386E+02
 6.0202503E+00  9.1799583E+01
 6.0317502E+00  7.9863960E+01
 6.0432501E+00  6.3195072E+01
 6.0547504E+00  5.2324814E+01
 6.0662503E+00  4.8120869E+01
 6.0777502E+00  4.2279617E+01
 6.0892501E+00  4.0854893E+01
 6.1007504E+00  4.0120113E+01
 6.1122503E+00  3.9362076E+01
 6.1237502E+00  3.9073570E+01
 6.1352501E+00  3.8649235E+01
 6.1467505E+00  3.8385845E+01
 6.1582503E+00  3.8186947E+01
 6.1697502E+00  3.7892971E+01
 6.1812501E+00  3.7707230E+01
 6.1927505E+00  3.7510532E+01
 6.2042503E+00  3.7418873E+01
 6.2157502E+00  3.7423916E+01
 6.2272501E+00  3.7516708E+01
 6.2387505E+00  3.7601574E+01
 6.2502503E+00  3.7652325E+01
 6.2617502E+00  3.7729305E+01
 6.2732501E+00  3.7794880E+01
 6.2847505E+00  3.7891788E+01
 6.2962503E+00  3.7835972E+01
 6.3077502E+00  3.7838753E+01
 6.3192501E+00  3.7826717E+01
 6.3307505E+00  3.7989841E+01
 6.3422503E+00  3.8182514E+01
 6.3537502E+00  3.8327114E+01
 6.3652501E+00  3.8387909E+01
 6.3767505E+00  3.8498596E+01
 6.3882504E+00  3.8569210E+01
 6.3997502E+00  3.8602650E+01
 6.4112501E+00  3.8591366E+01
 6.4227505E+00  3.8569775E+01
 6.4342504E+00  3.8510300E+01
 6.4457502E+00  3.8504044E+01
 6.4572501E+00  3.8470375E+01
 6.4687505E+00  3.8692032E+01
 6.4802504E+00  3.8654747E+01
 6.4917502E+00  3.8687729E+01
 6.5032501E+00  3.8782635E+01
 6.5147505E+00  3.8887016E+01
 6.5262504E+00  3.8981674E+01
 6.5377502E+00  3.9020805E+01
 6.5492501E+00  3.9120518E+01
 6.5607505E+00  3.9263916E+01
 6.5722504E+00  3.9361073E+01
 6.5837502E+00  3.9395779E+01
 6.5952501E+00  3.9472759E+01
 6.6067505E+00  3.9482185E+01
 6.6182504E+00  3.9584129E+01
 6.6297503E+00  3.9698105E+01
 6.6412501E+00  3.9844109E+01
 6.6527505E+00  3.9928284E+01
 6.6642504E+00  4.0025681E+01
 6.6757503E+00  3.9939060E+01
 6.6872501E+00  3.9880081E+01
 6.6987505E+00  3.9837505E+01
 6.7102504E+00  3.9907154E+01
 6.7217503E+00  4.0106194E+01
 6.7332501E+00  4.0221954E+01
 6.7447505E+00  4.0397278E+01
 6.7562504E+00  4.0505402E+01
 6.7677503E+00  4.0597321E+01
 6.7792501E+00  4.0715134E+01
 6.7907505E+00  4.0780052E+01
 6.8022504E+00  4.0939003E+01
 6.8137503E+00  4.1111862E+01
 6.8252501E+00  4.1278992E+01
 6.8367505E+00  4.1316059E+01
 6.8482504E+00  4.1347195E+01
 6.8597503E+00  4.1331440E+01
 6.8712502E+00  4.1378918E+01
 6.8827505E+00  4.1455765E+01
 6.8942504E+00  4.1581074E+01
 6.9057503E+00  4.1632431E+01
 6.9172502E+00  4.1715336E+01
 6.9287505E+00  4.1712460E+01
 6.9402504E+00  4.1893364E+01
 6.9517503E+00  4.1894157E+01
 6.9632502E+00  4.1943832E+01
 6.9747505E+00  4.1995495E+01
 6.9862504E+00  4.2120983E+01
 6.9977503E+00  4.2152405E+01
 7.0092502E+00  4.2150398E+01
 7.0207505E+00  4.2129738E+01
 7.0322504E+00  4.2321213E+01
 7.0437503E+00  4.2432495E+01
 7.0552502E+00  4.2652054E+01
 7.0667505E+00  4.2704243E+01
 7.0782504E+00  4.2662872E+01
 7.0897503E+00  4.2670753E+01
 7.1012502E+00  4.2715538E+01
 7.1127505E+00  4.2875507E+01
 7.1242504E+00  4.3087620E+01
 7.1357503E+00  4.3248638E+01
 7.1472502E+00  4.3365105E+01
 7.1587505E+00  4.3392052E+01
 7.1702504E+00  4.3393063E+01
 7.1817503E+00  4.3481606E+01
 7.1932502E+00  4.3468021E+01
 7.2047505E+00  4.3434704E+01
 7.2162504E+00  4.3331638E+01
 7.2277503E+00  4.3303703E+01
 7.2392502E+00  4.3221779E+01
 7.2507505E+00  4.3219151E+01
 7.2622504E+00  4.3087719E+01
 7.2737503E+00  4.3127094E+01
 7.2852502E+00  4.3129814E+01
 7.2967505E+00  4.3258232E+01
 7.3082504E+00  4.3423096E+01
 7.3197503E+00  4.3590298E+01
 7.3312502E+00  4.3700336E+01
 7.3427505E+00  4.3722385E+01
 7.3542504E+00  4.3729275E+01
 7.3657503E+00  4.3761597E+01
 7.3772502E+00  4.3692837E+01
 7.3887506E+00  4.3774479E+01
 7.4002504E+00  4.3723389E+01
 7.4117503E+00  4.3818249E+01
 7.4232502E+00  4.3780407E+01
 7.4347506E+00  4.3854359E+01
 7.4462504E+00  4.3802429E+01
 7.4577503E+00  4.3784634E+01
 7.4692502E+00  4.3695347E+01
 7.4807506E+00  4.3697247E+01
 7.4922504E+00  4.3769432E+01
 7.5037503E+00  4.3874622E+01
 7.5152502E+00  4.3999882E+01
 7.5267506E+00  4.4035526E+01
 7.5382504E+00  4.3952961E+01
 7.5497503E+00  4.3888359E+01
 7.5612502E+00  4.3786526E+01
 7.5727506E+00  4.3920349E+01
 7.5842505E+00  4.3970028E+01
 7.5957503E+00  4.4038960E+01
 7.6072502E+00  4.4053432E+01
 7.6187506E+00  4.4088844E+01
 7.6302505E+00  4.4149609E+01
 7.6417503E+00  4.4199169E+01
 7.6532502E+00  4.4222996E+01
 7.6647506E+00  4.4208229E+01
 7.6762505E+00  4.4193653E+01
 7.6877503E+00  4.4126266E+01
 7.6992502E+00  4.4075573E+01
 7.7107506E+00  4.3972355E+01
 7.7222505E+00  4.4081211E+01
 7.7337503E+00  4.4034466E+01
 7.7452502E+00  4.3966621E+01
 7.7567506E+00  4.3730442E+01
 7.7682505E+00  4.3562485E+01
 7.7797503E+00  4.3600651E+01
 7.7912502E+00  4.3656452E+01
 7.8027506E+00  4.3864361E+01
 7.8142505E+00  4.4016872E+01
 7.8257504E+00  4.4146408E+01
 7.8372502E+00  4.4278404E+01
 7.8487506E+00  4.4245113E+01
 7.8602505E+00  4.4127205E+01
 7.8717504E+00  4.3898972E+01
 7.8832502E+00  4.3636532E+01
 7.8947506E+00  4.3440887E+01
 7.9062505E+00  4.3352367E+01
 7.9177504E+00  4.3336063E+01
 7.9292502E+00  4.3304737E+01
 7.9407506E+00  4.3316647E+01
 7.9522505E+00  4.3268723E+01
 7.9637504E+00  4.3342949E+01
 7.9752502E+00  4.3408920E+01
 7.9867506E+00  4.3415401E+01
 7.9982505E+00  4.3390987E+01
 8.0097504E+00  4.3238560E+01
 8.0212507E+00  4.3053677E+01
 8.0327501E+00  4.2828602E+01
 8.0442505E+00  4.2756454E+01
 8.0557508E+00  4.2701767E+01
 8.0672503E+00  4.2655315E+01
 8.0787506E+00  4.2549347E+01
 8.0902500E+00  4.2570019E+01
 8.1017504E+00  4.2573891E+01
 8.1132507E+00  4.2563038E+01
 8.1247501E+00  4.2397747E+01
 8.1362505E+00  4.2276566E+01
 8.1477509E+00  4.2161617E+01
 8.1592503E+00  4.2060413E+01
 8.1707506E+00  4.2037197E+01
 8.1822500E+00  4.1839348E+01
 8.1937504E+00  4.1818466E+01
 8.2052507E+00  4.1740459E+01
 8.2167501E+00  4.1733860E+01
 8.2282505E+00  4.1607006E+01
 8.2397509E+00  4.1434456E+01
 8.2512503E+00  4.1282223E+01
 8.2627506E+00  4.1243141E+01
 8.2742500E+00  4.1098644E+01
 8.2857504E+00  4.0983295E+01
 8.2972507E+00  4.0788242E+01
 8.3087502E+00  4.0548382E+01
 8.3202505E+00  4.0310905E+01
 8.3317509E+00  3.9981220E+01
 8.3432503E+00  3.9774643E+01
 8.3547506E+00  3.9512512E+01
 8.3662500E+00  3.9464355E+01
 8.3777504E+00  3.9264530E+01
 8.3892508E+00  3.9170330E+01
 8.4007502E+00  3.8941841E+01
 8.4122505E+00  3.8838055E+01
 8.4237509E+00  3.8705837E+01
 8.4352503E+00  3.8484749E+01
 8.4467506E+00  3.8423134E+01
 8.4582500E+00  3.8251507E+01
 8.4697504E+00  3.8248444E+01
 8.4812508E+00  3.8106762E+01
 8.4927502E+00  3.8010025E+01
 8.5042505E+00  3.7922482E+01
 8.5157509E+00  3.7764637E+01
 8.5272503E+00  3.7551460E+01
 8.5387506E+00  3.7264225E+01
 8.5502501E+00  3.6886520E+01
 8.5617504E+00  3.6611073E+01
 8.5732508E+00  3.6309929E+01
 8.5847502E+00  3.6158108E+01
 8.5962505E+00  3.6025040E+01
 8.6077509E+00  3.5973503E+01
 8.6192503E+00  3.5830181E+01
 8.6307507E+00  3.5747379E+01
 8.6422501E+00  3.5541367E+01
 8.6537504E+00  3.5307655E+01
 8.6652508E+00  3.5149811E+01
 8.6767502E+00  3.4994709E+01
 8.6882505E+00  3.4926533E+01
 8.6997509E+00  3.4817745E+01
 8.7112503E+00  3.4664730E+01
 8.7227507E+00  3.4579914E+01
 8.7342501E+00  3.4294708E+01
 8.7457504E+00  3.4066566E+01
 8.7572508E+00  3.3787056E+01
 8.7687502E+00  3.3618126E+01
 8.7802505E+00  3.3531624E+01
 8.7917500E+00  3.3389210E+01
 8.8032503E+00  3.3356537E+01
 8.8147507E+00  3.3326057E+01
 8.8262501E+00  3.3250584E+01
 8.8377504E+00  3.3097641E+01
 8.8492508E+00  3.2902802E+01
 8.8607502E+00  3.2679195E+01
 8.8722506E+00  3.2547031E+01
 8.8837500E+00  3.2262470E+01
 8.8952503E+00  3.2071419E+01
 8.9067507E+00  3.1841827E+01
 8.9182501E+00  3.1652725E+01
 8.9297504E+00  3.1521925E+01
 8.9412508E+00  3.1330368E+01
 8.9527502E+00  3.1165913E+01
 8.9642506E+00  3.1020752E+01
 8.9757500E+00  3.0941139E+01
 8.9872503E+00  3.0829082E+01
 8.9987507E+00  3.0700176E+01
 9.0102501E+00  3.0508629E+01
 9.0217505E+00  3.0371655E+01
 9.0332508E+00  3.0229542E+01
 9.0447502E+00  3.0071421E+01
 9.0562506E+00  2.9957546E+01
 9.0677500E+00  2.9894899E+01
 9.0792503E+00  2.9858360E+01
 9.0907507E+00  2.9773645E+01
 9.1022501E+00  2.9639078E+01
 9.1137505E+00  2.9491535E+01
 9.1252508E+00  2.9338125E+01
 9.1367502E+00  2.9206699E+01
 9.1482506E+00  2.9117786E+01
 9.1597500E+00  2.9027168E+01
 9.1712503E+00  2.8890438E+01
 9.1827507E+00  2.8713976E+01
 9.1942501E+00  2.8542999E+01
 9.2057505E+00  2.8404140E+01
 9.2172508E+00  2.8262718E+01
 9.2287502E+00  2.8153067E+01
 9.2402506E+00  2.8086969E+01
 9.2517500E+00  2.8059780E+01
 9.2632504E+00  2.7980976E+01
 9.2747507E+00  2.7829676E+01
 9.2862501E+00  2.7667866E+01
 9.2977505E+00  2.7554110E+01
 9.3092508E+00  2.7452818E+01
 9.3207502E+00  2.7429815E+01
 9.3322506E+00  2.7352072E+01
 9.3437500E+00  2.7295843E+01
 9.3552504E+00  2.7223745E+01
 9.3667507E+00  2.7159115E+01
 9.3782501E+00  2.7145784E+01
 9.3897505E+00  2.7024191E+01
 9.4012508E+00  2.6928068E+01
 9.4127502E+00  2.6826723E+01
 9.4242506E+00  2.6792002E+01
 9.4357500E+00  2.6733986E+01
 9.4472504E+00  2.6624170E+01
 9.4587507E+00  2.6526264E+01
 9.4702501E+00  2.6463404E+01
 9.4817505E+00  2.6410864E+01
 9.4932508E+00  2.6322292E+01
 9.5047503E+00  2.6240345E+01
 9.5162506E+00  2.6167799E+01
 9.5277500E+00  2.6065435E+01
 9.5392504E+00  2.5950451E+01
 9.5507507E+00  2.5856403E+01
 9.5622501E+00  2.5778683E+01
 9.5737505E+00  2.5650644E+01
 9.5852509E+00  2.5557705E+01
 9.5967503E+00  2.5545689E+01
 9.6082506E+00  2.5549528E+01
 9.6197500E+00  2.5608492E+01
 9.6312504E+00  2.5557943E+01
 9.6427507E+00  2.5565321E+01
 9.6542501E+00  2.5426172E+01
 9.6657505E+00  2.5365448E+01
 9.6772509E+00  2.5245520E+01
 9.6887503E+00  2.5199968E+01
 9.7002506E+00  2.5143204E+01
 9.7117500E+00  2.5183872E+01
 9.7232504E+00  2.5181566E+01
 9.7347507E+00  2.5224260E+01
 9.7462502E+00  2.5166857E+01
 9.7577505E+00  2.5111191E+01
 9.7692509E+00  2.5094833E+01
 9.7807503E+00  2.5075476E+01
 9.7922506E+00  2.5104504E+01
 9.8037500E+00  2.5040501E+01
 9.8152504E+00  2.4974516E+01
 9.8267508E+00  2.4925802E+01
 9.8382502E+00  2.4842030E+01
 9.8497505E+00  2.4786257E+01
 9.8612509E+00  2.4681850E+01
 9.8727503E+00  2.4665987E+01
 9.8842506E+00  2.4642519E+01
 9.8957500E+00  2.4687683E+01
 9.9072504E+00  2.4686508E+01
 9.9187508E+00  2.4660509E+01
 9.9302502E+00  2.4576069E+01
 9.9417505E+00  2.4453192E+01
 9.9532509E+00  2.4359264E+01
 9.9647503E+00  2.4332872E+01
 9.9762506E+00  2.4284883E+01
 9.9877501E+00  2.4284842E+01
 9.9992504E+00  2.4224852E+01
 1.0010751E+01  2.4204809E+01
 1.0022250E+01  2.4154345E+01
 1.0033751E+01  2.4133045E+01
 1.0045251E+01  2.4114580E+01
 1.0056750E+01  2.4148594E+01
 1.0068251E+01  2.4203314E+01
 1.0079750E+01  2.4212307E+01
 1.0091250E+01  2.4139332E+01
 1.0102751E+01  2.4053015E+01
 1.0114250E+01  2.3998070E+01
 1.0125751E+01  2.3993099E+01
 1.0137251E+01  2.3963993E+01
 1.0148750E+01  2.3947393E+01
 1.0160251E+01  2.3915598E+01
 1.0171750E+01  2.3863586E+01
 1.0183250E+01  2.3822294E+01
 1.0194751E+01  2.3736425E+01
 1.0206250E+01  2.3695257E+01
 1.0217751E+01  2.3678476E+01
 1.0229251E+01  2.3715944E+01
 1.0240750E+01  2.3719839E+01
 1.0252251E+01  2.3692320E+01
 1.0263750E+01  2.3678116E+01
 1.0275250E+01  2.3673658E+01
 1.0286751E+01  2.3734686E+01
 1.0298250E+01  2.3693142E+01
 1.0309751E+01  2.3705229E+01
 1.0321251E+01  2.3631348E+01
 1.0332750E+01  2.3632149E+01
 1.0344251E+01  2.3583231E+01
 1.0355750E+01  2.3565311E+01
 1.0367250E+01  2.3531706E+01
 1.0378751E+01  2.3486834E+01
 1.0390250E+01  2.3517921E+01
 1.0401751E+01  2.3559834E+01
 1.0413251E+01  2.3596325E+01
 1.0424750E+01  2.3529400E+01
 1.0436251E+01  2.3441164E+01
 1.0447750E+01  2.3381540E+01
 1.0459250E+01  2.3309015E+01
 1.0470751E+01  2.3316057E+01
 1.0482250E+01  2.3284077E+01
 1.0493751E+01  2.3285736E+01
 1.0505251E+01  2.3241148E+01
 1.0516750E+01  2.3248970E+01
 1.0528251E+01  2.3216591E+01
 1.0539750E+01  2.3188831E+01
 1.0551250E+01  2.3151356E+01
 1.0562751E+01  2.3147982E+01
 1.0574250E+01  2.3088501E+01
 1.0585751E+01  2.3050913E+01
 1.0597251E+01  2.3015129E+01
 1.0608750E+01  2.3028294E+01
 1.0620251E+01  2.3039530E+01
 1.0631750E+01  2.3060471E+01
 1.0643250E+01  2.3155188E+01
 1.0654751E+01  2.3223484E+01
 1.0666250E+01  2.3267059E+01
 1.0677751E+01  2.3244692E+01
 1.0689251E+01  2.3160824E+01
 1.0700750E+01  2.3179956E+01
 1.0712251E+01  2.3150640E+01
 1.0723750E+01  2.3196518E+01
 1.0735250E+01  2.3096632E+01
 1.0746751E+01  2.3042854E+01
 1.0758250E+01  2.2924797E+01
 1.0769751E+01  2.2895622E+01
 1.0781251E+01  2.2863708E+01
 1.0792750E+01  2.2885853E+01
 1.0804251E+01  2.2828642E+01
 1.0815750E+01  2.2808088E+01
 1.0827250E+01  2.2777361E+01
 1.0838751E+01  2.2829590E+01
 1.0850250E+01  2.2832214E+01
 1.0861751E+01  2.2832106E+01
 1.0873251E+01  2.2762926E+01
 1.0884750E+01  2.2725321E+01
 1.0896251E+01  2.2703726E+01
 1.0907750E+01  2.2739048E+01
 1.0919250E+01  2.2765566E+01
 1.0930751E+01  2.2736498E+01
 1.0942250E+01  2.2704664E+01
 1.0953751E+01  2.2640020E+01
 1.0965251E+01  2.2641026E+01
 1.0976750E+01  2.2648132E+01
 1.0988251E+01  2.2665220E+01
 1.0999750E+01  2.2655674E+01
 1.1011250E+01  2.2689669E+01
 1.1022751E+01  2.2679056E+01
 1.1034250E+01  2.2673779E+01
 1.1045751E+01  2.2560427E+01
 1.1057251E+01  2.2494631E+01
 1.1068750E+01  2.2495544E+01
 1.1080251E+01  2.2501368E+01
 1.1091750E+01  2.2514292E+01
 1.1103251E+01  2.2500986E+01
 1.1114751E+01  2.2530134E+01
 1.1126250E+01  2.2534418E+01
 1.1137751E+01  2.2517984E+01
 1.1149251E+01  2.2506289E+01
 1.1160750E+01  2.2573826E+01
 1.1172251E+01  2.2557261E+01
 1.1183750E+01  2.2557894E+01
 1.1195251E+01  2.2514273E+01
 1.1206751E+01  2.2461414E+01
 1.1218250E+01  2.2459627E+01
 1.1229751E+01  2.2426817E+01
 1.1241251E+01  2.2420141E+01
 1.1252750E+01  2.2391081E+01
 1.1264251E+01  2.2310646E+01
 1.1275750E+01  2.2313017E+01
 1.1287251E+01  2.2275206E+01
 1.1298751E+01  2.2372124E+01
 1.1310250E+01  2.2473789E+01
 1.1321751E+01  2.2600168E+01
 1.1333251E+01  2.2610043E+01
 1.1344750E+01  2.2591850E+01
 1.1356251E+01  2.2539976E+01
 1.1367750E+01  2.2584681E+01
 1.1379251E+01  2.2637793E+01
 1.1390751E+01  2.2693554E+01
 1.1402250E+01  2.2779613E+01
 1.1413751E+01  2.2762066E+01
 1.1425251E+01  2.2793945E+01
 1.1436750E+01  2.2784561E+01
 1.1448251E+01  2.2805733E+01
 1.1459750E+01  2.2831146E+01
 1.1471251E+01  2.2880606E+01
 1.1482751E+01  2.2938503E+01
 1.1494250E+01  2.3032356E+01
 1.1505751E+01  2.3185596E+01
 1.1517251E+01  2.3559546E+01
 1.1528750E+01  2.4116188E+01
 1.1540251E+01  2.5045322E+01
 1.1551750E+01  2.6424063E+01
 1.1563251E+01  2.7976158E+01
 1.1574751E+01  3.0711428E+01
 1.1586250E+01  3.2445908E+01
 1.1597751E+01  3.3848259E+01
 1.1609251E+01  3.3465439E+01
 1.1620750E+01  3.2335590E+01
 1.1632251E+01  3.0152815E+01
 1.1643750E+01  2.7699621E+01
 1.1655251E+01  2.5846151E+01
 1.1666751E+01  2.4702566E+01
 1.1678250E+01  2.3782999E+01
 1.1689751E+01  2.3334759E+01
 1.1701251E+01  2.3069658E+01
 1.1712750E+01  2.2938169E+01
 1.1724251E+01  2.2827950E+01
 1.1735750E+01  2.2731277E+01
 1.1747251E+01  2.2664619E+01
 1.1758751E+01  2.2617321E+01
 1.1770250E+01  2.2557142E+01
 1.1781751E+01  2.2555084E+01
 1.1793251E+01  2.2550110E+01
 1.1804750E+01  2.2554626E+01
 1.1816251E+01  2.2596462E+01
 1.1827750E+01  2.2600235E+01
 1.1839251E+01  2.2626068E+01
 1.1850751E+01  2.2573591E+01
 1.1862250E+01  2.2598864E+01
 1.1873751E+01  2.2613764E+01
 1.1885251E+01  2.2634226E+01
 1.1896750E+01  2.2688709E+01
 1.1908251E+01  2.2775620E+01
 1.1919750E+01  2.2894182E+01
 1.1931251E+01  2.3093826E+01
 1.1942751E+01  2.3361927E+01
 1.1954250E+01  2.3675848E+01
 1.1965751E+01  2.3979975E+01
 1.1977251E+01  2.4250732E+01
 1.1988750E+01  2.4397869E+01
 1.2000251E+01  2.4438253E+01
 1.2011750E+01  2.4303957E+01
 1.2023251E+01  2.4144657E+01
 1.2034751E+01  2.3999849E+01
 1.2046250E+01  2.4079716E+01
 1.2057751E+01  2.4496014E+01
 1.2069251E+01  2.5213106E+01
 1.2080750E+01  2.6295895E+01
 1.2092251E+01  2.7472454E+01
 1.2103750E+01  2.8015095E+01
 1.2115251E+01  2.8491459E+01
 1.2126751E+01  2.7881927E+01
 1.2138250E+01  2.7314085E+01
 1.2149751E+01  2.5929230E+01
 1.2161251E+01  2.5105242E+01
 1.2172750E+01  2.4207373E+01
 1.2184251E+01  2.3601765E+01
 1.2195750E+01  2.3148249E+01
 1.2207251E+01  2.2918110E+01
 1.2218751E+01  2.2743624E+01
 1.2230250E+01  2.2609077E+01
 1.2241751E+01  2.2553877E+01
 1.2253251E+01  2.2494261E+01
 1.2264750E+01  2.2538885E+01
 1.2276251E+01  2.2498337E+01
 1.2287750E+01  2.2534180E+01
 1.2299251E+01  2.2527063E+01
 1.2310751E+01  2.2627708E+01
 1.2322250E+01  2.2604143E+01
 1.2333751E+01  2.2598328E+01
 1.2345250E+01  2.2593277E+01
 1.2356750E+01  2.2646044E+01
 1.2368251E+01  2.2674557E+01
 1.2379750E+01  2.2699074E+01
 1.2391251E+01  2.2718439E+01
 1.2402751E+01  2.2705563E+01
 1.2414250E+01  2.2684067E+01
 1.2425751E+01  2.2629864E+01
 1.2437250E+01  2.2637617E+01
 1.2448750E+01  2.2615143E+01
 1.2460251E+01  2.2667795E+01
 1.2471750E+01  2.2677355E+01
 1.2483251E+01  2.2705196E+01
 1.2494751E+01  2.2652832E+01
 1.2506250E+01  2.2620869E+01
 1.2517751E+01  2.2616377E+01
 1.2529250E+01  2.2696705E+01
 1.2540751E+01  2.2759365E+01
 1.2552251E+01  2.2809782E+01
 1.2563750E+01  2.2777321E+01
 1.2575251E+01  2.2778509E+01
 1.2586751E+01  2.2783716E+01
 1.2598250E+01  2.2812828E+01
 1.2609751E+01  2.2874952E+01
 1.2621250E+01  2.2897518E+01
 1.2632751E+01  2.2924561E+01
 1.2644251E+01  2.2935961E+01
 1.2655750E+01  2.2951160E+01
 1.2667251E+01  2.2985476E+01
 1.2678751E+01  2.2920031E+01
 1.2690250E+01  2.2891527E+01
 1.2701751E+01  2.2885624E+01
 1.2713250E+01  2.2952850E+01
 1.2724751E+01  2.3020525E+01
 1.2736251E+01  2.3104721E+01
 1.2747750E+01  2.3108278E+01
 1.2759251E+01  2.3132744E+01
 1.2770751E+01  2.3042767E+01
 1.2782250E+01  2.3087286E+01
 1.2793751E+01  2.3064646E+01
 1.2805250E+01  2.3178698E+01
 1.2816751E+01  2.3205795E+01
 1.2828251E+01  2.3282137E+01
 1.2839750E+01  2.3271605E+01
 1.2851251E+01  2.3340752E+01
 1.2862751E+01  2.3338179E+01
 1.2874250E+01  2.3371731E+01
 1.2885751E+01  2.3358654E+01
 1.2897250E+01  2.3391977E+01
 1.2908751E+01  2.3526489E+01
 1.2920251E+01  2.3637897E+01
 1.2931750E+01  2.3759157E+01
 1.2943251E+01  2.3758930E+01
 1.2954751E+01  2.3809391E+01
 1.2966250E+01  2.3835451E+01
 1.2977751E+01  2.3937967E+01
 1.2989250E+01  2.3944622E+01
 1.3000751E+01  2.4003050E+01
 1.3012251E+01  2.4030600E+01
 1.3023750E+01  2.4106121E+01
 1.3035251E+01  2.4195223E+01
 1.3046751E+01  2.4233953E+01
 1.3058250E+01  2.4325993E+01
 1.3069751E+01  2.4343603E+01
 1.3081250E+01  2.4406605E+01
 1.3092751E+01  2.4498816E+01
 1.3104251E+01  2.4665798E+01
 1.3115750E+01  2.4830793E+01
 1.3127251E+01  2.4974827E+01
 1.3138751E+01  2.5052092E+01
 1.3150250E+01  2.5140705E+01
 1.3161751E+01  2.5224585E+01
 1.3173250E+01  2.5347422E+01
 1.3184751E+01  2.5508287E+01
 1.3196251E+01  2.5603556E+01
 1.3207750E+01  2.5778023E+01
 1.3219251E+01  2.5902363E+01
 1.3230751E+01  2.6111639E+01
 1.3242250E+01  2.6233252E+01
 1.3253751E+01  2.6353113E+01
 1.3265250E+01  2.6408316E+01
 1.3276751E+01  2.6524712E+01
 1.3288251E+01  2.6665983E+01
 1.3299750E+01  2.6817177E+01
 1.3311251E+01  2.6871355E+01
 1.3322751E+01  2.7043293E+01
 1.3334250E+01  2.7227221E+01
 1.3345751E+01  2.7417810E+01
 1.3357250E+01  2.7533833E+01
 1.3368751E+01  2.7649168E+01
 1.3380251E+01  2.7806240E+01
 1.3391750E+01  2.7896610E+01
 1.3403251E+01  2.8041460E+01
 1.3414751E+01  2.8137325E+01
 1.3426250E+01  2.8241686E+01
 1.3437751E+01  2.8387426E+01
 1.3449250E+01  2.8538565E+01
 1.3460751E+01  2.8713089E+01
 1.3472251E+01  2.8798155E+01
 1.3483750E+01  2.8985170E+01
 1.3495251E+01  2.9140577E+01
 1.3506751E+01  2.9288403E+01
 1.3518250E+01  2.9329748E+01
 1.3529751E+01  2.9358698E+01
 1.3541250E+01  2.9436197E+01
 1.3552751E+01  2.9501379E+01
 1.3564251E+01  2.9533686E+01
 1.3575750E+01  2.9610394E+01
 1.3587251E+01  2.9697334E+01
 1.3598751E+01  2.9790831E+01
 1.3610250E+01  2.9839415E+01
 1.3621751E+01  2.9886204E+01
 1.3633250E+01  2.9947548E+01
 1.3644751E+01  2.9886715E+01
 1.3656251E+01  2.9838840E+01
 1.3667750E+01  2.9797581E+01
 1.3679251E+01  2.9835686E+01
 1.3690751E+01  2.9791922E+01
 1.3702250E+01  2.9734539E+01
 1.3713751E+01  2.9646362E+01
 1.3725250E+01  2.9646635E+01
 1.3736751E+01  2.9632851E+01
 1.3748251E+01  2.9603235E+01
 1.3759750E+01  2.9558880E+01
 1.3771251E+01  2.9570625E+01
 1.3782751E+01  2.9631323E+01
 1.3794250E+01  2.9639259E+01
 1.3805751E+01  2.9657961E+01
 1.3817250E+01  2.9674646E+01
 1.3828751E+01  2.9777838E+01
 1.3840251E+01  2.9897476E+01
 1.3851750E+01  3.0039564E+01
 1.3863251E+01  3.0254507E+01
 1.3874751E+01  3.0684765E+01
 1.3886250E+01  3.1470839E+01
 1.3897751E+01  3.2848816E+01
 1.3909250E+01  3.4762363E+01
 1.3920751E+01  3.7228405E+01
 1.3932251E+01  3.9923100E+01
 1.3943750E+01  4.2455582E+01
 1.3955251E+01  4.4380978E+01
 1.3966751E+01  4.5420673E+01
 1.3978251E+01  4.5107983E+01
 1.3989751E+01  4.2957127E+01
 1.4001250E+01  4.0201122E+01
 1.4012751E+01  3.6611679E+01
 1.4024251E+01  3.4090015E+01
 1.4035750E+01  3.1840752E+01
 1.4047251E+01  3.0394180E+01
 1.4058751E+01  2.9343643E+01
 1.4070251E+01  2.8646713E+01
 1.4081751E+01  2.8205328E+01
 1.4093250E+01  2.7945345E+01
 1.4104751E+01  2.7779919E+01
 1.4116251E+01  2.7670929E+01
 1.4127750E+01  2.7555386E+01
 1.4139251E+01  2.7443110E+01
 1.4150751E+01  2.7344868E+01
 1.4162251E+01  2.7264389E+01
 1.4173751E+01  2.7183548E+01
 1.4185250E+01  2.7111313E+01
 1.4196751E+01  2.7043188E+01
 1.4208251E+01  2.6876934E+01
 1.4219750E+01  2.6725925E+01
 1.4231251E+01  2.6578623E+01
 1.4242751E+01  2.6564571E+01
 1.4254251E+01  2.6546030E+01
 1.4265751E+01  2.6567623E+01
 1.4277250E+01  2.6522209E+01
 1.4288751E+01  2.6525526E+01
 1.4300251E+01  2.6499714E+01
 1.4311750E+01  2.6521688E+01
 1.4323251E+01  2.6449522E+01
 1.4334751E+01  2.6392576E+01
 1.4346251E+01  2.6318819E+01
 1.4357751E+01  2.6302271E+01
 1.4369250E+01  2.6227558E+01
 1.4380751E+01  2.6147243E+01
 1.4392251E+01  2.6064377E+01
 1.4403750E+01  2.5988796E+01
 1.4415251E+01  2.5959436E+01
 1.4426751E+01  2.5921417E+01
 1.4438251E+01  2.5869648E+01
 1.4449751E+01  2.5801655E+01
 1.4461250E+01  2.5719797E+01
 1.4472751E+01  2.5689039E+01
 1.4484251E+01  2.5651060E+01
 1.4495750E+01  2.5625731E+01
 1.4507251E+01  2.5623526E+01
 1.4518751E+01  2.5547562E+01
 1.4530251E+01  2.5523560E+01
 1.4541751E+01  2.5439438E+01
 1.4553250E+01  2.5431894E+01
 1.4564751E+01  2.5397444E+01
 1.4576251E+01  2.5434273E+01
 1.4587750E+01  2.5458456E+01
 1.4599251E+01  2.5455511E+01
 1.4610751E+01  2.5452095E+01
 1.4622251E+01  2.5406229E+01
 1.4633751E+01  2.5368322E+01
 1.4645250E+01  2.5339378E+01
 1.4656751E+01  2.5352482E+01
 1.4668251E+01  2.5356812E+01
 1.4679750E+01  2.5334232E+01
 1.4691251E+01  2.5350348E+01
 1.4702751E+01  2.5390947E+01
 1.4714251E+01  2.5411669E+01
 1.4725751E+01  2.5413551E+01
 1.4737250E+01  2.5374249E+01
 1.4748751E+01  2.5329496E+01
 1.4760251E+01  2.5185747E+01
 1.4771750E+01  2.5131933E+01
 1.4783251E+01  2.5093832E+01
 1.4794751E+01  2.5106308E+01
 1.4806251E+01  2.5072315E+01
 1.4817751E+01  2.5071098E+01
 1.4829250E+01  2.5092690E+01
 1.4840751E+01  2.5158747E+01
 1.4852251E+01  2.5155298E+01
 1.4863750E+01  2.5068068E+01
 1.4875251E+01  2.4975658E+01
 1.4886751E+01  2.4944489E+01
 1.4898251E+01  2.5042934E+01
 1.4909751E+01  2.5062613E+01
 1.4921250E+01  2.5059605E+01
 1.4932751E+01  2.5037823E+01
 1.4944251E+01  2.4990623E+01
 1.4955750E+01  2.4970070E+01
 1.4967251E+01  2.4880121E+01
 1.4978751E+01  2.4881193E+01
 1.4990251E+01  2.4871149E+01
 1.5001751E+01  2.4888838E+01
 1.5013250E+01  2.4966972E+01
 1.5024751E+01  2.5008215E+01
 1.5036251E+01  2.5055494E+01
 1.5047750E+01  2.5024843E+01
 1.5059251E+01  2.5046686E+01
 1.5070751E+01  2.5028023E+01
 1.5082251E+01  2.5029057E+01
 1.5093751E+01  2.5077698E+01
 1.5105250E+01  2.5190264E+01
 1.5116751E+01  2.5407455E+01
 1.5128251E+01  2.5699764E+01
 1.5139750E+01  2.6095409E+01
 1.5151251E+01  2.6932167E+01
 1.5162751E+01  2.7801756E+01
 1.5174251E+01  2.8852663E+01
 1.5185751E+01  2.9843098E+01
 1.5197250E+01  3.0532169E+01
 1.5208751E+01  3.0814705E+01
 1.5220251E+01  3.0579479E+01
 1.5231750E+01  2.9936905E+01
 1.5243251E+01  2.8842089E+01
 1.5254751E+01  2.7598289E+01
 1.5266251E+01  2.6555897E+01
 1.5277751E+01  2.5844770E+01
 1.5289250E+01  2.5357672E+01
 1.5300751E+01  2.5157444E+01
 1.5312251E+01  2.5044176E+01
 1.5323750E+01  2.4912376E+01
 1.5335251E+01  2.4901600E+01
 1.5346751E+01  2.4872938E+01
 1.5358251E+01  2.4887703E+01
 1.5369751E+01  2.4855734E+01
 1.5381250E+01  2.4786428E+01
 1.5392751E+01  2.4745220E+01
 1.5404251E+01  2.4734501E+01
 1.5415751E+01  2.4727879E+01
 1.5427251E+01  2.4675350E+01
 1.5438751E+01  2.4620560E+01
 1.5450251E+01  2.4578047E+01
 1.5461751E+01  2.4607901E+01
 1.5473250E+01  2.4630028E+01
 1.5484751E+01  2.4721415E+01
 1.5496251E+01  2.4737211E+01
 1.5507751E+01  2.4738039E+01
 1.5519251E+01  2.4695646E+01
 1.5530751E+01  2.4698009E+01
 1.5542251E+01  2.4685888E+01
 1.5553751E+01  2.4684481E+01
 1.5565250E+01  2.4709221E+01
 1.5576751E+01  2.4701094E+01
 1.5588251E+01  2.4639215E+01
 1.5599751E+01  2.4570070E+01
 1.5611251E+01  2.4550917E+01
 1.5622751E+01  2.4552155E+01
 1.5634251E+01  2.4504894E+01
 1.5645751E+01  2.4475121E+01
 1.5657250E+01  2.4469065E+01
 1.5668751E+01  2.4483503E+01
 1.5680251E+01  2.4528965E+01
 1.5691751E+01  2.4573839E+01
 1.5703251E+01  2.4648104E+01
 1.5714751E+01  2.4640232E+01
 1.5726251E+01  2.4683130E+01
 1.5737751E+01  2.4649536E+01
 1.5749250E+01  2.4642231E+01
 1.5760751E+01  2.4642771E+01
 1.5772251E+01  2.4663145E+01
 1.5783751E+01  2.4631613E+01
 1.5795251E+01  2.4571970E+01
 1.5806751E+01  2.4557812E+01
 1.5818251E+01  2.4601477E+01
 1.5829751E+01  2.4607491E+01
 1.5841250E+01  2.4602114E+01
 1.5852751E+01  2.4613640E+01
 1.5864251E+01  2.4593500E+01
 1.5875751E+01  2.4619116E+01
 1.5887251E+01  2.4602673E+01
 1.5898750E+01  2.4622974E+01
 1.5910251E+01  2.4617983E+01
 1.5921751E+01  2.4595337E+01
 1.5933250E+01  2.4644897E+01
 1.5944751E+01  2.4636545E+01
 1.5956251E+01  2.4642050E+01
 1.5967751E+01  2.4576921E+01
 1.5979251E+01  2.4525743E+01
 1.5990750E+01  2.4488327E+01
 1.6002251E+01  2.4441280E+01
 1.6013750E+01  2.4426226E+01
 1.6025251E+01  2.4424255E+01
 1.6036751E+01  2.4493416E+01
 1.6048250E+01  2.4599890E+01
 1.6059752E+01  2.4685410E+01
 1.6071251E+01  2.4685850E+01
 1.6082750E+01  2.4730795E+01
 1.6094252E+01  2.4728790E+01
 1.6105751E+01  2.4789455E+01
 1.6117250E+01  2.4767971E+01
 1.6128750E+01  2.4744383E+01
 1.6140251E+01  2.4772411E+01
 1.6151751E+01  2.4774895E+01
 1.6163250E+01  2.4888477E+01
 1.6174751E+01  2.4832644E+01
 1.6186251E+01  2.5034729E+01
 1.6197750E+01  2.4920712E+01
 1.6209251E+01  2.5389894E+01
 1.6220751E+01  2.5400658E+01
 1.6232250E+01  2.6012262E+01
 1.6243752E+01  2.6135843E+01
 1.6255251E+01  2.6430237E+01
 1.6266750E+01  2.6552492E+01
 1.6278252E+01  2.6242914E+01
 1.6289751E+01  2.6243217E+01
 1.6301250E+01  2.5530151E+01
 1.6312750E+01  2.5552122E+01
 1.6324251E+01  2.5052618E+01
 1.6335751E+01  2.5076405E+01
 1.6347250E+01  2.4858315E+01
 1.6358751E+01  2.4814281E+01
 1.6370251E+01  2.4730459E+01
 1.6381750E+01  2.4683521E+01
 1.6393251E+01  2.4736860E+01
 1.6404751E+01  2.4772823E+01
 1.6416250E+01  2.4878052E+01
 1.6427752E+01  2.4889698E+01
 1.6439251E+01  2.4930040E+01
 1.6450750E+01  2.4893696E+01
 1.6462252E+01  2.4868038E+01
 1.6473751E+01  2.4800920E+01
 1.6485250E+01  2.4820778E+01
 1.6496750E+01  2.4839054E+01
 1.6508251E+01  2.4843554E+01
 1.6519751E+01  2.4811947E+01
 1.6531250E+01  2.4765474E+01
 1.6542751E+01  2.4732075E+01
 1.6554251E+01  2.4695150E+01
 1.6565750E+01  2.4673162E+01
 1.6577251E+01  2.4652430E+01
 1.6588751E+01  2.4658792E+01
 1.6600250E+01  2.4656603E+01
 1.6611752E+01  2.4689871E+01
 1.6623251E+01  2.4647173E+01
 1.6634750E+01  2.4631439E+01
 1.6646252E+01  2.4560841E+01
 1.6657751E+01  2.4508272E+01
 1.6669250E+01  2.4472775E+01
 1.6680750E+01  2.4480808E+01
 1.6692251E+01  2.4577381E+01
 1.6703751E+01  2.4591059E+01
 1.6715250E+01  2.4582592E+01
 1.6726751E+01  2.4550873E+01
 1.6738251E+01  2.4627396E+01
 1.6749750E+01  2.4670141E+01
 1.6761251E+01  2.4647583E+01
 1.6772751E+01  2.4629095E+01
 1.6784250E+01  2.4559393E+01
 1.6795752E+01  2.4560038E+01
 1.6807251E+01  2.4523804E+01
 1.6818750E+01  2.4551332E+01
 1.6830252E+01  2.4509586E+01
 1.6841751E+01  2.4490822E+01
 1.6853251E+01  2.4448803E+01
 1.6864750E+01  2.4437487E+01
 1.6876251E+01  2.4413927E+01
 1.6887751E+01  2.4430323E+01
 1.6899250E+01  2.4391142E+01
 1.6910751E+01  2.4356930E+01
 1.6922251E+01  2.4323814E+01
 1.6933750E+01  2.4330963E+01
 1.6945251E+01  2.4324928E+01
 1.6956751E+01  2.4323656E+01
 1.6968250E+01  2.4293524E+01
 1.6979752E+01  2.4313835E+01
 1.6991251E+01  2.4355402E+01
 1.7002750E+01  2.4358490E+01
 1.7014252E+01  2.4378248E+01
 1.7025751E+01  2.4365036E+01
 1.7037251E+01  2.4373335E+01
 1.7048750E+01  2.4318539E+01
 1.7060251E+01  2.4232750E+01
 1.7071751E+01  2.4235693E+01
 1.7083250E+01  2.4254044E+01
 1.7094751E+01  2.4295460E+01
 1.7106251E+01  2.4292683E+01
 1.7117750E+01  2.4287760E+01
 1.7129251E+01  2.4283865E+01
 1.7140751E+01  2.4337212E+01
 1.7152250E+01  2.4374216E+01
 1.7163752E+01  2.4391497E+01
 1.7175251E+01  2.4358608E+01
 1.7186750E+01  2.4332668E+01
 1.7198252E+01  2.4361439E+01
 1.7209751E+01  2.4302454E+01
 1.7221251E+01  2.4259586E+01
 1.7232750E+01  2.4187267E+01
 1.7244251E+01  2.4167423E+01
 1.7255751E+01  2.4162708E+01
 1.7267250E+01  2.4122120E+01
 1.7278751E+01  2.4117796E+01
 1.7290251E+01  2.4114544E+01
 1.7301750E+01  2.4198071E+01
 1.7313251E+01  2.4245932E+01
 1.7324751E+01  2.4324656E+01
 1.7336250E+01  2.4283239E+01
 1.7347752E+01  2.4224619E+01
 1.7359251E+01  2.4151829E+01
 1.7370750E+01  2.4110943E+01
 1.7382252E+01  2.4027071E+01
 1.7393751E+01  2.3973568E+01
 1.7405251E+01  2.3916739E+01
 1.7416750E+01  2.3899820E+01
 1.7428251E+01  2.3903223E+01
 1.7439751E+01  2.3967300E+01
 1.7451250E+01  2.4039425E+01
 1.7462751E+01  2.4123007E+01
 1.7474251E+01  2.4179380E+01
 1.7485750E+01  2.4219515E+01
 1.7497252E+01  2.4188900E+01
 1.7508751E+01  2.4155382E+01
 1.7520250E+01  2.4035286E+01
 1.7531752E+01  2.3986839E+01
 1.7543251E+01  2.3964205E+01
 1.7554750E+01  2.3932644E+01
 1.7566252E+01  2.3881420E+01
 1.7577751E+01  2.3831762E+01
 1.7589251E+01  2.3854271E+01
 1.7600750E+01  2.3912115E+01
 1.7612251E+01  2.3930424E+01
 1.7623751E+01  2.3965977E+01
 1.7635250E+01  2.3910088E+01
 1.7646751E+01  2.3923655E+01
 1.7658251E+01  2.3820440E+01
 1.7669750E+01  2.3829424E+01
 1.7681252E+01  2.3814260E+01
 1.7692751E+01  2.3880175E+01
 1.7704250E+01  2.3869251E+01
 1.7715752E+01  2.3926464E+01
 1.7727251E+01  2.3892637E+01
 1.7738750E+01  2.3901749E+01
 1.7750252E+01  2.3807480E+01
 1.7761751E+01  2.3794165E+01
 1.7773251E+01  2.3783119E+01
 1.7784750E+01  2.3829327E+01
 1.7796251E+01  2.3915800E+01
 1.7807751E+01  2.3923460E+01
 1.7819250E+01  2.3930899E+01
 1.7830751E+01  2.3866976E+01
 1.7842251E+01  2.3870916E+01
 1.7853750E+01  2.3861759E+01
 1.7865252E+01  2.3901390E+01
 1.7876751E+01  2.3934687E+01
 1.7888250E+01  2.3973711E+01
 1.7899752E+01  2.4001308E+01
 1.7911251E+01  2.4040890E+01
 1.7922750E+01  2.4072830E+01
 1.7934252E+01  2.4070627E+01
 1.7945751E+01  2.4122051E+01
 1.7957251E+01  2.4209496E+01
 1.7968750E+01  2.4364943E+01
 1.7980251E+01  2.4517273E+01
 1.7991751E+01  2.4690872E+01
 1.8003250E+01  2.4953888E+01
 1.8014751E+01  2.5247055E+01
 1.8026251E+01  2.5604599E+01
 1.8037750E+01  2.6074556E+01
 1.8049252E+01  2.6554432E+01
 1.8060751E+01  2.7250210E+01
 1.8072250E+01  2.7835058E+01
 1.8083752E+01  2.8485157E+01
 1.8095251E+01  2.8765509E+01
 1.8106750E+01  2.8724827E+01
 1.8118252E+01  2.8304955E+01
 1.8129751E+01  2.7756701E+01
 1.8141251E+01  2.6983051E+01
 1.8152750E+01  2.6369980E+01
 1.8164251E+01  2.5686565E+01
 1.8175751E+01  2.5235985E+01
 1.8187250E+01  2.4767363E+01
 1.8198751E+01  2.4439442E+01
 1.8210251E+01  2.4223372E+01
 1.8221750E+01  2.4050812E+01
 1.8233252E+01  2.3958818E+01
 1.8244751E+01  2.3936354E+01
 1.8256250E+01  2.3893152E+01
 1.8267752E+01  2.3860622E+01
 1.8279251E+01  2.3863409E+01
 1.8290751E+01  2.3889456E+01
 1.8302252E+01  2.3896057E+01
 1.8313751E+01  2.3858301E+01
 1.8325251E+01  2.3812410E+01
 1.8336750E+01  2.3801025E+01
 1.8348251E+01  2.3779945E+01
 1.8359751E+01  2.3777683E+01
 1.8371250E+01  2.3772232E+01
 1.8382751E+01  2.3767040E+01
 1.8394251E+01  2.3741608E+01
 1.8405750E+01  2.3728369E+01
 1.8417252E+01  2.3768351E+01
 1.8428751E+01  2.3770287E+01
 1.8440250E+01  2.3745615E+01
 1.8451752E+01  2.3736538E+01
 1.8463251E+01  2.3721281E+01
 1.8474751E+01  2.3751265E+01
 1.8486252E+01  2.3703030E+01
 1.8497751E+01  2.3764679E+01
 1.8509251E+01  2.3739069E+01
 1.8520750E+01  2.3723862E+01
 1.8532251E+01  2.3634836E+01
 1.8543751E+01  2.3586292E+01
 1.8555250E+01  2.3556656E+01
 1.8566751E+01  2.3563074E+01
 1.8578251E+01  2.3567970E+01
 1.8589750E+01  2.3632311E+01
 1.8601252E+01  2.3668959E+01
 1.8612751E+01  2.3694517E+01
 1.8624250E+01  2.3666500E+01
 1.8635752E+01  2.3661814E+01
 1.8647251E+01  2.3655561E+01
 1.8658751E+01  2.3634474E+01
 1.8670252E+01  2.3643139E+01
 1.8681751E+01  2.3655235E+01
 1.8693251E+01  2.3633795E+01
 1.8704750E+01  2.3579763E+01
 1.8716251E+01  2.3501154E+01
 1.8727751E+01  2.3489357E+01
 1.8739250E+01  2.3517252E+01
 1.8750751E+01  2.3540113E+01
 1.8762251E+01  2.3550507E+01
 1.8773750E+01  2.3519865E+01
 1.8785252E+01  2.3556515E+01
 1.8796751E+01  2.3545441E+01
 1.8808250E+01  2.3538324E+01
 1.8819752E+01  2.3553446E+01
 1.8831251E+01  2.3563250E+01
 1.8842751E+01  2.3571272E+01
 1.8854252E+01  2.3559584E+01
 1.8865751E+01  2.3557642E+01
 1.8877251E+01  2.3587692E+01
 1.8888750E+01  2.3607864E+01
 1.8900251E+01  2.3621321E+01
 1.8911751E+01  2.3633791E+01
 1.8923250E+01  2.3680042E+01
 1.8934752E+01  2.3727386E+01
 1.8946251E+01  2.3762873E+01
 1.8957750E+01  2.3713129E+01
 1.8969252E+01  2.3627033E+01
 1.8980751E+01  2.3545893E+01
 1.8992250E+01  2.3546593E+01
 1.9003752E+01  2.3575735E+01
 1.9015251E+01  2.3651150E+01
 1.9026751E+01  2.3676931E+01
 1.9038252E+01  2.3694326E+01
 1.9049751E+01  2.3684715E+01
 1.9061251E+01  2.3739460E+01
 1.9072750E+01  2.3759235E+01
 1.9084251E+01  2.3764866E+01
 1.9095751E+01  2.3739010E+01
 1.9107250E+01  2.3703339E+01
 1.9118752E+01  2.3669649E+01
 1.9130251E+01  2.3659286E+01
 1.9141750E+01  2.3680576E+01
 1.9153252E+01  2.3678242E+01
 1.9164751E+01  2.3638287E+01
 1.9176250E+01  2.3630096E+01
 1.9187752E+01  2.3586143E+01
 1.9199251E+01  2.3608147E+01
 1.9210751E+01  2.3631580E+01
 1.9222252E+01  2.3646851E+01
 1.9233751E+01  2.3664604E+01
 1.9245251E+01  2.3719746E+01
 1.9256750E+01  2.3776926E+01
 1.9268251E+01  2.3745478E+01
 1.9279751E+01  2.3686327E+01
 1.9291250E+01  2.3651470E+01
 1.9302752E+01  2.3649406E+01
 1.9314251E+01  2.3644154E+01
 1.9325750E+01  2.3602083E+01
 1.9337252E+01  2.3597868E+01
 1.9348751E+01  2.3633348E+01
 1.9360250E+01  2.3681463E+01
 1.9371752E+01  2.3757174E+01
 1.9383251E+01  2.3759682E+01
 1.9394751E+01  2.3800716E+01
 1.9406250E+01  2.3815702E+01
 1.9417751E+01  2.3871620E+01
 1.9429251E+01  2.3944401E+01
 1.9440750E+01  2.3984783E+01
 1.9452251E+01  2.4040106E+01
 1.9463751E+01  2.4015501E+01
 1.9475250E+01  2.3994301E+01
 1.9486752E+01  2.3955996E+01
 1.9498251E+01  2.3907366E+01
 1.9509750E+01  2.3896101E+01
 1.9521252E+01  2.3914709E+01
 1.9532751E+01  2.3976076E+01
 1.9544250E+01  2.4069061E+01
 1.9555752E+01  2.4088907E+01
 1.9567251E+01  2.4159214E+01
 1.9578751E+01  2.4257111E+01
 1.9590250E+01  2.4332233E+01
 1.9601751E+01  2.4411709E+01
 1.9613251E+01  2.4517113E+01
 1.9624750E+01  2.4735878E+01
 1.9636251E+01  2.5033846E+01
 1.9647751E+01  2.5366346E+01
 1.9659250E+01  2.6141409E+01
 1.9670752E+01  2.7048258E+01
 1.9682251E+01  2.8270506E+01
 1.9693750E+01  3.0217464E+01
 1.9705252E+01  3.0934977E+01
 1.9716751E+01  3.2839611E+01
 1.9728251E+01  3.2210289E+01
 1.9739752E+01  3.2068886E+01
 1.9751251E+01  3.0381836E+01
 1.9762751E+01  2.9433407E+01
 1.9774250E+01  2.8428623E+01
 1.9785751E+01  2.7759413E+01
 1.9797251E+01  2.8367432E+01
 1.9808750E+01  2.8924379E+01
 1.9820251E+01  2.9788803E+01
 1.9831751E+01  3.3328377E+01
 1.9843250E+01  3.3838226E+01
 1.9854752E+01  3.7111572E+01
 1.9866251E+01  3.7050240E+01
 1.9877750E+01  3.7015614E+01
 1.9889252E+01  3.3641720E+01
 1.9900751E+01  3.1156303E+01
 1.9912251E+01  2.9707584E+01
 1.9923752E+01  2.6830889E+01
 1.9935251E+01  2.6426067E+01
 1.9946751E+01  2.5360750E+01
 1.9958250E+01  2.5061316E+01
 1.9969751E+01  2.4943174E+01
 1.9981251E+01  2.4635275E+01
 1.9992750E+01  2.4583567E+01
 2.0004251E+01  2.4447142E+01
 2.0015751E+01  2.4410631E+01
 2.0027250E+01  2.4348349E+01
 2.0038752E+01  2.4288071E+01
 2.0050251E+01  2.4323849E+01
 2.0061750E+01  2.4264257E+01
 2.0073252E+01  2.4210663E+01
 2.0084751E+01  2.4172995E+01
 2.0096251E+01  2.4116306E+01
 2.0107752E+01  2.4109262E+01
 2.0119251E+01  2.4051800E+01
 2.0130751E+01  2.4015541E+01
 2.0142250E+01  2.3952364E+01
 2.0153751E+01  2.3926153E+01
 2.0165251E+01  2.3917297E+01
 2.0176750E+01  2.3933945E+01
 2.0188251E+01  2.3985966E+01
 2.0199751E+01  2.4014275E+01
 2.0211250E+01  2.4011770E+01
 2.0222752E+01  2.4049604E+01
 2.0234251E+01  2.4056831E+01
 2.0245750E+01  2.4046652E+01
 2.0257252E+01  2.3995434E+01
 2.0268751E+01  2.3958689E+01
 2.0280251E+01  2.3917349E+01
 2.0291752E+01  2.3875172E+01
 2.0303251E+01  2.3837626E+01
 2.0314751E+01  2.3812708E+01
 2.0326250E+01  2.3827015E+01
 2.0337751E+01  2.3870016E+01
 2.0349251E+01  2.3921005E+01
 2.0360750E+01  2.3972635E+01
 2.0372252E+01  2.4004257E+01
 2.0383751E+01  2.4040180E+01
 2.0395250E+01  2.4045712E+01
 2.0406752E+01  2.4025679E+01
 2.0418251E+01  2.3961615E+01
 2.0429750E+01  2.3906012E+01
 2.0441252E+01  2.3840490E+01
 2.0452751E+01  2.3837906E+01
 2.0464251E+01  2.3828835E+01
 2.0475752E+01  2.3844980E+01
 2.0487251E+01  2.3831093E+01
 2.0498751E+01  2.3848246E+01
 2.0510250E+01  2.3808876E+01
 2.0521751E+01  2.3810711E+01
 2.0533251E+01  2.3759941E+01
 2.0544750E+01  2.3758146E+01
 2.0556252E+01  2.3789877E+01
 2.0567751E+01  2.3818401E+01
 2.0579250E+01  2.3863474E+01
 2.0590752E+01  2.3941763E+01
 2.0602251E+01  2.4083652E+01
 2.0613750E+01  2.4136192E+01
 2.0625252E+01  2.4191706E+01
 2.0636751E+01  2.4183437E+01
 2.0648251E+01  2.4190083E+01
 2.0659752E+01  2.4247078E+01
 2.0671251E+01  2.4425936E+01
 2.0682751E+01  2.4673452E+01
 2.0694250E+01  2.4996052E+01
 2.0705751E+01  2.5522377E+01
 2.0717251E+01  2.6145350E+01
 2.0728750E+01  2.6951366E+01
 2.0740252E+01  2.7727049E+01
 2.0751751E+01  2.8384775E+01
 2.0763250E+01  2.9281982E+01
 2.0774752E+01  2.9407150E+01
 2.0786251E+01  2.9480038E+01
 2.0797750E+01  2.8919340E+01
 2.0809252E+01  2.8046938E+01
 2.0820751E+01  2.6594025E+01
 2.0832251E+01  2.5719086E+01
 2.0843752E+01  2.5158144E+01
 2.0855251E+01  2.4710239E+01
 2.0866751E+01  2.4476810E+01
 2.0878250E+01  2.4376638E+01
 2.0889751E+01  2.4317123E+01
 2.0901251E+01  2.4293568E+01
 2.0912750E+01  2.4290899E+01
 2.0924252E+01  2.4244265E+01
 2.0935751E+01  2.4212385E+01
 2.0947250E+01  2.4136486E+01
 2.0958752E+01  2.4119541E+01
 2.0970251E+01  2.4078781E+01
 2.0981750E+01  2.4091024E+01
 2.0993252E+01  2.4063320E+01
 2.1004751E+01  2.4072556E+01
 2.1016251E+01  2.4053413E+01
 2.1027752E+01  2.4031939E+01
 2.1039251E+01  2.3999323E+01
 2.1050751E+01  2.3996717E+01
 2.1062250E+01  2.4016333E+01
 2.1073751E+01  2.4067102E+01
 2.1085251E+01  2.4082050E+01
 2.1096750E+01  2.4011759E+01
 2.1108252E+01  2.4039186E+01
 2.1119751E+01  2.4055933E+01
 2.1131250E+01  2.4060995E+01
 2.1142752E+01  2.3971888E+01
 2.1154251E+01  2.3927967E+01
 2.1165751E+01  2.3918406E+01
 2.1177252E+01  2.3963886E+01
 2.1188751E+01  2.3975319E+01
 2.1200251E+01  2.4023897E+01
 2.1211752E+01  2.4035933E+01
 2.1223251E+01  2.3984091E+01
 2.1234751E+01  2.3940277E+01
 2.1246250E+01  2.3953335E+01
 2.1257751E+01  2.3965019E+01
 2.1269251E+01  2.3977104E+01
 2.1280750E+01  2.3976606E+01
 2.1292252E+01  2.4005819E+01
 2.1303751E+01  2.4038570E+01
 2.1315250E+01  2.4069145E+01
 2.1326752E+01  2.4077927E+01
 2.1338251E+01  2.4064837E+01
 2.1349751E+01  2.4010557E+01
 2.1361252E+01  2.3995024E+01
 2.1372751E+01  2.3988487E+01
 2.1384251E+01  2.3908144E+01
 2.1395752E+01  2.3870798E+01
 2.1407251E+01  2.3874966E+01
 2.1418751E+01  2.3962578E+01
 2.1430250E+01  2.4001829E+01
 2.1441751E+01  2.4020487E+01
 2.1453251E+01  2.4082453E+01
 2.1464750E+01  2.4092939E+01
 2.1476252E+01  2.4093431E+01
 2.1487751E+01  2.4080290E+01
 2.1499250E+01  2.4095884E+01
 2.1510752E+01  2.4090267E+01
 2.1522251E+01  2.4072189E+01
 2.1533751E+01  2.4075834E+01
 2.1545252E+01  2.4064438E+01
 2.1556751E+01  2.4015175E+01
 2.1568251E+01  2.4004440E+01
 2.1579752E+01  2.4065664E+01
 2.1591251E+01  2.4141264E+01
 2.1602751E+01  2.4200054E+01
 2.1614250E+01  2.4212317E+01
 2.1625751E+01  2.4219364E+01
 2.1637251E+01  2.4195614E+01
 2.1648750E+01  2.4211306E+01
 2.1660252E+01  2.4208681E+01
 2.1671751E+01  2.4221584E+01
 2.1683250E+01  2.4217693E+01
 2.1694752E+01  2.4220028E+01
 2.1706251E+01  2.4279165E+01
 2.1717751E+01  2.4376122E+01
 2.1729252E+01  2.4457541E+01
 2.1740751E+01  2.4442440E+01
 2.1752251E+01  2.4400372E+01
 2.1763752E+01  2.4348650E+01
 2.1775251E+01  2.4361961E+01
 2.1786751E+01  2.4352493E+01
 2.1798250E+01  2.4323341E+01
 2.1809752E+01  2.4271944E+01
 2.1821251E+01  2.4273376E+01
 2.1832750E+01  2.4220520E+01
 2.1844252E+01  2.4224594E+01
 2.1855751E+01  2.4225300E+01
 2.1867250E+01  2.4225529E+01
 2.1878752E+01  2.4208014E+01
 2.1890251E+01  2.4209608E+01
 2.1901751E+01  2.4192905E+01
 2.1913252E+01  2.4192097E+01
 2.1924751E+01  2.4194401E+01
 2.1936251E+01  2.4233423E+01
 2.1947752E+01  2.4274233E+01
 2.1959251E+01  2.4317957E+01
 2.1970751E+01  2.4315542E+01
 2.1982250E+01  2.4319843E+01
 2.1993752E+01  2.4309580E+01
 2.2005251E+01  2.4313715E+01
 2.2016750E+01  2.4320810E+01
 2.2028252E+01  2.4319292E+01
 2.2039751E+01  2.4295034E+01
 2.2051250E+01  2.4307814E+01
 2.2062752E+01  2.4301136E+01
 2.2074251E+01  2.4324108E+01
 2.2085751E+01  2.4278004E+01
 2.2097252E+01  2.4272579E+01
 2.2108751E+01  2.4266979E+01
 2.2120251E+01  2.4319656E+01
 2.2131752E+01  2.4311661E+01
 2.2143251E+01  2.4312292E+01
 2.2154751E+01  2.4316961E+01
 2.2166250E+01  2.4296165E+01
 2.2177752E+01  2.4296284E+01
 2.2189251E+01  2.4293774E+01
 2.2200750E+01  2.4316757E+01
 2.2212252E+01  2.4380867E+01
 2.2223751E+01  2.4512941E+01
 2.2235250E+01  2.4754707E+01
 2.2246752E+01  2.4950968E+01
 2.2258251E+01  2.4982679E+01
 2.2269751E+01  2.4869061E+01
 2.2281252E+01  2.4744316E+01
 2.2292751E+01  2.4667509E+01
 2.2304251E+01  2.4682247E+01
 2.2315752E+01  2.4774118E+01
 2.2327251E+01  2.4835854E+01
 2.2338751E+01  2.4879570E+01
 2.2350250E+01  2.4874073E+01
 2.2361752E+01  2.4760721E+01
 2.2373251E+01  2.4720942E+01
 2.2384750E+01  2.4707880E+01
 2.2396252E+01  2.4703955E+01
 2.2407751E+01  2.4724012E+01
 2.2419250E+01  2.4698811E+01
 2.2430752E+01  2.4713120E+01
 2.2442251E+01  2.4726711E+01
 2.2453751E+01  2.4754519E+01
 2.2465252E+01  2.4767405E+01
 2.2476751E+01  2.4713541E+01
 2.2488251E+01  2.4667204E+01
 2.2499752E+01  2.4659334E+01
 2.2511251E+01  2.4702236E+01
 2.2522751E+01  2.4745668E+01
 2.2534250E+01  2.4811047E+01
 2.2545752E+01  2.4888834E+01
 2.2557251E+01  2.4929211E+01
 2.2568750E+01  2.4904785E+01
 2.2580252E+01  2.4892923E+01
 2.2591751E+01  2.4905281E+01
 2.2603251E+01  2.4923407E+01
 2.2614752E+01  2.4982653E+01
 2.2626251E+01  2.5004139E+01
 2.2637751E+01  2.5020844E+01
 2.2649252E+01  2.4994316E+01
 2.2660751E+01  2.5038654E+01
 2.2672251E+01  2.5080864E+01
 2.2683752E+01  2.5153399E+01
 2.2695251E+01  2.5165627E+01
 2.2706751E+01  2.5176067E+01
 2.2718250E+01  2.5211634E+01
 2.2729752E+01  2.5273062E+01
 2.2741251E+01  2.5321037E+01
 2.2752750E+01  2.5390627E+01
 2.2764252E+01  2.5424093E+01
 2.2775751E+01  2.5471491E+01
 2.2787251E+01  2.5453682E+01
 2.2798752E+01  2.5433779E+01
 2.2810251E+01  2.5446154E+01
 2.2821751E+01  2.5477472E+01
 2.2833252E+01  2.5545542E+01
 2.2844751E+01  2.5567530E+01
 2.2856251E+01  2.5622787E+01
 2.2867750E+01  2.5739983E+01
 2.2879251E+01  2.5758204E+01
 2.2890751E+01  2.5882273E+01
 2.2902250E+01  2.5917912E+01
 2.2913752E+01  2.5990271E+01
 2.2925251E+01  2.6005489E+01
 2.2936750E+01  2.6057632E+01
 2.2948252E+01  2.6064411E+01
 2.2959751E+01  2.6043318E+01
 2.2971251E+01  2.6128248E+01
 2.2982752E+01  2.6231199E+01
 2.2994251E+01  2.6349543E+01
