F:\20151113_APS_34IDE\\Brian\Particle1\OCV\Data_0048.tif
2-Theta Angle (Degrees)
Intensity
       2000
 5.7500005E-03  0.0000000E+00
 1.7250001E-02  0.0000000E+00
 2.8750001E-02  0.0000000E+00
 4.0250003E-02  0.0000000E+00
 5.1750004E-02  0.0000000E+00
 6.3250005E-02  0.0000000E+00
 7.4750006E-02  0.0000000E+00
 8.6250007E-02  0.0000000E+00
 9.7750008E-02  0.0000000E+00
 1.0925001E-01  0.0000000E+00
 1.2075000E-01  0.0000000E+00
 1.3225001E-01  0.0000000E+00
 1.4375001E-01  0.0000000E+00
 1.5525001E-01  0.0000000E+00
 1.6675001E-01  0.0000000E+00
 1.7825001E-01  0.0000000E+00
 1.8975002E-01  0.0000000E+00
 2.0125002E-01  0.0000000E+00
 2.1275002E-01  0.0000000E+00
 2.2425000E-01  0.0000000E+00
 2.3575000E-01  0.0000000E+00
 2.4725001E-01  0.0000000E+00
 2.5875002E-01  0.0000000E+00
 2.7025002E-01  0.0000000E+00
 2.8175002E-01  0.0000000E+00
 2.9325002E-01  0.0000000E+00
 3.0475003E-01  0.0000000E+00
 3.1625003E-01  0.0000000E+00
 3.2775003E-01  0.0000000E+00
 3.3925003E-01  0.0000000E+00
 3.5075003E-01  0.0000000E+00
 3.6225003E-01  0.0000000E+00
 3.7375003E-01  0.0000000E+00
 3.8525003E-01  0.0000000E+00
 3.9675003E-01  0.0000000E+00
 4.0825003E-01  0.0000000E+00
 4.1975003E-01  0.0000000E+00
 4.3125004E-01  0.0000000E+00
 4.4275001E-01  0.0000000E+00
 4.5425001E-01  0.0000000E+00
 4.6575001E-01  0.0000000E+00
 4.7725001E-01  0.0000000E+00
 4.8875001E-01  0.0000000E+00
 5.0025004E-01  0.0000000E+00
 5.1175004E-01  0.0000000E+00
 5.2325004E-01  0.0000000E+00
 5.3475004E-01  0.0000000E+00
 5.4625005E-01  0.0000000E+00
 5.5775005E-01  0.0000000E+00
 5.6925005E-01  0.0000000E+00
 5.8075005E-01  0.0000000E+00
 5.9225005E-01  0.0000000E+00
 6.0375005E-01  0.0000000E+00
 6.1525005E-01  0.0000000E+00
 6.2675005E-01  0.0000000E+00
 6.3825005E-01  0.0000000E+00
 6.4975005E-01  0.0000000E+00
 6.6125005E-01  0.0000000E+00
 6.7275006E-01  0.0000000E+00
 6.8425006E-01  0.0000000E+00
 6.9575006E-01  0.0000000E+00
 7.0725006E-01  0.0000000E+00
 7.1875006E-01  0.0000000E+00
 7.3025006E-01  0.0000000E+00
 7.4175006E-01  0.0000000E+00
 7.5325006E-01  0.0000000E+00
 7.6475006E-01  0.0000000E+00
 7.7625006E-01  0.0000000E+00
 7.8775007E-01  0.0000000E+00
 7.9925007E-01  0.0000000E+00
 8.1075007E-01  0.0000000E+00
 8.2225007E-01  0.0000000E+00
 8.3375007E-01  0.0000000E+00
 8.4525007E-01  0.0000000E+00
 8.5675007E-01  0.0000000E+00
 8.6825007E-01  0.0000000E+00
 8.7975001E-01  0.0000000E+00
 8.9125001E-01  0.0000000E+00
 9.0275002E-01  0.0000000E+00
 9.1425002E-01  0.0000000E+00
 9.2575002E-01  0.0000000E+00
 9.3725002E-01  0.0000000E+00
 9.4875002E-01  0.0000000E+00
 9.6025002E-01  0.0000000E+00
 9.7175002E-01  0.0000000E+00
 9.8325002E-01  0.0000000E+00
 9.9475002E-01  0.0000000E+00
 1.0062500E+00  0.0000000E+00
 1.0177500E+00  0.0000000E+00
 1.0292500E+00  0.0000000E+00
 1.0407500E+00  0.0000000E+00
 1.0522500E+00  0.0000000E+00
 1.0637500E+00  0.0000000E+00
 1.0752500E+00  0.0000000E+00
 1.0867500E+00  0.0000000E+00
 1.0982500E+00  0.0000000E+00
 1.1097500E+00  0.0000000E+00
 1.1212500E+00  0.0000000E+00
 1.1327500E+00  0.0000000E+00
 1.1442500E+00  0.0000000E+00
 1.1557500E+00  0.0000000E+00
 1.1672500E+00  0.0000000E+00
 1.1787500E+00  0.0000000E+00
 1.1902500E+00  0.0000000E+00
 1.2017500E+00  0.0000000E+00
 1.2132500E+00  0.0000000E+00
 1.2247500E+00  0.0000000E+00
 1.2362500E+00  0.0000000E+00
 1.2477500E+00  0.0000000E+00
 1.2592500E+00  0.0000000E+00
 1.2707500E+00  0.0000000E+00
 1.2822500E+00  0.0000000E+00
 1.2937500E+00  0.0000000E+00
 1.3052500E+00  0.0000000E+00
 1.3167500E+00  0.0000000E+00
 1.3282501E+00  0.0000000E+00
 1.3397501E+00  0.0000000E+00
 1.3512501E+00  0.0000000E+00
 1.3627501E+00  0.0000000E+00
 1.3742501E+00  0.0000000E+00
 1.3857501E+00  0.0000000E+00
 1.3972501E+00  0.0000000E+00
 1.4087501E+00  0.0000000E+00
 1.4202501E+00  0.0000000E+00
 1.4317501E+00  0.0000000E+00
 1.4432501E+00  0.0000000E+00
 1.4547501E+00  0.0000000E+00
 1.4662501E+00  0.0000000E+00
 1.4777501E+00  0.0000000E+00
 1.4892501E+00  0.0000000E+00
 1.5007501E+00  0.0000000E+00
 1.5122501E+00  0.0000000E+00
 1.5237501E+00  0.0000000E+00
 1.5352501E+00  0.0000000E+00
 1.5467501E+00  0.0000000E+00
 1.5582501E+00  0.0000000E+00
 1.5697501E+00  0.0000000E+00
 1.5812501E+00  0.0000000E+00
 1.5927501E+00  0.0000000E+00
 1.6042501E+00  0.0000000E+00
 1.6157501E+00  0.0000000E+00
 1.6272501E+00  0.0000000E+00
 1.6387501E+00  0.0000000E+00
 1.6502501E+00  0.0000000E+00
 1.6617501E+00  0.0000000E+00
 1.6732501E+00  0.0000000E+00
 1.6847501E+00  0.0000000E+00
 1.6962501E+00  0.0000000E+00
 1.7077501E+00  0.0000000E+00
 1.7192501E+00  0.0000000E+00
 1.7307501E+00  0.0000000E+00
 1.7422501E+00  0.0000000E+00
 1.7537501E+00  0.0000000E+00
 1.7652501E+00  0.0000000E+00
 1.7767501E+00  0.0000000E+00
 1.7882501E+00  0.0000000E+00
 1.7997501E+00  0.0000000E+00
 1.8112501E+00  0.0000000E+00
 1.8227501E+00  0.0000000E+00
 1.8342501E+00  0.0000000E+00
 1.8457501E+00  0.0000000E+00
 1.8572501E+00  0.0000000E+00
 1.8687501E+00  0.0000000E+00
 1.8802501E+00  0.0000000E+00
 1.8917501E+00  0.0000000E+00
 1.9032501E+00  0.0000000E+00
 1.9147501E+00  0.0000000E+00
 1.9262501E+00  0.0000000E+00
 1.9377501E+00  0.0000000E+00
 1.9492501E+00  0.0000000E+00
 1.9607501E+00  0.0000000E+00
 1.9722501E+00  0.0000000E+00
 1.9837501E+00  0.0000000E+00
 1.9952501E+00  0.0000000E+00
 2.0067501E+00  0.0000000E+00
 2.0182500E+00  0.0000000E+00
 2.0297501E+00  0.0000000E+00
 2.0412500E+00  0.0000000E+00
 2.0527501E+00  0.0000000E+00
 2.0642500E+00  0.0000000E+00
 2.0757501E+00  0.0000000E+00
 2.0872500E+00  0.0000000E+00
 2.0987501E+00  0.0000000E+00
 2.1102500E+00  0.0000000E+00
 2.1217501E+00  0.0000000E+00
 2.1332500E+00  0.0000000E+00
 2.1447501E+00  0.0000000E+00
 2.1562500E+00  0.0000000E+00
 2.1677501E+00  0.0000000E+00
 2.1792500E+00  0.0000000E+00
 2.1907501E+00  0.0000000E+00
 2.2022500E+00  0.0000000E+00
 2.2137501E+00  0.0000000E+00
 2.2252500E+00  0.0000000E+00
 2.2367501E+00  0.0000000E+00
 2.2482500E+00  0.0000000E+00
 2.2597501E+00  0.0000000E+00
 2.2712500E+00  0.0000000E+00
 2.2827501E+00  0.0000000E+00
 2.2942500E+00  0.0000000E+00
 2.3057501E+00  0.0000000E+00
 2.3172500E+00  0.0000000E+00
 2.3287501E+00  0.0000000E+00
 2.3402500E+00  0.0000000E+00
 2.3517501E+00  0.0000000E+00
 2.3632500E+00  0.0000000E+00
 2.3747501E+00  0.0000000E+00
 2.3862500E+00  0.0000000E+00
 2.3977501E+00  0.0000000E+00
 2.4092500E+00  0.0000000E+00
 2.4207501E+00  0.0000000E+00
 2.4322500E+00  0.0000000E+00
 2.4437501E+00  0.0000000E+00
 2.4552500E+00  0.0000000E+00
 2.4667501E+00  0.0000000E+00
 2.4782500E+00  0.0000000E+00
 2.4897501E+00  0.0000000E+00
 2.5012500E+00  0.0000000E+00
 2.5127501E+00  0.0000000E+00
 2.5242500E+00  0.0000000E+00
 2.5357502E+00  0.0000000E+00
 2.5472500E+00  0.0000000E+00
 2.5587502E+00  0.0000000E+00
 2.5702500E+00  0.0000000E+00
 2.5817502E+00  0.0000000E+00
 2.5932500E+00  0.0000000E+00
 2.6047502E+00  0.0000000E+00
 2.6162500E+00  0.0000000E+00
 2.6277502E+00  0.0000000E+00
 2.6392500E+00  0.0000000E+00
 2.6507502E+00  0.0000000E+00
 2.6622500E+00  0.0000000E+00
 2.6737502E+00  0.0000000E+00
 2.6852500E+00  0.0000000E+00
 2.6967502E+00  0.0000000E+00
 2.7082500E+00  0.0000000E+00
 2.7197502E+00  0.0000000E+00
 2.7312500E+00  0.0000000E+00
 2.7427502E+00  0.0000000E+00
 2.7542500E+00  0.0000000E+00
 2.7657502E+00  0.0000000E+00
 2.7772501E+00  0.0000000E+00
 2.7887502E+00  0.0000000E+00
 2.8002501E+00  0.0000000E+00
 2.8117502E+00  0.0000000E+00
 2.8232501E+00  3.5934410E+01
 2.8347502E+00  3.5363331E+01
 2.8462501E+00  3.5352077E+01
 2.8577502E+00  3.5760818E+01
 2.8692501E+00  3.5915810E+01
 2.8807502E+00  3.5625622E+01
 2.8922501E+00  3.5150120E+01
 2.9037502E+00  3.4800632E+01
 2.9152501E+00  3.4680878E+01
 2.9267502E+00  3.4554451E+01
 2.9382501E+00  3.4611000E+01
 2.9497502E+00  3.4981155E+01
 2.9612501E+00  3.5085308E+01
 2.9727502E+00  3.5266384E+01
 2.9842501E+00  3.4805462E+01
 2.9957502E+00  3.5118736E+01
 3.0072501E+00  3.5518192E+01
 3.0187502E+00  3.6321877E+01
 3.0302501E+00  3.6507690E+01
 3.0417502E+00  3.6255806E+01
 3.0532501E+00  3.5600216E+01
 3.0647502E+00  3.5233402E+01
 3.0762501E+00  3.5100117E+01
 3.0877502E+00  3.4970066E+01
 3.0992501E+00  3.5125038E+01
 3.1107502E+00  3.4975220E+01
 3.1222501E+00  3.5294853E+01
 3.1337502E+00  3.5296635E+01
 3.1452501E+00  3.5441372E+01
 3.1567502E+00  3.5457851E+01
 3.1682501E+00  3.5410404E+01
 3.1797502E+00  3.5271938E+01
 3.1912501E+00  3.5099350E+01
 3.2027502E+00  3.5059628E+01
 3.2142501E+00  3.5111572E+01
 3.2257502E+00  3.5339245E+01
 3.2372501E+00  3.5495991E+01
 3.2487502E+00  3.5595371E+01
 3.2602501E+00  3.5802113E+01
 3.2717502E+00  3.5483707E+01
 3.2832501E+00  3.5326527E+01
 3.2947502E+00  3.4711411E+01
 3.3062501E+00  3.4722729E+01
 3.3177502E+00  3.4634869E+01
 3.3292501E+00  3.4991135E+01
 3.3407502E+00  3.4793060E+01
 3.3522501E+00  3.4649548E+01
 3.3637502E+00  3.4578808E+01
 3.3752501E+00  3.4788921E+01
 3.3867502E+00  3.4765011E+01
 3.3982501E+00  3.4482796E+01
 3.4097502E+00  3.4171505E+01
 3.4212501E+00  3.3855762E+01
 3.4327502E+00  3.3758316E+01
 3.4442501E+00  3.3542892E+01
 3.4557502E+00  3.3581913E+01
 3.4672501E+00  3.3266571E+01
 3.4787502E+00  3.3260124E+01
 3.4902501E+00  3.3322330E+01
 3.5017502E+00  3.3154579E+01
 3.5132501E+00  3.3013760E+01
 3.5247502E+00  3.2837826E+01
 3.5362501E+00  3.3157734E+01
 3.5477502E+00  3.3044117E+01
 3.5592501E+00  3.3034958E+01
 3.5707502E+00  3.2747654E+01
 3.5822501E+00  3.2518856E+01
 3.5937502E+00  3.2412018E+01
 3.6052501E+00  3.2282742E+01
 3.6167502E+00  3.2251156E+01
 3.6282501E+00  3.2213913E+01
 3.6397502E+00  3.2209633E+01
 3.6512501E+00  3.2296669E+01
 3.6627502E+00  3.2376041E+01
 3.6742501E+00  3.2520653E+01
 3.6857502E+00  3.2749767E+01
 3.6972501E+00  3.2759785E+01
 3.7087502E+00  3.2644993E+01
 3.7202501E+00  3.2664783E+01
 3.7317502E+00  3.2690567E+01
 3.7432501E+00  3.3041149E+01
 3.7547503E+00  3.3126194E+01
 3.7662501E+00  3.3119701E+01
 3.7777503E+00  3.2985172E+01
 3.7892501E+00  3.2677860E+01
 3.8007503E+00  3.2387962E+01
 3.8122501E+00  3.2357136E+01
 3.8237503E+00  3.2273277E+01
 3.8352501E+00  3.2262894E+01
 3.8467503E+00  3.2065063E+01
 3.8582501E+00  3.1977177E+01
 3.8697503E+00  3.2049397E+01
 3.8812501E+00  3.2075645E+01
 3.8927503E+00  3.2106770E+01
 3.9042501E+00  3.2167549E+01
 3.9157503E+00  3.2314743E+01
 3.9272501E+00  3.2565495E+01
 3.9387503E+00  3.2707516E+01
 3.9502501E+00  3.2834698E+01
 3.9617503E+00  3.2856354E+01
 3.9732502E+00  3.2879597E+01
 3.9847503E+00  3.2958717E+01
 3.9962502E+00  3.2845379E+01
 4.0077500E+00  3.2684189E+01
 4.0192504E+00  3.2448414E+01
 4.0307503E+00  3.2182884E+01
 4.0422502E+00  3.2216801E+01
 4.0537500E+00  3.2153286E+01
 4.0652504E+00  3.2240627E+01
 4.0767503E+00  3.2222610E+01
 4.0882502E+00  3.2289227E+01
 4.0997500E+00  3.2278233E+01
 4.1112504E+00  3.2258858E+01
 4.1227503E+00  3.2161648E+01
 4.1342502E+00  3.2213051E+01
 4.1457500E+00  3.2407177E+01
 4.1572504E+00  3.2420181E+01
 4.1687503E+00  3.2412281E+01
 4.1802502E+00  3.2270008E+01
 4.1917500E+00  3.2135983E+01
 4.2032504E+00  3.2021912E+01
 4.2147503E+00  3.1820814E+01
 4.2262502E+00  3.1813040E+01
 4.2377501E+00  3.1864037E+01
 4.2492504E+00  3.1957983E+01
 4.2607503E+00  3.2080540E+01
 4.2722502E+00  3.1961481E+01
 4.2837501E+00  3.1964693E+01
 4.2952504E+00  3.1758272E+01
 4.3067503E+00  3.1695900E+01
 4.3182502E+00  3.1657614E+01
 4.3297501E+00  3.1800644E+01
 4.3412504E+00  3.1928131E+01
 4.3527503E+00  3.2076488E+01
 4.3642502E+00  3.2350811E+01
 4.3757501E+00  3.2400826E+01
 4.3872504E+00  3.2473839E+01
 4.3987503E+00  3.2601665E+01
 4.4102502E+00  3.2826038E+01
 4.4217501E+00  3.3449379E+01
 4.4332504E+00  3.3747395E+01
 4.4447503E+00  3.3953751E+01
 4.4562502E+00  3.3673023E+01
 4.4677501E+00  3.3177528E+01
 4.4792504E+00  3.2768917E+01
 4.4907503E+00  3.2501419E+01
 4.5022502E+00  3.2575382E+01
 4.5137501E+00  3.2670746E+01
 4.5252504E+00  3.2804703E+01
 4.5367503E+00  3.2697845E+01
 4.5482502E+00  3.2668537E+01
 4.5597501E+00  3.2565517E+01
 4.5712504E+00  3.2621937E+01
 4.5827503E+00  3.2557762E+01
 4.5942502E+00  3.2599285E+01
 4.6057501E+00  3.2555080E+01
 4.6172504E+00  3.2615234E+01
 4.6287503E+00  3.2515026E+01
 4.6402502E+00  3.2726368E+01
 4.6517501E+00  3.2766220E+01
 4.6632504E+00  3.2886398E+01
 4.6747503E+00  3.2800877E+01
 4.6862502E+00  3.2670238E+01
 4.6977501E+00  3.2637913E+01
 4.7092505E+00  3.2489635E+01
 4.7207503E+00  3.2394981E+01
 4.7322502E+00  3.2350693E+01
 4.7437501E+00  3.2363583E+01
 4.7552505E+00  3.2421402E+01
 4.7667503E+00  3.2553577E+01
 4.7782502E+00  3.2567352E+01
 4.7897501E+00  3.2664082E+01
 4.8012505E+00  3.2629795E+01
 4.8127503E+00  3.2718834E+01
 4.8242502E+00  3.2832626E+01
 4.8357501E+00  3.2794289E+01
 4.8472505E+00  3.2789677E+01
 4.8587503E+00  3.2735554E+01
 4.8702502E+00  3.2667953E+01
 4.8817501E+00  3.2508610E+01
 4.8932505E+00  3.2442726E+01
 4.9047503E+00  3.2457832E+01
 4.9162502E+00  3.2567631E+01
 4.9277501E+00  3.2559254E+01
 4.9392505E+00  3.2569759E+01
 4.9507504E+00  3.2493290E+01
 4.9622502E+00  3.2447784E+01
 4.9737501E+00  3.2343147E+01
 4.9852505E+00  3.2423214E+01
 4.9967504E+00  3.2515102E+01
 5.0082502E+00  3.2814049E+01
 5.0197501E+00  3.2972282E+01
 5.0312505E+00  3.3176609E+01
 5.0427504E+00  3.3333618E+01
 5.0542502E+00  3.3482586E+01
 5.0657501E+00  3.3441116E+01
 5.0772505E+00  3.3550243E+01
 5.0887504E+00  3.3504372E+01
 5.1002502E+00  3.3603619E+01
 5.1117501E+00  3.3580910E+01
 5.1232505E+00  3.3606239E+01
 5.1347504E+00  3.3664982E+01
 5.1462502E+00  3.3675518E+01
 5.1577501E+00  3.3657036E+01
 5.1692505E+00  3.3734177E+01
 5.1807504E+00  3.3805901E+01
 5.1922503E+00  3.3944977E+01
 5.2037501E+00  3.3959488E+01
 5.2152505E+00  3.3869926E+01
 5.2267504E+00  3.3817776E+01
 5.2382503E+00  3.3877850E+01
 5.2497501E+00  3.3786461E+01
 5.2612505E+00  3.3762463E+01
 5.2727504E+00  3.3716599E+01
 5.2842503E+00  3.3876507E+01
 5.2957501E+00  3.4219074E+01
 5.3072500E+00  3.4288677E+01
 5.3187504E+00  3.4398727E+01
 5.3302503E+00  3.4338028E+01
 5.3417501E+00  3.4349663E+01
 5.3532500E+00  3.4301231E+01
 5.3647504E+00  3.4268848E+01
 5.3762503E+00  3.4351334E+01
 5.3877501E+00  3.4406891E+01
 5.3992500E+00  3.4525677E+01
 5.4107504E+00  3.4544575E+01
 5.4222503E+00  3.4681152E+01
 5.4337502E+00  3.4654953E+01
 5.4452500E+00  3.4732479E+01
 5.4567504E+00  3.4849464E+01
 5.4682503E+00  3.4965149E+01
 5.4797502E+00  3.5025940E+01
 5.4912500E+00  3.4881687E+01
 5.5027504E+00  3.4828403E+01
 5.5142503E+00  3.4686272E+01
 5.5257502E+00  3.4677776E+01
 5.5372500E+00  3.4678074E+01
 5.5487504E+00  3.4648125E+01
 5.5602503E+00  3.4734615E+01
 5.5717502E+00  3.4804684E+01
 5.5832500E+00  3.4949963E+01
 5.5947504E+00  3.5033943E+01
 5.6062503E+00  3.5138359E+01
 5.6177502E+00  3.5220989E+01
 5.6292500E+00  3.5208179E+01
 5.6407504E+00  3.5221756E+01
 5.6522503E+00  3.5208668E+01
 5.6637502E+00  3.5184143E+01
 5.6752501E+00  3.5206245E+01
 5.6867504E+00  3.5157410E+01
 5.6982503E+00  3.5338936E+01
 5.7097502E+00  3.5390728E+01
 5.7212501E+00  3.5598362E+01
 5.7327504E+00  3.5699379E+01
 5.7442503E+00  3.5870884E+01
 5.7557502E+00  3.5989788E+01
 5.7672501E+00  3.5993000E+01
 5.7787504E+00  3.6006374E+01
 5.7902503E+00  3.5965412E+01
 5.8017502E+00  3.6077091E+01
 5.8132501E+00  3.6182384E+01
 5.8247504E+00  3.6395580E+01
 5.8362503E+00  3.6491161E+01
 5.8477502E+00  3.6723976E+01
 5.8592501E+00  3.6685017E+01
 5.8707504E+00  3.7122921E+01
 5.8822503E+00  3.7346592E+01
 5.8937502E+00  3.8262993E+01
 5.9052501E+00  3.9161411E+01
 5.9167504E+00  4.1307949E+01
 5.9282503E+00  4.3756893E+01
 5.9397502E+00  4.9410877E+01
 5.9512501E+00  5.4608543E+01
 5.9627504E+00  6.2470741E+01
 5.9742503E+00  6.7245621E+01
 5.9857502E+00  7.1547928E+01
 5.9972501E+00  6.8323631E+01
 6.0087504E+00  6.4784958E+01
 6.0202503E+00  5.6073395E+01
 6.0317502E+00  5.0669685E+01
 6.0432501E+00  4.4401989E+01
 6.0547504E+00  4.1802818E+01
 6.0662503E+00  3.9932755E+01
 6.0777502E+00  3.8923061E+01
 6.0892501E+00  3.8391003E+01
 6.1007504E+00  3.7910645E+01
 6.1122503E+00  3.7657402E+01
 6.1237502E+00  3.7426617E+01
 6.1352501E+00  3.7271049E+01
 6.1467505E+00  3.7077881E+01
 6.1582503E+00  3.7065071E+01
 6.1697502E+00  3.7092072E+01
 6.1812501E+00  3.7243534E+01
 6.1927505E+00  3.7313232E+01
 6.2042503E+00  3.7324890E+01
 6.2157502E+00  3.7339939E+01
 6.2272501E+00  3.7314896E+01
 6.2387505E+00  3.7218079E+01
 6.2502503E+00  3.7181431E+01
 6.2617502E+00  3.7212238E+01
 6.2732501E+00  3.7324856E+01
 6.2847505E+00  3.7526905E+01
 6.2962503E+00  3.7561138E+01
 6.3077502E+00  3.7694862E+01
 6.3192501E+00  3.7680344E+01
 6.3307505E+00  3.7766304E+01
 6.3422503E+00  3.7804058E+01
 6.3537502E+00  3.7780174E+01
 6.3652501E+00  3.7818584E+01
 6.3767505E+00  3.7814724E+01
 6.3882504E+00  3.8002304E+01
 6.3997502E+00  3.8063057E+01
 6.4112501E+00  3.8147861E+01
 6.4227505E+00  3.8074692E+01
 6.4342504E+00  3.8098408E+01
 6.4457502E+00  3.8232166E+01
 6.4572501E+00  3.8342995E+01
 6.4687505E+00  3.8611919E+01
 6.4802504E+00  3.8746944E+01
 6.4917502E+00  3.8956753E+01
 6.5032501E+00  3.9008667E+01
 6.5147505E+00  3.9106384E+01
 6.5262504E+00  3.9206867E+01
 6.5377502E+00  3.9111351E+01
 6.5492501E+00  3.9088097E+01
 6.5607505E+00  3.9134621E+01
 6.5722504E+00  3.9294975E+01
 6.5837502E+00  3.9510548E+01
 6.5952501E+00  3.9644329E+01
 6.6067505E+00  3.9760063E+01
 6.6182504E+00  3.9768784E+01
 6.6297503E+00  3.9720810E+01
 6.6412501E+00  3.9790630E+01
 6.6527505E+00  3.9840096E+01
 6.6642504E+00  4.0022316E+01
 6.6757503E+00  4.0159973E+01
 6.6872501E+00  4.0272934E+01
 6.6987505E+00  4.0268978E+01
 6.7102504E+00  4.0311176E+01
 6.7217503E+00  4.0409924E+01
 6.7332501E+00  4.0525631E+01
 6.7447505E+00  4.0599892E+01
 6.7562504E+00  4.0688526E+01
 6.7677503E+00  4.0761333E+01
 6.7792501E+00  4.0910439E+01
 6.7907505E+00  4.1001671E+01
 6.8022504E+00  4.1255939E+01
 6.8137503E+00  4.1416817E+01
 6.8252501E+00  4.1565266E+01
 6.8367505E+00  4.1566265E+01
 6.8482504E+00  4.1607864E+01
 6.8597503E+00  4.1532406E+01
 6.8712502E+00  4.1487198E+01
 6.8827505E+00  4.1413399E+01
 6.8942504E+00  4.1496418E+01
 6.9057503E+00  4.1550064E+01
 6.9172502E+00  4.1627651E+01
 6.9287505E+00  4.1734699E+01
 6.9402504E+00  4.1898144E+01
 6.9517503E+00  4.2031361E+01
 6.9632502E+00  4.2088551E+01
 6.9747505E+00  4.2157261E+01
 6.9862504E+00  4.2173634E+01
 6.9977503E+00  4.2263374E+01
 7.0092502E+00  4.2332890E+01
 7.0207505E+00  4.2506134E+01
 7.0322504E+00  4.2603779E+01
 7.0437503E+00  4.2634834E+01
 7.0552502E+00  4.2639732E+01
 7.0667505E+00  4.2716614E+01
 7.0782504E+00  4.2771389E+01
 7.0897503E+00  4.2820557E+01
 7.1012502E+00  4.2760960E+01
 7.1127505E+00  4.2717373E+01
 7.1242504E+00  4.2727394E+01
 7.1357503E+00  4.2836544E+01
 7.1472502E+00  4.3007904E+01
 7.1587505E+00  4.3130104E+01
 7.1702504E+00  4.3332901E+01
 7.1817503E+00  4.3441280E+01
 7.1932502E+00  4.3539894E+01
 7.2047505E+00  4.3533516E+01
 7.2162504E+00  4.3494511E+01
 7.2277503E+00  4.3477577E+01
 7.2392502E+00  4.3414215E+01
 7.2507505E+00  4.3447151E+01
 7.2622504E+00  4.3431973E+01
 7.2737503E+00  4.3538239E+01
 7.2852502E+00  4.3573944E+01
 7.2967505E+00  4.3681801E+01
 7.3082504E+00  4.3696861E+01
 7.3197503E+00  4.3773281E+01
 7.3312502E+00  4.3862335E+01
 7.3427505E+00  4.4101074E+01
 7.3542504E+00  4.4364155E+01
 7.3657503E+00  4.4530647E+01
 7.3772502E+00  4.5448120E+01
 7.3887506E+00  4.5547424E+01
 7.4002504E+00  4.5771908E+01
 7.4117503E+00  4.5327602E+01
 7.4232502E+00  4.5127110E+01
 7.4347506E+00  4.4907639E+01
 7.4462504E+00  4.4451870E+01
 7.4577503E+00  4.4390476E+01
 7.4692502E+00  4.4374470E+01
 7.4807506E+00  4.4360176E+01
 7.4922504E+00  4.4321980E+01
 7.5037503E+00  4.4317329E+01
 7.5152502E+00  4.4318558E+01
 7.5267506E+00  4.4423595E+01
 7.5382504E+00  4.4448833E+01
 7.5497503E+00  4.4415661E+01
 7.5612502E+00  4.4320606E+01
 7.5727506E+00  4.4287109E+01
 7.5842505E+00  4.4332767E+01
 7.5957503E+00  4.4420315E+01
 7.6072502E+00  4.4395538E+01
 7.6187506E+00  4.4368027E+01
 7.6302505E+00  4.4233715E+01
 7.6417503E+00  4.4167702E+01
 7.6532502E+00  4.4099266E+01
 7.6647506E+00  4.4050488E+01
 7.6762505E+00  4.3927135E+01
 7.6877503E+00  4.3962391E+01
 7.6992502E+00  4.3925320E+01
 7.7107506E+00  4.4005219E+01
 7.7222505E+00  4.4005543E+01
 7.7337503E+00  4.4065495E+01
 7.7452502E+00  4.4113937E+01
 7.7567506E+00  4.4042126E+01
 7.7682505E+00  4.4026867E+01
 7.7797503E+00  4.4007099E+01
 7.7912502E+00  4.4020557E+01
 7.8027506E+00  4.4014137E+01
 7.8142505E+00  4.4099640E+01
 7.8257504E+00  4.4215935E+01
 7.8372502E+00  4.4315033E+01
 7.8487506E+00  4.4315884E+01
 7.8602505E+00  4.4185219E+01
 7.8717504E+00  4.4016880E+01
 7.8832502E+00  4.3812286E+01
 7.8947506E+00  4.3828938E+01
 7.9062505E+00  4.3829720E+01
 7.9177504E+00  4.3939407E+01
 7.9292502E+00  4.3791744E+01
 7.9407506E+00  4.3750877E+01
 7.9522505E+00  4.3583546E+01
 7.9637504E+00  4.3579849E+01
 7.9752502E+00  4.3458351E+01
 7.9867506E+00  4.3497570E+01
 7.9982505E+00  4.3427628E+01
 8.0097504E+00  4.3372406E+01
 8.0212507E+00  4.3300591E+01
 8.0327501E+00  4.3247398E+01
 8.0442505E+00  4.3312843E+01
 8.0557508E+00  4.3306950E+01
 8.0672503E+00  4.3271614E+01
 8.0787506E+00  4.3210258E+01
 8.0902500E+00  4.3187813E+01
 8.1017504E+00  4.3130508E+01
 8.1132507E+00  4.3037632E+01
 8.1247501E+00  4.2763550E+01
 8.1362505E+00  4.2490780E+01
 8.1477509E+00  4.2228580E+01
 8.1592503E+00  4.1975533E+01
 8.1707506E+00  4.1944435E+01
 8.1822500E+00  4.1809021E+01
 8.1937504E+00  4.1804897E+01
 8.2052507E+00  4.1707333E+01
 8.2167501E+00  4.1593002E+01
 8.2282505E+00  4.1482330E+01
 8.2397509E+00  4.1298588E+01
 8.2512503E+00  4.1226589E+01
 8.2627506E+00  4.1174686E+01
 8.2742500E+00  4.1054169E+01
 8.2857504E+00  4.0965542E+01
 8.2972507E+00  4.0791943E+01
 8.3087502E+00  4.0658531E+01
 8.3202505E+00  4.0458645E+01
 8.3317509E+00  4.0288029E+01
 8.3432503E+00  4.0147350E+01
 8.3547506E+00  3.9971519E+01
 8.3662500E+00  3.9898190E+01
 8.3777504E+00  3.9730732E+01
 8.3892508E+00  3.9592007E+01
 8.4007502E+00  3.9370720E+01
 8.4122505E+00  3.9163612E+01
 8.4237509E+00  3.8993526E+01
 8.4352503E+00  3.8745548E+01
 8.4467506E+00  3.8615746E+01
 8.4582500E+00  3.8438023E+01
 8.4697504E+00  3.8403107E+01
 8.4812508E+00  3.8233696E+01
 8.4927502E+00  3.8091614E+01
 8.5042505E+00  3.7932690E+01
 8.5157509E+00  3.7818913E+01
 8.5272503E+00  3.7587284E+01
 8.5387506E+00  3.7301098E+01
 8.5502501E+00  3.6989773E+01
 8.5617504E+00  3.6811592E+01
 8.5732508E+00  3.6561989E+01
 8.5847502E+00  3.6311867E+01
 8.5962505E+00  3.6219959E+01
 8.6077509E+00  3.6185051E+01
 8.6192503E+00  3.6188206E+01
 8.6307507E+00  3.6111549E+01
 8.6422501E+00  3.5949100E+01
 8.6537504E+00  3.5770363E+01
 8.6652508E+00  3.5538692E+01
 8.6767502E+00  3.5323875E+01
 8.6882505E+00  3.5157490E+01
 8.6997509E+00  3.5005917E+01
 8.7112503E+00  3.4824020E+01
 8.7227507E+00  3.4591988E+01
 8.7342501E+00  3.4296684E+01
 8.7457504E+00  3.4035229E+01
 8.7572508E+00  3.3801727E+01
 8.7687502E+00  3.3634869E+01
 8.7802505E+00  3.3481373E+01
 8.7917500E+00  3.3333187E+01
 8.8032503E+00  3.3194233E+01
 8.8147507E+00  3.3068188E+01
 8.8262501E+00  3.3008877E+01
 8.8377504E+00  3.2950115E+01
 8.8492508E+00  3.2872925E+01
 8.8607502E+00  3.2797180E+01
 8.8722506E+00  3.2676388E+01
 8.8837500E+00  3.2523903E+01
 8.8952503E+00  3.2347126E+01
 8.9067507E+00  3.2091599E+01
 8.9182501E+00  3.1865562E+01
 8.9297504E+00  3.1636992E+01
 8.9412508E+00  3.1484858E+01
 8.9527502E+00  3.1322298E+01
 8.9642506E+00  3.1199427E+01
 8.9757500E+00  3.1036444E+01
 8.9872503E+00  3.0970268E+01
 8.9987507E+00  3.0794136E+01
 9.0102501E+00  3.0696829E+01
 9.0217505E+00  3.0554384E+01
 9.0332508E+00  3.0479025E+01
 9.0447502E+00  3.0333437E+01
 9.0562506E+00  3.0199497E+01
 9.0677500E+00  3.0088058E+01
 9.0792503E+00  2.9996887E+01
 9.0907507E+00  2.9822813E+01
 9.1022501E+00  2.9683298E+01
 9.1137505E+00  2.9580349E+01
 9.1252508E+00  2.9522495E+01
 9.1367502E+00  2.9456343E+01
 9.1482506E+00  2.9359528E+01
 9.1597500E+00  2.9272446E+01
 9.1712503E+00  2.9189423E+01
 9.1827507E+00  2.9134207E+01
 9.1942501E+00  2.9062841E+01
 9.2057505E+00  2.8930544E+01
 9.2172508E+00  2.8811506E+01
 9.2287502E+00  2.8578127E+01
 9.2402506E+00  2.8443684E+01
 9.2517500E+00  2.8274584E+01
 9.2632504E+00  2.8237005E+01
 9.2747507E+00  2.8133549E+01
 9.2862501E+00  2.8011780E+01
 9.2977505E+00  2.7868427E+01
 9.3092508E+00  2.7712479E+01
 9.3207502E+00  2.7561674E+01
 9.3322506E+00  2.7459501E+01
 9.3437500E+00  2.7378811E+01
 9.3552504E+00  2.7331472E+01
 9.3667507E+00  2.7259947E+01
 9.3782501E+00  2.7225615E+01
 9.3897505E+00  2.7175816E+01
 9.4012508E+00  2.7122139E+01
 9.4127502E+00  2.7034266E+01
 9.4242506E+00  2.6936956E+01
 9.4357500E+00  2.6853441E+01
 9.4472504E+00  2.6812973E+01
 9.4587507E+00  2.6791256E+01
 9.4702501E+00  2.6815680E+01
 9.4817505E+00  2.6812363E+01
 9.4932508E+00  2.6754379E+01
 9.5047503E+00  2.6665760E+01
 9.5162506E+00  2.6519650E+01
 9.5277500E+00  2.6375795E+01
 9.5392504E+00  2.6243183E+01
 9.5507507E+00  2.6148096E+01
 9.5622501E+00  2.6146566E+01
 9.5737505E+00  2.6077707E+01
 9.5852509E+00  2.6001368E+01
 9.5967503E+00  2.5950418E+01
 9.6082506E+00  2.5924507E+01
 9.6197500E+00  2.5936588E+01
 9.6312504E+00  2.5941427E+01
 9.6427507E+00  2.5932322E+01
 9.6542501E+00  2.5901997E+01
 9.6657505E+00  2.5779570E+01
 9.6772509E+00  2.5693979E+01
 9.6887503E+00  2.5549049E+01
 9.7002506E+00  2.5480513E+01
 9.7117500E+00  2.5459894E+01
 9.7232504E+00  2.5480316E+01
 9.7347507E+00  2.5473736E+01
 9.7462502E+00  2.5442150E+01
 9.7577505E+00  2.5364286E+01
 9.7692509E+00  2.5284391E+01
 9.7807503E+00  2.5212557E+01
 9.7922506E+00  2.5169598E+01
 9.8037500E+00  2.5160391E+01
 9.8152504E+00  2.5071453E+01
 9.8267508E+00  2.4987604E+01
 9.8382502E+00  2.4970455E+01
 9.8497505E+00  2.4923605E+01
 9.8612509E+00  2.4885670E+01
 9.8727503E+00  2.4794147E+01
 9.8842506E+00  2.4715824E+01
 9.8957500E+00  2.4675041E+01
 9.9072504E+00  2.4602661E+01
 9.9187508E+00  2.4559904E+01
 9.9302502E+00  2.4533485E+01
 9.9417505E+00  2.4469982E+01
 9.9532509E+00  2.4413170E+01
 9.9647503E+00  2.4412287E+01
 9.9762506E+00  2.4384949E+01
 9.9877501E+00  2.4384518E+01
 9.9992504E+00  2.4314915E+01
 1.0010751E+01  2.4258274E+01
 1.0022250E+01  2.4239035E+01
 1.0033751E+01  2.4186865E+01
 1.0045251E+01  2.4232695E+01
 1.0056750E+01  2.4200077E+01
 1.0068251E+01  2.4281031E+01
 1.0079750E+01  2.4242174E+01
 1.0091250E+01  2.4230627E+01
 1.0102751E+01  2.4129049E+01
 1.0114250E+01  2.4106316E+01
 1.0125751E+01  2.4034582E+01
 1.0137251E+01  2.3972855E+01
 1.0148750E+01  2.4028427E+01
 1.0160251E+01  2.4088104E+01
 1.0171750E+01  2.4113380E+01
 1.0183250E+01  2.4048651E+01
 1.0194751E+01  2.4005289E+01
 1.0206250E+01  2.3958220E+01
 1.0217751E+01  2.3944832E+01
 1.0229251E+01  2.3992271E+01
 1.0240750E+01  2.3960812E+01
 1.0252251E+01  2.3852957E+01
 1.0263750E+01  2.3761980E+01
 1.0275250E+01  2.3718966E+01
 1.0286751E+01  2.3693485E+01
 1.0298250E+01  2.3628336E+01
 1.0309751E+01  2.3604853E+01
 1.0321251E+01  2.3589155E+01
 1.0332750E+01  2.3612879E+01
 1.0344251E+01  2.3676126E+01
 1.0355750E+01  2.3689442E+01
 1.0367250E+01  2.3639996E+01
 1.0378751E+01  2.3584454E+01
 1.0390250E+01  2.3539820E+01
 1.0401751E+01  2.3503134E+01
 1.0413251E+01  2.3443140E+01
 1.0424750E+01  2.3380514E+01
 1.0436251E+01  2.3336489E+01
 1.0447750E+01  2.3297630E+01
 1.0459250E+01  2.3280863E+01
 1.0470751E+01  2.3251152E+01
 1.0482250E+01  2.3285769E+01
 1.0493751E+01  2.3334267E+01
 1.0505251E+01  2.3354614E+01
 1.0516750E+01  2.3380278E+01
 1.0528251E+01  2.3326536E+01
 1.0539750E+01  2.3352898E+01
 1.0551250E+01  2.3321749E+01
 1.0562751E+01  2.3333639E+01
 1.0574250E+01  2.3229418E+01
 1.0585751E+01  2.3110125E+01
 1.0597251E+01  2.3042202E+01
 1.0608750E+01  2.3056322E+01
 1.0620251E+01  2.3136133E+01
 1.0631750E+01  2.3180542E+01
 1.0643250E+01  2.3256447E+01
 1.0654751E+01  2.3298126E+01
 1.0666250E+01  2.3271673E+01
 1.0677751E+01  2.3166620E+01
 1.0689251E+01  2.3060959E+01
 1.0700750E+01  2.3039446E+01
 1.0712251E+01  2.3002260E+01
 1.0723750E+01  2.2992418E+01
 1.0735250E+01  2.3074808E+01
 1.0746751E+01  2.3139690E+01
 1.0758250E+01  2.3139154E+01
 1.0769751E+01  2.3039341E+01
 1.0781251E+01  2.2957758E+01
 1.0792750E+01  2.2946917E+01
 1.0804251E+01  2.2810207E+01
 1.0815750E+01  2.2741203E+01
 1.0827250E+01  2.2659199E+01
 1.0838751E+01  2.2691154E+01
 1.0850250E+01  2.2727283E+01
 1.0861751E+01  2.2755728E+01
 1.0873251E+01  2.2798756E+01
 1.0884750E+01  2.2790880E+01
 1.0896251E+01  2.2746164E+01
 1.0907750E+01  2.2731012E+01
 1.0919250E+01  2.2719675E+01
 1.0930751E+01  2.2732981E+01
 1.0942250E+01  2.2721399E+01
 1.0953751E+01  2.2764610E+01
 1.0965251E+01  2.2758415E+01
 1.0976750E+01  2.2799971E+01
 1.0988251E+01  2.2795797E+01
 1.0999750E+01  2.2842495E+01
 1.1011250E+01  2.2793797E+01
 1.1022751E+01  2.2726219E+01
 1.1034250E+01  2.2685396E+01
 1.1045751E+01  2.2618986E+01
 1.1057251E+01  2.2582952E+01
 1.1068750E+01  2.2615595E+01
 1.1080251E+01  2.2686476E+01
 1.1091750E+01  2.2764177E+01
 1.1103251E+01  2.2729023E+01
 1.1114751E+01  2.2713421E+01
 1.1126250E+01  2.2713497E+01
 1.1137751E+01  2.2732578E+01
 1.1149251E+01  2.2774137E+01
 1.1160750E+01  2.2752705E+01
 1.1172251E+01  2.2746485E+01
 1.1183750E+01  2.2774193E+01
 1.1195251E+01  2.2805523E+01
 1.1206751E+01  2.2733370E+01
 1.1218250E+01  2.2641933E+01
 1.1229751E+01  2.2574604E+01
 1.1241251E+01  2.2607580E+01
 1.1252750E+01  2.2632570E+01
 1.1264251E+01  2.2661314E+01
 1.1275750E+01  2.2678102E+01
 1.1287251E+01  2.2677057E+01
 1.1298751E+01  2.2643940E+01
 1.1310250E+01  2.2680809E+01
 1.1321751E+01  2.2745823E+01
 1.1333251E+01  2.2828039E+01
 1.1344750E+01  2.2831467E+01
 1.1356251E+01  2.2849072E+01
 1.1367750E+01  2.2883972E+01
 1.1379251E+01  2.2922743E+01
 1.1390751E+01  2.2922604E+01
 1.1402250E+01  2.3052212E+01
 1.1413751E+01  2.3097786E+01
 1.1425251E+01  2.3161194E+01
 1.1436750E+01  2.3212967E+01
 1.1448251E+01  2.3240208E+01
 1.1459750E+01  2.3274689E+01
 1.1471251E+01  2.3238209E+01
 1.1482751E+01  2.3210810E+01
 1.1494250E+01  2.3285131E+01
 1.1505751E+01  2.3389339E+01
 1.1517251E+01  2.3812983E+01
 1.1528750E+01  2.4637110E+01
 1.1540251E+01  2.5685732E+01
 1.1551750E+01  2.6784245E+01
 1.1563251E+01  2.8068352E+01
 1.1574751E+01  2.8770559E+01
 1.1586250E+01  2.9198412E+01
 1.1597751E+01  2.9180214E+01
 1.1609251E+01  2.8469980E+01
 1.1620750E+01  2.7803415E+01
 1.1632251E+01  2.6490496E+01
 1.1643750E+01  2.5613176E+01
 1.1655251E+01  2.4692356E+01
 1.1666751E+01  2.3928596E+01
 1.1678250E+01  2.3634760E+01
 1.1689751E+01  2.3307228E+01
 1.1701251E+01  2.3157669E+01
 1.1712750E+01  2.3032024E+01
 1.1724251E+01  2.2896463E+01
 1.1735750E+01  2.2788816E+01
 1.1747251E+01  2.2719604E+01
 1.1758751E+01  2.2664305E+01
 1.1770250E+01  2.2601805E+01
 1.1781751E+01  2.2580961E+01
 1.1793251E+01  2.2567286E+01
 1.1804750E+01  2.2604721E+01
 1.1816251E+01  2.2628704E+01
 1.1827750E+01  2.2637915E+01
 1.1839251E+01  2.2704905E+01
 1.1850751E+01  2.2700075E+01
 1.1862250E+01  2.2726357E+01
 1.1873751E+01  2.2657299E+01
 1.1885251E+01  2.2692638E+01
 1.1896750E+01  2.2762873E+01
 1.1908251E+01  2.2862782E+01
 1.1919750E+01  2.2977779E+01
 1.1931251E+01  2.3100252E+01
 1.1942751E+01  2.3313255E+01
 1.1954250E+01  2.3717945E+01
 1.1965751E+01  2.4114840E+01
 1.1977251E+01  2.4785378E+01
 1.1988750E+01  2.5347286E+01
 1.2000251E+01  2.5589458E+01
 1.2011750E+01  2.5543203E+01
 1.2023251E+01  2.5007019E+01
 1.2034751E+01  2.4686811E+01
 1.2046250E+01  2.4269348E+01
 1.2057751E+01  2.4254469E+01
 1.2069251E+01  2.4532412E+01
 1.2080750E+01  2.5319567E+01
 1.2092251E+01  2.6315069E+01
 1.2103750E+01  2.6848965E+01
 1.2115251E+01  2.7029398E+01
 1.2126751E+01  2.6563601E+01
 1.2138250E+01  2.6011456E+01
 1.2149751E+01  2.5099985E+01
 1.2161251E+01  2.4411503E+01
 1.2172750E+01  2.3902260E+01
 1.2184251E+01  2.3454887E+01
 1.2195750E+01  2.3209553E+01
 1.2207251E+01  2.3012415E+01
 1.2218751E+01  2.2940050E+01
 1.2230250E+01  2.2825453E+01
 1.2241751E+01  2.2774153E+01
 1.2253251E+01  2.2747494E+01
 1.2264750E+01  2.2741858E+01
 1.2276251E+01  2.2700918E+01
 1.2287750E+01  2.2676594E+01
 1.2299251E+01  2.2684515E+01
 1.2310751E+01  2.2768221E+01
 1.2322250E+01  2.2744589E+01
 1.2333751E+01  2.2757755E+01
 1.2345250E+01  2.2718441E+01
 1.2356750E+01  2.2755116E+01
 1.2368251E+01  2.2735018E+01
 1.2379750E+01  2.2750605E+01
 1.2391251E+01  2.2730532E+01
 1.2402751E+01  2.2691860E+01
 1.2414250E+01  2.2660074E+01
 1.2425751E+01  2.2619387E+01
 1.2437250E+01  2.2630871E+01
 1.2448750E+01  2.2640242E+01
 1.2460251E+01  2.2685181E+01
 1.2471750E+01  2.2711853E+01
 1.2483251E+01  2.2778721E+01
 1.2494751E+01  2.2801403E+01
 1.2506250E+01  2.2806150E+01
 1.2517751E+01  2.2816479E+01
 1.2529250E+01  2.2828857E+01
 1.2540751E+01  2.2884430E+01
 1.2552251E+01  2.2928406E+01
 1.2563750E+01  2.2955162E+01
 1.2575251E+01  2.2973289E+01
 1.2586751E+01  2.2919840E+01
 1.2598250E+01  2.2911148E+01
 1.2609751E+01  2.2888483E+01
 1.2621250E+01  2.2889156E+01
 1.2632751E+01  2.2903477E+01
 1.2644251E+01  2.2897573E+01
 1.2655750E+01  2.2920876E+01
 1.2667251E+01  2.2967836E+01
 1.2678751E+01  2.3019873E+01
 1.2690250E+01  2.3004805E+01
 1.2701751E+01  2.2978518E+01
 1.2713250E+01  2.3002668E+01
 1.2724751E+01  2.3042818E+01
 1.2736251E+01  2.3083744E+01
 1.2747750E+01  2.3120317E+01
 1.2759251E+01  2.3192657E+01
 1.2770751E+01  2.3209877E+01
 1.2782250E+01  2.3291197E+01
 1.2793751E+01  2.3289328E+01
 1.2805250E+01  2.3368963E+01
 1.2816751E+01  2.3386896E+01
 1.2828251E+01  2.3458300E+01
 1.2839750E+01  2.3523603E+01
 1.2851251E+01  2.3598183E+01
 1.2862751E+01  2.3632557E+01
 1.2874250E+01  2.3701744E+01
 1.2885751E+01  2.3694216E+01
 1.2897250E+01  2.3759371E+01
 1.2908751E+01  2.3811832E+01
 1.2920251E+01  2.3893326E+01
 1.2931750E+01  2.4020758E+01
 1.2943251E+01  2.4073008E+01
 1.2954751E+01  2.4125820E+01
 1.2966250E+01  2.4103724E+01
 1.2977751E+01  2.4108648E+01
 1.2989250E+01  2.4091879E+01
 1.3000751E+01  2.4173998E+01
 1.3012251E+01  2.4223608E+01
 1.3023750E+01  2.4332954E+01
 1.3035251E+01  2.4366051E+01
 1.3046751E+01  2.4426373E+01
 1.3058250E+01  2.4494499E+01
 1.3069751E+01  2.4577681E+01
 1.3081250E+01  2.4679314E+01
 1.3092751E+01  2.4782343E+01
 1.3104251E+01  2.4952570E+01
 1.3115750E+01  2.5122541E+01
 1.3127251E+01  2.5259813E+01
 1.3138751E+01  2.5286654E+01
 1.3150250E+01  2.5363060E+01
 1.3161751E+01  2.5466982E+01
 1.3173250E+01  2.5577549E+01
 1.3184751E+01  2.5718554E+01
 1.3196251E+01  2.5813820E+01
 1.3207750E+01  2.5985159E+01
 1.3219251E+01  2.6114315E+01
 1.3230751E+01  2.6312458E+01
 1.3242250E+01  2.6434889E+01
 1.3253751E+01  2.6583260E+01
 1.3265250E+01  2.6691797E+01
 1.3276751E+01  2.6825432E+01
 1.3288251E+01  2.6928452E+01
 1.3299750E+01  2.7049385E+01
 1.3311251E+01  2.7198416E+01
 1.3322751E+01  2.7337444E+01
 1.3334250E+01  2.7584688E+01
 1.3345751E+01  2.7749668E+01
 1.3357250E+01  2.7944529E+01
 1.3368751E+01  2.7985313E+01
 1.3380251E+01  2.8062740E+01
 1.3391750E+01  2.8140667E+01
 1.3403251E+01  2.8269831E+01
 1.3414751E+01  2.8420069E+01
 1.3426250E+01  2.8542719E+01
 1.3437751E+01  2.8655481E+01
 1.3449250E+01  2.8762156E+01
 1.3460751E+01  2.8908091E+01
 1.3472251E+01  2.9071760E+01
 1.3483750E+01  2.9270769E+01
 1.3495251E+01  2.9366692E+01
 1.3506751E+01  2.9513298E+01
 1.3518250E+01  2.9603746E+01
 1.3529751E+01  2.9648094E+01
 1.3541250E+01  2.9675446E+01
 1.3552751E+01  2.9715578E+01
 1.3564251E+01  2.9808714E+01
 1.3575750E+01  2.9880037E+01
 1.3587251E+01  2.9953190E+01
 1.3598751E+01  2.9977512E+01
 1.3610250E+01  2.9927441E+01
 1.3621751E+01  2.9917753E+01
 1.3633250E+01  2.9940702E+01
 1.3644751E+01  2.9962118E+01
 1.3656251E+01  2.9959541E+01
 1.3667750E+01  2.9980989E+01
 1.3679251E+01  2.9990480E+01
 1.3690751E+01  2.9944883E+01
 1.3702250E+01  2.9919067E+01
 1.3713751E+01  2.9872604E+01
 1.3725250E+01  2.9940357E+01
 1.3736751E+01  2.9956797E+01
 1.3748251E+01  3.0099958E+01
 1.3759750E+01  3.0108341E+01
 1.3771251E+01  3.0201611E+01
 1.3782751E+01  3.0213337E+01
 1.3794250E+01  3.0204050E+01
 1.3805751E+01  3.0144897E+01
 1.3817250E+01  3.0095766E+01
 1.3828751E+01  3.0138613E+01
 1.3840251E+01  3.0267616E+01
 1.3851750E+01  3.0571394E+01
 1.3863251E+01  3.1033901E+01
 1.3874751E+01  3.1733599E+01
 1.3886250E+01  3.3189362E+01
 1.3897751E+01  3.5610527E+01
 1.3909250E+01  3.9123520E+01
 1.3920751E+01  4.3985622E+01
 1.3932251E+01  5.0762146E+01
 1.3943750E+01  5.5368210E+01
 1.3955251E+01  5.7922031E+01
 1.3966751E+01  5.7523880E+01
 1.3978251E+01  5.3756092E+01
 1.3989751E+01  4.8566490E+01
 1.4001250E+01  4.3049492E+01
 1.4012751E+01  3.8414845E+01
 1.4024251E+01  3.4806553E+01
 1.4035750E+01  3.1821241E+01
 1.4047251E+01  3.0686810E+01
 1.4058751E+01  2.9649448E+01
 1.4070251E+01  2.9196754E+01
 1.4081751E+01  2.8831146E+01
 1.4093250E+01  2.8591763E+01
 1.4104751E+01  2.8349314E+01
 1.4116251E+01  2.8123068E+01
 1.4127750E+01  2.7942654E+01
 1.4139251E+01  2.7813812E+01
 1.4150751E+01  2.7695747E+01
 1.4162251E+01  2.7585306E+01
 1.4173751E+01  2.7491941E+01
 1.4185250E+01  2.7369608E+01
 1.4196751E+01  2.7299143E+01
 1.4208251E+01  2.7181583E+01
 1.4219750E+01  2.7130762E+01
 1.4231251E+01  2.6963627E+01
 1.4242751E+01  2.6883144E+01
 1.4254251E+01  2.6780695E+01
 1.4265751E+01  2.6690187E+01
 1.4277250E+01  2.6608828E+01
 1.4288751E+01  2.6534712E+01
 1.4300251E+01  2.6519667E+01
 1.4311750E+01  2.6484779E+01
 1.4323251E+01  2.6450729E+01
 1.4334751E+01  2.6466244E+01
 1.4346251E+01  2.6527981E+01
 1.4357751E+01  2.6576744E+01
 1.4369250E+01  2.6521223E+01
 1.4380751E+01  2.6454947E+01
 1.4392251E+01  2.6352060E+01
 1.4403750E+01  2.6266514E+01
 1.4415251E+01  2.6165051E+01
 1.4426751E+01  2.6138969E+01
 1.4438251E+01  2.6129135E+01
 1.4449751E+01  2.6126070E+01
 1.4461250E+01  2.6062260E+01
 1.4472751E+01  2.5958824E+01
 1.4484251E+01  2.5821093E+01
 1.4495750E+01  2.5760321E+01
 1.4507251E+01  2.5764227E+01
 1.4518751E+01  2.5825407E+01
 1.4530251E+01  2.5862616E+01
 1.4541751E+01  2.5871521E+01
 1.4553250E+01  2.5862518E+01
 1.4564751E+01  2.5861101E+01
 1.4576251E+01  2.5819901E+01
 1.4587750E+01  2.5787628E+01
 1.4599251E+01  2.5664919E+01
 1.4610751E+01  2.5562401E+01
 1.4622251E+01  2.5487686E+01
 1.4633751E+01  2.5504282E+01
 1.4645250E+01  2.5517021E+01
 1.4656751E+01  2.5489672E+01
 1.4668251E+01  2.5516438E+01
 1.4679750E+01  2.5518667E+01
 1.4691251E+01  2.5574852E+01
 1.4702751E+01  2.5502356E+01
 1.4714251E+01  2.5508739E+01
 1.4725751E+01  2.5383917E+01
 1.4737250E+01  2.5307468E+01
 1.4748751E+01  2.5185228E+01
 1.4760251E+01  2.5155092E+01
 1.4771750E+01  2.5190241E+01
 1.4783251E+01  2.5195225E+01
 1.4794751E+01  2.5197020E+01
 1.4806251E+01  2.5161840E+01
 1.4817751E+01  2.5166273E+01
 1.4829250E+01  2.5135927E+01
 1.4840751E+01  2.5155127E+01
 1.4852251E+01  2.5172222E+01
 1.4863750E+01  2.5193060E+01
 1.4875251E+01  2.5162638E+01
 1.4886751E+01  2.5192389E+01
 1.4898251E+01  2.5181263E+01
 1.4909751E+01  2.5184134E+01
 1.4921250E+01  2.5132357E+01
 1.4932751E+01  2.5107849E+01
 1.4944251E+01  2.5069796E+01
 1.4955750E+01  2.5052486E+01
 1.4967251E+01  2.5038113E+01
 1.4978751E+01  2.5009680E+01
 1.4990251E+01  2.5014034E+01
 1.5001751E+01  2.4994177E+01
 1.5013250E+01  2.5053825E+01
 1.5024751E+01  2.5066137E+01
 1.5036251E+01  2.5085644E+01
 1.5047750E+01  2.5094793E+01
 1.5059251E+01  2.5134676E+01
 1.5070751E+01  2.5193310E+01
 1.5082251E+01  2.5167835E+01
 1.5093751E+01  2.5213551E+01
 1.5105250E+01  2.5325977E+01
 1.5116751E+01  2.5578220E+01
 1.5128251E+01  2.6004992E+01
 1.5139750E+01  2.6533844E+01
 1.5151251E+01  2.7246031E+01
 1.5162751E+01  2.7803297E+01
 1.5174251E+01  2.8271198E+01
 1.5185751E+01  2.8403067E+01
 1.5197250E+01  2.8259241E+01
 1.5208751E+01  2.7954025E+01
 1.5220251E+01  2.7581110E+01
 1.5231750E+01  2.7182854E+01
 1.5243251E+01  2.6695301E+01
 1.5254751E+01  2.6270060E+01
 1.5266251E+01  2.5833342E+01
 1.5277751E+01  2.5552288E+01
 1.5289250E+01  2.5358185E+01
 1.5300751E+01  2.5176296E+01
 1.5312251E+01  2.5099815E+01
 1.5323750E+01  2.4970379E+01
 1.5335251E+01  2.4957645E+01
 1.5346751E+01  2.4920929E+01
 1.5358251E+01  2.4924406E+01
 1.5369751E+01  2.4906717E+01
 1.5381250E+01  2.4876093E+01
 1.5392751E+01  2.4882765E+01
 1.5404251E+01  2.4873816E+01
 1.5415751E+01  2.4856535E+01
 1.5427251E+01  2.4767387E+01
 1.5438751E+01  2.4771271E+01
 1.5450251E+01  2.4713324E+01
 1.5461751E+01  2.4703455E+01
 1.5473250E+01  2.4624573E+01
 1.5484751E+01  2.4637188E+01
 1.5496251E+01  2.4611517E+01
 1.5507751E+01  2.4638025E+01
 1.5519251E+01  2.4651079E+01
 1.5530751E+01  2.4643156E+01
 1.5542251E+01  2.4602570E+01
 1.5553751E+01  2.4581516E+01
 1.5565250E+01  2.4636801E+01
 1.5576751E+01  2.4633556E+01
 1.5588251E+01  2.4610498E+01
 1.5599751E+01  2.4579584E+01
 1.5611251E+01  2.4596689E+01
 1.5622751E+01  2.4660875E+01
 1.5634251E+01  2.4706400E+01
 1.5645751E+01  2.4731300E+01
 1.5657250E+01  2.4680275E+01
 1.5668751E+01  2.4713148E+01
 1.5680251E+01  2.4699678E+01
 1.5691751E+01  2.4732477E+01
 1.5703251E+01  2.4735586E+01
 1.5714751E+01  2.4760056E+01
 1.5726251E+01  2.4747213E+01
 1.5737751E+01  2.4689692E+01
 1.5749250E+01  2.4710951E+01
 1.5760751E+01  2.4739246E+01
 1.5772251E+01  2.4746275E+01
 1.5783751E+01  2.4670038E+01
 1.5795251E+01  2.4694122E+01
 1.5806751E+01  2.4771023E+01
 1.5818251E+01  2.4849380E+01
 1.5829751E+01  2.4898214E+01
 1.5841250E+01  2.4868816E+01
 1.5852751E+01  2.4844540E+01
 1.5864251E+01  2.4764187E+01
 1.5875751E+01  2.4734087E+01
 1.5887251E+01  2.4750326E+01
 1.5898750E+01  2.4795349E+01
 1.5910251E+01  2.4868170E+01
 1.5921751E+01  2.4872313E+01
 1.5933250E+01  2.4825926E+01
 1.5944751E+01  2.4759388E+01
 1.5956251E+01  2.4710821E+01
 1.5967751E+01  2.4712006E+01
 1.5979251E+01  2.4710009E+01
 1.5990750E+01  2.4780603E+01
 1.6002251E+01  2.4809868E+01
 1.6013750E+01  2.4880428E+01
 1.6025251E+01  2.4933495E+01
 1.6036751E+01  2.4984209E+01
 1.6048250E+01  2.5016108E+01
 1.6059752E+01  2.5005224E+01
 1.6071251E+01  2.5011906E+01
 1.6082750E+01  2.5006037E+01
 1.6094252E+01  2.4986191E+01
 1.6105751E+01  2.5028017E+01
 1.6117250E+01  2.5010742E+01
 1.6128750E+01  2.4998182E+01
 1.6140251E+01  2.5036974E+01
 1.6151751E+01  2.5080154E+01
 1.6163250E+01  2.5225325E+01
 1.6174751E+01  2.5193903E+01
 1.6186251E+01  2.5431541E+01
 1.6197750E+01  2.5304125E+01
 1.6209251E+01  2.5652250E+01
 1.6220751E+01  2.5536753E+01
 1.6232250E+01  2.6008913E+01
 1.6243752E+01  2.6098228E+01
 1.6255251E+01  2.6415981E+01
 1.6266750E+01  2.6592840E+01
 1.6278252E+01  2.6343540E+01
 1.6289751E+01  2.6346991E+01
 1.6301250E+01  2.5635229E+01
 1.6312750E+01  2.5639347E+01
 1.6324251E+01  2.5113779E+01
 1.6335751E+01  2.5115343E+01
 1.6347250E+01  2.4919724E+01
 1.6358751E+01  2.4882044E+01
 1.6370251E+01  2.4746038E+01
 1.6381750E+01  2.4655569E+01
 1.6393251E+01  2.4701365E+01
 1.6404751E+01  2.4750883E+01
 1.6416250E+01  2.4854261E+01
 1.6427752E+01  2.4877001E+01
 1.6439251E+01  2.4906223E+01
 1.6450750E+01  2.4864939E+01
 1.6462252E+01  2.4799479E+01
 1.6473751E+01  2.4766073E+01
 1.6485250E+01  2.4779064E+01
 1.6496750E+01  2.4793333E+01
 1.6508251E+01  2.4832987E+01
 1.6519751E+01  2.4795273E+01
 1.6531250E+01  2.4805405E+01
 1.6542751E+01  2.4823103E+01
 1.6554251E+01  2.4833532E+01
 1.6565750E+01  2.4803215E+01
 1.6577251E+01  2.4789774E+01
 1.6588751E+01  2.4791708E+01
 1.6600250E+01  2.4734913E+01
 1.6611752E+01  2.4694170E+01
 1.6623251E+01  2.4663733E+01
 1.6634750E+01  2.4677940E+01
 1.6646252E+01  2.4680040E+01
 1.6657751E+01  2.4665035E+01
 1.6669250E+01  2.4682699E+01
 1.6680750E+01  2.4629715E+01
 1.6692251E+01  2.4607920E+01
 1.6703751E+01  2.4608879E+01
 1.6715250E+01  2.4619627E+01
 1.6726751E+01  2.4788164E+01
 1.6738251E+01  2.4753662E+01
 1.6749750E+01  2.4789604E+01
 1.6761251E+01  2.4650288E+01
 1.6772751E+01  2.4631588E+01
 1.6784250E+01  2.4574291E+01
 1.6795752E+01  2.4542479E+01
 1.6807251E+01  2.4568653E+01
 1.6818750E+01  2.4548494E+01
 1.6830252E+01  2.4577198E+01
 1.6841751E+01  2.4581612E+01
 1.6853251E+01  2.4566004E+01
 1.6864750E+01  2.4544083E+01
 1.6876251E+01  2.4553314E+01
 1.6887751E+01  2.4582340E+01
 1.6899250E+01  2.4568249E+01
 1.6910751E+01  2.4536999E+01
 1.6922251E+01  2.4551216E+01
 1.6933750E+01  2.4551554E+01
 1.6945251E+01  2.4511688E+01
 1.6956751E+01  2.4444942E+01
 1.6968250E+01  2.4419367E+01
 1.6979752E+01  2.4432552E+01
 1.6991251E+01  2.4462173E+01
 1.7002750E+01  2.4457577E+01
 1.7014252E+01  2.4495232E+01
 1.7025751E+01  2.4477812E+01
 1.7037251E+01  2.4482269E+01
 1.7048750E+01  2.4454208E+01
 1.7060251E+01  2.4387171E+01
 1.7071751E+01  2.4361528E+01
 1.7083250E+01  2.4371389E+01
 1.7094751E+01  2.4421389E+01
 1.7106251E+01  2.4429586E+01
 1.7117750E+01  2.4418619E+01
 1.7129251E+01  2.4381945E+01
 1.7140751E+01  2.4331650E+01
 1.7152250E+01  2.4237959E+01
 1.7163752E+01  2.4242107E+01
 1.7175251E+01  2.4284355E+01
 1.7186750E+01  2.4347538E+01
 1.7198252E+01  2.4345352E+01
 1.7209751E+01  2.4356464E+01
 1.7221251E+01  2.4353411E+01
 1.7232750E+01  2.4358509E+01
 1.7244251E+01  2.4282604E+01
 1.7255751E+01  2.4196527E+01
 1.7267250E+01  2.4174076E+01
 1.7278751E+01  2.4199009E+01
 1.7290251E+01  2.4215790E+01
 1.7301750E+01  2.4208757E+01
 1.7313251E+01  2.4208847E+01
 1.7324751E+01  2.4232147E+01
 1.7336250E+01  2.4238163E+01
 1.7347752E+01  2.4196795E+01
 1.7359251E+01  2.4199911E+01
 1.7370750E+01  2.4209589E+01
 1.7382252E+01  2.4211466E+01
 1.7393751E+01  2.4124357E+01
 1.7405251E+01  2.4075464E+01
 1.7416750E+01  2.4055101E+01
 1.7428251E+01  2.4084599E+01
 1.7439751E+01  2.4105078E+01
 1.7451250E+01  2.4114466E+01
 1.7462751E+01  2.4166101E+01
 1.7474251E+01  2.4192442E+01
 1.7485750E+01  2.4261105E+01
 1.7497252E+01  2.4218405E+01
 1.7508751E+01  2.4177601E+01
 1.7520250E+01  2.4133532E+01
 1.7531752E+01  2.4134214E+01
 1.7543251E+01  2.4118917E+01
 1.7554750E+01  2.4114902E+01
 1.7566252E+01  2.4092646E+01
 1.7577751E+01  2.4106897E+01
 1.7589251E+01  2.4067537E+01
 1.7600750E+01  2.4095032E+01
 1.7612251E+01  2.4139002E+01
 1.7623751E+01  2.4214439E+01
 1.7635250E+01  2.4209610E+01
 1.7646751E+01  2.4178339E+01
 1.7658251E+01  2.4108459E+01
 1.7669750E+01  2.4068693E+01
 1.7681252E+01  2.4017246E+01
 1.7692751E+01  2.4027510E+01
 1.7704250E+01  2.4048380E+01
 1.7715752E+01  2.4042828E+01
 1.7727251E+01  2.4070957E+01
 1.7738750E+01  2.4032310E+01
 1.7750252E+01  2.4052526E+01
 1.7761751E+01  2.4028521E+01
 1.7773251E+01  2.4045336E+01
 1.7784750E+01  2.4038761E+01
 1.7796251E+01  2.4087313E+01
 1.7807751E+01  2.4048861E+01
 1.7819250E+01  2.4029041E+01
 1.7830751E+01  2.3986748E+01
 1.7842251E+01  2.4052622E+01
 1.7853750E+01  2.4068340E+01
 1.7865252E+01  2.4106207E+01
 1.7876751E+01  2.4096075E+01
 1.7888250E+01  2.4035973E+01
 1.7899752E+01  2.3972094E+01
 1.7911251E+01  2.3950960E+01
 1.7922750E+01  2.3969757E+01
 1.7934252E+01  2.4025259E+01
 1.7945751E+01  2.4121952E+01
 1.7957251E+01  2.4280903E+01
 1.7968750E+01  2.4442270E+01
 1.7980251E+01  2.4613607E+01
 1.7991751E+01  2.5011795E+01
 1.8003250E+01  2.5299124E+01
 1.8014751E+01  2.5829859E+01
 1.8026251E+01  2.6160395E+01
 1.8037750E+01  2.6694347E+01
 1.8049252E+01  2.7298759E+01
 1.8060751E+01  2.7487747E+01
 1.8072250E+01  2.8532948E+01
 1.8083752E+01  2.8665756E+01
 1.8095251E+01  2.9491592E+01
 1.8106750E+01  2.9236626E+01
 1.8118252E+01  2.9612885E+01
 1.8129751E+01  2.9447227E+01
 1.8141251E+01  2.8729563E+01
 1.8152750E+01  2.8229286E+01
 1.8164251E+01  2.6956524E+01
 1.8175751E+01  2.6349787E+01
 1.8187250E+01  2.5305696E+01
 1.8198751E+01  2.4891600E+01
 1.8210251E+01  2.4488493E+01
 1.8221750E+01  2.4265726E+01
 1.8233252E+01  2.4111509E+01
 1.8244751E+01  2.4028913E+01
 1.8256250E+01  2.4000549E+01
 1.8267752E+01  2.3988958E+01
 1.8279251E+01  2.3998451E+01
 1.8290751E+01  2.3984798E+01
 1.8302252E+01  2.3928028E+01
 1.8313751E+01  2.3856586E+01
 1.8325251E+01  2.3828732E+01
 1.8336750E+01  2.3827877E+01
 1.8348251E+01  2.3800558E+01
 1.8359751E+01  2.3816597E+01
 1.8371250E+01  2.3819338E+01
 1.8382751E+01  2.3833412E+01
 1.8394251E+01  2.3844088E+01
 1.8405750E+01  2.3881735E+01
 1.8417252E+01  2.3886965E+01
 1.8428751E+01  2.3873165E+01
 1.8440250E+01  2.3865108E+01
 1.8451752E+01  2.3855705E+01
 1.8463251E+01  2.3844957E+01
 1.8474751E+01  2.3849909E+01
 1.8486252E+01  2.3809265E+01
 1.8497751E+01  2.3790394E+01
 1.8509251E+01  2.3767773E+01
 1.8520750E+01  2.3749762E+01
 1.8532251E+01  2.3761478E+01
 1.8543751E+01  2.3739033E+01
 1.8555250E+01  2.3768560E+01
 1.8566751E+01  2.3780502E+01
 1.8578251E+01  2.3795555E+01
 1.8589750E+01  2.3823416E+01
 1.8601252E+01  2.3866560E+01
 1.8612751E+01  2.3847998E+01
 1.8624250E+01  2.3771635E+01
 1.8635752E+01  2.3769258E+01
 1.8647251E+01  2.3787748E+01
 1.8658751E+01  2.3814718E+01
 1.8670252E+01  2.3780819E+01
 1.8681751E+01  2.3777472E+01
 1.8693251E+01  2.3750950E+01
 1.8704750E+01  2.3766174E+01
 1.8716251E+01  2.3831388E+01
 1.8727751E+01  2.3835814E+01
 1.8739250E+01  2.3837587E+01
 1.8750751E+01  2.3786135E+01
 1.8762251E+01  2.3786249E+01
 1.8773750E+01  2.3761419E+01
 1.8785252E+01  2.3766190E+01
 1.8796751E+01  2.3808325E+01
 1.8808250E+01  2.3816418E+01
 1.8819752E+01  2.3846619E+01
 1.8831251E+01  2.3796585E+01
 1.8842751E+01  2.3796085E+01
 1.8854252E+01  2.3694914E+01
 1.8865751E+01  2.3672262E+01
 1.8877251E+01  2.3581064E+01
 1.8888750E+01  2.3580822E+01
 1.8900251E+01  2.3575111E+01
 1.8911751E+01  2.3576836E+01
 1.8923250E+01  2.3631712E+01
 1.8934752E+01  2.3691031E+01
 1.8946251E+01  2.3808611E+01
 1.8957750E+01  2.3796206E+01
 1.8969252E+01  2.3785292E+01
 1.8980751E+01  2.3746227E+01
 1.8992250E+01  2.3750607E+01
 1.9003752E+01  2.3793245E+01
 1.9015251E+01  2.3856630E+01
 1.9026751E+01  2.3847553E+01
 1.9038252E+01  2.3751539E+01
 1.9049751E+01  2.3673067E+01
 1.9061251E+01  2.3706577E+01
 1.9072750E+01  2.3720182E+01
 1.9084251E+01  2.3703751E+01
 1.9095751E+01  2.4199451E+01
 1.9107250E+01  2.4253481E+01
 1.9118752E+01  2.4278921E+01
 1.9130251E+01  2.4019543E+01
 1.9141750E+01  2.4038651E+01
 1.9153252E+01  2.3929184E+01
 1.9164751E+01  2.3736385E+01
 1.9176250E+01  2.3742968E+01
 1.9187752E+01  2.3680040E+01
 1.9199251E+01  2.3709438E+01
 1.9210751E+01  2.3717505E+01
 1.9222252E+01  2.3732990E+01
 1.9233751E+01  2.3768354E+01
 1.9245251E+01  2.3807692E+01
 1.9256750E+01  2.3829967E+01
 1.9268251E+01  2.3865143E+01
 1.9279751E+01  2.3810898E+01
 1.9291250E+01  2.3855009E+01
 1.9302752E+01  2.3866333E+01
 1.9314251E+01  2.3915604E+01
 1.9325750E+01  2.3866438E+01
 1.9337252E+01  2.3878782E+01
 1.9348751E+01  2.3908846E+01
 1.9360250E+01  2.3898840E+01
 1.9371752E+01  2.3878252E+01
 1.9383251E+01  2.3909769E+01
 1.9394751E+01  2.3967245E+01
 1.9406250E+01  2.3953865E+01
 1.9417751E+01  2.3948124E+01
 1.9429251E+01  2.3911243E+01
 1.9440750E+01  2.3928173E+01
 1.9452251E+01  2.3943600E+01
 1.9463751E+01  2.4003546E+01
 1.9475250E+01  2.4087410E+01
 1.9486752E+01  2.4110834E+01
 1.9498251E+01  2.4103493E+01
 1.9509750E+01  2.4057812E+01
 1.9521252E+01  2.4069151E+01
 1.9532751E+01  2.4126577E+01
 1.9544250E+01  2.4180662E+01
 1.9555752E+01  2.4261362E+01
 1.9567251E+01  2.4294937E+01
 1.9578751E+01  2.4437281E+01
 1.9590250E+01  2.4551493E+01
 1.9601751E+01  2.4702393E+01
 1.9613251E+01  2.4939051E+01
 1.9624750E+01  2.5049532E+01
 1.9636251E+01  2.5610693E+01
 1.9647751E+01  2.5955070E+01
 1.9659250E+01  2.6871826E+01
 1.9670752E+01  2.8944185E+01
 1.9682251E+01  2.9537804E+01
 1.9693750E+01  3.3721775E+01
 1.9705252E+01  3.4640602E+01
 1.9716751E+01  3.7032940E+01
 1.9728251E+01  3.7398769E+01
 1.9739752E+01  3.6805641E+01
 1.9751251E+01  3.5222130E+01
 1.9762751E+01  3.1424475E+01
 1.9774250E+01  3.1166348E+01
 1.9785751E+01  2.9141428E+01
 1.9797251E+01  2.9711489E+01
 1.9808750E+01  3.1535690E+01
 1.9820251E+01  3.3523891E+01
 1.9831751E+01  3.6443199E+01
 1.9843250E+01  3.7992062E+01
 1.9854752E+01  3.8750183E+01
 1.9866251E+01  3.8264164E+01
 1.9877750E+01  3.5958988E+01
 1.9889252E+01  3.3555683E+01
 1.9900751E+01  3.0936102E+01
 1.9912251E+01  2.9088753E+01
 1.9923752E+01  2.7290695E+01
 1.9935251E+01  2.6370882E+01
 1.9946751E+01  2.5739271E+01
 1.9958250E+01  2.5273693E+01
 1.9969751E+01  2.4989670E+01
 1.9981251E+01  2.4721512E+01
 1.9992750E+01  2.4596441E+01
 2.0004251E+01  2.4513599E+01
 2.0015751E+01  2.4457836E+01
 2.0027250E+01  2.4390596E+01
 2.0038752E+01  2.4357210E+01
 2.0050251E+01  2.4357414E+01
 2.0061750E+01  2.4304869E+01
 2.0073252E+01  2.4272341E+01
 2.0084751E+01  2.4239212E+01
 2.0096251E+01  2.4243320E+01
 2.0107752E+01  2.4223772E+01
 2.0119251E+01  2.4198225E+01
 2.0130751E+01  2.4138784E+01
 2.0142250E+01  2.4058825E+01
 2.0153751E+01  2.3999966E+01
 2.0165251E+01  2.3980593E+01
 2.0176750E+01  2.3978998E+01
 2.0188251E+01  2.3930761E+01
 2.0199751E+01  2.3918406E+01
 2.0211250E+01  2.3922251E+01
 2.0222752E+01  2.3962839E+01
 2.0234251E+01  2.4003345E+01
 2.0245750E+01  2.4028622E+01
 2.0257252E+01  2.4032730E+01
 2.0268751E+01  2.3985157E+01
 2.0280251E+01  2.3971743E+01
 2.0291752E+01  2.3938793E+01
 2.0303251E+01  2.3936258E+01
 2.0314751E+01  2.3933306E+01
 2.0326250E+01  2.3930775E+01
 2.0337751E+01  2.4003571E+01
 2.0349251E+01  2.4013746E+01
 2.0360750E+01  2.4014027E+01
 2.0372252E+01  2.3927704E+01
 2.0383751E+01  2.3912159E+01
 2.0395250E+01  2.3900616E+01
 2.0406752E+01  2.3910437E+01
 2.0418251E+01  2.3923939E+01
 2.0429750E+01  2.3951298E+01
 2.0441252E+01  2.3944706E+01
 2.0452751E+01  2.3929472E+01
 2.0464251E+01  2.3888189E+01
 2.0475752E+01  2.3896042E+01
 2.0487251E+01  2.3894381E+01
 2.0498751E+01  2.3960564E+01
 2.0510250E+01  2.3963566E+01
 2.0521751E+01  2.3976994E+01
 2.0533251E+01  2.3947161E+01
 2.0544750E+01  2.3933804E+01
 2.0556252E+01  2.3950336E+01
 2.0567751E+01  2.3963573E+01
 2.0579250E+01  2.3964285E+01
 2.0590752E+01  2.4009350E+01
 2.0602251E+01  2.4069141E+01
 2.0613750E+01  2.4080942E+01
 2.0625252E+01  2.4089212E+01
 2.0636751E+01  2.4145247E+01
 2.0648251E+01  2.4152767E+01
 2.0659752E+01  2.4140221E+01
 2.0671251E+01  2.4188997E+01
 2.0682751E+01  2.4359343E+01
 2.0694250E+01  2.4518707E+01
 2.0705751E+01  2.4805933E+01
 2.0717251E+01  2.5100685E+01
 2.0728750E+01  2.5522840E+01
 2.0740252E+01  2.5800806E+01
 2.0751751E+01  2.6132526E+01
 2.0763250E+01  2.6275293E+01
 2.0774752E+01  2.6325315E+01
 2.0786251E+01  2.6150698E+01
 2.0797750E+01  2.5911831E+01
 2.0809252E+01  2.5534781E+01
 2.0820751E+01  2.5178375E+01
 2.0832251E+01  2.4801657E+01
 2.0843752E+01  2.4519709E+01
 2.0855251E+01  2.4352655E+01
 2.0866751E+01  2.4262510E+01
 2.0878250E+01  2.4248096E+01
 2.0889751E+01  2.4205976E+01
 2.0901251E+01  2.4211334E+01
 2.0912750E+01  2.4192446E+01
 2.0924252E+01  2.4213602E+01
 2.0935751E+01  2.4200958E+01
 2.0947250E+01  2.4208981E+01
 2.0958752E+01  2.4159893E+01
 2.0970251E+01  2.4120249E+01
 2.0981750E+01  2.4066345E+01
 2.0993252E+01  2.4057253E+01
 2.1004751E+01  2.4073629E+01
 2.1016251E+01  2.4058002E+01
 2.1027752E+01  2.4064920E+01
 2.1039251E+01  2.4077526E+01
 2.1050751E+01  2.4089273E+01
 2.1062250E+01  2.4095850E+01
 2.1073751E+01  2.4132536E+01
 2.1085251E+01  2.4127382E+01
 2.1096750E+01  2.4086288E+01
 2.1108252E+01  2.4074308E+01
 2.1119751E+01  2.4048817E+01
 2.1131250E+01  2.4043068E+01
 2.1142752E+01  2.4018595E+01
 2.1154251E+01  2.3993530E+01
 2.1165751E+01  2.4012280E+01
 2.1177252E+01  2.4078226E+01
 2.1188751E+01  2.4127718E+01
 2.1200251E+01  2.4158854E+01
 2.1211752E+01  2.4158352E+01
 2.1223251E+01  2.4155447E+01
 2.1234751E+01  2.4091246E+01
 2.1246250E+01  2.4054947E+01
 2.1257751E+01  2.3994810E+01
 2.1269251E+01  2.3997261E+01
 2.1280750E+01  2.4049417E+01
 2.1292252E+01  2.4049768E+01
 2.1303751E+01  2.4060072E+01
 2.1315250E+01  2.4019367E+01
 2.1326752E+01  2.4077244E+01
 2.1338251E+01  2.4127260E+01
 2.1349751E+01  2.4170893E+01
 2.1361252E+01  2.4166870E+01
 2.1372751E+01  2.4167044E+01
 2.1384251E+01  2.4146242E+01
 2.1395752E+01  2.4120453E+01
 2.1407251E+01  2.4092966E+01
 2.1418751E+01  2.4104664E+01
 2.1430250E+01  2.4103506E+01
 2.1441751E+01  2.4077269E+01
 2.1453251E+01  2.4094248E+01
 2.1464750E+01  2.4107714E+01
 2.1476252E+01  2.4152996E+01
 2.1487751E+01  2.4218201E+01
 2.1499250E+01  2.4244137E+01
 2.1510752E+01  2.4274408E+01
 2.1522251E+01  2.4293255E+01
 2.1533751E+01  2.4322437E+01
 2.1545252E+01  2.4322113E+01
 2.1556751E+01  2.4301229E+01
 2.1568251E+01  2.4235092E+01
 2.1579752E+01  2.4232067E+01
 2.1591251E+01  2.4271351E+01
 2.1602751E+01  2.4285255E+01
 2.1614250E+01  2.4247654E+01
 2.1625751E+01  2.4263258E+01
 2.1637251E+01  2.4247301E+01
 2.1648750E+01  2.4255888E+01
 2.1660252E+01  2.4270441E+01
 2.1671751E+01  2.4334023E+01
 2.1683250E+01  2.4324450E+01
 2.1694752E+01  2.4293205E+01
 2.1706251E+01  2.4312521E+01
 2.1717751E+01  2.4345184E+01
 2.1729252E+01  2.4416122E+01
 2.1740751E+01  2.4430882E+01
 2.1752251E+01  2.4407082E+01
 2.1763752E+01  2.4375031E+01
 2.1775251E+01  2.4376871E+01
 2.1786751E+01  2.4394142E+01
 2.1798250E+01  2.4389091E+01
 2.1809752E+01  2.4386971E+01
 2.1821251E+01  2.4389328E+01
 2.1832750E+01  2.4360720E+01
 2.1844252E+01  2.4348696E+01
 2.1855751E+01  2.4328085E+01
 2.1867250E+01  2.4358055E+01
 2.1878752E+01  2.4401442E+01
 2.1890251E+01  2.4389820E+01
 2.1901751E+01  2.4391489E+01
 2.1913252E+01  2.4416569E+01
 2.1924751E+01  2.4370289E+01
 2.1936251E+01  2.4346741E+01
 2.1947752E+01  2.4393536E+01
 2.1959251E+01  2.4473314E+01
 2.1970751E+01  2.4517332E+01
 2.1982250E+01  2.4534868E+01
 2.1993752E+01  2.4529152E+01
 2.2005251E+01  2.4463608E+01
 2.2016750E+01  2.4446918E+01
 2.2028252E+01  2.4419703E+01
 2.2039751E+01  2.4396145E+01
 2.2051250E+01  2.4403276E+01
 2.2062752E+01  2.4395573E+01
 2.2074251E+01  2.4433800E+01
 2.2085751E+01  2.4443192E+01
 2.2097252E+01  2.4491940E+01
 2.2108751E+01  2.4484940E+01
 2.2120251E+01  2.4545403E+01
 2.2131752E+01  2.4529001E+01
 2.2143251E+01  2.4513393E+01
 2.2154751E+01  2.4468157E+01
 2.2166250E+01  2.4493069E+01
 2.2177752E+01  2.4542761E+01
 2.2189251E+01  2.4564754E+01
 2.2200750E+01  2.4581875E+01
 2.2212252E+01  2.4626732E+01
 2.2223751E+01  2.4691578E+01
 2.2235250E+01  2.4741997E+01
 2.2246752E+01  2.4731371E+01
 2.2258251E+01  2.4693373E+01
 2.2269751E+01  2.4611282E+01
 2.2281252E+01  2.4605383E+01
 2.2292751E+01  2.4635984E+01
 2.2304251E+01  2.4695583E+01
 2.2315752E+01  2.4747261E+01
 2.2327251E+01  2.4739367E+01
 2.2338751E+01  2.4754314E+01
 2.2350250E+01  2.4797411E+01
 2.2361752E+01  2.4780941E+01
 2.2373251E+01  2.4717501E+01
 2.2384750E+01  2.4674994E+01
 2.2396252E+01  2.4664040E+01
 2.2407751E+01  2.4624521E+01
 2.2419250E+01  2.4628662E+01
 2.2430752E+01  2.4686182E+01
 2.2442251E+01  2.4806004E+01
 2.2453751E+01  2.4875763E+01
 2.2465252E+01  2.4902777E+01
 2.2476751E+01  2.4855867E+01
 2.2488251E+01  2.4863367E+01
 2.2499752E+01  2.4899612E+01
 2.2511251E+01  2.4965208E+01
 2.2522751E+01  2.4996557E+01
 2.2534250E+01  2.4996775E+01
 2.2545752E+01  2.5055761E+01
 2.2557251E+01  2.5056606E+01
 2.2568750E+01  2.5051992E+01
 2.2580252E+01  2.5036846E+01
 2.2591751E+01  2.5039215E+01
 2.2603251E+01  2.5050583E+01
 2.2614752E+01  2.5099485E+01
 2.2626251E+01  2.5133621E+01
 2.2637751E+01  2.5112183E+01
 2.2649252E+01  2.5120214E+01
 2.2660751E+01  2.5130371E+01
 2.2672251E+01  2.5199135E+01
 2.2683752E+01  2.5293980E+01
 2.2695251E+01  2.5390100E+01
 2.2706751E+01  2.5414188E+01
 2.2718250E+01  2.5461685E+01
 2.2729752E+01  2.5484640E+01
 2.2741251E+01  2.5515432E+01
 2.2752750E+01  2.5480558E+01
 2.2764252E+01  2.5456099E+01
 2.2775751E+01  2.5418629E+01
 2.2787251E+01  2.5380503E+01
 2.2798752E+01  2.5383757E+01
 2.2810251E+01  2.5423649E+01
 2.2821751E+01  2.5481745E+01
 2.2833252E+01  2.5541716E+01
 2.2844751E+01  2.5649588E+01
 2.2856251E+01  2.5706612E+01
 2.2867750E+01  2.5794807E+01
 2.2879251E+01  2.5802267E+01
 2.2890751E+01  2.5881514E+01
 2.2902250E+01  2.5869555E+01
 2.2913752E+01  2.6021368E+01
 2.2925251E+01  2.6150114E+01
 2.2936750E+01  2.6255959E+01
 2.2948252E+01  2.6312260E+01
 2.2959751E+01  2.6365656E+01
 2.2971251E+01  2.6486506E+01
 2.2982752E+01  2.6543882E+01
 2.2994251E+01  2.6639120E+01
