F:\20151113_APS_34IDE\\Brian\Particle1\OCV\Data_0124.tif
2-Theta Angle (Degrees)
Intensity
       2000
 5.7500005E-03  0.0000000E+00
 1.7250001E-02  0.0000000E+00
 2.8750001E-02  0.0000000E+00
 4.0250003E-02  0.0000000E+00
 5.1750004E-02  0.0000000E+00
 6.3250005E-02  0.0000000E+00
 7.4750006E-02  0.0000000E+00
 8.6250007E-02  0.0000000E+00
 9.7750008E-02  0.0000000E+00
 1.0925001E-01  0.0000000E+00
 1.2075000E-01  0.0000000E+00
 1.3225001E-01  0.0000000E+00
 1.4375001E-01  0.0000000E+00
 1.5525001E-01  0.0000000E+00
 1.6675001E-01  0.0000000E+00
 1.7825001E-01  0.0000000E+00
 1.8975002E-01  0.0000000E+00
 2.0125002E-01  0.0000000E+00
 2.1275002E-01  0.0000000E+00
 2.2425000E-01  0.0000000E+00
 2.3575000E-01  0.0000000E+00
 2.4725001E-01  0.0000000E+00
 2.5875002E-01  0.0000000E+00
 2.7025002E-01  0.0000000E+00
 2.8175002E-01  0.0000000E+00
 2.9325002E-01  0.0000000E+00
 3.0475003E-01  0.0000000E+00
 3.1625003E-01  0.0000000E+00
 3.2775003E-01  0.0000000E+00
 3.3925003E-01  0.0000000E+00
 3.5075003E-01  0.0000000E+00
 3.6225003E-01  0.0000000E+00
 3.7375003E-01  0.0000000E+00
 3.8525003E-01  0.0000000E+00
 3.9675003E-01  0.0000000E+00
 4.0825003E-01  0.0000000E+00
 4.1975003E-01  0.0000000E+00
 4.3125004E-01  0.0000000E+00
 4.4275001E-01  0.0000000E+00
 4.5425001E-01  0.0000000E+00
 4.6575001E-01  0.0000000E+00
 4.7725001E-01  0.0000000E+00
 4.8875001E-01  0.0000000E+00
 5.0025004E-01  0.0000000E+00
 5.1175004E-01  0.0000000E+00
 5.2325004E-01  0.0000000E+00
 5.3475004E-01  0.0000000E+00
 5.4625005E-01  0.0000000E+00
 5.5775005E-01  0.0000000E+00
 5.6925005E-01  0.0000000E+00
 5.8075005E-01  0.0000000E+00
 5.9225005E-01  0.0000000E+00
 6.0375005E-01  0.0000000E+00
 6.1525005E-01  0.0000000E+00
 6.2675005E-01  0.0000000E+00
 6.3825005E-01  0.0000000E+00
 6.4975005E-01  0.0000000E+00
 6.6125005E-01  0.0000000E+00
 6.7275006E-01  0.0000000E+00
 6.8425006E-01  0.0000000E+00
 6.9575006E-01  0.0000000E+00
 7.0725006E-01  0.0000000E+00
 7.1875006E-01  0.0000000E+00
 7.3025006E-01  0.0000000E+00
 7.4175006E-01  0.0000000E+00
 7.5325006E-01  0.0000000E+00
 7.6475006E-01  0.0000000E+00
 7.7625006E-01  0.0000000E+00
 7.8775007E-01  0.0000000E+00
 7.9925007E-01  0.0000000E+00
 8.1075007E-01  0.0000000E+00
 8.2225007E-01  0.0000000E+00
 8.3375007E-01  0.0000000E+00
 8.4525007E-01  0.0000000E+00
 8.5675007E-01  0.0000000E+00
 8.6825007E-01  0.0000000E+00
 8.7975001E-01  0.0000000E+00
 8.9125001E-01  0.0000000E+00
 9.0275002E-01  0.0000000E+00
 9.1425002E-01  0.0000000E+00
 9.2575002E-01  0.0000000E+00
 9.3725002E-01  0.0000000E+00
 9.4875002E-01  0.0000000E+00
 9.6025002E-01  0.0000000E+00
 9.7175002E-01  0.0000000E+00
 9.8325002E-01  0.0000000E+00
 9.9475002E-01  0.0000000E+00
 1.0062500E+00  0.0000000E+00
 1.0177500E+00  0.0000000E+00
 1.0292500E+00  0.0000000E+00
 1.0407500E+00  0.0000000E+00
 1.0522500E+00  0.0000000E+00
 1.0637500E+00  0.0000000E+00
 1.0752500E+00  0.0000000E+00
 1.0867500E+00  0.0000000E+00
 1.0982500E+00  0.0000000E+00
 1.1097500E+00  0.0000000E+00
 1.1212500E+00  0.0000000E+00
 1.1327500E+00  0.0000000E+00
 1.1442500E+00  0.0000000E+00
 1.1557500E+00  0.0000000E+00
 1.1672500E+00  0.0000000E+00
 1.1787500E+00  0.0000000E+00
 1.1902500E+00  0.0000000E+00
 1.2017500E+00  0.0000000E+00
 1.2132500E+00  0.0000000E+00
 1.2247500E+00  0.0000000E+00
 1.2362500E+00  0.0000000E+00
 1.2477500E+00  0.0000000E+00
 1.2592500E+00  0.0000000E+00
 1.2707500E+00  0.0000000E+00
 1.2822500E+00  0.0000000E+00
 1.2937500E+00  0.0000000E+00
 1.3052500E+00  0.0000000E+00
 1.3167500E+00  0.0000000E+00
 1.3282501E+00  0.0000000E+00
 1.3397501E+00  0.0000000E+00
 1.3512501E+00  0.0000000E+00
 1.3627501E+00  0.0000000E+00
 1.3742501E+00  0.0000000E+00
 1.3857501E+00  0.0000000E+00
 1.3972501E+00  0.0000000E+00
 1.4087501E+00  0.0000000E+00
 1.4202501E+00  0.0000000E+00
 1.4317501E+00  0.0000000E+00
 1.4432501E+00  0.0000000E+00
 1.4547501E+00  0.0000000E+00
 1.4662501E+00  0.0000000E+00
 1.4777501E+00  0.0000000E+00
 1.4892501E+00  0.0000000E+00
 1.5007501E+00  0.0000000E+00
 1.5122501E+00  0.0000000E+00
 1.5237501E+00  0.0000000E+00
 1.5352501E+00  0.0000000E+00
 1.5467501E+00  0.0000000E+00
 1.5582501E+00  0.0000000E+00
 1.5697501E+00  0.0000000E+00
 1.5812501E+00  0.0000000E+00
 1.5927501E+00  0.0000000E+00
 1.6042501E+00  0.0000000E+00
 1.6157501E+00  0.0000000E+00
 1.6272501E+00  0.0000000E+00
 1.6387501E+00  0.0000000E+00
 1.6502501E+00  0.0000000E+00
 1.6617501E+00  0.0000000E+00
 1.6732501E+00  0.0000000E+00
 1.6847501E+00  0.0000000E+00
 1.6962501E+00  0.0000000E+00
 1.7077501E+00  0.0000000E+00
 1.7192501E+00  0.0000000E+00
 1.7307501E+00  0.0000000E+00
 1.7422501E+00  0.0000000E+00
 1.7537501E+00  0.0000000E+00
 1.7652501E+00  0.0000000E+00
 1.7767501E+00  0.0000000E+00
 1.7882501E+00  0.0000000E+00
 1.7997501E+00  0.0000000E+00
 1.8112501E+00  0.0000000E+00
 1.8227501E+00  0.0000000E+00
 1.8342501E+00  0.0000000E+00
 1.8457501E+00  0.0000000E+00
 1.8572501E+00  0.0000000E+00
 1.8687501E+00  0.0000000E+00
 1.8802501E+00  0.0000000E+00
 1.8917501E+00  0.0000000E+00
 1.9032501E+00  0.0000000E+00
 1.9147501E+00  0.0000000E+00
 1.9262501E+00  0.0000000E+00
 1.9377501E+00  0.0000000E+00
 1.9492501E+00  0.0000000E+00
 1.9607501E+00  0.0000000E+00
 1.9722501E+00  0.0000000E+00
 1.9837501E+00  0.0000000E+00
 1.9952501E+00  0.0000000E+00
 2.0067501E+00  0.0000000E+00
 2.0182500E+00  0.0000000E+00
 2.0297501E+00  0.0000000E+00
 2.0412500E+00  0.0000000E+00
 2.0527501E+00  0.0000000E+00
 2.0642500E+00  0.0000000E+00
 2.0757501E+00  0.0000000E+00
 2.0872500E+00  0.0000000E+00
 2.0987501E+00  0.0000000E+00
 2.1102500E+00  0.0000000E+00
 2.1217501E+00  0.0000000E+00
 2.1332500E+00  0.0000000E+00
 2.1447501E+00  0.0000000E+00
 2.1562500E+00  0.0000000E+00
 2.1677501E+00  0.0000000E+00
 2.1792500E+00  0.0000000E+00
 2.1907501E+00  0.0000000E+00
 2.2022500E+00  0.0000000E+00
 2.2137501E+00  0.0000000E+00
 2.2252500E+00  0.0000000E+00
 2.2367501E+00  0.0000000E+00
 2.2482500E+00  0.0000000E+00
 2.2597501E+00  0.0000000E+00
 2.2712500E+00  0.0000000E+00
 2.2827501E+00  0.0000000E+00
 2.2942500E+00  0.0000000E+00
 2.3057501E+00  0.0000000E+00
 2.3172500E+00  0.0000000E+00
 2.3287501E+00  0.0000000E+00
 2.3402500E+00  0.0000000E+00
 2.3517501E+00  0.0000000E+00
 2.3632500E+00  0.0000000E+00
 2.3747501E+00  0.0000000E+00
 2.3862500E+00  0.0000000E+00
 2.3977501E+00  0.0000000E+00
 2.4092500E+00  0.0000000E+00
 2.4207501E+00  0.0000000E+00
 2.4322500E+00  0.0000000E+00
 2.4437501E+00  0.0000000E+00
 2.4552500E+00  0.0000000E+00
 2.4667501E+00  0.0000000E+00
 2.4782500E+00  0.0000000E+00
 2.4897501E+00  0.0000000E+00
 2.5012500E+00  0.0000000E+00
 2.5127501E+00  0.0000000E+00
 2.5242500E+00  0.0000000E+00
 2.5357502E+00  0.0000000E+00
 2.5472500E+00  0.0000000E+00
 2.5587502E+00  0.0000000E+00
 2.5702500E+00  0.0000000E+00
 2.5817502E+00  0.0000000E+00
 2.5932500E+00  0.0000000E+00
 2.6047502E+00  0.0000000E+00
 2.6162500E+00  0.0000000E+00
 2.6277502E+00  0.0000000E+00
 2.6392500E+00  0.0000000E+00
 2.6507502E+00  0.0000000E+00
 2.6622500E+00  0.0000000E+00
 2.6737502E+00  0.0000000E+00
 2.6852500E+00  0.0000000E+00
 2.6967502E+00  0.0000000E+00
 2.7082500E+00  0.0000000E+00
 2.7197502E+00  0.0000000E+00
 2.7312500E+00  0.0000000E+00
 2.7427502E+00  0.0000000E+00
 2.7542500E+00  0.0000000E+00
 2.7657502E+00  0.0000000E+00
 2.7772501E+00  0.0000000E+00
 2.7887502E+00  0.0000000E+00
 2.8002501E+00  0.0000000E+00
 2.8117502E+00  0.0000000E+00
 2.8232501E+00  3.5647102E+01
 2.8347502E+00  3.4420078E+01
 2.8462501E+00  3.3542824E+01
 2.8577502E+00  3.3553226E+01
 2.8692501E+00  3.4096771E+01
 2.8807502E+00  3.4671036E+01
 2.8922501E+00  3.5095894E+01
 2.9037502E+00  3.5015606E+01
 2.9152501E+00  3.4691578E+01
 2.9267502E+00  3.4410603E+01
 2.9382501E+00  3.4222065E+01
 2.9497502E+00  3.4254704E+01
 2.9612501E+00  3.4401283E+01
 2.9727502E+00  3.4714817E+01
 2.9842501E+00  3.4854069E+01
 2.9957502E+00  3.5053902E+01
 3.0072501E+00  3.5269840E+01
 3.0187502E+00  3.5352081E+01
 3.0302501E+00  3.5702614E+01
 3.0417502E+00  3.5947983E+01
 3.0532501E+00  3.6221554E+01
 3.0647502E+00  3.6073765E+01
 3.0762501E+00  3.5832947E+01
 3.0877502E+00  3.5177818E+01
 3.0992501E+00  3.5216476E+01
 3.1107502E+00  3.5155582E+01
 3.1222501E+00  3.5798836E+01
 3.1337502E+00  3.6082661E+01
 3.1452501E+00  3.6918289E+01
 3.1567502E+00  3.7134472E+01
 3.1682501E+00  3.7341152E+01
 3.1797502E+00  3.7035229E+01
 3.1912501E+00  3.6709148E+01
 3.2027502E+00  3.6350060E+01
 3.2142501E+00  3.5499245E+01
 3.2257502E+00  3.5300964E+01
 3.2372501E+00  3.4653446E+01
 3.2487502E+00  3.4737637E+01
 3.2602501E+00  3.4626507E+01
 3.2717502E+00  3.4951630E+01
 3.2832501E+00  3.4872040E+01
 3.2947502E+00  3.5015400E+01
 3.3062501E+00  3.4984222E+01
 3.3177502E+00  3.5323341E+01
 3.3292501E+00  3.5341419E+01
 3.3407502E+00  3.5260792E+01
 3.3522501E+00  3.5257202E+01
 3.3637502E+00  3.5030842E+01
 3.3752501E+00  3.5047512E+01
 3.3867502E+00  3.4830963E+01
 3.3982501E+00  3.5128342E+01
 3.4097502E+00  3.5145908E+01
 3.4212501E+00  3.5085842E+01
 3.4327502E+00  3.4524685E+01
 3.4442501E+00  3.4138447E+01
 3.4557502E+00  3.3962681E+01
 3.4672501E+00  3.3669975E+01
 3.4787502E+00  3.3905258E+01
 3.4902501E+00  3.3894230E+01
 3.5017502E+00  3.4006920E+01
 3.5132501E+00  3.3859524E+01
 3.5247502E+00  3.4101856E+01
 3.5362501E+00  3.4219322E+01
 3.5477502E+00  3.4231251E+01
 3.5592501E+00  3.3873180E+01
 3.5707502E+00  3.3548557E+01
 3.5822501E+00  3.3296608E+01
 3.5937502E+00  3.3189388E+01
 3.6052501E+00  3.3202854E+01
 3.6167502E+00  3.3329231E+01
 3.6282501E+00  3.3318260E+01
 3.6397502E+00  3.3218895E+01
 3.6512501E+00  3.3201672E+01
 3.6627502E+00  3.3293156E+01
 3.6742501E+00  3.3408951E+01
 3.6857502E+00  3.3289188E+01
 3.6972501E+00  3.3506790E+01
 3.7087502E+00  3.3499996E+01
 3.7202501E+00  3.3535549E+01
 3.7317502E+00  3.3531338E+01
 3.7432501E+00  3.3522224E+01
 3.7547503E+00  3.3647781E+01
 3.7662501E+00  3.3449356E+01
 3.7777503E+00  3.3350899E+01
 3.7892501E+00  3.3154205E+01
 3.8007503E+00  3.2816944E+01
 3.8122501E+00  3.2704220E+01
 3.8237503E+00  3.2480652E+01
 3.8352501E+00  3.2523113E+01
 3.8467503E+00  3.2603096E+01
 3.8582501E+00  3.2739239E+01
 3.8697503E+00  3.2898399E+01
 3.8812501E+00  3.3071705E+01
 3.8927503E+00  3.3306816E+01
 3.9042501E+00  3.3246742E+01
 3.9157503E+00  3.3042896E+01
 3.9272501E+00  3.2921906E+01
 3.9387503E+00  3.2929596E+01
 3.9502501E+00  3.2961716E+01
 3.9617503E+00  3.2930691E+01
 3.9732502E+00  3.2874119E+01
 3.9847503E+00  3.2910721E+01
 3.9962502E+00  3.2807602E+01
 4.0077500E+00  3.2767151E+01
 4.0192504E+00  3.2575615E+01
 4.0307503E+00  3.2481773E+01
 4.0422502E+00  3.2380692E+01
 4.0537500E+00  3.2433529E+01
 4.0652504E+00  3.2489552E+01
 4.0767503E+00  3.2412388E+01
 4.0882502E+00  3.2360847E+01
 4.0997500E+00  3.2299980E+01
 4.1112504E+00  3.2251080E+01
 4.1227503E+00  3.2170609E+01
 4.1342502E+00  3.2241055E+01
 4.1457500E+00  3.2345589E+01
 4.1572504E+00  3.2400871E+01
 4.1687503E+00  3.2318287E+01
 4.1802502E+00  3.2369362E+01
 4.1917500E+00  3.2485825E+01
 4.2032504E+00  3.2621712E+01
 4.2147503E+00  3.2467171E+01
 4.2262502E+00  3.2384430E+01
 4.2377501E+00  3.2251202E+01
 4.2492504E+00  3.2153950E+01
 4.2607503E+00  3.2155075E+01
 4.2722502E+00  3.1951916E+01
 4.2837501E+00  3.1979002E+01
 4.2952504E+00  3.1859243E+01
 4.3067503E+00  3.1903563E+01
 4.3182502E+00  3.2047466E+01
 4.3297501E+00  3.2174755E+01
 4.3412504E+00  3.2301208E+01
 4.3527503E+00  3.2441624E+01
 4.3642502E+00  3.2437004E+01
 4.3757501E+00  3.2479988E+01
 4.3872504E+00  3.2268093E+01
 4.3987503E+00  3.2232010E+01
 4.4102502E+00  3.2205708E+01
 4.4217501E+00  3.2225651E+01
 4.4332504E+00  3.2309971E+01
 4.4447503E+00  3.2338760E+01
 4.4562502E+00  3.2467812E+01
 4.4677501E+00  3.2450706E+01
 4.4792504E+00  3.2591969E+01
 4.4907503E+00  3.2460075E+01
 4.5022502E+00  3.2505409E+01
 4.5137501E+00  3.2422829E+01
 4.5252504E+00  3.2484058E+01
 4.5367503E+00  3.2478172E+01
 4.5482502E+00  3.2348866E+01
 4.5597501E+00  3.2298023E+01
 4.5712504E+00  3.2113323E+01
 4.5827503E+00  3.2114403E+01
 4.5942502E+00  3.2326359E+01
 4.6057501E+00  3.2575958E+01
 4.6172504E+00  3.2760822E+01
 4.6287503E+00  3.2829475E+01
 4.6402502E+00  3.2916397E+01
 4.6517501E+00  3.2956940E+01
 4.6632504E+00  3.2971607E+01
 4.6747503E+00  3.2894779E+01
 4.6862502E+00  3.2894184E+01
 4.6977501E+00  3.2794388E+01
 4.7092505E+00  3.2828411E+01
 4.7207503E+00  3.2832340E+01
 4.7322502E+00  3.2781467E+01
 4.7437501E+00  3.2679737E+01
 4.7552505E+00  3.2645977E+01
 4.7667503E+00  3.2687752E+01
 4.7782502E+00  3.2586929E+01
 4.7897501E+00  3.2601440E+01
 4.8012505E+00  3.2559216E+01
 4.8127503E+00  3.2698208E+01
 4.8242502E+00  3.2749508E+01
 4.8357501E+00  3.2855713E+01
 4.8472505E+00  3.2895756E+01
 4.8587503E+00  3.2996872E+01
 4.8702502E+00  3.3005009E+01
 4.8817501E+00  3.3040615E+01
 4.8932505E+00  3.3126011E+01
 4.9047503E+00  3.3110172E+01
 4.9162502E+00  3.3172611E+01
 4.9277501E+00  3.3023956E+01
 4.9392505E+00  3.3055733E+01
 4.9507504E+00  3.2895084E+01
 4.9622502E+00  3.2870174E+01
 4.9737501E+00  3.2896439E+01
 4.9852505E+00  3.3031609E+01
 4.9967504E+00  3.3102531E+01
 5.0082502E+00  3.3202335E+01
 5.0197501E+00  3.3255749E+01
 5.0312505E+00  3.3389542E+01
 5.0427504E+00  3.3412106E+01
 5.0542502E+00  3.3312454E+01
 5.0657501E+00  3.3268341E+01
 5.0772505E+00  3.3100224E+01
 5.0887504E+00  3.3084618E+01
 5.1002502E+00  3.3008694E+01
 5.1117501E+00  3.3023964E+01
 5.1232505E+00  3.3069912E+01
 5.1347504E+00  3.3290047E+01
 5.1462502E+00  3.3557053E+01
 5.1577501E+00  3.3867580E+01
 5.1692505E+00  3.3991016E+01
 5.1807504E+00  3.3979908E+01
 5.1922503E+00  3.3991623E+01
 5.2037501E+00  3.4030670E+01
 5.2152505E+00  3.3999554E+01
 5.2267504E+00  3.3983334E+01
 5.2382503E+00  3.3840633E+01
 5.2497501E+00  3.3796917E+01
 5.2612505E+00  3.3776657E+01
 5.2727504E+00  3.3801739E+01
 5.2842503E+00  3.3896259E+01
 5.2957501E+00  3.4011066E+01
 5.3072500E+00  3.4093487E+01
 5.3187504E+00  3.4329739E+01
 5.3302503E+00  3.4458694E+01
 5.3417501E+00  3.4558781E+01
 5.3532500E+00  3.4594067E+01
 5.3647504E+00  3.4506275E+01
 5.3762503E+00  3.4519127E+01
 5.3877501E+00  3.4508606E+01
 5.3992500E+00  3.4558052E+01
 5.4107504E+00  3.4559326E+01
 5.4222503E+00  3.4575382E+01
 5.4337502E+00  3.4534775E+01
 5.4452500E+00  3.4690308E+01
 5.4567504E+00  3.4711208E+01
 5.4682503E+00  3.4826916E+01
 5.4797502E+00  3.4846626E+01
 5.4912500E+00  3.4874588E+01
 5.5027504E+00  3.4857773E+01
 5.5142503E+00  3.4894764E+01
 5.5257502E+00  3.4900009E+01
 5.5372500E+00  3.4903183E+01
 5.5487504E+00  3.4928745E+01
 5.5602503E+00  3.4894234E+01
 5.5717502E+00  3.5014980E+01
 5.5832500E+00  3.4927910E+01
 5.5947504E+00  3.4984863E+01
 5.6062503E+00  3.4892033E+01
 5.6177502E+00  3.5015179E+01
 5.6292500E+00  3.5073826E+01
 5.6407504E+00  3.5117985E+01
 5.6522503E+00  3.5096153E+01
 5.6637502E+00  3.5278496E+01
 5.6752501E+00  3.5434055E+01
 5.6867504E+00  3.5564327E+01
 5.6982503E+00  3.5628815E+01
 5.7097502E+00  3.5711418E+01
 5.7212501E+00  3.5809788E+01
 5.7327504E+00  3.5772545E+01
 5.7442503E+00  3.5801800E+01
 5.7557502E+00  3.5853043E+01
 5.7672501E+00  3.5755878E+01
 5.7787504E+00  3.5764870E+01
 5.7902503E+00  3.5770679E+01
 5.8017502E+00  3.5841423E+01
 5.8132501E+00  3.5896301E+01
 5.8247504E+00  3.5924900E+01
 5.8362503E+00  3.6090027E+01
 5.8477502E+00  3.6261257E+01
 5.8592501E+00  3.6267372E+01
 5.8707504E+00  3.6387535E+01
 5.8822503E+00  3.6561161E+01
 5.8937502E+00  3.6677853E+01
 5.9052501E+00  3.7151371E+01
 5.9167504E+00  3.7263382E+01
 5.9282503E+00  3.8633472E+01
 5.9397502E+00  3.9146049E+01
 5.9512501E+00  4.2926453E+01
 5.9627504E+00  4.3699741E+01
 5.9742503E+00  4.9817844E+01
 5.9857502E+00  4.7944885E+01
 5.9972501E+00  5.2379906E+01
 6.0087504E+00  4.6841019E+01
 6.0202503E+00  4.7624195E+01
 6.0317502E+00  4.1745083E+01
 6.0432501E+00  4.1073807E+01
 6.0547504E+00  3.8476265E+01
 6.0662503E+00  3.8066917E+01
 6.0777502E+00  3.7409924E+01
 6.0892501E+00  3.7387432E+01
 6.1007504E+00  3.7134933E+01
 6.1122503E+00  3.7147636E+01
 6.1237502E+00  3.7125378E+01
 6.1352501E+00  3.7223846E+01
 6.1467505E+00  3.7192600E+01
 6.1582503E+00  3.7193287E+01
 6.1697502E+00  3.7226284E+01
 6.1812501E+00  3.7254517E+01
 6.1927505E+00  3.7216618E+01
 6.2042503E+00  3.7049629E+01
 6.2157502E+00  3.6918827E+01
 6.2272501E+00  3.6902058E+01
 6.2387505E+00  3.6925610E+01
 6.2502503E+00  3.7012581E+01
 6.2617502E+00  3.7109791E+01
 6.2732501E+00  3.7379322E+01
 6.2847505E+00  3.7565617E+01
 6.2962503E+00  3.7691715E+01
 6.3077502E+00  3.7663788E+01
 6.3192501E+00  3.7664474E+01
 6.3307505E+00  3.7706100E+01
 6.3422503E+00  3.7805172E+01
 6.3537502E+00  3.7945415E+01
 6.3652501E+00  3.8088123E+01
 6.3767505E+00  3.8183727E+01
 6.3882504E+00  3.8282013E+01
 6.3997502E+00  3.8359596E+01
 6.4112501E+00  3.8400112E+01
 6.4227505E+00  3.8438004E+01
 6.4342504E+00  3.8434193E+01
 6.4457502E+00  3.8388966E+01
 6.4572501E+00  3.8352268E+01
 6.4687505E+00  3.8371742E+01
 6.4802504E+00  3.8466724E+01
 6.4917502E+00  3.8577858E+01
 6.5032501E+00  3.8794685E+01
 6.5147505E+00  3.9038315E+01
 6.5262504E+00  3.9265800E+01
 6.5377502E+00  3.9374962E+01
 6.5492501E+00  3.9485817E+01
 6.5607505E+00  3.9588383E+01
 6.5722504E+00  3.9701855E+01
 6.5837502E+00  3.9709591E+01
 6.5952501E+00  3.9745090E+01
 6.6067505E+00  3.9715057E+01
 6.6182504E+00  3.9748096E+01
 6.6297503E+00  3.9826992E+01
 6.6412501E+00  3.9986702E+01
 6.6527505E+00  4.0134117E+01
 6.6642504E+00  4.0330086E+01
 6.6757503E+00  4.0425900E+01
 6.6872501E+00  4.0588711E+01
 6.6987505E+00  4.0741989E+01
 6.7102504E+00  4.0829994E+01
 6.7217503E+00  4.0914051E+01
 6.7332501E+00  4.0873993E+01
 6.7447505E+00  4.0933922E+01
 6.7562504E+00  4.0992237E+01
 6.7677503E+00  4.0995342E+01
 6.7792501E+00  4.1030643E+01
 6.7907505E+00  4.1017178E+01
 6.8022504E+00  4.1151321E+01
 6.8137503E+00  4.1225052E+01
 6.8252501E+00  4.1399319E+01
 6.8367505E+00  4.1439678E+01
 6.8482504E+00  4.1596794E+01
 6.8597503E+00  4.1700371E+01
 6.8712502E+00  4.1916321E+01
 6.8827505E+00  4.2018742E+01
 6.8942504E+00  4.2130943E+01
 6.9057503E+00  4.2110367E+01
 6.9172502E+00  4.2193222E+01
 6.9287505E+00  4.2119526E+01
 6.9402504E+00  4.2182461E+01
 6.9517503E+00  4.2041340E+01
 6.9632502E+00  4.2042400E+01
 6.9747505E+00  4.2056126E+01
 6.9862504E+00  4.2196281E+01
 6.9977503E+00  4.2416256E+01
 7.0092502E+00  4.2519981E+01
 7.0207505E+00  4.2561596E+01
 7.0322504E+00  4.2665901E+01
 7.0437503E+00  4.2753338E+01
 7.0552502E+00  4.2922234E+01
 7.0667505E+00  4.2956760E+01
 7.0782504E+00  4.2940220E+01
 7.0897503E+00  4.2872719E+01
 7.1012502E+00  4.2768803E+01
 7.1127505E+00  4.2763950E+01
 7.1242504E+00  4.2882900E+01
 7.1357503E+00  4.2948315E+01
 7.1472502E+00  4.2991577E+01
 7.1587505E+00  4.2999256E+01
 7.1702504E+00  4.3022629E+01
 7.1817503E+00  4.3008984E+01
 7.1932502E+00  4.3123363E+01
 7.2047505E+00  4.3295574E+01
 7.2162504E+00  4.3572323E+01
 7.2277503E+00  4.3684353E+01
 7.2392502E+00  4.3786213E+01
 7.2507505E+00  4.3840488E+01
 7.2622504E+00  4.3887970E+01
 7.2737503E+00  4.3828289E+01
 7.2852502E+00  4.3815456E+01
 7.2967505E+00  4.3892448E+01
 7.3082504E+00  4.3998272E+01
 7.3197503E+00  4.4061443E+01
 7.3312502E+00  4.4075459E+01
 7.3427505E+00  4.3967442E+01
 7.3542504E+00  4.3927696E+01
 7.3657503E+00  4.3825115E+01
 7.3772502E+00  4.3813175E+01
 7.3887506E+00  4.3867111E+01
 7.4002504E+00  4.3901455E+01
 7.4117503E+00  4.3986843E+01
 7.4232502E+00  4.4026806E+01
 7.4347506E+00  4.4160942E+01
 7.4462504E+00  4.4286575E+01
 7.4577503E+00  4.4403843E+01
 7.4692502E+00  4.4402351E+01
 7.4807506E+00  4.4392136E+01
 7.4922504E+00  4.4373882E+01
 7.5037503E+00  4.4370659E+01
 7.5152502E+00  4.4344032E+01
 7.5267506E+00  4.4334248E+01
 7.5382504E+00  4.4308414E+01
 7.5497503E+00  4.4336536E+01
 7.5612502E+00  4.4376419E+01
 7.5727506E+00  4.4347652E+01
 7.5842505E+00  4.4390686E+01
 7.5957503E+00  4.4393833E+01
 7.6072502E+00  4.4402168E+01
 7.6187506E+00  4.4439617E+01
 7.6302505E+00  4.4443855E+01
 7.6417503E+00  4.4535923E+01
 7.6532502E+00  4.4516693E+01
 7.6647506E+00  4.4413757E+01
 7.6762505E+00  4.4331028E+01
 7.6877503E+00  4.4289257E+01
 7.6992502E+00  4.4330105E+01
 7.7107506E+00  4.4351612E+01
 7.7222505E+00  4.4338928E+01
 7.7337503E+00  4.4269371E+01
 7.7452502E+00  4.4187191E+01
 7.7567506E+00  4.4113049E+01
 7.7682505E+00  4.4090038E+01
 7.7797503E+00  4.4159958E+01
 7.7912502E+00  4.4201256E+01
 7.8027506E+00  4.4218269E+01
 7.8142505E+00  4.4242916E+01
 7.8257504E+00  4.4214512E+01
 7.8372502E+00  4.4290585E+01
 7.8487506E+00  4.4228539E+01
 7.8602505E+00  4.4196529E+01
 7.8717504E+00  4.4028366E+01
 7.8832502E+00  4.3971439E+01
 7.8947506E+00  4.3826481E+01
 7.9062505E+00  4.3828140E+01
 7.9177504E+00  4.3801727E+01
 7.9292502E+00  4.3813217E+01
 7.9407506E+00  4.3849346E+01
 7.9522505E+00  4.3753098E+01
 7.9637504E+00  4.3668262E+01
 7.9752502E+00  4.3513264E+01
 7.9867506E+00  4.3411396E+01
 7.9982505E+00  4.3317234E+01
 8.0097504E+00  4.3235634E+01
 8.0212507E+00  4.3151806E+01
 8.0327501E+00  4.3147839E+01
 8.0442505E+00  4.3034504E+01
 8.0557508E+00  4.2930386E+01
 8.0672503E+00  4.2797287E+01
 8.0787506E+00  4.2701977E+01
 8.0902500E+00  4.2748013E+01
 8.1017504E+00  4.2822304E+01
 8.1132507E+00  4.2947430E+01
 8.1247501E+00  4.2933437E+01
 8.1362505E+00  4.2847126E+01
 8.1477509E+00  4.2674263E+01
 8.1592503E+00  4.2487637E+01
 8.1707506E+00  4.2246250E+01
 8.1822500E+00  4.2061451E+01
 8.1937504E+00  4.2007793E+01
 8.2052507E+00  4.1949684E+01
 8.2167501E+00  4.1901104E+01
 8.2282505E+00  4.1774837E+01
 8.2397509E+00  4.1773132E+01
 8.2512503E+00  4.1754765E+01
 8.2627506E+00  4.1642002E+01
 8.2742500E+00  4.1480827E+01
 8.2857504E+00  4.1191349E+01
 8.2972507E+00  4.0970272E+01
 8.3087502E+00  4.0786652E+01
 8.3202505E+00  4.0771152E+01
 8.3317509E+00  4.0615414E+01
 8.3432503E+00  4.0478458E+01
 8.3547506E+00  4.0243862E+01
 8.3662500E+00  4.0187721E+01
 8.3777504E+00  4.0021744E+01
 8.3892508E+00  3.9916790E+01
 8.4007502E+00  3.9713928E+01
 8.4122505E+00  3.9473934E+01
 8.4237509E+00  3.9263695E+01
 8.4352503E+00  3.9038101E+01
 8.4467506E+00  3.8939899E+01
 8.4582500E+00  3.8770340E+01
 8.4697504E+00  3.8614197E+01
 8.4812508E+00  3.8424816E+01
 8.4927502E+00  3.8112614E+01
 8.5042505E+00  3.7859997E+01
 8.5157509E+00  3.7695450E+01
 8.5272503E+00  3.7565102E+01
 8.5387506E+00  3.7452759E+01
 8.5502501E+00  3.7222050E+01
 8.5617504E+00  3.7085350E+01
 8.5732508E+00  3.6904865E+01
 8.5847502E+00  3.6730576E+01
 8.5962505E+00  3.6482586E+01
 8.6077509E+00  3.6262196E+01
 8.6192503E+00  3.6059349E+01
 8.6307507E+00  3.5903381E+01
 8.6422501E+00  3.5735252E+01
 8.6537504E+00  3.5475571E+01
 8.6652508E+00  3.5321342E+01
 8.6767502E+00  3.5140236E+01
 8.6882505E+00  3.5095566E+01
 8.6997509E+00  3.5023258E+01
 8.7112503E+00  3.4890804E+01
 8.7227507E+00  3.4787899E+01
 8.7342501E+00  3.4481686E+01
 8.7457504E+00  3.4185642E+01
 8.7572508E+00  3.3810398E+01
 8.7687502E+00  3.3677883E+01
 8.7802505E+00  3.3577168E+01
 8.7917500E+00  3.3548859E+01
 8.8032503E+00  3.3397255E+01
 8.8147507E+00  3.3305000E+01
 8.8262501E+00  3.3120422E+01
 8.8377504E+00  3.2961845E+01
 8.8492508E+00  3.2717113E+01
 8.8607502E+00  3.2586113E+01
 8.8722506E+00  3.2317894E+01
 8.8837500E+00  3.2113831E+01
 8.8952503E+00  3.1959093E+01
 8.9067507E+00  3.1815235E+01
 8.9182501E+00  3.1685520E+01
 8.9297504E+00  3.1451260E+01
 8.9412508E+00  3.1314531E+01
 8.9527502E+00  3.1243095E+01
 8.9642506E+00  3.1165682E+01
 8.9757500E+00  3.1115084E+01
 8.9872503E+00  3.1018677E+01
 8.9987507E+00  3.0887068E+01
 9.0102501E+00  3.0727787E+01
 9.0217505E+00  3.0580454E+01
 9.0332508E+00  3.0438494E+01
 9.0447502E+00  3.0294607E+01
 9.0562506E+00  3.0119900E+01
 9.0677500E+00  2.9981628E+01
 9.0792503E+00  2.9866638E+01
 9.0907507E+00  2.9771004E+01
 9.1022501E+00  2.9675606E+01
 9.1137505E+00  2.9602547E+01
 9.1252508E+00  2.9518105E+01
 9.1367502E+00  2.9374763E+01
 9.1482506E+00  2.9229345E+01
 9.1597500E+00  2.9056444E+01
 9.1712503E+00  2.8988487E+01
 9.1827507E+00  2.8841890E+01
 9.1942501E+00  2.8812641E+01
 9.2057505E+00  2.8698065E+01
 9.2172508E+00  2.8641781E+01
 9.2287502E+00  2.8446537E+01
 9.2402506E+00  2.8289404E+01
 9.2517500E+00  2.8147625E+01
 9.2632504E+00  2.8061874E+01
 9.2747507E+00  2.7924980E+01
 9.2862501E+00  2.7856754E+01
 9.2977505E+00  2.7765057E+01
 9.3092508E+00  2.7653526E+01
 9.3207502E+00  2.7488943E+01
 9.3322506E+00  2.7315165E+01
 9.3437500E+00  2.7260336E+01
 9.3552504E+00  2.7262836E+01
 9.3667507E+00  2.7258135E+01
 9.3782501E+00  2.7230640E+01
 9.3897505E+00  2.7151373E+01
 9.4012508E+00  2.7091742E+01
 9.4127502E+00  2.6996899E+01
 9.4242506E+00  2.6891130E+01
 9.4357500E+00  2.6820200E+01
 9.4472504E+00  2.6742725E+01
 9.4587507E+00  2.6626141E+01
 9.4702501E+00  2.6517340E+01
 9.4817505E+00  2.6460007E+01
 9.4932508E+00  2.6413652E+01
 9.5047503E+00  2.6331623E+01
 9.5162506E+00  2.6283998E+01
 9.5277500E+00  2.6204288E+01
 9.5392504E+00  2.6200382E+01
 9.5507507E+00  2.6127960E+01
 9.5622501E+00  2.6086742E+01
 9.5737505E+00  2.5946337E+01
 9.5852509E+00  2.5744757E+01
 9.5967503E+00  2.5641850E+01
 9.6082506E+00  2.5487394E+01
 9.6197500E+00  2.5459652E+01
 9.6312504E+00  2.5313414E+01
 9.6427507E+00  2.5283562E+01
 9.6542501E+00  2.5208904E+01
 9.6657505E+00  2.5170002E+01
 9.6772509E+00  2.5088394E+01
 9.6887503E+00  2.5029404E+01
 9.7002506E+00  2.4981958E+01
 9.7117500E+00  2.5051279E+01
 9.7232504E+00  2.5057919E+01
 9.7347507E+00  2.5154379E+01
 9.7462502E+00  2.5216305E+01
 9.7577505E+00  2.5209757E+01
 9.7692509E+00  2.5149343E+01
 9.7807503E+00  2.5023613E+01
 9.7922506E+00  2.4995056E+01
 9.8037500E+00  2.4955395E+01
 9.8152504E+00  2.4874378E+01
 9.8267508E+00  2.4784937E+01
 9.8382502E+00  2.4782246E+01
 9.8497505E+00  2.4779303E+01
 9.8612509E+00  2.4731449E+01
 9.8727503E+00  2.4610432E+01
 9.8842506E+00  2.4511375E+01
 9.8957500E+00  2.4478497E+01
 9.9072504E+00  2.4410416E+01
 9.9187508E+00  2.4369902E+01
 9.9302502E+00  2.4304071E+01
 9.9417505E+00  2.4258638E+01
 9.9532509E+00  2.4227343E+01
 9.9647503E+00  2.4226313E+01
 9.9762506E+00  2.4253868E+01
 9.9877501E+00  2.4182575E+01
 9.9992504E+00  2.4118298E+01
 1.0010751E+01  2.4038073E+01
 1.0022250E+01  2.4006533E+01
 1.0033751E+01  2.4071905E+01
 1.0045251E+01  2.4066006E+01
 1.0056750E+01  2.4136656E+01
 1.0068251E+01  2.4113058E+01
 1.0079750E+01  2.4145237E+01
 1.0091250E+01  2.4061712E+01
 1.0102751E+01  2.4021423E+01
 1.0114250E+01  2.3924067E+01
 1.0125751E+01  2.3955894E+01
 1.0137251E+01  2.3850416E+01
 1.0148750E+01  2.3849400E+01
 1.0160251E+01  2.3765589E+01
 1.0171750E+01  2.3756516E+01
 1.0183250E+01  2.3715519E+01
 1.0194751E+01  2.3658031E+01
 1.0206250E+01  2.3640198E+01
 1.0217751E+01  2.3665777E+01
 1.0229251E+01  2.3680586E+01
 1.0240750E+01  2.3673500E+01
 1.0252251E+01  2.3596050E+01
 1.0263750E+01  2.3545599E+01
 1.0275250E+01  2.3507513E+01
 1.0286751E+01  2.3420521E+01
 1.0298250E+01  2.3388186E+01
 1.0309751E+01  2.3324940E+01
 1.0321251E+01  2.3307404E+01
 1.0332750E+01  2.3265291E+01
 1.0344251E+01  2.3283916E+01
 1.0355750E+01  2.3256912E+01
 1.0367250E+01  2.3263731E+01
 1.0378751E+01  2.3232706E+01
 1.0390250E+01  2.3310883E+01
 1.0401751E+01  2.3315449E+01
 1.0413251E+01  2.3346916E+01
 1.0424750E+01  2.3317295E+01
 1.0436251E+01  2.3304865E+01
 1.0447750E+01  2.3260313E+01
 1.0459250E+01  2.3222733E+01
 1.0470751E+01  2.3192570E+01
 1.0482250E+01  2.3179850E+01
 1.0493751E+01  2.3129364E+01
 1.0505251E+01  2.3109922E+01
 1.0516750E+01  2.3089067E+01
 1.0528251E+01  2.3059851E+01
 1.0539750E+01  2.2999554E+01
 1.0551250E+01  2.2970848E+01
 1.0562751E+01  2.2980194E+01
 1.0574250E+01  2.2949661E+01
 1.0585751E+01  2.2915319E+01
 1.0597251E+01  2.2879372E+01
 1.0608750E+01  2.2940271E+01
 1.0620251E+01  2.2956730E+01
 1.0631750E+01  2.2980947E+01
 1.0643250E+01  2.2977518E+01
 1.0654751E+01  2.3014839E+01
 1.0666250E+01  2.2986206E+01
 1.0677751E+01  2.2950539E+01
 1.0689251E+01  2.2893570E+01
 1.0700750E+01  2.2904076E+01
 1.0712251E+01  2.2933027E+01
 1.0723750E+01  2.2922903E+01
 1.0735250E+01  2.2916210E+01
 1.0746751E+01  2.2877642E+01
 1.0758250E+01  2.2861095E+01
 1.0769751E+01  2.2870356E+01
 1.0781251E+01  2.2885286E+01
 1.0792750E+01  2.2853199E+01
 1.0804251E+01  2.2835890E+01
 1.0815750E+01  2.2798124E+01
 1.0827250E+01  2.2834333E+01
 1.0838751E+01  2.2779743E+01
 1.0850250E+01  2.2726229E+01
 1.0861751E+01  2.2623432E+01
 1.0873251E+01  2.2625374E+01
 1.0884750E+01  2.2615019E+01
 1.0896251E+01  2.2615707E+01
 1.0907750E+01  2.2657816E+01
 1.0919250E+01  2.2721565E+01
 1.0930751E+01  2.2810095E+01
 1.0942250E+01  2.2791183E+01
 1.0953751E+01  2.2758854E+01
 1.0965251E+01  2.2702299E+01
 1.0976750E+01  2.2666971E+01
 1.0988251E+01  2.2616789E+01
 1.0999750E+01  2.2582245E+01
 1.1011250E+01  2.2506075E+01
 1.1022751E+01  2.2500990E+01
 1.1034250E+01  2.2430834E+01
 1.1045751E+01  2.2423897E+01
 1.1057251E+01  2.2352232E+01
 1.1068750E+01  2.2416782E+01
 1.1080251E+01  2.2407015E+01
 1.1091750E+01  2.2435785E+01
 1.1103251E+01  2.2402906E+01
 1.1114751E+01  2.2446119E+01
 1.1126250E+01  2.2483932E+01
 1.1137751E+01  2.2507257E+01
 1.1149251E+01  2.2541328E+01
 1.1160750E+01  2.2550425E+01
 1.1172251E+01  2.2517803E+01
 1.1183750E+01  2.2447817E+01
 1.1195251E+01  2.2417120E+01
 1.1206751E+01  2.2381849E+01
 1.1218250E+01  2.2294838E+01
 1.1229751E+01  2.2287443E+01
 1.1241251E+01  2.2308413E+01
 1.1252750E+01  2.2359013E+01
 1.1264251E+01  2.2350056E+01
 1.1275750E+01  2.2346012E+01
 1.1287251E+01  2.2334799E+01
 1.1298751E+01  2.2311825E+01
 1.1310250E+01  2.2287098E+01
 1.1321751E+01  2.2311798E+01
 1.1333251E+01  2.2260347E+01
 1.1344750E+01  2.2258034E+01
 1.1356251E+01  2.2280539E+01
 1.1367750E+01  2.2394236E+01
 1.1379251E+01  2.2466049E+01
 1.1390751E+01  2.2552778E+01
 1.1402250E+01  2.2694996E+01
 1.1413751E+01  2.2738199E+01
 1.1425251E+01  2.2769075E+01
 1.1436750E+01  2.2720879E+01
 1.1448251E+01  2.2743364E+01
 1.1459750E+01  2.2771839E+01
 1.1471251E+01  2.2817890E+01
 1.1482751E+01  2.2928392E+01
 1.1494250E+01  2.3048817E+01
 1.1505751E+01  2.3208279E+01
 1.1517251E+01  2.3662943E+01
 1.1528750E+01  2.4320633E+01
 1.1540251E+01  2.6201818E+01
 1.1551750E+01  2.8317257E+01
 1.1563251E+01  3.1051708E+01
 1.1574751E+01  3.3129822E+01
 1.1586250E+01  3.3969830E+01
 1.1597751E+01  3.2975471E+01
 1.1609251E+01  3.0844145E+01
 1.1620750E+01  2.8378958E+01
 1.1632251E+01  2.6683699E+01
 1.1643750E+01  2.5114044E+01
 1.1655251E+01  2.4343430E+01
 1.1666751E+01  2.3634886E+01
 1.1678250E+01  2.3166122E+01
 1.1689751E+01  2.2903589E+01
 1.1701251E+01  2.2718445E+01
 1.1712750E+01  2.2641359E+01
 1.1724251E+01  2.2625845E+01
 1.1735750E+01  2.2554008E+01
 1.1747251E+01  2.2539631E+01
 1.1758751E+01  2.2508226E+01
 1.1770250E+01  2.2500641E+01
 1.1781751E+01  2.2458523E+01
 1.1793251E+01  2.2453907E+01
 1.1804750E+01  2.2461620E+01
 1.1816251E+01  2.2479452E+01
 1.1827750E+01  2.2440140E+01
 1.1839251E+01  2.2429052E+01
 1.1850751E+01  2.2369272E+01
 1.1862250E+01  2.2396246E+01
 1.1873751E+01  2.2408543E+01
 1.1885251E+01  2.2442444E+01
 1.1896750E+01  2.2483475E+01
 1.1908251E+01  2.2524418E+01
 1.1919750E+01  2.2559130E+01
 1.1931251E+01  2.2519157E+01
 1.1942751E+01  2.2559124E+01
 1.1954250E+01  2.2637428E+01
 1.1965751E+01  2.2719460E+01
 1.1977251E+01  2.2740879E+01
 1.1988750E+01  2.2797285E+01
 1.2000251E+01  2.2777626E+01
 1.2011750E+01  2.2793753E+01
 1.2023251E+01  2.2787088E+01
 1.2034751E+01  2.2895006E+01
 1.2046250E+01  2.3010796E+01
 1.2057751E+01  2.3177708E+01
 1.2069251E+01  2.3510157E+01
 1.2080750E+01  2.3833300E+01
 1.2092251E+01  2.4142962E+01
 1.2103750E+01  2.4273731E+01
 1.2115251E+01  2.4165825E+01
 1.2126751E+01  2.4001974E+01
 1.2138250E+01  2.3575750E+01
 1.2149751E+01  2.3235380E+01
 1.2161251E+01  2.2824215E+01
 1.2172750E+01  2.2637663E+01
 1.2184251E+01  2.2523909E+01
 1.2195750E+01  2.2520596E+01
 1.2207251E+01  2.2503859E+01
 1.2218751E+01  2.2466373E+01
 1.2230250E+01  2.2458532E+01
 1.2241751E+01  2.2439440E+01
 1.2253251E+01  2.2451593E+01
 1.2264750E+01  2.2397781E+01
 1.2276251E+01  2.2390635E+01
 1.2287750E+01  2.2401722E+01
 1.2299251E+01  2.2419796E+01
 1.2310751E+01  2.2477108E+01
 1.2322250E+01  2.2457886E+01
 1.2333751E+01  2.2481070E+01
 1.2345250E+01  2.2433361E+01
 1.2356750E+01  2.2436413E+01
 1.2368251E+01  2.2396990E+01
 1.2379750E+01  2.2431053E+01
 1.2391251E+01  2.2411318E+01
 1.2402751E+01  2.2417572E+01
 1.2414250E+01  2.2375643E+01
 1.2425751E+01  2.2364260E+01
 1.2437250E+01  2.2363768E+01
 1.2448750E+01  2.2334833E+01
 1.2460251E+01  2.2387150E+01
 1.2471750E+01  2.2398283E+01
 1.2483251E+01  2.2471195E+01
 1.2494751E+01  2.2431870E+01
 1.2506250E+01  2.2409716E+01
 1.2517751E+01  2.2398655E+01
 1.2529250E+01  2.2454544E+01
 1.2540751E+01  2.2524445E+01
 1.2552251E+01  2.2523907E+01
 1.2563750E+01  2.2574474E+01
 1.2575251E+01  2.2665758E+01
 1.2586751E+01  2.2716137E+01
 1.2598250E+01  2.2716261E+01
 1.2609751E+01  2.2687403E+01
 1.2621250E+01  2.2723059E+01
 1.2632751E+01  2.2758821E+01
 1.2644251E+01  2.2723562E+01
 1.2655750E+01  2.2730570E+01
 1.2667251E+01  2.2730206E+01
 1.2678751E+01  2.2746195E+01
 1.2690250E+01  2.2758751E+01
 1.2701751E+01  2.2747274E+01
 1.2713250E+01  2.2730701E+01
 1.2724751E+01  2.2684311E+01
 1.2736251E+01  2.2684198E+01
 1.2747750E+01  2.2734900E+01
 1.2759251E+01  2.2826183E+01
 1.2770751E+01  2.2863413E+01
 1.2782250E+01  2.2919640E+01
 1.2793751E+01  2.2888865E+01
 1.2805250E+01  2.2912327E+01
 1.2816751E+01  2.2919128E+01
 1.2828251E+01  2.3027838E+01
 1.2839750E+01  2.3105038E+01
 1.2851251E+01  2.3159279E+01
 1.2862751E+01  2.3198418E+01
 1.2874250E+01  2.3234468E+01
 1.2885751E+01  2.3275490E+01
 1.2897250E+01  2.3297432E+01
 1.2908751E+01  2.3363337E+01
 1.2920251E+01  2.3429722E+01
 1.2931750E+01  2.3465267E+01
 1.2943251E+01  2.3520742E+01
 1.2954751E+01  2.3623142E+01
 1.2966250E+01  2.3723993E+01
 1.2977751E+01  2.3804071E+01
 1.2989250E+01  2.3812130E+01
 1.3000751E+01  2.3855768E+01
 1.3012251E+01  2.3913397E+01
 1.3023750E+01  2.3956001E+01
 1.3035251E+01  2.4014448E+01
 1.3046751E+01  2.4066446E+01
 1.3058250E+01  2.4177517E+01
 1.3069751E+01  2.4297562E+01
 1.3081250E+01  2.4373079E+01
 1.3092751E+01  2.4518757E+01
 1.3104251E+01  2.4649261E+01
 1.3115750E+01  2.4753263E+01
 1.3127251E+01  2.4832088E+01
 1.3138751E+01  2.4904552E+01
 1.3150250E+01  2.5035583E+01
 1.3161751E+01  2.5109236E+01
 1.3173250E+01  2.5289745E+01
 1.3184751E+01  2.5456709E+01
 1.3196251E+01  2.5619400E+01
 1.3207750E+01  2.5731779E+01
 1.3219251E+01  2.5835115E+01
 1.3230751E+01  2.5995453E+01
 1.3242250E+01  2.6097878E+01
 1.3253751E+01  2.6235710E+01
 1.3265250E+01  2.6320539E+01
 1.3276751E+01  2.6428997E+01
 1.3288251E+01  2.6531548E+01
 1.3299750E+01  2.6649534E+01
 1.3311251E+01  2.6748684E+01
 1.3322751E+01  2.6911478E+01
 1.3334250E+01  2.7131289E+01
 1.3345751E+01  2.7295284E+01
 1.3357250E+01  2.7480801E+01
 1.3368751E+01  2.7565298E+01
 1.3380251E+01  2.7737499E+01
 1.3391750E+01  2.7866116E+01
 1.3403251E+01  2.8033634E+01
 1.3414751E+01  2.8223301E+01
 1.3426250E+01  2.8309006E+01
 1.3437751E+01  2.8405552E+01
 1.3449250E+01  2.8474659E+01
 1.3460751E+01  2.8633797E+01
 1.3472251E+01  2.8799810E+01
 1.3483750E+01  2.8927715E+01
 1.3495251E+01  2.9024456E+01
 1.3506751E+01  2.9113144E+01
 1.3518250E+01  2.9198620E+01
 1.3529751E+01  2.9247654E+01
 1.3541250E+01  2.9301798E+01
 1.3552751E+01  2.9345909E+01
 1.3564251E+01  2.9399549E+01
 1.3575750E+01  2.9478716E+01
 1.3587251E+01  2.9527576E+01
 1.3598751E+01  2.9595201E+01
 1.3610250E+01  2.9618614E+01
 1.3621751E+01  2.9645592E+01
 1.3633250E+01  2.9610767E+01
 1.3644751E+01  2.9556059E+01
 1.3656251E+01  2.9540712E+01
 1.3667750E+01  2.9546385E+01
 1.3679251E+01  2.9570683E+01
 1.3690751E+01  2.9588697E+01
 1.3702250E+01  2.9580633E+01
 1.3713751E+01  2.9528618E+01
 1.3725250E+01  2.9504721E+01
 1.3736751E+01  2.9577805E+01
 1.3748251E+01  2.9626659E+01
 1.3759750E+01  2.9513853E+01
 1.3771251E+01  2.9384005E+01
 1.3782751E+01  2.9204782E+01
 1.3794250E+01  2.9163948E+01
 1.3805751E+01  2.9103025E+01
 1.3817250E+01  2.9129059E+01
 1.3828751E+01  2.9193144E+01
 1.3840251E+01  2.9174524E+01
 1.3851750E+01  2.9204159E+01
 1.3863251E+01  2.9228378E+01
 1.3874751E+01  2.9388060E+01
 1.3886250E+01  2.9683941E+01
 1.3897751E+01  3.0061028E+01
 1.3909250E+01  3.0558163E+01
 1.3920751E+01  3.1130457E+01
 1.3932251E+01  3.1480761E+01
 1.3943750E+01  3.1698879E+01
 1.3955251E+01  3.1798855E+01
 1.3966751E+01  3.1520271E+01
 1.3978251E+01  3.1335571E+01
 1.3989751E+01  3.0617548E+01
 1.4001250E+01  3.0103455E+01
 1.4012751E+01  2.9429123E+01
 1.4024251E+01  2.8845892E+01
 1.4035750E+01  2.8480167E+01
 1.4047251E+01  2.7947590E+01
 1.4058751E+01  2.7810493E+01
 1.4070251E+01  2.7642853E+01
 1.4081751E+01  2.7495094E+01
 1.4093250E+01  2.7399111E+01
 1.4104751E+01  2.7316092E+01
 1.4116251E+01  2.7218830E+01
 1.4127750E+01  2.7122044E+01
 1.4139251E+01  2.7009577E+01
 1.4150751E+01  2.6931770E+01
 1.4162251E+01  2.6869007E+01
 1.4173751E+01  2.6759232E+01
 1.4185250E+01  2.6702888E+01
 1.4196751E+01  2.6593779E+01
 1.4208251E+01  2.6561497E+01
 1.4219750E+01  2.6467825E+01
 1.4231251E+01  2.6346418E+01
 1.4242751E+01  2.6257689E+01
 1.4254251E+01  2.6196486E+01
 1.4265751E+01  2.6198774E+01
 1.4277250E+01  2.6164473E+01
 1.4288751E+01  2.6131029E+01
 1.4300251E+01  2.6100502E+01
 1.4311750E+01  2.6045631E+01
 1.4323251E+01  2.6007832E+01
 1.4334751E+01  2.5970327E+01
 1.4346251E+01  2.5963768E+01
 1.4357751E+01  2.5971224E+01
 1.4369250E+01  2.5983812E+01
 1.4380751E+01  2.5959505E+01
 1.4392251E+01  2.5886614E+01
 1.4403750E+01  2.5780113E+01
 1.4415251E+01  2.5737125E+01
 1.4426751E+01  2.5671066E+01
 1.4438251E+01  2.5679743E+01
 1.4449751E+01  2.5617308E+01
 1.4461250E+01  2.5623829E+01
 1.4472751E+01  2.5531630E+01
 1.4484251E+01  2.5489389E+01
 1.4495750E+01  2.5464607E+01
 1.4507251E+01  2.5515284E+01
 1.4518751E+01  2.5530704E+01
 1.4530251E+01  2.5536228E+01
 1.4541751E+01  2.5516865E+01
 1.4553250E+01  2.5477495E+01
 1.4564751E+01  2.5413805E+01
 1.4576251E+01  2.5348669E+01
 1.4587750E+01  2.5334442E+01
 1.4599251E+01  2.5229622E+01
 1.4610751E+01  2.5227724E+01
 1.4622251E+01  2.5202057E+01
 1.4633751E+01  2.5249804E+01
 1.4645250E+01  2.5232666E+01
 1.4656751E+01  2.5160042E+01
 1.4668251E+01  2.5144009E+01
 1.4679750E+01  2.5059994E+01
 1.4691251E+01  2.5092878E+01
 1.4702751E+01  2.5045074E+01
 1.4714251E+01  2.5079945E+01
 1.4725751E+01  2.5051897E+01
 1.4737250E+01  2.5042490E+01
 1.4748751E+01  2.5018202E+01
 1.4760251E+01  2.5014233E+01
 1.4771750E+01  2.5007936E+01
 1.4783251E+01  2.5004063E+01
 1.4794751E+01  2.5002157E+01
 1.4806251E+01  2.4969116E+01
 1.4817751E+01  2.4923130E+01
 1.4829250E+01  2.4871494E+01
 1.4840751E+01  2.4796968E+01
 1.4852251E+01  2.4764406E+01
 1.4863750E+01  2.4696196E+01
 1.4875251E+01  2.4747663E+01
 1.4886751E+01  2.4741245E+01
 1.4898251E+01  2.4819620E+01
 1.4909751E+01  2.4827085E+01
 1.4921250E+01  2.4820370E+01
 1.4932751E+01  2.4766787E+01
 1.4944251E+01  2.4682964E+01
 1.4955750E+01  2.4657734E+01
 1.4967251E+01  2.4636831E+01
 1.4978751E+01  2.4661522E+01
 1.4990251E+01  2.4670223E+01
 1.5001751E+01  2.4632002E+01
 1.5013250E+01  2.4645363E+01
 1.5024751E+01  2.4699972E+01
 1.5036251E+01  2.4761024E+01
 1.5047750E+01  2.4800360E+01
 1.5059251E+01  2.4771879E+01
 1.5070751E+01  2.4750858E+01
 1.5082251E+01  2.4718388E+01
 1.5093751E+01  2.4720390E+01
 1.5105250E+01  2.4796400E+01
 1.5116751E+01  2.4831251E+01
 1.5128251E+01  2.4941647E+01
 1.5139750E+01  2.4999935E+01
 1.5151251E+01  2.5304586E+01
 1.5162751E+01  2.5424824E+01
 1.5174251E+01  2.5667747E+01
 1.5185751E+01  2.5615814E+01
 1.5197250E+01  2.5578850E+01
 1.5208751E+01  2.5403866E+01
 1.5220251E+01  2.5238533E+01
 1.5231750E+01  2.5033998E+01
 1.5243251E+01  2.4840921E+01
 1.5254751E+01  2.4712370E+01
 1.5266251E+01  2.4598965E+01
 1.5277751E+01  2.4533499E+01
 1.5289250E+01  2.4474623E+01
 1.5300751E+01  2.4509165E+01
 1.5312251E+01  2.4533129E+01
 1.5323750E+01  2.4534519E+01
 1.5335251E+01  2.4558737E+01
 1.5346751E+01  2.4523800E+01
 1.5358251E+01  2.4538445E+01
 1.5369751E+01  2.4490534E+01
 1.5381250E+01  2.4495083E+01
 1.5392751E+01  2.4488789E+01
 1.5404251E+01  2.4453608E+01
 1.5415751E+01  2.4396391E+01
 1.5427251E+01  2.4375803E+01
 1.5438751E+01  2.4408390E+01
 1.5450251E+01  2.4442345E+01
 1.5461751E+01  2.4478943E+01
 1.5473250E+01  2.4498857E+01
 1.5484751E+01  2.4536472E+01
 1.5496251E+01  2.4501591E+01
 1.5507751E+01  2.4445976E+01
 1.5519251E+01  2.4411692E+01
 1.5530751E+01  2.4375528E+01
 1.5542251E+01  2.4375681E+01
 1.5553751E+01  2.4343437E+01
 1.5565250E+01  2.4409393E+01
 1.5576751E+01  2.4429949E+01
 1.5588251E+01  2.4489077E+01
 1.5599751E+01  2.4477251E+01
 1.5611251E+01  2.4459095E+01
 1.5622751E+01  2.4413431E+01
 1.5634251E+01  2.4343594E+01
 1.5645751E+01  2.4344440E+01
 1.5657250E+01  2.4331104E+01
 1.5668751E+01  2.4346176E+01
 1.5680251E+01  2.4285116E+01
 1.5691751E+01  2.4274504E+01
 1.5703251E+01  2.4294250E+01
 1.5714751E+01  2.4305338E+01
 1.5726251E+01  2.4291983E+01
 1.5737751E+01  2.4236412E+01
 1.5749250E+01  2.4207243E+01
 1.5760751E+01  2.4233034E+01
 1.5772251E+01  2.4277515E+01
 1.5783751E+01  2.4304541E+01
 1.5795251E+01  2.4352598E+01
 1.5806751E+01  2.4392735E+01
 1.5818251E+01  2.4470350E+01
 1.5829751E+01  2.4408669E+01
 1.5841250E+01  2.4393782E+01
 1.5852751E+01  2.4350430E+01
 1.5864251E+01  2.4333254E+01
 1.5875751E+01  2.4344055E+01
 1.5887251E+01  2.4384235E+01
 1.5898750E+01  2.4446142E+01
 1.5910251E+01  2.4493090E+01
 1.5921751E+01  2.4538866E+01
 1.5933250E+01  2.4568810E+01
 1.5944751E+01  2.4527697E+01
 1.5956251E+01  2.4495106E+01
 1.5967751E+01  2.4513138E+01
 1.5979251E+01  2.4535931E+01
 1.5990750E+01  2.4528593E+01
 1.6002251E+01  2.4466206E+01
 1.6013750E+01  2.4450859E+01
 1.6025251E+01  2.4410803E+01
 1.6036751E+01  2.4451628E+01
 1.6048250E+01  2.4460186E+01
 1.6059752E+01  2.4543463E+01
 1.6071251E+01  2.4478470E+01
 1.6082750E+01  2.4496979E+01
 1.6094252E+01  2.4423536E+01
 1.6105751E+01  2.4485640E+01
 1.6117250E+01  2.4480110E+01
 1.6128750E+01  2.4531471E+01
 1.6140251E+01  2.4624891E+01
 1.6151751E+01  2.4701921E+01
 1.6163250E+01  2.4854488E+01
 1.6174751E+01  2.4842279E+01
 1.6186251E+01  2.5129389E+01
 1.6197750E+01  2.5058130E+01
 1.6209251E+01  2.5690523E+01
 1.6220751E+01  2.5721640E+01
 1.6232250E+01  2.6619963E+01
 1.6243752E+01  2.6930250E+01
 1.6255251E+01  2.7437286E+01
 1.6266750E+01  2.7536732E+01
 1.6278252E+01  2.6934252E+01
 1.6289751E+01  2.6733879E+01
 1.6301250E+01  2.5619415E+01
 1.6312750E+01  2.5561106E+01
 1.6324251E+01  2.4900534E+01
 1.6335751E+01  2.4963623E+01
 1.6347250E+01  2.4719625E+01
 1.6358751E+01  2.4720621E+01
 1.6370251E+01  2.4638832E+01
 1.6381750E+01  2.4653852E+01
 1.6393251E+01  2.4732016E+01
 1.6404751E+01  2.4793591E+01
 1.6416250E+01  2.4853678E+01
 1.6427752E+01  2.4802080E+01
 1.6439251E+01  2.4779942E+01
 1.6450750E+01  2.4658501E+01
 1.6462252E+01  2.4623150E+01
 1.6473751E+01  2.4555115E+01
 1.6485250E+01  2.4564985E+01
 1.6496750E+01  2.4537811E+01
 1.6508251E+01  2.4471569E+01
 1.6519751E+01  2.4432354E+01
 1.6531250E+01  2.4386929E+01
 1.6542751E+01  2.4418608E+01
 1.6554251E+01  2.4482351E+01
 1.6565750E+01  2.4565990E+01
 1.6577251E+01  2.4585852E+01
 1.6588751E+01  2.4567635E+01
 1.6600250E+01  2.4536083E+01
 1.6611752E+01  2.4562237E+01
 1.6623251E+01  2.4503635E+01
 1.6634750E+01  2.4500004E+01
 1.6646252E+01  2.4450747E+01
 1.6657751E+01  2.4476103E+01
 1.6669250E+01  2.4508957E+01
 1.6680750E+01  2.4522078E+01
 1.6692251E+01  2.4559669E+01
 1.6703751E+01  2.4564407E+01
 1.6715250E+01  2.4518997E+01
 1.6726751E+01  2.4470184E+01
 1.6738251E+01  2.4402124E+01
 1.6749750E+01  2.4407248E+01
 1.6761251E+01  2.4352819E+01
 1.6772751E+01  2.4330265E+01
 1.6784250E+01  2.4354624E+01
 1.6795752E+01  2.4362453E+01
 1.6807251E+01  2.4419968E+01
 1.6818750E+01  2.4407404E+01
 1.6830252E+01  2.4399580E+01
 1.6841751E+01  2.4331419E+01
 1.6853251E+01  2.4346327E+01
 1.6864750E+01  2.4338146E+01
 1.6876251E+01  2.4351433E+01
 1.6887751E+01  2.4306387E+01
 1.6899250E+01  2.4339586E+01
 1.6910751E+01  2.4330122E+01
 1.6922251E+01  2.4316410E+01
 1.6933750E+01  2.4222210E+01
 1.6945251E+01  2.4181194E+01
 1.6956751E+01  2.4188200E+01
 1.6968250E+01  2.4194176E+01
 1.6979752E+01  2.4211552E+01
 1.6991251E+01  2.4183502E+01
 1.7002750E+01  2.4232821E+01
 1.7014252E+01  2.4247736E+01
 1.7025751E+01  2.4280519E+01
 1.7037251E+01  2.4220236E+01
 1.7048750E+01  2.4129429E+01
 1.7060251E+01  2.4073978E+01
 1.7071751E+01  2.4068441E+01
 1.7083250E+01  2.4109118E+01
 1.7094751E+01  2.4073700E+01
 1.7106251E+01  2.4061159E+01
 1.7117750E+01  2.4040731E+01
 1.7129251E+01  2.4070427E+01
 1.7140751E+01  2.4058641E+01
 1.7152250E+01  2.4043953E+01
 1.7163752E+01  2.4035469E+01
 1.7175251E+01  2.4029867E+01
 1.7186750E+01  2.4025631E+01
 1.7198252E+01  2.3995037E+01
 1.7209751E+01  2.4014271E+01
 1.7221251E+01  2.3973103E+01
 1.7232750E+01  2.3957075E+01
 1.7244251E+01  2.3923773E+01
 1.7255751E+01  2.3893913E+01
 1.7267250E+01  2.3851334E+01
 1.7278751E+01  2.3861931E+01
 1.7290251E+01  2.3888073E+01
 1.7301750E+01  2.3937157E+01
 1.7313251E+01  2.3921806E+01
 1.7324751E+01  2.3969711E+01
 1.7336250E+01  2.3959747E+01
 1.7347752E+01  2.3947258E+01
 1.7359251E+01  2.3935598E+01
 1.7370750E+01  2.3927382E+01
 1.7382252E+01  2.3942303E+01
 1.7393751E+01  2.3897432E+01
 1.7405251E+01  2.3895775E+01
 1.7416750E+01  2.3884064E+01
 1.7428251E+01  2.3845060E+01
 1.7439751E+01  2.3828285E+01
 1.7451250E+01  2.3798370E+01
 1.7462751E+01  2.3804623E+01
 1.7474251E+01  2.3764544E+01
 1.7485750E+01  2.3783718E+01
 1.7497252E+01  2.3769167E+01
 1.7508751E+01  2.3754866E+01
 1.7520250E+01  2.3774561E+01
 1.7531752E+01  2.3795349E+01
 1.7543251E+01  2.3842159E+01
 1.7554750E+01  2.3788122E+01
 1.7566252E+01  2.3776745E+01
 1.7577751E+01  2.3745888E+01
 1.7589251E+01  2.3706203E+01
 1.7600750E+01  2.3712749E+01
 1.7612251E+01  2.3690981E+01
 1.7623751E+01  2.3734217E+01
 1.7635250E+01  2.3654396E+01
 1.7646751E+01  2.3659599E+01
 1.7658251E+01  2.3604107E+01
 1.7669750E+01  2.3667028E+01
 1.7681252E+01  2.3695957E+01
 1.7692751E+01  2.3777693E+01
 1.7704250E+01  2.3812000E+01
 1.7715752E+01  2.3805906E+01
 1.7727251E+01  2.3731585E+01
 1.7738750E+01  2.3653595E+01
 1.7750252E+01  2.3576612E+01
 1.7761751E+01  2.3587711E+01
 1.7773251E+01  2.3599232E+01
 1.7784750E+01  2.3620092E+01
 1.7796251E+01  2.3665495E+01
 1.7807751E+01  2.3659771E+01
 1.7819250E+01  2.3659529E+01
 1.7830751E+01  2.3598392E+01
 1.7842251E+01  2.3578213E+01
 1.7853750E+01  2.3554256E+01
 1.7865252E+01  2.3537735E+01
 1.7876751E+01  2.3554468E+01
 1.7888250E+01  2.3593094E+01
 1.7899752E+01  2.3651829E+01
 1.7911251E+01  2.3733929E+01
 1.7922750E+01  2.3793610E+01
 1.7934252E+01  2.3798986E+01
 1.7945751E+01  2.3744148E+01
 1.7957251E+01  2.3703171E+01
 1.7968750E+01  2.3657030E+01
 1.7980251E+01  2.3625616E+01
 1.7991751E+01  2.3634853E+01
 1.8003250E+01  2.3685030E+01
 1.8014751E+01  2.3706295E+01
 1.8026251E+01  2.3761456E+01
 1.8037750E+01  2.3806658E+01
 1.8049252E+01  2.3899389E+01
 1.8060751E+01  2.3971079E+01
 1.8072250E+01  2.4068682E+01
 1.8083752E+01  2.4178120E+01
 1.8095251E+01  2.4345673E+01
 1.8106750E+01  2.4449751E+01
 1.8118252E+01  2.4540119E+01
 1.8129751E+01  2.4435862E+01
 1.8141251E+01  2.4346079E+01
 1.8152750E+01  2.4149982E+01
 1.8164251E+01  2.4002319E+01
 1.8175751E+01  2.3797657E+01
 1.8187250E+01  2.3643948E+01
 1.8198751E+01  2.3561512E+01
 1.8210251E+01  2.3510067E+01
 1.8221750E+01  2.3458120E+01
 1.8233252E+01  2.3435108E+01
 1.8244751E+01  2.3408777E+01
 1.8256250E+01  2.3411497E+01
 1.8267752E+01  2.3394735E+01
 1.8279251E+01  2.3399881E+01
 1.8290751E+01  2.3423458E+01
 1.8302252E+01  2.3404922E+01
 1.8313751E+01  2.3396141E+01
 1.8325251E+01  2.3425545E+01
 1.8336750E+01  2.3454399E+01
 1.8348251E+01  2.3487352E+01
 1.8359751E+01  2.3473499E+01
 1.8371250E+01  2.3458872E+01
 1.8382751E+01  2.3444685E+01
 1.8394251E+01  2.3465895E+01
 1.8405750E+01  2.3470659E+01
 1.8417252E+01  2.3480810E+01
 1.8428751E+01  2.3446140E+01
 1.8440250E+01  2.3451056E+01
 1.8451752E+01  2.3446722E+01
 1.8463251E+01  2.3446930E+01
 1.8474751E+01  2.3386786E+01
 1.8486252E+01  2.3309282E+01
 1.8497751E+01  2.3257996E+01
 1.8509251E+01  2.3238287E+01
 1.8520750E+01  2.3202574E+01
 1.8532251E+01  2.3195766E+01
 1.8543751E+01  2.3171619E+01
 1.8555250E+01  2.3202595E+01
 1.8566751E+01  2.3217905E+01
 1.8578251E+01  2.3278742E+01
 1.8589750E+01  2.3375704E+01
 1.8601252E+01  2.3444208E+01
 1.8612751E+01  2.3463158E+01
 1.8624250E+01  2.3435020E+01
 1.8635752E+01  2.3416235E+01
 1.8647251E+01  2.3426805E+01
 1.8658751E+01  2.3395384E+01
 1.8670252E+01  2.3411194E+01
 1.8681751E+01  2.3410519E+01
 1.8693251E+01  2.3440195E+01
 1.8704750E+01  2.3399988E+01
 1.8716251E+01  2.3379307E+01
 1.8727751E+01  2.3384310E+01
 1.8739250E+01  2.3339815E+01
 1.8750751E+01  2.3351192E+01
 1.8762251E+01  2.3358683E+01
 1.8773750E+01  2.3391659E+01
 1.8785252E+01  2.3398457E+01
 1.8796751E+01  2.3386423E+01
 1.8808250E+01  2.3336525E+01
 1.8819752E+01  2.3317709E+01
 1.8831251E+01  2.3307575E+01
 1.8842751E+01  2.3327740E+01
 1.8854252E+01  2.3313557E+01
 1.8865751E+01  2.3343994E+01
 1.8877251E+01  2.3334568E+01
 1.8888750E+01  2.3328609E+01
 1.8900251E+01  2.3298231E+01
 1.8911751E+01  2.3325342E+01
 1.8923250E+01  2.3358568E+01
 1.8934752E+01  2.3408745E+01
 1.8946251E+01  2.3464870E+01
 1.8957750E+01  2.3467947E+01
 1.8969252E+01  2.3398727E+01
 1.8980751E+01  2.3296085E+01
 1.8992250E+01  2.3243670E+01
 1.9003752E+01  2.3269981E+01
 1.9015251E+01  2.3323122E+01
 1.9026751E+01  2.3398914E+01
 1.9038252E+01  2.3399960E+01
 1.9049751E+01  2.3393507E+01
 1.9061251E+01  2.3395164E+01
 1.9072750E+01  2.3382021E+01
 1.9084251E+01  2.3359610E+01
 1.9095751E+01  2.3276136E+01
 1.9107250E+01  2.3210836E+01
 1.9118752E+01  2.3130583E+01
 1.9130251E+01  2.3162052E+01
 1.9141750E+01  2.3189226E+01
 1.9153252E+01  2.3263498E+01
 1.9164751E+01  2.3263594E+01
 1.9176250E+01  2.3324848E+01
 1.9187752E+01  2.3341251E+01
 1.9199251E+01  2.3365150E+01
 1.9210751E+01  2.3387159E+01
 1.9222252E+01  2.3400660E+01
 1.9233751E+01  2.3412584E+01
 1.9245251E+01  2.3376778E+01
 1.9256750E+01  2.3402243E+01
 1.9268251E+01  2.3410030E+01
 1.9279751E+01  2.3409296E+01
 1.9291250E+01  2.3387550E+01
 1.9302752E+01  2.3406424E+01
 1.9314251E+01  2.3402517E+01
 1.9325750E+01  2.3394184E+01
 1.9337252E+01  2.3391142E+01
 1.9348751E+01  2.3382339E+01
 1.9360250E+01  2.3386436E+01
 1.9371752E+01  2.3415201E+01
 1.9383251E+01  2.3437819E+01
 1.9394751E+01  2.3491980E+01
 1.9406250E+01  2.3520277E+01
 1.9417751E+01  2.3512068E+01
 1.9429251E+01  2.3475956E+01
 1.9440750E+01  2.3469282E+01
 1.9452251E+01  2.3498823E+01
 1.9463751E+01  2.3511965E+01
 1.9475250E+01  2.3547140E+01
 1.9486752E+01  2.3554394E+01
 1.9498251E+01  2.3532703E+01
 1.9509750E+01  2.3527283E+01
 1.9521252E+01  2.3506647E+01
 1.9532751E+01  2.3480841E+01
 1.9544250E+01  2.3445326E+01
 1.9555752E+01  2.3433346E+01
 1.9567251E+01  2.3476269E+01
 1.9578751E+01  2.3565756E+01
 1.9590250E+01  2.3597050E+01
 1.9601751E+01  2.3644768E+01
 1.9613251E+01  2.3633312E+01
 1.9624750E+01  2.3673956E+01
 1.9636251E+01  2.3716715E+01
 1.9647751E+01  2.3830826E+01
 1.9659250E+01  2.4062672E+01
 1.9670752E+01  2.4171509E+01
 1.9682251E+01  2.4363140E+01
 1.9693750E+01  2.4532034E+01
 1.9705252E+01  2.4780941E+01
 1.9716751E+01  2.5024689E+01
 1.9728251E+01  2.5104340E+01
 1.9739752E+01  2.5123732E+01
 1.9751251E+01  2.4979109E+01
 1.9762751E+01  2.4820595E+01
 1.9774250E+01  2.4645449E+01
 1.9785751E+01  2.4483360E+01
 1.9797251E+01  2.4467926E+01
 1.9808750E+01  2.4492205E+01
 1.9820251E+01  2.4591555E+01
 1.9831751E+01  2.4751659E+01
 1.9843250E+01  2.4871040E+01
 1.9854752E+01  2.4910906E+01
 1.9866251E+01  2.4842945E+01
 1.9877750E+01  2.4793697E+01
 1.9889252E+01  2.4698112E+01
 1.9900751E+01  2.4578735E+01
 1.9912251E+01  2.4460171E+01
 1.9923752E+01  2.4252747E+01
 1.9935251E+01  2.4048719E+01
 1.9946751E+01  2.3868734E+01
 1.9958250E+01  2.3736912E+01
 1.9969751E+01  2.3724768E+01
 1.9981251E+01  2.3684168E+01
 1.9992750E+01  2.3683228E+01
 2.0004251E+01  2.3606415E+01
 2.0015751E+01  2.3621201E+01
 2.0027250E+01  2.3642288E+01
 2.0038752E+01  2.3687819E+01
 2.0050251E+01  2.3692551E+01
 2.0061750E+01  2.3641296E+01
 2.0073252E+01  2.3594255E+01
 2.0084751E+01  2.3523161E+01
 2.0096251E+01  2.3528728E+01
 2.0107752E+01  2.3543131E+01
 2.0119251E+01  2.3549015E+01
 2.0130751E+01  2.3557119E+01
 2.0142250E+01  2.3524069E+01
 2.0153751E+01  2.3509550E+01
 2.0165251E+01  2.3450100E+01
 2.0176750E+01  2.3481131E+01
 2.0188251E+01  2.3486427E+01
 2.0199751E+01  2.3465742E+01
 2.0211250E+01  2.3441469E+01
 2.0222752E+01  2.3470861E+01
 2.0234251E+01  2.3489857E+01
 2.0245750E+01  2.3470547E+01
 2.0257252E+01  2.3464327E+01
 2.0268751E+01  2.3473976E+01
 2.0280251E+01  2.3545393E+01
 2.0291752E+01  2.3583443E+01
 2.0303251E+01  2.3573362E+01
 2.0314751E+01  2.3559536E+01
 2.0326250E+01  2.3601549E+01
 2.0337751E+01  2.3638763E+01
 2.0349251E+01  2.3589836E+01
 2.0360750E+01  2.3545786E+01
 2.0372252E+01  2.3484261E+01
 2.0383751E+01  2.3470942E+01
 2.0395250E+01  2.3489538E+01
 2.0406752E+01  2.3514879E+01
 2.0418251E+01  2.3538738E+01
 2.0429750E+01  2.3568447E+01
 2.0441252E+01  2.3552170E+01
 2.0452751E+01  2.3562178E+01
 2.0464251E+01  2.3569569E+01
 2.0475752E+01  2.3567514E+01
 2.0487251E+01  2.3590000E+01
 2.0498751E+01  2.3575542E+01
 2.0510250E+01  2.3559612E+01
 2.0521751E+01  2.3545677E+01
 2.0533251E+01  2.3577063E+01
 2.0544750E+01  2.3601149E+01
 2.0556252E+01  2.3639750E+01
 2.0567751E+01  2.3677786E+01
 2.0579250E+01  2.3679279E+01
 2.0590752E+01  2.3708094E+01
 2.0602251E+01  2.3705482E+01
 2.0613750E+01  2.3706041E+01
 2.0625252E+01  2.3709003E+01
 2.0636751E+01  2.3718395E+01
 2.0648251E+01  2.3716595E+01
 2.0659752E+01  2.3736132E+01
 2.0671251E+01  2.3779652E+01
 2.0682751E+01  2.3852022E+01
 2.0694250E+01  2.3933468E+01
 2.0705751E+01  2.4065865E+01
 2.0717251E+01  2.4260773E+01
 2.0728750E+01  2.4371359E+01
 2.0740252E+01  2.4482136E+01
 2.0751751E+01  2.4551004E+01
 2.0763250E+01  2.4604883E+01
 2.0774752E+01  2.4524252E+01
 2.0786251E+01  2.4405371E+01
 2.0797750E+01  2.4293552E+01
 2.0809252E+01  2.4183567E+01
 2.0820751E+01  2.4080845E+01
 2.0832251E+01  2.3968273E+01
 2.0843752E+01  2.3873964E+01
 2.0855251E+01  2.3810322E+01
 2.0866751E+01  2.3758121E+01
 2.0878250E+01  2.3747936E+01
 2.0889751E+01  2.3757221E+01
 2.0901251E+01  2.3809927E+01
 2.0912750E+01  2.3821201E+01
 2.0924252E+01  2.3855429E+01
 2.0935751E+01  2.3829525E+01
 2.0947250E+01  2.3811558E+01
 2.0958752E+01  2.3740231E+01
 2.0970251E+01  2.3682068E+01
 2.0981750E+01  2.3594357E+01
 2.0993252E+01  2.3592543E+01
 2.1004751E+01  2.3568171E+01
 2.1016251E+01  2.3571775E+01
 2.1027752E+01  2.3583174E+01
 2.1039251E+01  2.3644079E+01
 2.1050751E+01  2.3664717E+01
 2.1062250E+01  2.3671640E+01
 2.1073751E+01  2.3698797E+01
 2.1085251E+01  2.3678051E+01
 2.1096750E+01  2.3666542E+01
 2.1108252E+01  2.3674700E+01
 2.1119751E+01  2.3710630E+01
 2.1131250E+01  2.3691727E+01
 2.1142752E+01  2.3666023E+01
 2.1154251E+01  2.3612000E+01
 2.1165751E+01  2.3652946E+01
 2.1177252E+01  2.3686192E+01
 2.1188751E+01  2.3724934E+01
 2.1200251E+01  2.3738138E+01
 2.1211752E+01  2.3768169E+01
 2.1223251E+01  2.3710543E+01
 2.1234751E+01  2.3683374E+01
 2.1246250E+01  2.3703659E+01
 2.1257751E+01  2.3758303E+01
 2.1269251E+01  2.3757153E+01
 2.1280750E+01  2.3794659E+01
 2.1292252E+01  2.3784311E+01
 2.1303751E+01  2.3733170E+01
 2.1315250E+01  2.3638546E+01
 2.1326752E+01  2.3610661E+01
 2.1338251E+01  2.3625046E+01
 2.1349751E+01  2.3675476E+01
 2.1361252E+01  2.3757576E+01
 2.1372751E+01  2.3824324E+01
 2.1384251E+01  2.3798082E+01
 2.1395752E+01  2.3805056E+01
 2.1407251E+01  2.3788233E+01
 2.1418751E+01  2.3766644E+01
 2.1430250E+01  2.3764439E+01
 2.1441751E+01  2.3723999E+01
 2.1453251E+01  2.3745783E+01
 2.1464750E+01  2.3712593E+01
 2.1476252E+01  2.3712240E+01
 2.1487751E+01  2.3710011E+01
 2.1499250E+01  2.3759317E+01
 2.1510752E+01  2.3803343E+01
 2.1522251E+01  2.3829132E+01
 2.1533751E+01  2.3836960E+01
 2.1545252E+01  2.3831646E+01
 2.1556751E+01  2.3812073E+01
 2.1568251E+01  2.3797268E+01
 2.1579752E+01  2.3821375E+01
 2.1591251E+01  2.3872049E+01
 2.1602751E+01  2.3901371E+01
 2.1614250E+01  2.3904512E+01
 2.1625751E+01  2.3879936E+01
 2.1637251E+01  2.3891289E+01
 2.1648750E+01  2.3857344E+01
 2.1660252E+01  2.3828136E+01
 2.1671751E+01  2.3806648E+01
 2.1683250E+01  2.3855549E+01
 2.1694752E+01  2.3870609E+01
 2.1706251E+01  2.3935963E+01
 2.1717751E+01  2.3943214E+01
 2.1729252E+01  2.3991873E+01
 2.1740751E+01  2.3960657E+01
 2.1752251E+01  2.3915298E+01
 2.1763752E+01  2.3932970E+01
 2.1775251E+01  2.3948448E+01
 2.1786751E+01  2.3960857E+01
 2.1798250E+01  2.3916084E+01
 2.1809752E+01  2.3955341E+01
 2.1821251E+01  2.3973862E+01
 2.1832750E+01  2.3956722E+01
 2.1844252E+01  2.3886547E+01
 2.1855751E+01  2.3892626E+01
 2.1867250E+01  2.3962395E+01
 2.1878752E+01  2.4039200E+01
 2.1890251E+01  2.4003180E+01
 2.1901751E+01  2.3934752E+01
 2.1913252E+01  2.3893234E+01
 2.1924751E+01  2.3881489E+01
 2.1936251E+01  2.3918612E+01
 2.1947752E+01  2.3929556E+01
 2.1959251E+01  2.3973179E+01
 2.1970751E+01  2.4005123E+01
 2.1982250E+01  2.4038799E+01
 2.1993752E+01  2.4058321E+01
 2.2005251E+01  2.4087831E+01
 2.2016750E+01  2.4175783E+01
 2.2028252E+01  2.4175812E+01
 2.2039751E+01  2.4174381E+01
 2.2051250E+01  2.4136370E+01
 2.2062752E+01  2.4147039E+01
 2.2074251E+01  2.4103901E+01
 2.2085751E+01  2.4018980E+01
 2.2097252E+01  2.3971727E+01
 2.2108751E+01  2.3933836E+01
 2.2120251E+01  2.4023516E+01
 2.2131752E+01  2.4072052E+01
 2.2143251E+01  2.4126251E+01
 2.2154751E+01  2.4159826E+01
 2.2166250E+01  2.4204285E+01
 2.2177752E+01  2.4186543E+01
 2.2189251E+01  2.4142982E+01
 2.2200750E+01  2.4141548E+01
 2.2212252E+01  2.4156786E+01
 2.2223751E+01  2.4195221E+01
 2.2235250E+01  2.4220268E+01
 2.2246752E+01  2.4233114E+01
 2.2258251E+01  2.4246153E+01
 2.2269751E+01  2.4204424E+01
 2.2281252E+01  2.4243416E+01
 2.2292751E+01  2.4256563E+01
 2.2304251E+01  2.4370922E+01
 2.2315752E+01  2.4353191E+01
 2.2327251E+01  2.4359800E+01
 2.2338751E+01  2.4317225E+01
 2.2350250E+01  2.4360764E+01
 2.2361752E+01  2.4339575E+01
 2.2373251E+01  2.4347240E+01
 2.2384750E+01  2.4320688E+01
 2.2396252E+01  2.4376217E+01
 2.2407751E+01  2.4356031E+01
 2.2419250E+01  2.4354925E+01
 2.2430752E+01  2.4369791E+01
 2.2442251E+01  2.4433956E+01
 2.2453751E+01  2.4444750E+01
 2.2465252E+01  2.4431936E+01
 2.2476751E+01  2.4402597E+01
 2.2488251E+01  2.4469690E+01
 2.2499752E+01  2.4518579E+01
 2.2511251E+01  2.4571308E+01
 2.2522751E+01  2.4569483E+01
 2.2534250E+01  2.4593407E+01
 2.2545752E+01  2.4652271E+01
 2.2557251E+01  2.4644119E+01
 2.2568750E+01  2.4639498E+01
 2.2580252E+01  2.4632948E+01
 2.2591751E+01  2.4641775E+01
 2.2603251E+01  2.4642027E+01
 2.2614752E+01  2.4709778E+01
 2.2626251E+01  2.4805149E+01
 2.2637751E+01  2.4841288E+01
 2.2649252E+01  2.4836361E+01
 2.2660751E+01  2.4839237E+01
 2.2672251E+01  2.4877335E+01
 2.2683752E+01  2.4948849E+01
 2.2695251E+01  2.5011623E+01
 2.2706751E+01  2.5012918E+01
 2.2718250E+01  2.5042667E+01
 2.2729752E+01  2.5038145E+01
 2.2741251E+01  2.5093060E+01
 2.2752750E+01  2.5089830E+01
 2.2764252E+01  2.5086197E+01
 2.2775751E+01  2.5060444E+01
 2.2787251E+01  2.5063543E+01
 2.2798752E+01  2.5133572E+01
 2.2810251E+01  2.5199873E+01
 2.2821751E+01  2.5268082E+01
 2.2833252E+01  2.5274448E+01
 2.2844751E+01  2.5334984E+01
 2.2856251E+01  2.5384918E+01
 2.2867750E+01  2.5455317E+01
 2.2879251E+01  2.5457224E+01
 2.2890751E+01  2.5550802E+01
 2.2902250E+01  2.5633902E+01
 2.2913752E+01  2.5736509E+01
 2.2925251E+01  2.5758356E+01
 2.2936750E+01  2.5797941E+01
 2.2948252E+01  2.5859282E+01
 2.2959751E+01  2.5925077E+01
 2.2971251E+01  2.6070467E+01
 2.2982752E+01  2.6116383E+01
 2.2994251E+01  2.6213913E+01
