F:\20151113_APS_34IDE\\Brian\Particle1\OCV\Data_0129.tif
2-Theta Angle (Degrees)
Intensity
       2000
 5.7500005E-03  0.0000000E+00
 1.7250001E-02  0.0000000E+00
 2.8750001E-02  0.0000000E+00
 4.0250003E-02  0.0000000E+00
 5.1750004E-02  0.0000000E+00
 6.3250005E-02  0.0000000E+00
 7.4750006E-02  0.0000000E+00
 8.6250007E-02  0.0000000E+00
 9.7750008E-02  0.0000000E+00
 1.0925001E-01  0.0000000E+00
 1.2075000E-01  0.0000000E+00
 1.3225001E-01  0.0000000E+00
 1.4375001E-01  0.0000000E+00
 1.5525001E-01  0.0000000E+00
 1.6675001E-01  0.0000000E+00
 1.7825001E-01  0.0000000E+00
 1.8975002E-01  0.0000000E+00
 2.0125002E-01  0.0000000E+00
 2.1275002E-01  0.0000000E+00
 2.2425000E-01  0.0000000E+00
 2.3575000E-01  0.0000000E+00
 2.4725001E-01  0.0000000E+00
 2.5875002E-01  0.0000000E+00
 2.7025002E-01  0.0000000E+00
 2.8175002E-01  0.0000000E+00
 2.9325002E-01  0.0000000E+00
 3.0475003E-01  0.0000000E+00
 3.1625003E-01  0.0000000E+00
 3.2775003E-01  0.0000000E+00
 3.3925003E-01  0.0000000E+00
 3.5075003E-01  0.0000000E+00
 3.6225003E-01  0.0000000E+00
 3.7375003E-01  0.0000000E+00
 3.8525003E-01  0.0000000E+00
 3.9675003E-01  0.0000000E+00
 4.0825003E-01  0.0000000E+00
 4.1975003E-01  0.0000000E+00
 4.3125004E-01  0.0000000E+00
 4.4275001E-01  0.0000000E+00
 4.5425001E-01  0.0000000E+00
 4.6575001E-01  0.0000000E+00
 4.7725001E-01  0.0000000E+00
 4.8875001E-01  0.0000000E+00
 5.0025004E-01  0.0000000E+00
 5.1175004E-01  0.0000000E+00
 5.2325004E-01  0.0000000E+00
 5.3475004E-01  0.0000000E+00
 5.4625005E-01  0.0000000E+00
 5.5775005E-01  0.0000000E+00
 5.6925005E-01  0.0000000E+00
 5.8075005E-01  0.0000000E+00
 5.9225005E-01  0.0000000E+00
 6.0375005E-01  0.0000000E+00
 6.1525005E-01  0.0000000E+00
 6.2675005E-01  0.0000000E+00
 6.3825005E-01  0.0000000E+00
 6.4975005E-01  0.0000000E+00
 6.6125005E-01  0.0000000E+00
 6.7275006E-01  0.0000000E+00
 6.8425006E-01  0.0000000E+00
 6.9575006E-01  0.0000000E+00
 7.0725006E-01  0.0000000E+00
 7.1875006E-01  0.0000000E+00
 7.3025006E-01  0.0000000E+00
 7.4175006E-01  0.0000000E+00
 7.5325006E-01  0.0000000E+00
 7.6475006E-01  0.0000000E+00
 7.7625006E-01  0.0000000E+00
 7.8775007E-01  0.0000000E+00
 7.9925007E-01  0.0000000E+00
 8.1075007E-01  0.0000000E+00
 8.2225007E-01  0.0000000E+00
 8.3375007E-01  0.0000000E+00
 8.4525007E-01  0.0000000E+00
 8.5675007E-01  0.0000000E+00
 8.6825007E-01  0.0000000E+00
 8.7975001E-01  0.0000000E+00
 8.9125001E-01  0.0000000E+00
 9.0275002E-01  0.0000000E+00
 9.1425002E-01  0.0000000E+00
 9.2575002E-01  0.0000000E+00
 9.3725002E-01  0.0000000E+00
 9.4875002E-01  0.0000000E+00
 9.6025002E-01  0.0000000E+00
 9.7175002E-01  0.0000000E+00
 9.8325002E-01  0.0000000E+00
 9.9475002E-01  0.0000000E+00
 1.0062500E+00  0.0000000E+00
 1.0177500E+00  0.0000000E+00
 1.0292500E+00  0.0000000E+00
 1.0407500E+00  0.0000000E+00
 1.0522500E+00  0.0000000E+00
 1.0637500E+00  0.0000000E+00
 1.0752500E+00  0.0000000E+00
 1.0867500E+00  0.0000000E+00
 1.0982500E+00  0.0000000E+00
 1.1097500E+00  0.0000000E+00
 1.1212500E+00  0.0000000E+00
 1.1327500E+00  0.0000000E+00
 1.1442500E+00  0.0000000E+00
 1.1557500E+00  0.0000000E+00
 1.1672500E+00  0.0000000E+00
 1.1787500E+00  0.0000000E+00
 1.1902500E+00  0.0000000E+00
 1.2017500E+00  0.0000000E+00
 1.2132500E+00  0.0000000E+00
 1.2247500E+00  0.0000000E+00
 1.2362500E+00  0.0000000E+00
 1.2477500E+00  0.0000000E+00
 1.2592500E+00  0.0000000E+00
 1.2707500E+00  0.0000000E+00
 1.2822500E+00  0.0000000E+00
 1.2937500E+00  0.0000000E+00
 1.3052500E+00  0.0000000E+00
 1.3167500E+00  0.0000000E+00
 1.3282501E+00  0.0000000E+00
 1.3397501E+00  0.0000000E+00
 1.3512501E+00  0.0000000E+00
 1.3627501E+00  0.0000000E+00
 1.3742501E+00  0.0000000E+00
 1.3857501E+00  0.0000000E+00
 1.3972501E+00  0.0000000E+00
 1.4087501E+00  0.0000000E+00
 1.4202501E+00  0.0000000E+00
 1.4317501E+00  0.0000000E+00
 1.4432501E+00  0.0000000E+00
 1.4547501E+00  0.0000000E+00
 1.4662501E+00  0.0000000E+00
 1.4777501E+00  0.0000000E+00
 1.4892501E+00  0.0000000E+00
 1.5007501E+00  0.0000000E+00
 1.5122501E+00  0.0000000E+00
 1.5237501E+00  0.0000000E+00
 1.5352501E+00  0.0000000E+00
 1.5467501E+00  0.0000000E+00
 1.5582501E+00  0.0000000E+00
 1.5697501E+00  0.0000000E+00
 1.5812501E+00  0.0000000E+00
 1.5927501E+00  0.0000000E+00
 1.6042501E+00  0.0000000E+00
 1.6157501E+00  0.0000000E+00
 1.6272501E+00  0.0000000E+00
 1.6387501E+00  0.0000000E+00
 1.6502501E+00  0.0000000E+00
 1.6617501E+00  0.0000000E+00
 1.6732501E+00  0.0000000E+00
 1.6847501E+00  0.0000000E+00
 1.6962501E+00  0.0000000E+00
 1.7077501E+00  0.0000000E+00
 1.7192501E+00  0.0000000E+00
 1.7307501E+00  0.0000000E+00
 1.7422501E+00  0.0000000E+00
 1.7537501E+00  0.0000000E+00
 1.7652501E+00  0.0000000E+00
 1.7767501E+00  0.0000000E+00
 1.7882501E+00  0.0000000E+00
 1.7997501E+00  0.0000000E+00
 1.8112501E+00  0.0000000E+00
 1.8227501E+00  0.0000000E+00
 1.8342501E+00  0.0000000E+00
 1.8457501E+00  0.0000000E+00
 1.8572501E+00  0.0000000E+00
 1.8687501E+00  0.0000000E+00
 1.8802501E+00  0.0000000E+00
 1.8917501E+00  0.0000000E+00
 1.9032501E+00  0.0000000E+00
 1.9147501E+00  0.0000000E+00
 1.9262501E+00  0.0000000E+00
 1.9377501E+00  0.0000000E+00
 1.9492501E+00  0.0000000E+00
 1.9607501E+00  0.0000000E+00
 1.9722501E+00  0.0000000E+00
 1.9837501E+00  0.0000000E+00
 1.9952501E+00  0.0000000E+00
 2.0067501E+00  0.0000000E+00
 2.0182500E+00  0.0000000E+00
 2.0297501E+00  0.0000000E+00
 2.0412500E+00  0.0000000E+00
 2.0527501E+00  0.0000000E+00
 2.0642500E+00  0.0000000E+00
 2.0757501E+00  0.0000000E+00
 2.0872500E+00  0.0000000E+00
 2.0987501E+00  0.0000000E+00
 2.1102500E+00  0.0000000E+00
 2.1217501E+00  0.0000000E+00
 2.1332500E+00  0.0000000E+00
 2.1447501E+00  0.0000000E+00
 2.1562500E+00  0.0000000E+00
 2.1677501E+00  0.0000000E+00
 2.1792500E+00  0.0000000E+00
 2.1907501E+00  0.0000000E+00
 2.2022500E+00  0.0000000E+00
 2.2137501E+00  0.0000000E+00
 2.2252500E+00  0.0000000E+00
 2.2367501E+00  0.0000000E+00
 2.2482500E+00  0.0000000E+00
 2.2597501E+00  0.0000000E+00
 2.2712500E+00  0.0000000E+00
 2.2827501E+00  0.0000000E+00
 2.2942500E+00  0.0000000E+00
 2.3057501E+00  0.0000000E+00
 2.3172500E+00  0.0000000E+00
 2.3287501E+00  0.0000000E+00
 2.3402500E+00  0.0000000E+00
 2.3517501E+00  0.0000000E+00
 2.3632500E+00  0.0000000E+00
 2.3747501E+00  0.0000000E+00
 2.3862500E+00  0.0000000E+00
 2.3977501E+00  0.0000000E+00
 2.4092500E+00  0.0000000E+00
 2.4207501E+00  0.0000000E+00
 2.4322500E+00  0.0000000E+00
 2.4437501E+00  0.0000000E+00
 2.4552500E+00  0.0000000E+00
 2.4667501E+00  0.0000000E+00
 2.4782500E+00  0.0000000E+00
 2.4897501E+00  0.0000000E+00
 2.5012500E+00  0.0000000E+00
 2.5127501E+00  0.0000000E+00
 2.5242500E+00  0.0000000E+00
 2.5357502E+00  0.0000000E+00
 2.5472500E+00  0.0000000E+00
 2.5587502E+00  0.0000000E+00
 2.5702500E+00  0.0000000E+00
 2.5817502E+00  0.0000000E+00
 2.5932500E+00  0.0000000E+00
 2.6047502E+00  0.0000000E+00
 2.6162500E+00  0.0000000E+00
 2.6277502E+00  0.0000000E+00
 2.6392500E+00  0.0000000E+00
 2.6507502E+00  0.0000000E+00
 2.6622500E+00  0.0000000E+00
 2.6737502E+00  0.0000000E+00
 2.6852500E+00  0.0000000E+00
 2.6967502E+00  0.0000000E+00
 2.7082500E+00  0.0000000E+00
 2.7197502E+00  0.0000000E+00
 2.7312500E+00  0.0000000E+00
 2.7427502E+00  0.0000000E+00
 2.7542500E+00  0.0000000E+00
 2.7657502E+00  0.0000000E+00
 2.7772501E+00  0.0000000E+00
 2.7887502E+00  0.0000000E+00
 2.8002501E+00  0.0000000E+00
 2.8117502E+00  0.0000000E+00
 2.8232501E+00  3.6769405E+01
 2.8347502E+00  3.5178116E+01
 2.8462501E+00  3.5218365E+01
 2.8577502E+00  3.5468266E+01
 2.8692501E+00  3.5509083E+01
 2.8807502E+00  3.5773426E+01
 2.8922501E+00  3.5292362E+01
 2.9037502E+00  3.5386246E+01
 2.9152501E+00  3.5418865E+01
 2.9267502E+00  3.5534348E+01
 2.9382501E+00  3.5846191E+01
 2.9497502E+00  3.5942837E+01
 2.9612501E+00  3.6153717E+01
 2.9727502E+00  3.5978252E+01
 2.9842501E+00  3.5954102E+01
 2.9957502E+00  3.5756592E+01
 3.0072501E+00  3.5773655E+01
 3.0187502E+00  3.5981571E+01
 3.0302501E+00  3.6309784E+01
 3.0417502E+00  3.6670357E+01
 3.0532501E+00  3.6334248E+01
 3.0647502E+00  3.6486057E+01
 3.0762501E+00  3.6524014E+01
 3.0877502E+00  3.6794334E+01
 3.0992501E+00  3.6885426E+01
 3.1107502E+00  3.6310955E+01
 3.1222501E+00  3.6169785E+01
 3.1337502E+00  3.5511517E+01
 3.1452501E+00  3.5594585E+01
 3.1567502E+00  3.5576229E+01
 3.1682501E+00  3.5567303E+01
 3.1797502E+00  3.5614220E+01
 3.1912501E+00  3.5687191E+01
 3.2027502E+00  3.5869194E+01
 3.2142501E+00  3.5993076E+01
 3.2257502E+00  3.5982029E+01
 3.2372501E+00  3.5554138E+01
 3.2487502E+00  3.5415569E+01
 3.2602501E+00  3.4847618E+01
 3.2717502E+00  3.4268753E+01
 3.2832501E+00  3.3726311E+01
 3.2947502E+00  3.3569786E+01
 3.3062501E+00  3.3659527E+01
 3.3177502E+00  3.4017113E+01
 3.3292501E+00  3.4061775E+01
 3.3407502E+00  3.4640282E+01
 3.3522501E+00  3.4758686E+01
 3.3637502E+00  3.4891384E+01
 3.3752501E+00  3.4773544E+01
 3.3867502E+00  3.4535030E+01
 3.3982501E+00  3.4381695E+01
 3.4097502E+00  3.3942604E+01
 3.4212501E+00  3.3981949E+01
 3.4327502E+00  3.3970436E+01
 3.4442501E+00  3.4386021E+01
 3.4557502E+00  3.4454391E+01
 3.4672501E+00  3.4412380E+01
 3.4787502E+00  3.4234512E+01
 3.4902501E+00  3.4074642E+01
 3.5017502E+00  3.3625801E+01
 3.5132501E+00  3.3837826E+01
 3.5247502E+00  3.3819073E+01
 3.5362501E+00  3.4393341E+01
 3.5477502E+00  3.4346298E+01
 3.5592501E+00  3.4571159E+01
 3.5707502E+00  3.4378044E+01
 3.5822501E+00  3.4228363E+01
 3.5937502E+00  3.3891911E+01
 3.6052501E+00  3.3726456E+01
 3.6167502E+00  3.3648998E+01
 3.6282501E+00  3.3637814E+01
 3.6397502E+00  3.3572563E+01
 3.6512501E+00  3.3669991E+01
 3.6627502E+00  3.3538338E+01
 3.6742501E+00  3.3382019E+01
 3.6857502E+00  3.3312309E+01
 3.6972501E+00  3.3261700E+01
 3.7087502E+00  3.3113338E+01
 3.7202501E+00  3.3065491E+01
 3.7317502E+00  3.3067627E+01
 3.7432501E+00  3.3172913E+01
 3.7547503E+00  3.3167938E+01
 3.7662501E+00  3.3137146E+01
 3.7777503E+00  3.3212025E+01
 3.7892501E+00  3.3182312E+01
 3.8007503E+00  3.2913227E+01
 3.8122501E+00  3.2821774E+01
 3.8237503E+00  3.2628071E+01
 3.8352501E+00  3.2799099E+01
 3.8467503E+00  3.2876114E+01
 3.8582501E+00  3.2917419E+01
 3.8697503E+00  3.2794376E+01
 3.8812501E+00  3.2691456E+01
 3.8927503E+00  3.2528820E+01
 3.9042501E+00  3.2515156E+01
 3.9157503E+00  3.2611450E+01
 3.9272501E+00  3.2619156E+01
 3.9387503E+00  3.2703259E+01
 3.9502501E+00  3.2623890E+01
 3.9617503E+00  3.2644569E+01
 3.9732502E+00  3.2856567E+01
 3.9847503E+00  3.2782661E+01
 3.9962502E+00  3.3063934E+01
 4.0077500E+00  3.3018261E+01
 4.0192504E+00  3.2942585E+01
 4.0307503E+00  3.2815132E+01
 4.0422502E+00  3.2501358E+01
 4.0537500E+00  3.2376144E+01
 4.0652504E+00  3.2255775E+01
 4.0767503E+00  3.2221962E+01
 4.0882502E+00  3.2392994E+01
 4.0997500E+00  3.2576118E+01
 4.1112504E+00  3.2549950E+01
 4.1227503E+00  3.2467140E+01
 4.1342502E+00  3.2332512E+01
 4.1457500E+00  3.2529415E+01
 4.1572504E+00  3.2488564E+01
 4.1687503E+00  3.2530483E+01
 4.1802502E+00  3.2230396E+01
 4.1917500E+00  3.2250999E+01
 4.2032504E+00  3.2038692E+01
 4.2147503E+00  3.2050957E+01
 4.2262502E+00  3.2114643E+01
 4.2377501E+00  3.2177750E+01
 4.2492504E+00  3.2238796E+01
 4.2607503E+00  3.2252415E+01
 4.2722502E+00  3.2264519E+01
 4.2837501E+00  3.2361206E+01
 4.2952504E+00  3.2428997E+01
 4.3067503E+00  3.2479877E+01
 4.3182502E+00  3.2412876E+01
 4.3297501E+00  3.2240643E+01
 4.3412504E+00  3.2083637E+01
 4.3527503E+00  3.2037090E+01
 4.3642502E+00  3.2079609E+01
 4.3757501E+00  3.2257309E+01
 4.3872504E+00  3.2355244E+01
 4.3987503E+00  3.2400772E+01
 4.4102502E+00  3.2401756E+01
 4.4217501E+00  3.2406834E+01
 4.4332504E+00  3.2357670E+01
 4.4447503E+00  3.2211346E+01
 4.4562502E+00  3.2111736E+01
 4.4677501E+00  3.2238876E+01
 4.4792504E+00  3.2402210E+01
 4.4907503E+00  3.2520546E+01
 4.5022502E+00  3.2525875E+01
 4.5137501E+00  3.2530251E+01
 4.5252504E+00  3.2389946E+01
 4.5367503E+00  3.2354950E+01
 4.5482502E+00  3.2259514E+01
 4.5597501E+00  3.2272457E+01
 4.5712504E+00  3.2345303E+01
 4.5827503E+00  3.2361637E+01
 4.5942502E+00  3.2575470E+01
 4.6057501E+00  3.2538944E+01
 4.6172504E+00  3.2638794E+01
 4.6287503E+00  3.2631409E+01
 4.6402502E+00  3.2867813E+01
 4.6517501E+00  3.3092285E+01
 4.6632504E+00  3.3274265E+01
 4.6747503E+00  3.3353470E+01
 4.6862502E+00  3.3315727E+01
 4.6977501E+00  3.3320705E+01
 4.7092505E+00  3.3080601E+01
 4.7207503E+00  3.2951107E+01
 4.7322502E+00  3.2688179E+01
 4.7437501E+00  3.2570564E+01
 4.7552505E+00  3.2480099E+01
 4.7667503E+00  3.2502647E+01
 4.7782502E+00  3.2513344E+01
 4.7897501E+00  3.2541962E+01
 4.8012505E+00  3.2520794E+01
 4.8127503E+00  3.2586288E+01
 4.8242502E+00  3.2566017E+01
 4.8357501E+00  3.2674160E+01
 4.8472505E+00  3.2716011E+01
 4.8587503E+00  3.2816090E+01
 4.8702502E+00  3.2802532E+01
 4.8817501E+00  3.2774918E+01
 4.8932505E+00  3.2790169E+01
 4.9047503E+00  3.2829964E+01
 4.9162502E+00  3.2927193E+01
 4.9277501E+00  3.2842690E+01
 4.9392505E+00  3.2853558E+01
 4.9507504E+00  3.2778233E+01
 4.9622502E+00  3.2836243E+01
 4.9737501E+00  3.2766338E+01
 4.9852505E+00  3.2757069E+01
 4.9967504E+00  3.2769230E+01
 5.0082502E+00  3.2784252E+01
 5.0197501E+00  3.2859795E+01
 5.0312505E+00  3.3051395E+01
 5.0427504E+00  3.3198273E+01
 5.0542502E+00  3.3297092E+01
 5.0657501E+00  3.3371773E+01
 5.0772505E+00  3.3512344E+01
 5.0887504E+00  3.3577488E+01
 5.1002502E+00  3.3480652E+01
 5.1117501E+00  3.3362858E+01
 5.1232505E+00  3.3300251E+01
 5.1347504E+00  3.3303017E+01
 5.1462502E+00  3.3316154E+01
 5.1577501E+00  3.3393333E+01
 5.1692505E+00  3.3466003E+01
 5.1807504E+00  3.3524506E+01
 5.1922503E+00  3.3677979E+01
 5.2037501E+00  3.3745598E+01
 5.2152505E+00  3.3788837E+01
 5.2267504E+00  3.3825588E+01
 5.2382503E+00  3.3894783E+01
 5.2497501E+00  3.3974033E+01
 5.2612505E+00  3.3919319E+01
 5.2727504E+00  3.3817429E+01
 5.2842503E+00  3.3785469E+01
 5.2957501E+00  3.3891239E+01
 5.3072500E+00  3.3969322E+01
 5.3187504E+00  3.4104324E+01
 5.3302503E+00  3.3991241E+01
 5.3417501E+00  3.4058228E+01
 5.3532500E+00  3.4049458E+01
 5.3647504E+00  3.4072372E+01
 5.3762503E+00  3.4024109E+01
 5.3877501E+00  3.4049374E+01
 5.3992500E+00  3.4080029E+01
 5.4107504E+00  3.4099159E+01
 5.4222503E+00  3.4147480E+01
 5.4337502E+00  3.4234070E+01
 5.4452500E+00  3.4384911E+01
 5.4567504E+00  3.4429482E+01
 5.4682503E+00  3.4554268E+01
 5.4797502E+00  3.4556496E+01
 5.4912500E+00  3.4505451E+01
 5.5027504E+00  3.4508293E+01
 5.5142503E+00  3.4644112E+01
 5.5257502E+00  3.4815651E+01
 5.5372500E+00  3.4915039E+01
 5.5487504E+00  3.4880039E+01
 5.5602503E+00  3.4801674E+01
 5.5717502E+00  3.4732204E+01
 5.5832500E+00  3.4656376E+01
 5.5947504E+00  3.4714321E+01
 5.6062503E+00  3.4766819E+01
 5.6177502E+00  3.4844765E+01
 5.6292500E+00  3.4845818E+01
 5.6407504E+00  3.4796173E+01
 5.6522503E+00  3.4781960E+01
 5.6637502E+00  3.4831799E+01
 5.6752501E+00  3.4886078E+01
 5.6867504E+00  3.4977581E+01
 5.6982503E+00  3.4979202E+01
 5.7097502E+00  3.5057034E+01
 5.7212501E+00  3.5108803E+01
 5.7327504E+00  3.5292130E+01
 5.7442503E+00  3.5435539E+01
 5.7557502E+00  3.5548618E+01
 5.7672501E+00  3.5521816E+01
 5.7787504E+00  3.5478394E+01
 5.7902503E+00  3.5439098E+01
 5.8017502E+00  3.5471146E+01
 5.8132501E+00  3.5434170E+01
 5.8247504E+00  3.5463715E+01
 5.8362503E+00  3.5500092E+01
 5.8477502E+00  3.5550659E+01
 5.8592501E+00  3.5596077E+01
 5.8707504E+00  3.5731152E+01
 5.8822503E+00  3.5801781E+01
 5.8937502E+00  3.5874580E+01
 5.9052501E+00  3.5904209E+01
 5.9167504E+00  3.6009769E+01
 5.9282503E+00  3.6258507E+01
 5.9397502E+00  3.6617710E+01
 5.9512501E+00  3.7332970E+01
 5.9627504E+00  3.7957172E+01
 5.9742503E+00  3.8574211E+01
 5.9857502E+00  3.8708889E+01
 5.9972501E+00  3.8851593E+01
 6.0087504E+00  3.8357822E+01
 6.0202503E+00  3.7944115E+01
 6.0317502E+00  3.7275414E+01
 6.0432501E+00  3.6972984E+01
 6.0547504E+00  3.6734398E+01
 6.0662503E+00  3.6794975E+01
 6.0777502E+00  3.6847229E+01
 6.0892501E+00  3.6919067E+01
 6.1007504E+00  3.6931267E+01
 6.1122503E+00  3.6916935E+01
 6.1237502E+00  3.6839207E+01
 6.1352501E+00  3.6613590E+01
 6.1467505E+00  3.6574169E+01
 6.1582503E+00  3.6584492E+01
 6.1697502E+00  3.6578930E+01
 6.1812501E+00  3.6675472E+01
 6.1927505E+00  3.6713699E+01
 6.2042503E+00  3.6826897E+01
 6.2157502E+00  3.6960369E+01
 6.2272501E+00  3.7108494E+01
 6.2387505E+00  3.7255993E+01
 6.2502503E+00  3.7295940E+01
 6.2617502E+00  3.7351906E+01
 6.2732501E+00  3.7395718E+01
 6.2847505E+00  3.7468903E+01
 6.2962503E+00  3.7590809E+01
 6.3077502E+00  3.7734211E+01
 6.3192501E+00  3.7781757E+01
 6.3307505E+00  3.7863430E+01
 6.3422503E+00  3.7966988E+01
 6.3537502E+00  3.8004494E+01
 6.3652501E+00  3.7993420E+01
 6.3767505E+00  3.7971939E+01
 6.3882504E+00  3.8064129E+01
 6.3997502E+00  3.8147121E+01
 6.4112501E+00  3.8293613E+01
 6.4227505E+00  3.8337234E+01
 6.4342504E+00  3.8316563E+01
 6.4457502E+00  3.8254105E+01
 6.4572501E+00  3.8224476E+01
 6.4687505E+00  3.8375713E+01
 6.4802504E+00  3.8453476E+01
 6.4917502E+00  3.8639263E+01
 6.5032501E+00  3.8745060E+01
 6.5147505E+00  3.8829636E+01
 6.5262504E+00  3.8861458E+01
 6.5377502E+00  3.8890800E+01
 6.5492501E+00  3.8989395E+01
 6.5607505E+00  3.9058395E+01
 6.5722504E+00  3.9184345E+01
 6.5837502E+00  3.9243607E+01
 6.5952501E+00  3.9351219E+01
 6.6067505E+00  3.9400406E+01
 6.6182504E+00  3.9547932E+01
 6.6297503E+00  3.9750854E+01
 6.6412501E+00  3.9873081E+01
 6.6527505E+00  4.0017036E+01
 6.6642504E+00  4.0130775E+01
 6.6757503E+00  4.0157295E+01
 6.6872501E+00  4.0260269E+01
 6.6987505E+00  4.0245422E+01
 6.7102504E+00  4.0400837E+01
 6.7217503E+00  4.0423550E+01
 6.7332501E+00  4.0485130E+01
 6.7447505E+00  4.0505951E+01
 6.7562504E+00  4.0743824E+01
 6.7677503E+00  4.0806568E+01
 6.7792501E+00  4.1038269E+01
 6.7907505E+00  4.0986340E+01
 6.8022504E+00  4.1115498E+01
 6.8137503E+00  4.1133297E+01
 6.8252501E+00  4.1216999E+01
 6.8367505E+00  4.1298950E+01
 6.8482504E+00  4.1287380E+01
 6.8597503E+00  4.1355171E+01
 6.8712502E+00  4.1340359E+01
 6.8827505E+00  4.1463924E+01
 6.8942504E+00  4.1486664E+01
 6.9057503E+00  4.1546169E+01
 6.9172502E+00  4.1653858E+01
 6.9287505E+00  4.1651215E+01
 6.9402504E+00  4.1769680E+01
 6.9517503E+00  4.1837791E+01
 6.9632502E+00  4.2042271E+01
 6.9747505E+00  4.2213425E+01
 6.9862504E+00  4.2355240E+01
 6.9977503E+00  4.2394409E+01
 7.0092502E+00  4.2386524E+01
 7.0207505E+00  4.2446838E+01
 7.0322504E+00  4.2550922E+01
 7.0437503E+00  4.2599678E+01
 7.0552502E+00  4.2722767E+01
 7.0667505E+00  4.2681057E+01
 7.0782504E+00  4.2788654E+01
 7.0897503E+00  4.2732983E+01
 7.1012502E+00  4.2918232E+01
 7.1127505E+00  4.2992687E+01
 7.1242504E+00  4.3078430E+01
 7.1357503E+00  4.3096138E+01
 7.1472502E+00  4.3057041E+01
 7.1587505E+00  4.3140652E+01
 7.1702504E+00  4.3143715E+01
 7.1817503E+00  4.3187065E+01
 7.1932502E+00  4.3164982E+01
 7.2047505E+00  4.3197670E+01
 7.2162504E+00  4.3174332E+01
 7.2277503E+00  4.3252071E+01
 7.2392502E+00  4.3207874E+01
 7.2507505E+00  4.3302044E+01
 7.2622504E+00  4.3306179E+01
 7.2737503E+00  4.3367580E+01
 7.2852502E+00  4.3442501E+01
 7.2967505E+00  4.3407894E+01
 7.3082504E+00  4.3447529E+01
 7.3197503E+00  4.3502106E+01
 7.3312502E+00  4.3596298E+01
 7.3427505E+00  4.3608883E+01
 7.3542504E+00  4.3662025E+01
 7.3657503E+00  4.3621647E+01
 7.3772502E+00  4.3656750E+01
 7.3887506E+00  4.3732590E+01
 7.4002504E+00  4.3862968E+01
 7.4117503E+00  4.3993954E+01
 7.4232502E+00  4.3959141E+01
 7.4347506E+00  4.4079212E+01
 7.4462504E+00  4.4145184E+01
 7.4577503E+00  4.4215939E+01
 7.4692502E+00  4.4199554E+01
 7.4807506E+00  4.4215473E+01
 7.4922504E+00  4.4131725E+01
 7.5037503E+00  4.4074219E+01
 7.5152502E+00  4.4032104E+01
 7.5267506E+00  4.4030586E+01
 7.5382504E+00  4.3967361E+01
 7.5497503E+00  4.3884880E+01
 7.5612502E+00  4.3879391E+01
 7.5727506E+00  4.3898537E+01
 7.5842505E+00  4.3972561E+01
 7.5957503E+00  4.3941074E+01
 7.6072502E+00  4.4013248E+01
 7.6187506E+00  4.3991566E+01
 7.6302505E+00  4.3950382E+01
 7.6417503E+00  4.3915649E+01
 7.6532502E+00  4.3867252E+01
 7.6647506E+00  4.3952084E+01
 7.6762505E+00  4.4053741E+01
 7.6877503E+00  4.4115009E+01
 7.6992502E+00  4.4123058E+01
 7.7107506E+00  4.4187737E+01
 7.7222505E+00  4.4198616E+01
 7.7337503E+00  4.4284374E+01
 7.7452502E+00  4.4163151E+01
 7.7567506E+00  4.4050583E+01
 7.7682505E+00  4.3991512E+01
 7.7797503E+00  4.3963497E+01
 7.7912502E+00  4.4119480E+01
 7.8027506E+00  4.4179714E+01
 7.8142505E+00  4.4350975E+01
 7.8257504E+00  4.4310963E+01
 7.8372502E+00  4.4346867E+01
 7.8487506E+00  4.4275040E+01
 7.8602505E+00  4.4184975E+01
 7.8717504E+00  4.4122078E+01
 7.8832502E+00  4.4056248E+01
 7.8947506E+00  4.4021412E+01
 7.9062505E+00  4.4048527E+01
 7.9177504E+00  4.3987869E+01
 7.9292502E+00  4.3974045E+01
 7.9407506E+00  4.3757622E+01
 7.9522505E+00  4.3680374E+01
 7.9637504E+00  4.3580990E+01
 7.9752502E+00  4.3548771E+01
 7.9867506E+00  4.3456482E+01
 7.9982505E+00  4.3437744E+01
 8.0097504E+00  4.3367920E+01
 8.0212507E+00  4.3272953E+01
 8.0327501E+00  4.3238380E+01
 8.0442505E+00  4.3248585E+01
 8.0557508E+00  4.3285938E+01
 8.0672503E+00  4.3211082E+01
 8.0787506E+00  4.3055939E+01
 8.0902500E+00  4.2948219E+01
 8.1017504E+00  4.2874447E+01
 8.1132507E+00  4.2856953E+01
 8.1247501E+00  4.2769604E+01
 8.1362505E+00  4.2631527E+01
 8.1477509E+00  4.2543098E+01
 8.1592503E+00  4.2380009E+01
 8.1707506E+00  4.2297089E+01
 8.1822500E+00  4.2128544E+01
 8.1937504E+00  4.1982674E+01
 8.2052507E+00  4.1786030E+01
 8.2167501E+00  4.1594940E+01
 8.2282505E+00  4.1418858E+01
 8.2397509E+00  4.1285027E+01
 8.2512503E+00  4.1188335E+01
 8.2627506E+00  4.1081802E+01
 8.2742500E+00  4.0923306E+01
 8.2857504E+00  4.0668598E+01
 8.2972507E+00  4.0414188E+01
 8.3087502E+00  4.0234840E+01
 8.3202505E+00  4.0162453E+01
 8.3317509E+00  4.0021660E+01
 8.3432503E+00  3.9931461E+01
 8.3547506E+00  3.9768883E+01
 8.3662500E+00  3.9690590E+01
 8.3777504E+00  3.9579227E+01
 8.3892508E+00  3.9457188E+01
 8.4007502E+00  3.9438286E+01
 8.4122505E+00  3.9335991E+01
 8.4237509E+00  3.9231358E+01
 8.4352503E+00  3.9030746E+01
 8.4467506E+00  3.8902958E+01
 8.4582500E+00  3.8673668E+01
 8.4697504E+00  3.8519894E+01
 8.4812508E+00  3.8251869E+01
 8.4927502E+00  3.8062531E+01
 8.5042505E+00  3.7788460E+01
 8.5157509E+00  3.7670757E+01
 8.5272503E+00  3.7477459E+01
 8.5387506E+00  3.7333858E+01
 8.5502501E+00  3.7033024E+01
 8.5617504E+00  3.6825146E+01
 8.5732508E+00  3.6607994E+01
 8.5847502E+00  3.6456764E+01
 8.5962505E+00  3.6287697E+01
 8.6077509E+00  3.6099831E+01
 8.6192503E+00  3.6005432E+01
 8.6307507E+00  3.5889507E+01
 8.6422501E+00  3.5743671E+01
 8.6537504E+00  3.5495285E+01
 8.6652508E+00  3.5376114E+01
 8.6767502E+00  3.5196449E+01
 8.6882505E+00  3.5096645E+01
 8.6997509E+00  3.4923229E+01
 8.7112503E+00  3.4800571E+01
 8.7227507E+00  3.4670044E+01
 8.7342501E+00  3.4483196E+01
 8.7457504E+00  3.4229130E+01
 8.7572508E+00  3.4048187E+01
 8.7687502E+00  3.3863647E+01
 8.7802505E+00  3.3817154E+01
 8.7917500E+00  3.3619057E+01
 8.8032503E+00  3.3444595E+01
 8.8147507E+00  3.3213169E+01
 8.8262501E+00  3.3023472E+01
 8.8377504E+00  3.2914486E+01
 8.8492508E+00  3.2778530E+01
 8.8607502E+00  3.2699856E+01
 8.8722506E+00  3.2525799E+01
 8.8837500E+00  3.2322491E+01
 8.8952503E+00  3.2136276E+01
 8.9067507E+00  3.1877531E+01
 8.9182501E+00  3.1762400E+01
 8.9297504E+00  3.1598410E+01
 8.9412508E+00  3.1504036E+01
 8.9527502E+00  3.1398996E+01
 8.9642506E+00  3.1231894E+01
 8.9757500E+00  3.1082504E+01
 8.9872503E+00  3.0837833E+01
 8.9987507E+00  3.0618988E+01
 9.0102501E+00  3.0407784E+01
 9.0217505E+00  3.0225883E+01
 9.0332508E+00  3.0100285E+01
 9.0447502E+00  3.0003986E+01
 9.0562506E+00  2.9931393E+01
 9.0677500E+00  2.9880133E+01
 9.0792503E+00  2.9786015E+01
 9.0907507E+00  2.9727554E+01
 9.1022501E+00  2.9671099E+01
 9.1137505E+00  2.9531048E+01
 9.1252508E+00  2.9468067E+01
 9.1367502E+00  2.9344059E+01
 9.1482506E+00  2.9339027E+01
 9.1597500E+00  2.9222904E+01
 9.1712503E+00  2.9118595E+01
 9.1827507E+00  2.8986568E+01
 9.1942501E+00  2.8825403E+01
 9.2057505E+00  2.8641254E+01
 9.2172508E+00  2.8490717E+01
 9.2287502E+00  2.8346693E+01
 9.2402506E+00  2.8260658E+01
 9.2517500E+00  2.8124931E+01
 9.2632504E+00  2.8020565E+01
 9.2747507E+00  2.7870277E+01
 9.2862501E+00  2.7754324E+01
 9.2977505E+00  2.7580421E+01
 9.3092508E+00  2.7489260E+01
 9.3207502E+00  2.7318836E+01
 9.3322506E+00  2.7212969E+01
 9.3437500E+00  2.7113367E+01
 9.3552504E+00  2.7079889E+01
 9.3667507E+00  2.7160791E+01
 9.3782501E+00  2.7173290E+01
 9.3897505E+00  2.7124416E+01
 9.4012508E+00  2.7024235E+01
 9.4127502E+00  2.6863157E+01
 9.4242506E+00  2.6763290E+01
 9.4357500E+00  2.6673071E+01
 9.4472504E+00  2.6654133E+01
 9.4587507E+00  2.6618853E+01
 9.4702501E+00  2.6511635E+01
 9.4817505E+00  2.6466896E+01
 9.4932508E+00  2.6382652E+01
 9.5047503E+00  2.6349426E+01
 9.5162506E+00  2.6223217E+01
 9.5277500E+00  2.6167807E+01
 9.5392504E+00  2.6084694E+01
 9.5507507E+00  2.6002163E+01
 9.5622501E+00  2.5913853E+01
 9.5737505E+00  2.5800171E+01
 9.5852509E+00  2.5710735E+01
 9.5967503E+00  2.5662739E+01
 9.6082506E+00  2.5610973E+01
 9.6197500E+00  2.5566875E+01
 9.6312504E+00  2.5487213E+01
 9.6427507E+00  2.5394945E+01
 9.6542501E+00  2.5328346E+01
 9.6657505E+00  2.5223125E+01
 9.6772509E+00  2.5211376E+01
 9.6887503E+00  2.5175028E+01
 9.7002506E+00  2.5216791E+01
 9.7117500E+00  2.5275074E+01
 9.7232504E+00  2.5284166E+01
 9.7347507E+00  2.5268360E+01
 9.7462502E+00  2.5145363E+01
 9.7577505E+00  2.5006388E+01
 9.7692509E+00  2.4950222E+01
 9.7807503E+00  2.4871696E+01
 9.7922506E+00  2.4921104E+01
 9.8037500E+00  2.4860895E+01
 9.8152504E+00  2.4854740E+01
 9.8267508E+00  2.4759947E+01
 9.8382502E+00  2.4704702E+01
 9.8497505E+00  2.4642643E+01
 9.8612509E+00  2.4567415E+01
 9.8727503E+00  2.4527466E+01
 9.8842506E+00  2.4450506E+01
 9.8957500E+00  2.4459431E+01
 9.9072504E+00  2.4389555E+01
 9.9187508E+00  2.4380970E+01
 9.9302502E+00  2.4293430E+01
 9.9417505E+00  2.4201668E+01
 9.9532509E+00  2.4127144E+01
 9.9647503E+00  2.4079014E+01
 9.9762506E+00  2.4096741E+01
 9.9877501E+00  2.4056648E+01
 9.9992504E+00  2.4063017E+01
 1.0010751E+01  2.3962671E+01
 1.0022250E+01  2.3954594E+01
 1.0033751E+01  2.3974070E+01
 1.0045251E+01  2.4040329E+01
 1.0056750E+01  2.4066870E+01
 1.0068251E+01  2.4060171E+01
 1.0079750E+01  2.4038097E+01
 1.0091250E+01  2.3931690E+01
 1.0102751E+01  2.3875105E+01
 1.0114250E+01  2.3806128E+01
 1.0125751E+01  2.3818645E+01
 1.0137251E+01  2.3741631E+01
 1.0148750E+01  2.3722546E+01
 1.0160251E+01  2.3692976E+01
 1.0171750E+01  2.3646080E+01
 1.0183250E+01  2.3604105E+01
 1.0194751E+01  2.3580456E+01
 1.0206250E+01  2.3598766E+01
 1.0217751E+01  2.3600172E+01
 1.0229251E+01  2.3589724E+01
 1.0240750E+01  2.3530649E+01
 1.0252251E+01  2.3480988E+01
 1.0263750E+01  2.3372087E+01
 1.0275250E+01  2.3316483E+01
 1.0286751E+01  2.3257523E+01
 1.0298250E+01  2.3321363E+01
 1.0309751E+01  2.3353733E+01
 1.0321251E+01  2.3446539E+01
 1.0332750E+01  2.3364433E+01
 1.0344251E+01  2.3357868E+01
 1.0355750E+01  2.3257748E+01
 1.0367250E+01  2.3214441E+01
 1.0378751E+01  2.3187641E+01
 1.0390250E+01  2.3205503E+01
 1.0401751E+01  2.3284378E+01
 1.0413251E+01  2.3261410E+01
 1.0424750E+01  2.3159019E+01
 1.0436251E+01  2.3099983E+01
 1.0447750E+01  2.2987349E+01
 1.0459250E+01  2.2994257E+01
 1.0470751E+01  2.2896978E+01
 1.0482250E+01  2.2931252E+01
 1.0493751E+01  2.2943325E+01
 1.0505251E+01  2.2947033E+01
 1.0516750E+01  2.2943872E+01
 1.0528251E+01  2.2884470E+01
 1.0539750E+01  2.2925562E+01
 1.0551250E+01  2.2912634E+01
 1.0562751E+01  2.2954924E+01
 1.0574250E+01  2.2912563E+01
 1.0585751E+01  2.2866508E+01
 1.0597251E+01  2.2806738E+01
 1.0608750E+01  2.2748684E+01
 1.0620251E+01  2.2737680E+01
 1.0631750E+01  2.2718170E+01
 1.0643250E+01  2.2737726E+01
 1.0654751E+01  2.2800314E+01
 1.0666250E+01  2.2859650E+01
 1.0677751E+01  2.2853695E+01
 1.0689251E+01  2.2781269E+01
 1.0700750E+01  2.2718128E+01
 1.0712251E+01  2.2725124E+01
 1.0723750E+01  2.2732533E+01
 1.0735250E+01  2.2702976E+01
 1.0746751E+01  2.2701609E+01
 1.0758250E+01  2.2684925E+01
 1.0769751E+01  2.2720448E+01
 1.0781251E+01  2.2883787E+01
 1.0792750E+01  2.2864122E+01
 1.0804251E+01  2.2839798E+01
 1.0815750E+01  2.2634642E+01
 1.0827250E+01  2.2575518E+01
 1.0838751E+01  2.2544279E+01
 1.0850250E+01  2.2507977E+01
 1.0861751E+01  2.2517111E+01
 1.0873251E+01  2.2484905E+01
 1.0884750E+01  2.2474649E+01
 1.0896251E+01  2.2467596E+01
 1.0907750E+01  2.2475363E+01
 1.0919250E+01  2.2487120E+01
 1.0930751E+01  2.2497030E+01
 1.0942250E+01  2.2506569E+01
 1.0953751E+01  2.2541199E+01
 1.0965251E+01  2.2577917E+01
 1.0976750E+01  2.2613838E+01
 1.0988251E+01  2.2568834E+01
 1.0999750E+01  2.2530361E+01
 1.1011250E+01  2.2458584E+01
 1.1022751E+01  2.2431505E+01
 1.1034250E+01  2.2373459E+01
 1.1045751E+01  2.2337255E+01
 1.1057251E+01  2.2257259E+01
 1.1068750E+01  2.2275553E+01
 1.1080251E+01  2.2228109E+01
 1.1091750E+01  2.2274866E+01
 1.1103251E+01  2.2258806E+01
 1.1114751E+01  2.2315527E+01
 1.1126250E+01  2.2309952E+01
 1.1137751E+01  2.2254543E+01
 1.1149251E+01  2.2244358E+01
 1.1160750E+01  2.2248951E+01
 1.1172251E+01  2.2284348E+01
 1.1183750E+01  2.2254797E+01
 1.1195251E+01  2.2259058E+01
 1.1206751E+01  2.2199934E+01
 1.1218250E+01  2.2147589E+01
 1.1229751E+01  2.2122097E+01
 1.1241251E+01  2.2161655E+01
 1.1252750E+01  2.2247217E+01
 1.1264251E+01  2.2281572E+01
 1.1275750E+01  2.2300690E+01
 1.1287251E+01  2.2318884E+01
 1.1298751E+01  2.2338758E+01
 1.1310250E+01  2.2364498E+01
 1.1321751E+01  2.2357370E+01
 1.1333251E+01  2.2325220E+01
 1.1344750E+01  2.2333668E+01
 1.1356251E+01  2.2306040E+01
 1.1367750E+01  2.2350304E+01
 1.1379251E+01  2.2377386E+01
 1.1390751E+01  2.2432526E+01
 1.1402250E+01  2.2495426E+01
 1.1413751E+01  2.2497177E+01
 1.1425251E+01  2.2497456E+01
 1.1436750E+01  2.2428436E+01
 1.1448251E+01  2.2362659E+01
 1.1459750E+01  2.2360680E+01
 1.1471251E+01  2.2326385E+01
 1.1482751E+01  2.2340759E+01
 1.1494250E+01  2.2341574E+01
 1.1505751E+01  2.2314352E+01
 1.1517251E+01  2.2360340E+01
 1.1528750E+01  2.2431948E+01
 1.1540251E+01  2.2614836E+01
 1.1551750E+01  2.2764284E+01
 1.1563251E+01  2.2946732E+01
 1.1574751E+01  2.3085966E+01
 1.1586250E+01  2.3196491E+01
 1.1597751E+01  2.3168427E+01
 1.1609251E+01  2.3071470E+01
 1.1620750E+01  2.2909941E+01
 1.1632251E+01  2.2778534E+01
 1.1643750E+01  2.2576462E+01
 1.1655251E+01  2.2458569E+01
 1.1666751E+01  2.2304583E+01
 1.1678250E+01  2.2197872E+01
 1.1689751E+01  2.2089954E+01
 1.1701251E+01  2.2024080E+01
 1.1712750E+01  2.2021189E+01
 1.1724251E+01  2.2021475E+01
 1.1735750E+01  2.2045155E+01
 1.1747251E+01  2.2123583E+01
 1.1758751E+01  2.2103849E+01
 1.1770250E+01  2.2045023E+01
 1.1781751E+01  2.2024889E+01
 1.1793251E+01  2.2071526E+01
 1.1804750E+01  2.2122541E+01
 1.1816251E+01  2.2160357E+01
 1.1827750E+01  2.2179411E+01
 1.1839251E+01  2.2248093E+01
 1.1850751E+01  2.2219622E+01
 1.1862250E+01  2.2229864E+01
 1.1873751E+01  2.2175278E+01
 1.1885251E+01  2.2142824E+01
 1.1896750E+01  2.2125786E+01
 1.1908251E+01  2.2133497E+01
 1.1919750E+01  2.2171894E+01
 1.1931251E+01  2.2173428E+01
 1.1942751E+01  2.2196053E+01
 1.1954250E+01  2.2265522E+01
 1.1965751E+01  2.2382061E+01
 1.1977251E+01  2.2509989E+01
 1.1988750E+01  2.2572273E+01
 1.2000251E+01  2.2545788E+01
 1.2011750E+01  2.2468519E+01
 1.2023251E+01  2.2406635E+01
 1.2034751E+01  2.2395184E+01
 1.2046250E+01  2.2387035E+01
 1.2057751E+01  2.2428919E+01
 1.2069251E+01  2.2495514E+01
 1.2080750E+01  2.2551760E+01
 1.2092251E+01  2.2547300E+01
 1.2103750E+01  2.2565054E+01
 1.2115251E+01  2.2563349E+01
 1.2126751E+01  2.2521360E+01
 1.2138250E+01  2.2493755E+01
 1.2149751E+01  2.2425800E+01
 1.2161251E+01  2.2420694E+01
 1.2172750E+01  2.2316528E+01
 1.2184251E+01  2.2297571E+01
 1.2195750E+01  2.2250652E+01
 1.2207251E+01  2.2211620E+01
 1.2218751E+01  2.2219355E+01
 1.2230250E+01  2.2264862E+01
 1.2241751E+01  2.2289785E+01
 1.2253251E+01  2.2241072E+01
 1.2264750E+01  2.2205555E+01
 1.2276251E+01  2.2135996E+01
 1.2287750E+01  2.2133707E+01
 1.2299251E+01  2.2090052E+01
 1.2310751E+01  2.2131357E+01
 1.2322250E+01  2.2113749E+01
 1.2333751E+01  2.2147745E+01
 1.2345250E+01  2.2205738E+01
 1.2356750E+01  2.2277775E+01
 1.2368251E+01  2.2314241E+01
 1.2379750E+01  2.2365019E+01
 1.2391251E+01  2.2349697E+01
 1.2402751E+01  2.2331312E+01
 1.2414250E+01  2.2305092E+01
 1.2425751E+01  2.2329268E+01
 1.2437250E+01  2.2373774E+01
 1.2448750E+01  2.2348770E+01
 1.2460251E+01  2.2373800E+01
 1.2471750E+01  2.2376356E+01
 1.2483251E+01  2.2380423E+01
 1.2494751E+01  2.2344469E+01
 1.2506250E+01  2.2246811E+01
 1.2517751E+01  2.2235069E+01
 1.2529250E+01  2.2241501E+01
 1.2540751E+01  2.2283091E+01
 1.2552251E+01  2.2350765E+01
 1.2563750E+01  2.2352879E+01
 1.2575251E+01  2.2407578E+01
 1.2586751E+01  2.2452114E+01
 1.2598250E+01  2.2510710E+01
 1.2609751E+01  2.2575127E+01
 1.2621250E+01  2.2593737E+01
 1.2632751E+01  2.2685244E+01
 1.2644251E+01  2.2638704E+01
 1.2655750E+01  2.2693884E+01
 1.2667251E+01  2.2666256E+01
 1.2678751E+01  2.2681475E+01
 1.2690250E+01  2.2646931E+01
 1.2701751E+01  2.2606417E+01
 1.2713250E+01  2.2645193E+01
 1.2724751E+01  2.2621878E+01
 1.2736251E+01  2.2679640E+01
 1.2747750E+01  2.2702751E+01
 1.2759251E+01  2.2729111E+01
 1.2770751E+01  2.2711489E+01
 1.2782250E+01  2.2716846E+01
 1.2793751E+01  2.2728664E+01
 1.2805250E+01  2.2828388E+01
 1.2816751E+01  2.2926758E+01
 1.2828251E+01  2.3013775E+01
 1.2839750E+01  2.3074007E+01
 1.2851251E+01  2.3087862E+01
 1.2862751E+01  2.3130129E+01
 1.2874250E+01  2.3142303E+01
 1.2885751E+01  2.3117529E+01
 1.2897250E+01  2.3116531E+01
 1.2908751E+01  2.3155806E+01
 1.2920251E+01  2.3268484E+01
 1.2931750E+01  2.3334553E+01
 1.2943251E+01  2.3399643E+01
 1.2954751E+01  2.3438850E+01
 1.2966250E+01  2.3525877E+01
 1.2977751E+01  2.3636766E+01
 1.2989250E+01  2.3665106E+01
 1.3000751E+01  2.3738493E+01
 1.3012251E+01  2.3740149E+01
 1.3023750E+01  2.3857693E+01
 1.3035251E+01  2.3903334E+01
 1.3046751E+01  2.4033514E+01
 1.3058250E+01  2.4143314E+01
 1.3069751E+01  2.4208527E+01
 1.3081250E+01  2.4276695E+01
 1.3092751E+01  2.4395348E+01
 1.3104251E+01  2.4545500E+01
 1.3115750E+01  2.4688057E+01
 1.3127251E+01  2.4800220E+01
 1.3138751E+01  2.4850903E+01
 1.3150250E+01  2.4926701E+01
 1.3161751E+01  2.4978539E+01
 1.3173250E+01  2.5143509E+01
 1.3184751E+01  2.5276772E+01
 1.3196251E+01  2.5421568E+01
 1.3207750E+01  2.5575777E+01
 1.3219251E+01  2.5730122E+01
 1.3230751E+01  2.5919531E+01
 1.3242250E+01  2.6079096E+01
 1.3253751E+01  2.6178951E+01
 1.3265250E+01  2.6277706E+01
 1.3276751E+01  2.6354483E+01
 1.3288251E+01  2.6498640E+01
 1.3299750E+01  2.6632318E+01
 1.3311251E+01  2.6755043E+01
 1.3322751E+01  2.6885429E+01
 1.3334250E+01  2.7034481E+01
 1.3345751E+01  2.7195524E+01
 1.3357250E+01  2.7339415E+01
 1.3368751E+01  2.7458813E+01
 1.3380251E+01  2.7643042E+01
 1.3391750E+01  2.7800295E+01
 1.3403251E+01  2.7975231E+01
 1.3414751E+01  2.8108892E+01
 1.3426250E+01  2.8217157E+01
 1.3437751E+01  2.8313213E+01
 1.3449250E+01  2.8428701E+01
 1.3460751E+01  2.8535456E+01
 1.3472251E+01  2.8696075E+01
 1.3483750E+01  2.8795769E+01
 1.3495251E+01  2.8940115E+01
 1.3506751E+01  2.9036282E+01
 1.3518250E+01  2.9108259E+01
 1.3529751E+01  2.9151094E+01
 1.3541250E+01  2.9203569E+01
 1.3552751E+01  2.9267395E+01
 1.3564251E+01  2.9314892E+01
 1.3575750E+01  2.9316586E+01
 1.3587251E+01  2.9284138E+01
 1.3598751E+01  2.9291330E+01
 1.3610250E+01  2.9314924E+01
 1.3621751E+01  2.9369761E+01
 1.3633250E+01  2.9440920E+01
 1.3644751E+01  2.9520576E+01
 1.3656251E+01  2.9583961E+01
 1.3667750E+01  2.9631790E+01
 1.3679251E+01  2.9556631E+01
 1.3690751E+01  2.9473728E+01
 1.3702250E+01  2.9381273E+01
 1.3713751E+01  2.9303341E+01
 1.3725250E+01  2.9251230E+01
 1.3736751E+01  2.9209877E+01
 1.3748251E+01  2.9134878E+01
 1.3759750E+01  2.9060558E+01
 1.3771251E+01  2.8958628E+01
 1.3782751E+01  2.8916674E+01
 1.3794250E+01  2.8825743E+01
 1.3805751E+01  2.8714046E+01
 1.3817250E+01  2.8704052E+01
 1.3828751E+01  2.8690407E+01
 1.3840251E+01  2.8702572E+01
 1.3851750E+01  2.8678778E+01
 1.3863251E+01  2.8685585E+01
 1.3874751E+01  2.8664608E+01
 1.3886250E+01  2.8734573E+01
 1.3897751E+01  2.8889894E+01
 1.3909250E+01  2.9157135E+01
 1.3920751E+01  2.9445324E+01
 1.3932251E+01  2.9744051E+01
 1.3943750E+01  3.0020670E+01
 1.3955251E+01  3.0265623E+01
 1.3966751E+01  3.0382238E+01
 1.3978251E+01  3.0394115E+01
 1.3989751E+01  3.0103098E+01
 1.4001250E+01  2.9727848E+01
 1.4012751E+01  2.9126997E+01
 1.4024251E+01  2.8553329E+01
 1.4035750E+01  2.8000051E+01
 1.4047251E+01  2.7627701E+01
 1.4058751E+01  2.7435421E+01
 1.4070251E+01  2.7332968E+01
 1.4081751E+01  2.7210350E+01
 1.4093250E+01  2.7167395E+01
 1.4104751E+01  2.7068419E+01
 1.4116251E+01  2.6985228E+01
 1.4127750E+01  2.6919397E+01
 1.4139251E+01  2.6843744E+01
 1.4150751E+01  2.6746187E+01
 1.4162251E+01  2.6647478E+01
 1.4173751E+01  2.6561102E+01
 1.4185250E+01  2.6487572E+01
 1.4196751E+01  2.6401596E+01
 1.4208251E+01  2.6429134E+01
 1.4219750E+01  2.6447119E+01
 1.4231251E+01  2.6417305E+01
 1.4242751E+01  2.6400478E+01
 1.4254251E+01  2.6323509E+01
 1.4265751E+01  2.6278585E+01
 1.4277250E+01  2.6124945E+01
 1.4288751E+01  2.6051580E+01
 1.4300251E+01  2.5974674E+01
 1.4311750E+01  2.5986225E+01
 1.4323251E+01  2.5959108E+01
 1.4334751E+01  2.5946857E+01
 1.4346251E+01  2.6002590E+01
 1.4357751E+01  2.6012547E+01
 1.4369250E+01  2.5978956E+01
 1.4380751E+01  2.5857450E+01
 1.4392251E+01  2.5809782E+01
 1.4403750E+01  2.5764381E+01
 1.4415251E+01  2.5746309E+01
 1.4426751E+01  2.5711411E+01
 1.4438251E+01  2.5665039E+01
 1.4449751E+01  2.5572531E+01
 1.4461250E+01  2.5490944E+01
 1.4472751E+01  2.5464296E+01
 1.4484251E+01  2.5396296E+01
 1.4495750E+01  2.5325891E+01
 1.4507251E+01  2.5192072E+01
 1.4518751E+01  2.5149418E+01
 1.4530251E+01  2.5111160E+01
 1.4541751E+01  2.5071270E+01
 1.4553250E+01  2.5099827E+01
 1.4564751E+01  2.5105846E+01
 1.4576251E+01  2.5137083E+01
 1.4587750E+01  2.5115614E+01
 1.4599251E+01  2.5089458E+01
 1.4610751E+01  2.5102011E+01
 1.4622251E+01  2.5069580E+01
 1.4633751E+01  2.5063189E+01
 1.4645250E+01  2.5037611E+01
 1.4656751E+01  2.5011169E+01
 1.4668251E+01  2.4991890E+01
 1.4679750E+01  2.4981546E+01
 1.4691251E+01  2.4985298E+01
 1.4702751E+01  2.4924444E+01
 1.4714251E+01  2.4827312E+01
 1.4725751E+01  2.4771931E+01
 1.4737250E+01  2.4714737E+01
 1.4748751E+01  2.4737047E+01
 1.4760251E+01  2.4737408E+01
 1.4771750E+01  2.4806313E+01
 1.4783251E+01  2.4777599E+01
 1.4794751E+01  2.4810541E+01
 1.4806251E+01  2.4796225E+01
 1.4817751E+01  2.4726337E+01
 1.4829250E+01  2.4657698E+01
 1.4840751E+01  2.4643616E+01
 1.4852251E+01  2.4688332E+01
 1.4863750E+01  2.4697334E+01
 1.4875251E+01  2.4662203E+01
 1.4886751E+01  2.4701984E+01
 1.4898251E+01  2.4720585E+01
 1.4909751E+01  2.4725628E+01
 1.4921250E+01  2.4710594E+01
 1.4932751E+01  2.4639343E+01
 1.4944251E+01  2.4621250E+01
 1.4955750E+01  2.4554516E+01
 1.4967251E+01  2.4585205E+01
 1.4978751E+01  2.4596743E+01
 1.4990251E+01  2.4628321E+01
 1.5001751E+01  2.4637373E+01
 1.5013250E+01  2.4628380E+01
 1.5024751E+01  2.4661808E+01
 1.5036251E+01  2.4623924E+01
 1.5047750E+01  2.4590809E+01
 1.5059251E+01  2.4509277E+01
 1.5070751E+01  2.4486488E+01
 1.5082251E+01  2.4450075E+01
 1.5093751E+01  2.4468510E+01
 1.5105250E+01  2.4468447E+01
 1.5116751E+01  2.4504673E+01
 1.5128251E+01  2.4532974E+01
 1.5139750E+01  2.4597345E+01
 1.5151251E+01  2.4667841E+01
 1.5162751E+01  2.4745424E+01
 1.5174251E+01  2.4815683E+01
 1.5185751E+01  2.4894756E+01
 1.5197250E+01  2.4881958E+01
 1.5208751E+01  2.4892946E+01
 1.5220251E+01  2.4841003E+01
 1.5231750E+01  2.4774904E+01
 1.5243251E+01  2.4659300E+01
 1.5254751E+01  2.4549885E+01
 1.5266251E+01  2.4470783E+01
 1.5277751E+01  2.4423569E+01
 1.5289250E+01  2.4385632E+01
 1.5300751E+01  2.4400829E+01
 1.5312251E+01  2.4401365E+01
 1.5323750E+01  2.4392105E+01
 1.5335251E+01  2.4318888E+01
 1.5346751E+01  2.4302206E+01
 1.5358251E+01  2.4332504E+01
 1.5369751E+01  2.4345800E+01
 1.5381250E+01  2.4320841E+01
 1.5392751E+01  2.4259026E+01
 1.5404251E+01  2.4298607E+01
 1.5415751E+01  2.4321667E+01
 1.5427251E+01  2.4384771E+01
 1.5438751E+01  2.4391752E+01
 1.5450251E+01  2.4432613E+01
 1.5461751E+01  2.4440479E+01
 1.5473250E+01  2.4450788E+01
 1.5484751E+01  2.4426357E+01
 1.5496251E+01  2.4408422E+01
 1.5507751E+01  2.4323561E+01
 1.5519251E+01  2.4284483E+01
 1.5530751E+01  2.4248232E+01
 1.5542251E+01  2.4279280E+01
 1.5553751E+01  2.4272736E+01
 1.5565250E+01  2.4297678E+01
 1.5576751E+01  2.4336329E+01
 1.5588251E+01  2.4353426E+01
 1.5599751E+01  2.4340866E+01
 1.5611251E+01  2.4325291E+01
 1.5622751E+01  2.4313713E+01
 1.5634251E+01  2.4263739E+01
 1.5645751E+01  2.4230083E+01
 1.5657250E+01  2.4242853E+01
 1.5668751E+01  2.4232193E+01
 1.5680251E+01  2.4224226E+01
 1.5691751E+01  2.4221849E+01
 1.5703251E+01  2.4330240E+01
 1.5714751E+01  2.4351967E+01
 1.5726251E+01  2.4355978E+01
 1.5737751E+01  2.4275898E+01
 1.5749250E+01  2.4268671E+01
 1.5760751E+01  2.4253698E+01
 1.5772251E+01  2.4272421E+01
 1.5783751E+01  2.4275610E+01
 1.5795251E+01  2.4259848E+01
 1.5806751E+01  2.4260706E+01
 1.5818251E+01  2.4241159E+01
 1.5829751E+01  2.4251511E+01
 1.5841250E+01  2.4278507E+01
 1.5852751E+01  2.4292675E+01
 1.5864251E+01  2.4246090E+01
 1.5875751E+01  2.4237352E+01
 1.5887251E+01  2.4275606E+01
 1.5898750E+01  2.4330177E+01
 1.5910251E+01  2.4390574E+01
 1.5921751E+01  2.4435644E+01
 1.5933250E+01  2.4482233E+01
 1.5944751E+01  2.4414207E+01
 1.5956251E+01  2.4390987E+01
 1.5967751E+01  2.4392214E+01
 1.5979251E+01  2.4476816E+01
 1.5990750E+01  2.4500698E+01
 1.6002251E+01  2.4498112E+01
 1.6013750E+01  2.4477964E+01
 1.6025251E+01  2.4462646E+01
 1.6036751E+01  2.4452379E+01
 1.6048250E+01  2.4384356E+01
 1.6059752E+01  2.4380697E+01
 1.6071251E+01  2.4337917E+01
 1.6082750E+01  2.4378788E+01
 1.6094252E+01  2.4426325E+01
 1.6105751E+01  2.4532820E+01
 1.6117250E+01  2.4610916E+01
 1.6128750E+01  2.4589291E+01
 1.6140251E+01  2.4599598E+01
 1.6151751E+01  2.4554148E+01
 1.6163250E+01  2.4579569E+01
 1.6174751E+01  2.4527201E+01
 1.6186251E+01  2.4589127E+01
 1.6197750E+01  2.4542393E+01
 1.6209251E+01  2.4737719E+01
 1.6220751E+01  2.4763184E+01
 1.6232250E+01  2.5015158E+01
 1.6243752E+01  2.5133316E+01
 1.6255251E+01  2.5266106E+01
 1.6266750E+01  2.5435989E+01
 1.6278252E+01  2.5233381E+01
 1.6289751E+01  2.5368494E+01
 1.6301250E+01  2.4947042E+01
 1.6312750E+01  2.5022739E+01
 1.6324251E+01  2.4622831E+01
 1.6335751E+01  2.4623449E+01
 1.6347250E+01  2.4415567E+01
 1.6358751E+01  2.4420475E+01
 1.6370251E+01  2.4333830E+01
 1.6381750E+01  2.4334414E+01
 1.6393251E+01  2.4326603E+01
 1.6404751E+01  2.4366978E+01
 1.6416250E+01  2.4430164E+01
 1.6427752E+01  2.4441240E+01
 1.6439251E+01  2.4485489E+01
 1.6450750E+01  2.4515078E+01
 1.6462252E+01  2.4559639E+01
 1.6473751E+01  2.4529488E+01
 1.6485250E+01  2.4512318E+01
 1.6496750E+01  2.4506065E+01
 1.6508251E+01  2.4477423E+01
 1.6519751E+01  2.4439936E+01
 1.6531250E+01  2.4434574E+01
 1.6542751E+01  2.4474661E+01
 1.6554251E+01  2.4470762E+01
 1.6565750E+01  2.4425575E+01
 1.6577251E+01  2.4354565E+01
 1.6588751E+01  2.4369263E+01
 1.6600250E+01  2.4412941E+01
 1.6611752E+01  2.4493177E+01
 1.6623251E+01  2.4466814E+01
 1.6634750E+01  2.4463791E+01
 1.6646252E+01  2.4379835E+01
 1.6657751E+01  2.4347410E+01
 1.6669250E+01  2.4325581E+01
 1.6680750E+01  2.4366369E+01
 1.6692251E+01  2.4374743E+01
 1.6703751E+01  2.4343687E+01
 1.6715250E+01  2.4327482E+01
 1.6726751E+01  2.4290457E+01
 1.6738251E+01  2.4267473E+01
 1.6749750E+01  2.4254436E+01
 1.6761251E+01  2.4237837E+01
 1.6772751E+01  2.4227869E+01
 1.6784250E+01  2.4203363E+01
 1.6795752E+01  2.4199823E+01
 1.6807251E+01  2.4198147E+01
 1.6818750E+01  2.4175518E+01
 1.6830252E+01  2.4150267E+01
 1.6841751E+01  2.4151463E+01
 1.6853251E+01  2.4141273E+01
 1.6864750E+01  2.4134666E+01
 1.6876251E+01  2.4092161E+01
 1.6887751E+01  2.4056225E+01
 1.6899250E+01  2.4036175E+01
 1.6910751E+01  2.4056967E+01
 1.6922251E+01  2.4059065E+01
 1.6933750E+01  2.4013168E+01
 1.6945251E+01  2.3950809E+01
 1.6956751E+01  2.3935503E+01
 1.6968250E+01  2.3915945E+01
 1.6979752E+01  2.3930372E+01
 1.6991251E+01  2.3920258E+01
 1.7002750E+01  2.3922102E+01
 1.7014252E+01  2.3935760E+01
 1.7025751E+01  2.3951576E+01
 1.7037251E+01  2.3960821E+01
 1.7048750E+01  2.3911465E+01
 1.7060251E+01  2.3918190E+01
 1.7071751E+01  2.3896572E+01
 1.7083250E+01  2.3896784E+01
 1.7094751E+01  2.3865423E+01
 1.7106251E+01  2.3878403E+01
 1.7117750E+01  2.3863914E+01
 1.7129251E+01  2.3885994E+01
 1.7140751E+01  2.3886522E+01
 1.7152250E+01  2.3882597E+01
 1.7163752E+01  2.3841784E+01
 1.7175251E+01  2.3820841E+01
 1.7186750E+01  2.3791040E+01
 1.7198252E+01  2.3808275E+01
 1.7209751E+01  2.3815886E+01
 1.7221251E+01  2.3831593E+01
 1.7232750E+01  2.3816917E+01
 1.7244251E+01  2.3788689E+01
 1.7255751E+01  2.3736412E+01
 1.7267250E+01  2.3729174E+01
 1.7278751E+01  2.3768240E+01
 1.7290251E+01  2.3789194E+01
 1.7301750E+01  2.3795282E+01
 1.7313251E+01  2.3771460E+01
 1.7324751E+01  2.3780142E+01
 1.7336250E+01  2.3829235E+01
 1.7347752E+01  2.3867641E+01
 1.7359251E+01  2.3861389E+01
 1.7370750E+01  2.3829054E+01
 1.7382252E+01  2.3839199E+01
 1.7393751E+01  2.3803707E+01
 1.7405251E+01  2.3778246E+01
 1.7416750E+01  2.3743919E+01
 1.7428251E+01  2.3778965E+01
 1.7439751E+01  2.3756119E+01
 1.7451250E+01  2.3780434E+01
 1.7462751E+01  2.3792709E+01
 1.7474251E+01  2.3824869E+01
 1.7485750E+01  2.3784962E+01
 1.7497252E+01  2.3780151E+01
 1.7508751E+01  2.3740040E+01
 1.7520250E+01  2.3723408E+01
 1.7531752E+01  2.3681240E+01
 1.7543251E+01  2.3715857E+01
 1.7554750E+01  2.3680742E+01
 1.7566252E+01  2.3639185E+01
 1.7577751E+01  2.3578875E+01
 1.7589251E+01  2.3519447E+01
 1.7600750E+01  2.3495710E+01
 1.7612251E+01  2.3477489E+01
 1.7623751E+01  2.3509926E+01
 1.7635250E+01  2.3509516E+01
 1.7646751E+01  2.3519865E+01
 1.7658251E+01  2.3490801E+01
 1.7669750E+01  2.3498945E+01
 1.7681252E+01  2.3512119E+01
 1.7692751E+01  2.3528694E+01
 1.7704250E+01  2.3541649E+01
 1.7715752E+01  2.3534464E+01
 1.7727251E+01  2.3525078E+01
 1.7738750E+01  2.3500214E+01
 1.7750252E+01  2.3496658E+01
 1.7761751E+01  2.3512150E+01
 1.7773251E+01  2.3522888E+01
 1.7784750E+01  2.3512110E+01
 1.7796251E+01  2.3493086E+01
 1.7807751E+01  2.3465899E+01
 1.7819250E+01  2.3418940E+01
 1.7830751E+01  2.3413355E+01
 1.7842251E+01  2.3403711E+01
 1.7853750E+01  2.3448874E+01
 1.7865252E+01  2.3453184E+01
 1.7876751E+01  2.3460804E+01
 1.7888250E+01  2.3441210E+01
 1.7899752E+01  2.3403837E+01
 1.7911251E+01  2.3397619E+01
 1.7922750E+01  2.3398710E+01
 1.7934252E+01  2.3400288E+01
 1.7945751E+01  2.3393324E+01
 1.7957251E+01  2.3379799E+01
 1.7968750E+01  2.3384714E+01
 1.7980251E+01  2.3419044E+01
 1.7991751E+01  2.3490595E+01
 1.8003250E+01  2.3560499E+01
 1.8014751E+01  2.3533882E+01
 1.8026251E+01  2.3557720E+01
 1.8037750E+01  2.3558937E+01
 1.8049252E+01  2.3579397E+01
 1.8060751E+01  2.3580988E+01
 1.8072250E+01  2.3602871E+01
 1.8083752E+01  2.3670109E+01
 1.8095251E+01  2.3658386E+01
 1.8106750E+01  2.3643803E+01
 1.8118252E+01  2.3642500E+01
 1.8129751E+01  2.3610092E+01
 1.8141251E+01  2.3578434E+01
 1.8152750E+01  2.3504377E+01
 1.8164251E+01  2.3490311E+01
 1.8175751E+01  2.3425920E+01
 1.8187250E+01  2.3339375E+01
 1.8198751E+01  2.3313114E+01
 1.8210251E+01  2.3341373E+01
 1.8221750E+01  2.3363459E+01
 1.8233252E+01  2.3377634E+01
 1.8244751E+01  2.3376863E+01
 1.8256250E+01  2.3360329E+01
 1.8267752E+01  2.3298025E+01
 1.8279251E+01  2.3234222E+01
 1.8290751E+01  2.3178862E+01
 1.8302252E+01  2.3160482E+01
 1.8313751E+01  2.3148817E+01
 1.8325251E+01  2.3172125E+01
 1.8336750E+01  2.3227121E+01
 1.8348251E+01  2.3254791E+01
 1.8359751E+01  2.3291466E+01
 1.8371250E+01  2.3261156E+01
 1.8382751E+01  2.3314533E+01
 1.8394251E+01  2.3314920E+01
 1.8405750E+01  2.3361582E+01
 1.8417252E+01  2.3359577E+01
 1.8428751E+01  2.3323349E+01
 1.8440250E+01  2.3321892E+01
 1.8451752E+01  2.3296539E+01
 1.8463251E+01  2.3348774E+01
 1.8474751E+01  2.3316954E+01
 1.8486252E+01  2.3338104E+01
 1.8497751E+01  2.3302856E+01
 1.8509251E+01  2.3314373E+01
 1.8520750E+01  2.3277433E+01
 1.8532251E+01  2.3279190E+01
 1.8543751E+01  2.3235413E+01
 1.8555250E+01  2.3234436E+01
 1.8566751E+01  2.3239191E+01
 1.8578251E+01  2.3256397E+01
 1.8589750E+01  2.3283796E+01
 1.8601252E+01  2.3259275E+01
 1.8612751E+01  2.3272259E+01
 1.8624250E+01  2.3200188E+01
 1.8635752E+01  2.3215872E+01
 1.8647251E+01  2.3175655E+01
 1.8658751E+01  2.3191381E+01
 1.8670252E+01  2.3207350E+01
 1.8681751E+01  2.3248566E+01
 1.8693251E+01  2.3271282E+01
 1.8704750E+01  2.3289242E+01
 1.8716251E+01  2.3303505E+01
 1.8727751E+01  2.3321241E+01
 1.8739250E+01  2.3280952E+01
 1.8750751E+01  2.3254522E+01
 1.8762251E+01  2.3208252E+01
 1.8773750E+01  2.3175459E+01
 1.8785252E+01  2.3164043E+01
 1.8796751E+01  2.3206783E+01
 1.8808250E+01  2.3231407E+01
 1.8819752E+01  2.3262793E+01
 1.8831251E+01  2.3270535E+01
 1.8842751E+01  2.3287802E+01
 1.8854252E+01  2.3253550E+01
 1.8865751E+01  2.3240400E+01
 1.8877251E+01  2.3226748E+01
 1.8888750E+01  2.3211496E+01
 1.8900251E+01  2.3164713E+01
 1.8911751E+01  2.3136293E+01
 1.8923250E+01  2.3171444E+01
 1.8934752E+01  2.3218086E+01
 1.8946251E+01  2.3284397E+01
 1.8957750E+01  2.3271906E+01
 1.8969252E+01  2.3235802E+01
 1.8980751E+01  2.3163309E+01
 1.8992250E+01  2.3144053E+01
 1.9003752E+01  2.3178869E+01
 1.9015251E+01  2.3217516E+01
 1.9026751E+01  2.3243952E+01
 1.9038252E+01  2.3248863E+01
 1.9049751E+01  2.3229486E+01
 1.9061251E+01  2.3210743E+01
 1.9072750E+01  2.3203842E+01
 1.9084251E+01  2.3231083E+01
 1.9095751E+01  2.3260971E+01
 1.9107250E+01  2.3271629E+01
 1.9118752E+01  2.3239252E+01
 1.9130251E+01  2.3257298E+01
 1.9141750E+01  2.3280834E+01
 1.9153252E+01  2.3364750E+01
 1.9164751E+01  2.3269979E+01
 1.9176250E+01  2.3199411E+01
 1.9187752E+01  2.3123325E+01
 1.9199251E+01  2.3129467E+01
 1.9210751E+01  2.3175158E+01
 1.9222252E+01  2.3172512E+01
 1.9233751E+01  2.3235189E+01
 1.9245251E+01  2.3248941E+01
 1.9256750E+01  2.3283827E+01
 1.9268251E+01  2.3278852E+01
 1.9279751E+01  2.3262260E+01
 1.9291250E+01  2.3283487E+01
 1.9302752E+01  2.3302109E+01
 1.9314251E+01  2.3317354E+01
 1.9325750E+01  2.3263128E+01
 1.9337252E+01  2.3252155E+01
 1.9348751E+01  2.3268393E+01
 1.9360250E+01  2.3258999E+01
 1.9371752E+01  2.3276833E+01
 1.9383251E+01  2.3288015E+01
 1.9394751E+01  2.3322592E+01
 1.9406250E+01  2.3328882E+01
 1.9417751E+01  2.3339460E+01
 1.9429251E+01  2.3324818E+01
 1.9440750E+01  2.3316027E+01
 1.9452251E+01  2.3301996E+01
 1.9463751E+01  2.3282942E+01
 1.9475250E+01  2.3235292E+01
 1.9486752E+01  2.3296597E+01
 1.9498251E+01  2.3292213E+01
 1.9509750E+01  2.3338022E+01
 1.9521252E+01  2.3323164E+01
 1.9532751E+01  2.3365070E+01
 1.9544250E+01  2.3401831E+01
 1.9555752E+01  2.3360338E+01
 1.9567251E+01  2.3354757E+01
 1.9578751E+01  2.3294472E+01
 1.9590250E+01  2.3299664E+01
 1.9601751E+01  2.3306475E+01
 1.9613251E+01  2.3317686E+01
 1.9624750E+01  2.3347061E+01
 1.9636251E+01  2.3370373E+01
 1.9647751E+01  2.3444689E+01
 1.9659250E+01  2.3547537E+01
 1.9670752E+01  2.3628384E+01
 1.9682251E+01  2.3708847E+01
 1.9693750E+01  2.3777285E+01
 1.9705252E+01  2.3869907E+01
 1.9716751E+01  2.3877108E+01
 1.9728251E+01  2.3891769E+01
 1.9739752E+01  2.3835039E+01
 1.9751251E+01  2.3812372E+01
 1.9762751E+01  2.3771225E+01
 1.9774250E+01  2.3735842E+01
 1.9785751E+01  2.3702713E+01
 1.9797251E+01  2.3703133E+01
 1.9808750E+01  2.3711912E+01
 1.9820251E+01  2.3806189E+01
 1.9831751E+01  2.3910828E+01
 1.9843250E+01  2.3969505E+01
 1.9854752E+01  2.4023520E+01
 1.9866251E+01  2.4043419E+01
 1.9877750E+01  2.4075695E+01
 1.9889252E+01  2.4017733E+01
 1.9900751E+01  2.3940506E+01
 1.9912251E+01  2.3774752E+01
 1.9923752E+01  2.3625763E+01
 1.9935251E+01  2.3486441E+01
 1.9946751E+01  2.3420374E+01
 1.9958250E+01  2.3399799E+01
 1.9969751E+01  2.3419550E+01
 1.9981251E+01  2.3371656E+01
 1.9992750E+01  2.3383547E+01
 2.0004251E+01  2.3388283E+01
 2.0015751E+01  2.3405830E+01
 2.0027250E+01  2.3355095E+01
 2.0038752E+01  2.3302479E+01
 2.0050251E+01  2.3324402E+01
 2.0061750E+01  2.3295887E+01
 2.0073252E+01  2.3300854E+01
 2.0084751E+01  2.3257605E+01
 2.0096251E+01  2.3317802E+01
 2.0107752E+01  2.3375648E+01
 2.0119251E+01  2.3461681E+01
 2.0130751E+01  2.3446917E+01
 2.0142250E+01  2.3389561E+01
 2.0153751E+01  2.3360874E+01
 2.0165251E+01  2.3368370E+01
 2.0176750E+01  2.3421227E+01
 2.0188251E+01  2.3402296E+01
 2.0199751E+01  2.3413637E+01
 2.0211250E+01  2.3382452E+01
 2.0222752E+01  2.3413025E+01
 2.0234251E+01  2.3413223E+01
 2.0245750E+01  2.3386690E+01
 2.0257252E+01  2.3332458E+01
 2.0268751E+01  2.3238844E+01
 2.0280251E+01  2.3234547E+01
 2.0291752E+01  2.3273232E+01
 2.0303251E+01  2.3259642E+01
 2.0314751E+01  2.3267895E+01
 2.0326250E+01  2.3216772E+01
 2.0337751E+01  2.3269005E+01
 2.0349251E+01  2.3287868E+01
 2.0360750E+01  2.3327124E+01
 2.0372252E+01  2.3357441E+01
 2.0383751E+01  2.3362526E+01
 2.0395250E+01  2.3390749E+01
 2.0406752E+01  2.3400354E+01
 2.0418251E+01  2.3467283E+01
 2.0429750E+01  2.3516869E+01
 2.0441252E+01  2.3523302E+01
 2.0452751E+01  2.3515383E+01
 2.0464251E+01  2.3530807E+01
 2.0475752E+01  2.3547010E+01
 2.0487251E+01  2.3523876E+01
 2.0498751E+01  2.3493237E+01
 2.0510250E+01  2.3450121E+01
 2.0521751E+01  2.3399055E+01
 2.0533251E+01  2.3371202E+01
 2.0544750E+01  2.3379065E+01
 2.0556252E+01  2.3426052E+01
 2.0567751E+01  2.3419230E+01
 2.0579250E+01  2.3412449E+01
 2.0590752E+01  2.3408550E+01
 2.0602251E+01  2.3462196E+01
 2.0613750E+01  2.3522472E+01
 2.0625252E+01  2.3566954E+01
 2.0636751E+01  2.3550360E+01
 2.0648251E+01  2.3512821E+01
 2.0659752E+01  2.3504549E+01
 2.0671251E+01  2.3500786E+01
 2.0682751E+01  2.3554590E+01
 2.0694250E+01  2.3646368E+01
 2.0705751E+01  2.3697994E+01
 2.0717251E+01  2.3776209E+01
 2.0728750E+01  2.3851658E+01
 2.0740252E+01  2.3944599E+01
 2.0751751E+01  2.3985899E+01
 2.0763250E+01  2.3985695E+01
 2.0774752E+01  2.3940664E+01
 2.0786251E+01  2.3857241E+01
 2.0797750E+01  2.3779905E+01
 2.0809252E+01  2.3730320E+01
 2.0820751E+01  2.3684168E+01
 2.0832251E+01  2.3631374E+01
 2.0843752E+01  2.3650154E+01
 2.0855251E+01  2.3675837E+01
 2.0866751E+01  2.3656435E+01
 2.0878250E+01  2.3595739E+01
 2.0889751E+01  2.3563913E+01
 2.0901251E+01  2.3571177E+01
 2.0912750E+01  2.3590174E+01
 2.0924252E+01  2.3630777E+01
 2.0935751E+01  2.3633869E+01
 2.0947250E+01  2.3648045E+01
 2.0958752E+01  2.3614605E+01
 2.0970251E+01  2.3622087E+01
 2.0981750E+01  2.3602772E+01
 2.0993252E+01  2.3600414E+01
 2.1004751E+01  2.3593866E+01
 2.1016251E+01  2.3550694E+01
 2.1027752E+01  2.3512022E+01
 2.1039251E+01  2.3516661E+01
 2.1050751E+01  2.3562637E+01
 2.1062250E+01  2.3570621E+01
 2.1073751E+01  2.3577663E+01
 2.1085251E+01  2.3547459E+01
 2.1096750E+01  2.3525944E+01
 2.1108252E+01  2.3520765E+01
 2.1119751E+01  2.3511343E+01
 2.1131250E+01  2.3511543E+01
 2.1142752E+01  2.3477455E+01
 2.1154251E+01  2.3463402E+01
 2.1165751E+01  2.3490738E+01
 2.1177252E+01  2.3539629E+01
 2.1188751E+01  2.3586918E+01
 2.1200251E+01  2.3600739E+01
 2.1211752E+01  2.3663877E+01
 2.1223251E+01  2.3684570E+01
 2.1234751E+01  2.3649391E+01
 2.1246250E+01  2.3610531E+01
 2.1257751E+01  2.3599627E+01
 2.1269251E+01  2.3630804E+01
 2.1280750E+01  2.3659090E+01
 2.1292252E+01  2.3702608E+01
 2.1303751E+01  2.3680740E+01
 2.1315250E+01  2.3647274E+01
 2.1326752E+01  2.3607172E+01
 2.1338251E+01  2.3621347E+01
 2.1349751E+01  2.3612896E+01
 2.1361252E+01  2.3698557E+01
 2.1372751E+01  2.3785055E+01
 2.1384251E+01  2.3817480E+01
 2.1395752E+01  2.3756296E+01
 2.1407251E+01  2.3696527E+01
 2.1418751E+01  2.3634424E+01
 2.1430250E+01  2.3609222E+01
 2.1441751E+01  2.3551607E+01
 2.1453251E+01  2.3584404E+01
 2.1464750E+01  2.3687614E+01
 2.1476252E+01  2.3763899E+01
 2.1487751E+01  2.3804379E+01
 2.1499250E+01  2.3725452E+01
 2.1510752E+01  2.3693588E+01
 2.1522251E+01  2.3684719E+01
 2.1533751E+01  2.3758810E+01
 2.1545252E+01  2.3773314E+01
 2.1556751E+01  2.3716484E+01
 2.1568251E+01  2.3656555E+01
 2.1579752E+01  2.3631924E+01
 2.1591251E+01  2.3660141E+01
 2.1602751E+01  2.3715761E+01
 2.1614250E+01  2.3754431E+01
 2.1625751E+01  2.3810783E+01
 2.1637251E+01  2.3834951E+01
 2.1648750E+01  2.3881302E+01
 2.1660252E+01  2.4338068E+01
 2.1671751E+01  2.4445480E+01
 2.1683250E+01  2.4918159E+01
 2.1694752E+01  2.4726812E+01
 2.1706251E+01  2.4682301E+01
 2.1717751E+01  2.3935308E+01
 2.1729252E+01  2.3803661E+01
 2.1740751E+01  2.3778780E+01
 2.1752251E+01  2.3747553E+01
 2.1763752E+01  2.3779842E+01
 2.1775251E+01  2.3774996E+01
 2.1786751E+01  2.3790907E+01
 2.1798250E+01  2.3749775E+01
 2.1809752E+01  2.3742407E+01
 2.1821251E+01  2.3721979E+01
 2.1832750E+01  2.3713419E+01
 2.1844252E+01  2.3731052E+01
 2.1855751E+01  2.3771643E+01
 2.1867250E+01  2.3790751E+01
 2.1878752E+01  2.3794296E+01
 2.1890251E+01  2.3770733E+01
 2.1901751E+01  2.3754667E+01
 2.1913252E+01  2.3781120E+01
 2.1924751E+01  2.3831018E+01
 2.1936251E+01  2.3901522E+01
 2.1947752E+01  2.3930761E+01
 2.1959251E+01  2.3914850E+01
 2.1970751E+01  2.3896099E+01
 2.1982250E+01  2.3855665E+01
 2.1993752E+01  2.3826586E+01
 2.2005251E+01  2.3813501E+01
 2.2016750E+01  2.3828785E+01
 2.2028252E+01  2.3855833E+01
 2.2039751E+01  2.3889431E+01
 2.2051250E+01  2.3939045E+01
 2.2062752E+01  2.3939837E+01
 2.2074251E+01  2.3949087E+01
 2.2085751E+01  2.3934191E+01
 2.2097252E+01  2.3925131E+01
 2.2108751E+01  2.3932350E+01
 2.2120251E+01  2.3998226E+01
 2.2131752E+01  2.4041691E+01
 2.2143251E+01  2.4024557E+01
 2.2154751E+01  2.3962284E+01
 2.2166250E+01  2.3939457E+01
 2.2177752E+01  2.3947506E+01
 2.2189251E+01  2.3970613E+01
 2.2200750E+01  2.4001957E+01
 2.2212252E+01  2.4025124E+01
 2.2223751E+01  2.4041553E+01
 2.2235250E+01  2.4077511E+01
 2.2246752E+01  2.4088188E+01
 2.2258251E+01  2.4081730E+01
 2.2269751E+01  2.4072176E+01
 2.2281252E+01  2.4121527E+01
 2.2292751E+01  2.4147182E+01
 2.2304251E+01  2.4207363E+01
 2.2315752E+01  2.4205322E+01
 2.2327251E+01  2.4189537E+01
 2.2338751E+01  2.4175714E+01
 2.2350250E+01  2.4197681E+01
 2.2361752E+01  2.4214552E+01
 2.2373251E+01  2.4252331E+01
 2.2384750E+01  2.4250214E+01
 2.2396252E+01  2.4248537E+01
 2.2407751E+01  2.4219782E+01
 2.2419250E+01  2.4216480E+01
 2.2430752E+01  2.4257040E+01
 2.2442251E+01  2.4281519E+01
 2.2453751E+01  2.4350235E+01
 2.2465252E+01  2.4346626E+01
 2.2476751E+01  2.4319965E+01
 2.2488251E+01  2.4322369E+01
 2.2499752E+01  2.4348251E+01
 2.2511251E+01  2.4412796E+01
 2.2522751E+01  2.4427935E+01
 2.2534250E+01  2.4473495E+01
 2.2545752E+01  2.4510357E+01
 2.2557251E+01  2.4495445E+01
 2.2568750E+01  2.4478785E+01
 2.2580252E+01  2.4465117E+01
 2.2591751E+01  2.4509777E+01
 2.2603251E+01  2.4549875E+01
 2.2614752E+01  2.4609510E+01
 2.2626251E+01  2.4667870E+01
 2.2637751E+01  2.4643631E+01
 2.2649252E+01  2.4630629E+01
 2.2660751E+01  2.4623964E+01
 2.2672251E+01  2.4660467E+01
 2.2683752E+01  2.4781069E+01
 2.2695251E+01  2.4852064E+01
 2.2706751E+01  2.4862417E+01
 2.2718250E+01  2.4849104E+01
 2.2729752E+01  2.4835569E+01
 2.2741251E+01  2.4894415E+01
 2.2752750E+01  2.4969074E+01
 2.2764252E+01  2.5017086E+01
 2.2775751E+01  2.5009026E+01
 2.2787251E+01  2.4968372E+01
 2.2798752E+01  2.4966906E+01
 2.2810251E+01  2.5021170E+01
 2.2821751E+01  2.5052711E+01
 2.2833252E+01  2.5150284E+01
 2.2844751E+01  2.5203815E+01
 2.2856251E+01  2.5224407E+01
 2.2867750E+01  2.5244131E+01
 2.2879251E+01  2.5258842E+01
 2.2890751E+01  2.5323513E+01
 2.2902250E+01  2.5348854E+01
 2.2913752E+01  2.5462502E+01
 2.2925251E+01  2.5504801E+01
 2.2936750E+01  2.5565985E+01
 2.2948252E+01  2.5621241E+01
 2.2959751E+01  2.5663448E+01
 2.2971251E+01  2.5764147E+01
 2.2982752E+01  2.5866659E+01
 2.2994251E+01  2.5980890E+01
