F:\20151113_APS_34IDE\\Brian\Particle1\OCV\Data_0123.tif
2-Theta Angle (Degrees)
Intensity
       2000
 5.7500005E-03  0.0000000E+00
 1.7250001E-02  0.0000000E+00
 2.8750001E-02  0.0000000E+00
 4.0250003E-02  0.0000000E+00
 5.1750004E-02  0.0000000E+00
 6.3250005E-02  0.0000000E+00
 7.4750006E-02  0.0000000E+00
 8.6250007E-02  0.0000000E+00
 9.7750008E-02  0.0000000E+00
 1.0925001E-01  0.0000000E+00
 1.2075000E-01  0.0000000E+00
 1.3225001E-01  0.0000000E+00
 1.4375001E-01  0.0000000E+00
 1.5525001E-01  0.0000000E+00
 1.6675001E-01  0.0000000E+00
 1.7825001E-01  0.0000000E+00
 1.8975002E-01  0.0000000E+00
 2.0125002E-01  0.0000000E+00
 2.1275002E-01  0.0000000E+00
 2.2425000E-01  0.0000000E+00
 2.3575000E-01  0.0000000E+00
 2.4725001E-01  0.0000000E+00
 2.5875002E-01  0.0000000E+00
 2.7025002E-01  0.0000000E+00
 2.8175002E-01  0.0000000E+00
 2.9325002E-01  0.0000000E+00
 3.0475003E-01  0.0000000E+00
 3.1625003E-01  0.0000000E+00
 3.2775003E-01  0.0000000E+00
 3.3925003E-01  0.0000000E+00
 3.5075003E-01  0.0000000E+00
 3.6225003E-01  0.0000000E+00
 3.7375003E-01  0.0000000E+00
 3.8525003E-01  0.0000000E+00
 3.9675003E-01  0.0000000E+00
 4.0825003E-01  0.0000000E+00
 4.1975003E-01  0.0000000E+00
 4.3125004E-01  0.0000000E+00
 4.4275001E-01  0.0000000E+00
 4.5425001E-01  0.0000000E+00
 4.6575001E-01  0.0000000E+00
 4.7725001E-01  0.0000000E+00
 4.8875001E-01  0.0000000E+00
 5.0025004E-01  0.0000000E+00
 5.1175004E-01  0.0000000E+00
 5.2325004E-01  0.0000000E+00
 5.3475004E-01  0.0000000E+00
 5.4625005E-01  0.0000000E+00
 5.5775005E-01  0.0000000E+00
 5.6925005E-01  0.0000000E+00
 5.8075005E-01  0.0000000E+00
 5.9225005E-01  0.0000000E+00
 6.0375005E-01  0.0000000E+00
 6.1525005E-01  0.0000000E+00
 6.2675005E-01  0.0000000E+00
 6.3825005E-01  0.0000000E+00
 6.4975005E-01  0.0000000E+00
 6.6125005E-01  0.0000000E+00
 6.7275006E-01  0.0000000E+00
 6.8425006E-01  0.0000000E+00
 6.9575006E-01  0.0000000E+00
 7.0725006E-01  0.0000000E+00
 7.1875006E-01  0.0000000E+00
 7.3025006E-01  0.0000000E+00
 7.4175006E-01  0.0000000E+00
 7.5325006E-01  0.0000000E+00
 7.6475006E-01  0.0000000E+00
 7.7625006E-01  0.0000000E+00
 7.8775007E-01  0.0000000E+00
 7.9925007E-01  0.0000000E+00
 8.1075007E-01  0.0000000E+00
 8.2225007E-01  0.0000000E+00
 8.3375007E-01  0.0000000E+00
 8.4525007E-01  0.0000000E+00
 8.5675007E-01  0.0000000E+00
 8.6825007E-01  0.0000000E+00
 8.7975001E-01  0.0000000E+00
 8.9125001E-01  0.0000000E+00
 9.0275002E-01  0.0000000E+00
 9.1425002E-01  0.0000000E+00
 9.2575002E-01  0.0000000E+00
 9.3725002E-01  0.0000000E+00
 9.4875002E-01  0.0000000E+00
 9.6025002E-01  0.0000000E+00
 9.7175002E-01  0.0000000E+00
 9.8325002E-01  0.0000000E+00
 9.9475002E-01  0.0000000E+00
 1.0062500E+00  0.0000000E+00
 1.0177500E+00  0.0000000E+00
 1.0292500E+00  0.0000000E+00
 1.0407500E+00  0.0000000E+00
 1.0522500E+00  0.0000000E+00
 1.0637500E+00  0.0000000E+00
 1.0752500E+00  0.0000000E+00
 1.0867500E+00  0.0000000E+00
 1.0982500E+00  0.0000000E+00
 1.1097500E+00  0.0000000E+00
 1.1212500E+00  0.0000000E+00
 1.1327500E+00  0.0000000E+00
 1.1442500E+00  0.0000000E+00
 1.1557500E+00  0.0000000E+00
 1.1672500E+00  0.0000000E+00
 1.1787500E+00  0.0000000E+00
 1.1902500E+00  0.0000000E+00
 1.2017500E+00  0.0000000E+00
 1.2132500E+00  0.0000000E+00
 1.2247500E+00  0.0000000E+00
 1.2362500E+00  0.0000000E+00
 1.2477500E+00  0.0000000E+00
 1.2592500E+00  0.0000000E+00
 1.2707500E+00  0.0000000E+00
 1.2822500E+00  0.0000000E+00
 1.2937500E+00  0.0000000E+00
 1.3052500E+00  0.0000000E+00
 1.3167500E+00  0.0000000E+00
 1.3282501E+00  0.0000000E+00
 1.3397501E+00  0.0000000E+00
 1.3512501E+00  0.0000000E+00
 1.3627501E+00  0.0000000E+00
 1.3742501E+00  0.0000000E+00
 1.3857501E+00  0.0000000E+00
 1.3972501E+00  0.0000000E+00
 1.4087501E+00  0.0000000E+00
 1.4202501E+00  0.0000000E+00
 1.4317501E+00  0.0000000E+00
 1.4432501E+00  0.0000000E+00
 1.4547501E+00  0.0000000E+00
 1.4662501E+00  0.0000000E+00
 1.4777501E+00  0.0000000E+00
 1.4892501E+00  0.0000000E+00
 1.5007501E+00  0.0000000E+00
 1.5122501E+00  0.0000000E+00
 1.5237501E+00  0.0000000E+00
 1.5352501E+00  0.0000000E+00
 1.5467501E+00  0.0000000E+00
 1.5582501E+00  0.0000000E+00
 1.5697501E+00  0.0000000E+00
 1.5812501E+00  0.0000000E+00
 1.5927501E+00  0.0000000E+00
 1.6042501E+00  0.0000000E+00
 1.6157501E+00  0.0000000E+00
 1.6272501E+00  0.0000000E+00
 1.6387501E+00  0.0000000E+00
 1.6502501E+00  0.0000000E+00
 1.6617501E+00  0.0000000E+00
 1.6732501E+00  0.0000000E+00
 1.6847501E+00  0.0000000E+00
 1.6962501E+00  0.0000000E+00
 1.7077501E+00  0.0000000E+00
 1.7192501E+00  0.0000000E+00
 1.7307501E+00  0.0000000E+00
 1.7422501E+00  0.0000000E+00
 1.7537501E+00  0.0000000E+00
 1.7652501E+00  0.0000000E+00
 1.7767501E+00  0.0000000E+00
 1.7882501E+00  0.0000000E+00
 1.7997501E+00  0.0000000E+00
 1.8112501E+00  0.0000000E+00
 1.8227501E+00  0.0000000E+00
 1.8342501E+00  0.0000000E+00
 1.8457501E+00  0.0000000E+00
 1.8572501E+00  0.0000000E+00
 1.8687501E+00  0.0000000E+00
 1.8802501E+00  0.0000000E+00
 1.8917501E+00  0.0000000E+00
 1.9032501E+00  0.0000000E+00
 1.9147501E+00  0.0000000E+00
 1.9262501E+00  0.0000000E+00
 1.9377501E+00  0.0000000E+00
 1.9492501E+00  0.0000000E+00
 1.9607501E+00  0.0000000E+00
 1.9722501E+00  0.0000000E+00
 1.9837501E+00  0.0000000E+00
 1.9952501E+00  0.0000000E+00
 2.0067501E+00  0.0000000E+00
 2.0182500E+00  0.0000000E+00
 2.0297501E+00  0.0000000E+00
 2.0412500E+00  0.0000000E+00
 2.0527501E+00  0.0000000E+00
 2.0642500E+00  0.0000000E+00
 2.0757501E+00  0.0000000E+00
 2.0872500E+00  0.0000000E+00
 2.0987501E+00  0.0000000E+00
 2.1102500E+00  0.0000000E+00
 2.1217501E+00  0.0000000E+00
 2.1332500E+00  0.0000000E+00
 2.1447501E+00  0.0000000E+00
 2.1562500E+00  0.0000000E+00
 2.1677501E+00  0.0000000E+00
 2.1792500E+00  0.0000000E+00
 2.1907501E+00  0.0000000E+00
 2.2022500E+00  0.0000000E+00
 2.2137501E+00  0.0000000E+00
 2.2252500E+00  0.0000000E+00
 2.2367501E+00  0.0000000E+00
 2.2482500E+00  0.0000000E+00
 2.2597501E+00  0.0000000E+00
 2.2712500E+00  0.0000000E+00
 2.2827501E+00  0.0000000E+00
 2.2942500E+00  0.0000000E+00
 2.3057501E+00  0.0000000E+00
 2.3172500E+00  0.0000000E+00
 2.3287501E+00  0.0000000E+00
 2.3402500E+00  0.0000000E+00
 2.3517501E+00  0.0000000E+00
 2.3632500E+00  0.0000000E+00
 2.3747501E+00  0.0000000E+00
 2.3862500E+00  0.0000000E+00
 2.3977501E+00  0.0000000E+00
 2.4092500E+00  0.0000000E+00
 2.4207501E+00  0.0000000E+00
 2.4322500E+00  0.0000000E+00
 2.4437501E+00  0.0000000E+00
 2.4552500E+00  0.0000000E+00
 2.4667501E+00  0.0000000E+00
 2.4782500E+00  0.0000000E+00
 2.4897501E+00  0.0000000E+00
 2.5012500E+00  0.0000000E+00
 2.5127501E+00  0.0000000E+00
 2.5242500E+00  0.0000000E+00
 2.5357502E+00  0.0000000E+00
 2.5472500E+00  0.0000000E+00
 2.5587502E+00  0.0000000E+00
 2.5702500E+00  0.0000000E+00
 2.5817502E+00  0.0000000E+00
 2.5932500E+00  0.0000000E+00
 2.6047502E+00  0.0000000E+00
 2.6162500E+00  0.0000000E+00
 2.6277502E+00  0.0000000E+00
 2.6392500E+00  0.0000000E+00
 2.6507502E+00  0.0000000E+00
 2.6622500E+00  0.0000000E+00
 2.6737502E+00  0.0000000E+00
 2.6852500E+00  0.0000000E+00
 2.6967502E+00  0.0000000E+00
 2.7082500E+00  0.0000000E+00
 2.7197502E+00  0.0000000E+00
 2.7312500E+00  0.0000000E+00
 2.7427502E+00  0.0000000E+00
 2.7542500E+00  0.0000000E+00
 2.7657502E+00  0.0000000E+00
 2.7772501E+00  0.0000000E+00
 2.7887502E+00  0.0000000E+00
 2.8002501E+00  0.0000000E+00
 2.8117502E+00  0.0000000E+00
 2.8232501E+00  3.4115318E+01
 2.8347502E+00  3.5584087E+01
 2.8462501E+00  3.5115448E+01
 2.8577502E+00  3.4647484E+01
 2.8692501E+00  3.4669453E+01
 2.8807502E+00  3.4795444E+01
 2.8922501E+00  3.5545372E+01
 2.9037502E+00  3.6038288E+01
 2.9152501E+00  3.7760960E+01
 2.9267502E+00  3.8536877E+01
 2.9382501E+00  3.9211857E+01
 2.9497502E+00  4.0501488E+01
 2.9612501E+00  3.9963894E+01
 2.9727502E+00  3.9144962E+01
 2.9842501E+00  3.7030693E+01
 2.9957502E+00  3.6311329E+01
 3.0072501E+00  3.6293762E+01
 3.0187502E+00  3.5901646E+01
 3.0302501E+00  3.5709484E+01
 3.0417502E+00  3.5586281E+01
 3.0532501E+00  3.5364162E+01
 3.0647502E+00  3.5348656E+01
 3.0762501E+00  3.5030102E+01
 3.0877502E+00  3.5142334E+01
 3.0992501E+00  3.5248837E+01
 3.1107502E+00  3.5583607E+01
 3.1222501E+00  3.5932800E+01
 3.1337502E+00  3.6222923E+01
 3.1452501E+00  3.6544937E+01
 3.1567502E+00  3.6882904E+01
 3.1682501E+00  3.6791302E+01
 3.1797502E+00  3.7034428E+01
 3.1912501E+00  3.6779247E+01
 3.2027502E+00  3.6551537E+01
 3.2142501E+00  3.6223671E+01
 3.2257502E+00  3.5745617E+01
 3.2372501E+00  3.5675335E+01
 3.2487502E+00  3.5029022E+01
 3.2602501E+00  3.4985107E+01
 3.2717502E+00  3.4594654E+01
 3.2832501E+00  3.4561710E+01
 3.2947502E+00  3.4466404E+01
 3.3062501E+00  3.4347530E+01
 3.3177502E+00  3.4448662E+01
 3.3292501E+00  3.4459671E+01
 3.3407502E+00  3.5091164E+01
 3.3522501E+00  3.5733974E+01
 3.3637502E+00  3.6089970E+01
 3.3752501E+00  3.6566128E+01
 3.3867502E+00  3.6274830E+01
 3.3982501E+00  3.5743649E+01
 3.4097502E+00  3.5146347E+01
 3.4212501E+00  3.4524616E+01
 3.4327502E+00  3.4243210E+01
 3.4442501E+00  3.4080769E+01
 3.4557502E+00  3.3936676E+01
 3.4672501E+00  3.3999348E+01
 3.4787502E+00  3.3686378E+01
 3.4902501E+00  3.3747311E+01
 3.5017502E+00  3.3370121E+01
 3.5132501E+00  3.3129169E+01
 3.5247502E+00  3.3001701E+01
 3.5362501E+00  3.2759972E+01
 3.5477502E+00  3.2968143E+01
 3.5592501E+00  3.3138039E+01
 3.5707502E+00  3.3511646E+01
 3.5822501E+00  3.3697758E+01
 3.5937502E+00  3.3920101E+01
 3.6052501E+00  3.3999542E+01
 3.6167502E+00  3.4035755E+01
 3.6282501E+00  3.3956638E+01
 3.6397502E+00  3.3837585E+01
 3.6512501E+00  3.3990059E+01
 3.6627502E+00  3.3846420E+01
 3.6742501E+00  3.3649712E+01
 3.6857502E+00  3.3549355E+01
 3.6972501E+00  3.3382980E+01
 3.7087502E+00  3.3289234E+01
 3.7202501E+00  3.3196148E+01
 3.7317502E+00  3.3179012E+01
 3.7432501E+00  3.3421093E+01
 3.7547503E+00  3.3304962E+01
 3.7662501E+00  3.3386307E+01
 3.7777503E+00  3.3242657E+01
 3.7892501E+00  3.3243057E+01
 3.8007503E+00  3.3141659E+01
 3.8122501E+00  3.3154842E+01
 3.8237503E+00  3.2956242E+01
 3.8352501E+00  3.2971451E+01
 3.8467503E+00  3.2829929E+01
 3.8582501E+00  3.2963173E+01
 3.8697503E+00  3.2943192E+01
 3.8812501E+00  3.3156170E+01
 3.8927503E+00  3.3030518E+01
 3.9042501E+00  3.2965137E+01
 3.9157503E+00  3.2767738E+01
 3.9272501E+00  3.2736923E+01
 3.9387503E+00  3.2779396E+01
 3.9502501E+00  3.2881889E+01
 3.9617503E+00  3.3056519E+01
 3.9732502E+00  3.3093559E+01
 3.9847503E+00  3.2995346E+01
 3.9962502E+00  3.2955547E+01
 4.0077500E+00  3.2867046E+01
 4.0192504E+00  3.2615810E+01
 4.0307503E+00  3.2534672E+01
 4.0422502E+00  3.2373798E+01
 4.0537500E+00  3.2530903E+01
 4.0652504E+00  3.2603127E+01
 4.0767503E+00  3.2591526E+01
 4.0882502E+00  3.2645107E+01
 4.0997500E+00  3.2767609E+01
 4.1112504E+00  3.2764675E+01
 4.1227503E+00  3.2683353E+01
 4.1342502E+00  3.2460899E+01
 4.1457500E+00  3.2290009E+01
 4.1572504E+00  3.2272659E+01
 4.1687503E+00  3.2198162E+01
 4.1802502E+00  3.2150078E+01
 4.1917500E+00  3.2227783E+01
 4.2032504E+00  3.2277424E+01
 4.2147503E+00  3.2361263E+01
 4.2262502E+00  3.2367733E+01
 4.2377501E+00  3.2397724E+01
 4.2492504E+00  3.2512547E+01
 4.2607503E+00  3.2731865E+01
 4.2722502E+00  3.2893471E+01
 4.2837501E+00  3.2960636E+01
 4.2952504E+00  3.2821396E+01
 4.3067503E+00  3.2687195E+01
 4.3182502E+00  3.2648247E+01
 4.3297501E+00  3.2612751E+01
 4.3412504E+00  3.2709618E+01
 4.3527503E+00  3.2781155E+01
 4.3642502E+00  3.2874756E+01
 4.3757501E+00  3.2864166E+01
 4.3872504E+00  3.2849457E+01
 4.3987503E+00  3.2761082E+01
 4.4102502E+00  3.2744244E+01
 4.4217501E+00  3.2669514E+01
 4.4332504E+00  3.2718834E+01
 4.4447503E+00  3.2659981E+01
 4.4562502E+00  3.2636173E+01
 4.4677501E+00  3.2576447E+01
 4.4792504E+00  3.2583786E+01
 4.4907503E+00  3.2407539E+01
 4.5022502E+00  3.2316761E+01
 4.5137501E+00  3.2193027E+01
 4.5252504E+00  3.2362411E+01
 4.5367503E+00  3.2335808E+01
 4.5482502E+00  3.2378254E+01
 4.5597501E+00  3.2352345E+01
 4.5712504E+00  3.2402752E+01
 4.5827503E+00  3.2443550E+01
 4.5942502E+00  3.2521915E+01
 4.6057501E+00  3.2621372E+01
 4.6172504E+00  3.2657829E+01
 4.6287503E+00  3.2660851E+01
 4.6402502E+00  3.2698154E+01
 4.6517501E+00  3.2880028E+01
 4.6632504E+00  3.3053303E+01
 4.6747503E+00  3.3232967E+01
 4.6862502E+00  3.3297852E+01
 4.6977501E+00  3.3481354E+01
 4.7092505E+00  3.3419994E+01
 4.7207503E+00  3.3353298E+01
 4.7322502E+00  3.3139133E+01
 4.7437501E+00  3.2996655E+01
 4.7552505E+00  3.2974583E+01
 4.7667503E+00  3.3043339E+01
 4.7782502E+00  3.3031750E+01
 4.7897501E+00  3.3078686E+01
 4.8012505E+00  3.2886345E+01
 4.8127503E+00  3.2775410E+01
 4.8242502E+00  3.2590942E+01
 4.8357501E+00  3.2537582E+01
 4.8472505E+00  3.2569477E+01
 4.8587503E+00  3.2679234E+01
 4.8702502E+00  3.2789478E+01
 4.8817501E+00  3.2790943E+01
 4.8932505E+00  3.2871696E+01
 4.9047503E+00  3.2893078E+01
 4.9162502E+00  3.2993809E+01
 4.9277501E+00  3.3004654E+01
 4.9392505E+00  3.3049885E+01
 4.9507504E+00  3.3048748E+01
 4.9622502E+00  3.3008652E+01
 4.9737501E+00  3.3034332E+01
 4.9852505E+00  3.3162601E+01
 4.9967504E+00  3.3297031E+01
 5.0082502E+00  3.3358940E+01
 5.0197501E+00  3.3310516E+01
 5.0312505E+00  3.3297234E+01
 5.0427504E+00  3.3282143E+01
 5.0542502E+00  3.3242493E+01
 5.0657501E+00  3.3273659E+01
 5.0772505E+00  3.3279274E+01
 5.0887504E+00  3.3439678E+01
 5.1002502E+00  3.3570950E+01
 5.1117501E+00  3.3695774E+01
 5.1232505E+00  3.3807156E+01
 5.1347504E+00  3.3980499E+01
 5.1462502E+00  3.4097912E+01
 5.1577501E+00  3.4295288E+01
 5.1692505E+00  3.4303410E+01
 5.1807504E+00  3.4522400E+01
 5.1922503E+00  3.4395782E+01
 5.2037501E+00  3.4383785E+01
 5.2152505E+00  3.4103054E+01
 5.2267504E+00  3.4064148E+01
 5.2382503E+00  3.4085896E+01
 5.2497501E+00  3.4073219E+01
 5.2612505E+00  3.4248844E+01
 5.2727504E+00  3.4263935E+01
 5.2842503E+00  3.4462025E+01
 5.2957501E+00  3.4418476E+01
 5.3072500E+00  3.4441776E+01
 5.3187504E+00  3.4565777E+01
 5.3302503E+00  3.4578983E+01
 5.3417501E+00  3.4583076E+01
 5.3532500E+00  3.4516014E+01
 5.3647504E+00  3.4420689E+01
 5.3762503E+00  3.4475922E+01
 5.3877501E+00  3.4554821E+01
 5.3992500E+00  3.4719704E+01
 5.4107504E+00  3.4766964E+01
 5.4222503E+00  3.4762920E+01
 5.4337502E+00  3.4766777E+01
 5.4452500E+00  3.4701435E+01
 5.4567504E+00  3.4596722E+01
 5.4682503E+00  3.4522362E+01
 5.4797502E+00  3.4472450E+01
 5.4912500E+00  3.4434265E+01
 5.5027504E+00  3.4505684E+01
 5.5142503E+00  3.4652794E+01
 5.5257502E+00  3.4908497E+01
 5.5372500E+00  3.4961388E+01
 5.5487504E+00  3.5098606E+01
 5.5602503E+00  3.5225666E+01
 5.5717502E+00  3.5419739E+01
 5.5832500E+00  3.5526550E+01
 5.5947504E+00  3.5568596E+01
 5.6062503E+00  3.5612736E+01
 5.6177502E+00  3.5707043E+01
 5.6292500E+00  3.5684856E+01
 5.6407504E+00  3.5560726E+01
 5.6522503E+00  3.5507496E+01
 5.6637502E+00  3.5491043E+01
 5.6752501E+00  3.5552673E+01
 5.6867504E+00  3.5555603E+01
 5.6982503E+00  3.5524166E+01
 5.7097502E+00  3.5532940E+01
 5.7212501E+00  3.5561546E+01
 5.7327504E+00  3.5687653E+01
 5.7442503E+00  3.5739109E+01
 5.7557502E+00  3.5746197E+01
 5.7672501E+00  3.5754543E+01
 5.7787504E+00  3.5739998E+01
 5.7902503E+00  3.5765472E+01
 5.8017502E+00  3.5733334E+01
 5.8132501E+00  3.5787148E+01
 5.8247504E+00  3.5934494E+01
 5.8362503E+00  3.6034813E+01
 5.8477502E+00  3.6128685E+01
 5.8592501E+00  3.6139511E+01
 5.8707504E+00  3.6211613E+01
 5.8822503E+00  3.6363781E+01
 5.8937502E+00  3.6494465E+01
 5.9052501E+00  3.6785587E+01
 5.9167504E+00  3.7352104E+01
 5.9282503E+00  3.7832272E+01
 5.9397502E+00  3.9143635E+01
 5.9512501E+00  4.0534344E+01
 5.9627504E+00  4.1450989E+01
 5.9742503E+00  4.2891830E+01
 5.9857502E+00  4.3287334E+01
 5.9972501E+00  4.3397392E+01
 6.0087504E+00  4.2889957E+01
 6.0202503E+00  4.1527969E+01
 6.0317502E+00  4.0794518E+01
 6.0432501E+00  3.9320133E+01
 6.0547504E+00  3.8381912E+01
 6.0662503E+00  3.7746887E+01
 6.0777502E+00  3.7150143E+01
 6.0892501E+00  3.7057842E+01
 6.1007504E+00  3.6966820E+01
 6.1122503E+00  3.6987179E+01
 6.1237502E+00  3.6982777E+01
 6.1352501E+00  3.6944935E+01
 6.1467505E+00  3.6921604E+01
 6.1582503E+00  3.6993954E+01
 6.1697502E+00  3.6993473E+01
 6.1812501E+00  3.7117065E+01
 6.1927505E+00  3.7120667E+01
 6.2042503E+00  3.7212669E+01
 6.2157502E+00  3.7209110E+01
 6.2272501E+00  3.7231632E+01
 6.2387505E+00  3.7158443E+01
 6.2502503E+00  3.7225876E+01
 6.2617502E+00  3.7290283E+01
 6.2732501E+00  3.7511696E+01
 6.2847505E+00  3.7629681E+01
 6.2962503E+00  3.7756458E+01
 6.3077502E+00  3.7851410E+01
 6.3192501E+00  3.7851635E+01
 6.3307505E+00  3.7976162E+01
 6.3422503E+00  3.8011429E+01
 6.3537502E+00  3.8095676E+01
 6.3652501E+00  3.8165726E+01
 6.3767505E+00  3.8255116E+01
 6.3882504E+00  3.8317112E+01
 6.3997502E+00  3.8309803E+01
 6.4112501E+00  3.8320683E+01
 6.4227505E+00  3.8454082E+01
 6.4342504E+00  3.8451653E+01
 6.4457502E+00  3.8558788E+01
 6.4572501E+00  3.8572319E+01
 6.4687505E+00  3.8801434E+01
 6.4802504E+00  3.8810116E+01
 6.4917502E+00  3.8862915E+01
 6.5032501E+00  3.8994576E+01
 6.5147505E+00  3.9140137E+01
 6.5262504E+00  3.9335846E+01
 6.5377502E+00  3.9378300E+01
 6.5492501E+00  3.9460056E+01
 6.5607505E+00  3.9639313E+01
 6.5722504E+00  3.9743217E+01
 6.5837502E+00  3.9900711E+01
 6.5952501E+00  3.9954659E+01
 6.6067505E+00  3.9975655E+01
 6.6182504E+00  4.0015739E+01
 6.6297503E+00  4.0027397E+01
 6.6412501E+00  4.0062386E+01
 6.6527505E+00  4.0191254E+01
 6.6642504E+00  4.0259872E+01
 6.6757503E+00  4.0341328E+01
 6.6872501E+00  4.0373146E+01
 6.6987505E+00  4.0453972E+01
 6.7102504E+00  4.0665424E+01
 6.7217503E+00  4.0787537E+01
 6.7332501E+00  4.0956459E+01
 6.7447505E+00  4.1092308E+01
 6.7562504E+00  4.1219700E+01
 6.7677503E+00  4.1290142E+01
 6.7792501E+00  4.1257584E+01
 6.7907505E+00  4.1201771E+01
 6.8022504E+00  4.1207764E+01
 6.8137503E+00  4.1265949E+01
 6.8252501E+00  4.1380592E+01
 6.8367505E+00  4.1522408E+01
 6.8482504E+00  4.1648514E+01
 6.8597503E+00  4.1838840E+01
 6.8712502E+00  4.1976315E+01
 6.8827505E+00  4.2019619E+01
 6.8942504E+00  4.2027683E+01
 6.9057503E+00  4.2006222E+01
 6.9172502E+00  4.2089466E+01
 6.9287505E+00  4.2080292E+01
 6.9402504E+00  4.2162659E+01
 6.9517503E+00  4.2151920E+01
 6.9632502E+00  4.2247982E+01
 6.9747505E+00  4.2231972E+01
 6.9862504E+00  4.2323360E+01
 6.9977503E+00  4.2374153E+01
 7.0092502E+00  4.2417221E+01
 7.0207505E+00  4.2434544E+01
 7.0322504E+00  4.2567459E+01
 7.0437503E+00  4.2674530E+01
 7.0552502E+00  4.2863045E+01
 7.0667505E+00  4.2982735E+01
 7.0782504E+00  4.3140285E+01
 7.0897503E+00  4.3228806E+01
 7.1012502E+00  4.3300728E+01
 7.1127505E+00  4.3302189E+01
 7.1242504E+00  4.3379501E+01
 7.1357503E+00  4.3337509E+01
 7.1472502E+00  4.3300728E+01
 7.1587505E+00  4.3324875E+01
 7.1702504E+00  4.3363785E+01
 7.1817503E+00  4.3470509E+01
 7.1932502E+00  4.3521381E+01
 7.2047505E+00  4.3553009E+01
 7.2162504E+00  4.3647991E+01
 7.2277503E+00  4.3672665E+01
 7.2392502E+00  4.3702812E+01
 7.2507505E+00  4.3677521E+01
 7.2622504E+00  4.3639191E+01
 7.2737503E+00  4.3644680E+01
 7.2852502E+00  4.3728554E+01
 7.2967505E+00  4.3862453E+01
 7.3082504E+00  4.4007477E+01
 7.3197503E+00  4.4051113E+01
 7.3312502E+00  4.4176762E+01
 7.3427505E+00  4.4211056E+01
 7.3542504E+00  4.4307964E+01
 7.3657503E+00  4.4299530E+01
 7.3772502E+00  4.4378834E+01
 7.3887506E+00  4.4463749E+01
 7.4002504E+00  4.4552090E+01
 7.4117503E+00  4.4696896E+01
 7.4232502E+00  4.4684841E+01
 7.4347506E+00  4.4844898E+01
 7.4462504E+00  4.4794895E+01
 7.4577503E+00  4.4852642E+01
 7.4692502E+00  4.4702938E+01
 7.4807506E+00  4.4687721E+01
 7.4922504E+00  4.4685055E+01
 7.5037503E+00  4.4716255E+01
 7.5152502E+00  4.4693466E+01
 7.5267506E+00  4.4680191E+01
 7.5382504E+00  4.4683109E+01
 7.5497503E+00  4.4684193E+01
 7.5612502E+00  4.4693474E+01
 7.5727506E+00  4.4702480E+01
 7.5842505E+00  4.4759811E+01
 7.5957503E+00  4.4752716E+01
 7.6072502E+00  4.4788826E+01
 7.6187506E+00  4.4767372E+01
 7.6302505E+00  4.4749874E+01
 7.6417503E+00  4.4707962E+01
 7.6532502E+00  4.4654926E+01
 7.6647506E+00  4.4637085E+01
 7.6762505E+00  4.4640083E+01
 7.6877503E+00  4.4728031E+01
 7.6992502E+00  4.4679409E+01
 7.7107506E+00  4.4734142E+01
 7.7222505E+00  4.4738251E+01
 7.7337503E+00  4.4787468E+01
 7.7452502E+00  4.4723663E+01
 7.7567506E+00  4.4580341E+01
 7.7682505E+00  4.4506802E+01
 7.7797503E+00  4.4403778E+01
 7.7912502E+00  4.4400105E+01
 7.8027506E+00  4.4357513E+01
 7.8142505E+00  4.4373158E+01
 7.8257504E+00  4.4295971E+01
 7.8372502E+00  4.4418476E+01
 7.8487506E+00  4.4422070E+01
 7.8602505E+00  4.4444916E+01
 7.8717504E+00  4.4312557E+01
 7.8832502E+00  4.4210201E+01
 7.8947506E+00  4.4130840E+01
 7.9062505E+00  4.4147251E+01
 7.9177504E+00  4.4226307E+01
 7.9292502E+00  4.4327003E+01
 7.9407506E+00  4.4348499E+01
 7.9522505E+00  4.4237595E+01
 7.9637504E+00  4.4042339E+01
 7.9752502E+00  4.3832832E+01
 7.9867506E+00  4.3655437E+01
 7.9982505E+00  4.3592068E+01
 8.0097504E+00  4.3544895E+01
 8.0212507E+00  4.3580811E+01
 8.0327501E+00  4.3691299E+01
 8.0442505E+00  4.3683296E+01
 8.0557508E+00  4.3633789E+01
 8.0672503E+00  4.3451851E+01
 8.0787506E+00  4.3309425E+01
 8.0902500E+00  4.3173950E+01
 8.1017504E+00  4.3149006E+01
 8.1132507E+00  4.3093605E+01
 8.1247501E+00  4.2971935E+01
 8.1362505E+00  4.2829506E+01
 8.1477509E+00  4.2709717E+01
 8.1592503E+00  4.2768269E+01
 8.1707506E+00  4.2659657E+01
 8.1822500E+00  4.2616127E+01
 8.1937504E+00  4.2480015E+01
 8.2052507E+00  4.2369427E+01
 8.2167501E+00  4.2251698E+01
 8.2282505E+00  4.2139824E+01
 8.2397509E+00  4.2045731E+01
 8.2512503E+00  4.1956230E+01
 8.2627506E+00  4.1826630E+01
 8.2742500E+00  4.1606697E+01
 8.2857504E+00  4.1352631E+01
 8.2972507E+00  4.1159943E+01
 8.3087502E+00  4.1090317E+01
 8.3202505E+00  4.0948734E+01
 8.3317509E+00  4.0762928E+01
 8.3432503E+00  4.0574150E+01
 8.3547506E+00  4.0405418E+01
 8.3662500E+00  4.0248013E+01
 8.3777504E+00  4.0032898E+01
 8.3892508E+00  3.9869972E+01
 8.4007502E+00  3.9790867E+01
 8.4122505E+00  3.9678757E+01
 8.4237509E+00  3.9536320E+01
 8.4352503E+00  3.9319958E+01
 8.4467506E+00  3.9144653E+01
 8.4582500E+00  3.9000565E+01
 8.4697504E+00  3.8850456E+01
 8.4812508E+00  3.8706150E+01
 8.4927502E+00  3.8547955E+01
 8.5042505E+00  3.8349033E+01
 8.5157509E+00  3.8179085E+01
 8.5272503E+00  3.7969746E+01
 8.5387506E+00  3.7767750E+01
 8.5502501E+00  3.7517857E+01
 8.5617504E+00  3.7330460E+01
 8.5732508E+00  3.7150364E+01
 8.5847502E+00  3.6986858E+01
 8.5962505E+00  3.6796333E+01
 8.6077509E+00  3.6585636E+01
 8.6192503E+00  3.6469891E+01
 8.6307507E+00  3.6334927E+01
 8.6422501E+00  3.6275234E+01
 8.6537504E+00  3.6033966E+01
 8.6652508E+00  3.5860249E+01
 8.6767502E+00  3.5614250E+01
 8.6882505E+00  3.5534920E+01
 8.6997509E+00  3.5377808E+01
 8.7112503E+00  3.5269703E+01
 8.7227507E+00  3.5043854E+01
 8.7342501E+00  3.4851925E+01
 8.7457504E+00  3.4607193E+01
 8.7572508E+00  3.4409271E+01
 8.7687502E+00  3.4249863E+01
 8.7802505E+00  3.4056187E+01
 8.7917500E+00  3.3906090E+01
 8.8032503E+00  3.3667915E+01
 8.8147507E+00  3.3561752E+01
 8.8262501E+00  3.3434555E+01
 8.8377504E+00  3.3320652E+01
 8.8492508E+00  3.3147968E+01
 8.8607502E+00  3.2971104E+01
 8.8722506E+00  3.2803772E+01
 8.8837500E+00  3.2573212E+01
 8.8952503E+00  3.2299133E+01
 8.9067507E+00  3.2081059E+01
 8.9182501E+00  3.1938210E+01
 8.9297504E+00  3.1853479E+01
 8.9412508E+00  3.1722408E+01
 8.9527502E+00  3.1631685E+01
 8.9642506E+00  3.1502653E+01
 8.9757500E+00  3.1370871E+01
 8.9872503E+00  3.1249943E+01
 8.9987507E+00  3.1126970E+01
 9.0102501E+00  3.1003561E+01
 9.0217505E+00  3.0875116E+01
 9.0332508E+00  3.0771910E+01
 9.0447502E+00  3.0668482E+01
 9.0562506E+00  3.0531788E+01
 9.0677500E+00  3.0363939E+01
 9.0792503E+00  3.0224964E+01
 9.0907507E+00  3.0071085E+01
 9.1022501E+00  2.9910671E+01
 9.1137505E+00  2.9825272E+01
 9.1252508E+00  2.9733694E+01
 9.1367502E+00  2.9569340E+01
 9.1482506E+00  2.9487267E+01
 9.1597500E+00  2.9329649E+01
 9.1712503E+00  2.9274839E+01
 9.1827507E+00  2.9140448E+01
 9.1942501E+00  2.9089224E+01
 9.2057505E+00  2.8955717E+01
 9.2172508E+00  2.8837000E+01
 9.2287502E+00  2.8610172E+01
 9.2402506E+00  2.8468616E+01
 9.2517500E+00  2.8297977E+01
 9.2632504E+00  2.8235628E+01
 9.2747507E+00  2.8167734E+01
 9.2862501E+00  2.8036350E+01
 9.2977505E+00  2.7932684E+01
 9.3092508E+00  2.7797174E+01
 9.3207502E+00  2.7710812E+01
 9.3322506E+00  2.7657461E+01
 9.3437500E+00  2.7620806E+01
 9.3552504E+00  2.7641678E+01
 9.3667507E+00  2.7592924E+01
 9.3782501E+00  2.7571131E+01
 9.3897505E+00  2.7485090E+01
 9.4012508E+00  2.7326818E+01
 9.4127502E+00  2.7234518E+01
 9.4242506E+00  2.7165644E+01
 9.4357500E+00  2.7129360E+01
 9.4472504E+00  2.7099846E+01
 9.4587507E+00  2.7007965E+01
 9.4702501E+00  2.6959984E+01
 9.4817505E+00  2.6895445E+01
 9.4932508E+00  2.6850483E+01
 9.5047503E+00  2.6810305E+01
 9.5162506E+00  2.6697952E+01
 9.5277500E+00  2.6559410E+01
 9.5392504E+00  2.6440304E+01
 9.5507507E+00  2.6334124E+01
 9.5622501E+00  2.6291496E+01
 9.5737505E+00  2.6200476E+01
 9.5852509E+00  2.6153400E+01
 9.5967503E+00  2.6086868E+01
 9.6082506E+00  2.6084719E+01
 9.6197500E+00  2.6002691E+01
 9.6312504E+00  2.5947071E+01
 9.6427507E+00  2.5830320E+01
 9.6542501E+00  2.5735542E+01
 9.6657505E+00  2.5665823E+01
 9.6772509E+00  2.5561459E+01
 9.6887503E+00  2.5501553E+01
 9.7002506E+00  2.5432920E+01
 9.7117500E+00  2.5377399E+01
 9.7232504E+00  2.5341917E+01
 9.7347507E+00  2.5294987E+01
 9.7462502E+00  2.5250534E+01
 9.7577505E+00  2.5170849E+01
 9.7692509E+00  2.5146378E+01
 9.7807503E+00  2.5150595E+01
 9.7922506E+00  2.5182953E+01
 9.8037500E+00  2.5145250E+01
 9.8152504E+00  2.5114723E+01
 9.8267508E+00  2.5050966E+01
 9.8382502E+00  2.5017298E+01
 9.8497505E+00  2.4988943E+01
 9.8612509E+00  2.4958288E+01
 9.8727503E+00  2.4924873E+01
 9.8842506E+00  2.4852165E+01
 9.8957500E+00  2.4873232E+01
 9.9072504E+00  2.4836824E+01
 9.9187508E+00  2.4822226E+01
 9.9302502E+00  2.4719572E+01
 9.9417505E+00  2.4630741E+01
 9.9532509E+00  2.4526615E+01
 9.9647503E+00  2.4486441E+01
 9.9762506E+00  2.4466879E+01
 9.9877501E+00  2.4507984E+01
 9.9992504E+00  2.4483122E+01
 1.0010751E+01  2.4465151E+01
 1.0022250E+01  2.4453749E+01
 1.0033751E+01  2.4397959E+01
 1.0045251E+01  2.4327322E+01
 1.0056750E+01  2.4214819E+01
 1.0068251E+01  2.4166885E+01
 1.0079750E+01  2.4114016E+01
 1.0091250E+01  2.4093140E+01
 1.0102751E+01  2.4074850E+01
 1.0114250E+01  2.4058155E+01
 1.0125751E+01  2.4020250E+01
 1.0137251E+01  2.3953938E+01
 1.0148750E+01  2.3979536E+01
 1.0160251E+01  2.4019983E+01
 1.0171750E+01  2.4100140E+01
 1.0183250E+01  2.4136200E+01
 1.0194751E+01  2.4176016E+01
 1.0206250E+01  2.4157085E+01
 1.0217751E+01  2.4113976E+01
 1.0229251E+01  2.4047169E+01
 1.0240750E+01  2.3977715E+01
 1.0252251E+01  2.3898546E+01
 1.0263750E+01  2.3833120E+01
 1.0275250E+01  2.3798735E+01
 1.0286751E+01  2.3792309E+01
 1.0298250E+01  2.3788227E+01
 1.0309751E+01  2.3750858E+01
 1.0321251E+01  2.3695856E+01
 1.0332750E+01  2.3619106E+01
 1.0344251E+01  2.3610804E+01
 1.0355750E+01  2.3592058E+01
 1.0367250E+01  2.3598204E+01
 1.0378751E+01  2.3598721E+01
 1.0390250E+01  2.3645145E+01
 1.0401751E+01  2.3661106E+01
 1.0413251E+01  2.3716743E+01
 1.0424750E+01  2.3641369E+01
 1.0436251E+01  2.3607718E+01
 1.0447750E+01  2.3456028E+01
 1.0459250E+01  2.3413439E+01
 1.0470751E+01  2.3356964E+01
 1.0482250E+01  2.3366541E+01
 1.0493751E+01  2.3423700E+01
 1.0505251E+01  2.3420492E+01
 1.0516750E+01  2.3416702E+01
 1.0528251E+01  2.3312172E+01
 1.0539750E+01  2.3266724E+01
 1.0551250E+01  2.3235373E+01
 1.0562751E+01  2.3312576E+01
 1.0574250E+01  2.3284744E+01
 1.0585751E+01  2.3240271E+01
 1.0597251E+01  2.3204609E+01
 1.0608750E+01  2.3257782E+01
 1.0620251E+01  2.3289812E+01
 1.0631750E+01  2.3294863E+01
 1.0643250E+01  2.3270521E+01
 1.0654751E+01  2.3269291E+01
 1.0666250E+01  2.3220768E+01
 1.0677751E+01  2.3185591E+01
 1.0689251E+01  2.3177889E+01
 1.0700750E+01  2.3164873E+01
 1.0712251E+01  2.3119497E+01
 1.0723750E+01  2.3068951E+01
 1.0735250E+01  2.3088913E+01
 1.0746751E+01  2.3072672E+01
 1.0758250E+01  2.3040958E+01
 1.0769751E+01  2.2964800E+01
 1.0781251E+01  2.2973137E+01
 1.0792750E+01  2.2973667E+01
 1.0804251E+01  2.2997108E+01
 1.0815750E+01  2.2975000E+01
 1.0827250E+01  2.2967422E+01
 1.0838751E+01  2.2904154E+01
 1.0850250E+01  2.2853302E+01
 1.0861751E+01  2.2811628E+01
 1.0873251E+01  2.2824730E+01
 1.0884750E+01  2.2820599E+01
 1.0896251E+01  2.2844658E+01
 1.0907750E+01  2.2814060E+01
 1.0919250E+01  2.2823662E+01
 1.0930751E+01  2.2848448E+01
 1.0942250E+01  2.2880505E+01
 1.0953751E+01  2.2933699E+01
 1.0965251E+01  2.2882317E+01
 1.0976750E+01  2.2842653E+01
 1.0988251E+01  2.2809540E+01
 1.0999750E+01  2.2764591E+01
 1.1011250E+01  2.2714127E+01
 1.1022751E+01  2.2657082E+01
 1.1034250E+01  2.2639528E+01
 1.1045751E+01  2.2617191E+01
 1.1057251E+01  2.2588755E+01
 1.1068750E+01  2.2626251E+01
 1.1080251E+01  2.2667625E+01
 1.1091750E+01  2.2690212E+01
 1.1103251E+01  2.2676313E+01
 1.1114751E+01  2.2666843E+01
 1.1126250E+01  2.2635416E+01
 1.1137751E+01  2.2602310E+01
 1.1149251E+01  2.2602312E+01
 1.1160750E+01  2.2582409E+01
 1.1172251E+01  2.2613054E+01
 1.1183750E+01  2.2579473E+01
 1.1195251E+01  2.2642145E+01
 1.1206751E+01  2.2606394E+01
 1.1218250E+01  2.2586020E+01
 1.1229751E+01  2.2543608E+01
 1.1241251E+01  2.2536150E+01
 1.1252750E+01  2.2524641E+01
 1.1264251E+01  2.2501135E+01
 1.1275750E+01  2.2446936E+01
 1.1287251E+01  2.2447342E+01
 1.1298751E+01  2.2455454E+01
 1.1310250E+01  2.2524670E+01
 1.1321751E+01  2.2569607E+01
 1.1333251E+01  2.2555101E+01
 1.1344750E+01  2.2545746E+01
 1.1356251E+01  2.2482931E+01
 1.1367750E+01  2.2476990E+01
 1.1379251E+01  2.2443289E+01
 1.1390751E+01  2.2527369E+01
 1.1402250E+01  2.2565639E+01
 1.1413751E+01  2.2638046E+01
 1.1425251E+01  2.2696810E+01
 1.1436750E+01  2.2750023E+01
 1.1448251E+01  2.2804121E+01
 1.1459750E+01  2.2791204E+01
 1.1471251E+01  2.2831802E+01
 1.1482751E+01  2.2755186E+01
 1.1494250E+01  2.2707817E+01
 1.1505751E+01  2.2632181E+01
 1.1517251E+01  2.2666946E+01
 1.1528750E+01  2.2843824E+01
 1.1540251E+01  2.3091915E+01
 1.1551750E+01  2.3351788E+01
 1.1563251E+01  2.3782488E+01
 1.1574751E+01  2.4043921E+01
 1.1586250E+01  2.4289944E+01
 1.1597751E+01  2.4321480E+01
 1.1609251E+01  2.4169075E+01
 1.1620750E+01  2.3963453E+01
 1.1632251E+01  2.3568537E+01
 1.1643750E+01  2.3290358E+01
 1.1655251E+01  2.3051590E+01
 1.1666751E+01  2.2843960E+01
 1.1678250E+01  2.2799271E+01
 1.1689751E+01  2.2695774E+01
 1.1701251E+01  2.2635406E+01
 1.1712750E+01  2.2548258E+01
 1.1724251E+01  2.2508675E+01
 1.1735750E+01  2.2501833E+01
 1.1747251E+01  2.2554302E+01
 1.1758751E+01  2.2549719E+01
 1.1770250E+01  2.2561232E+01
 1.1781751E+01  2.2533545E+01
 1.1793251E+01  2.2531382E+01
 1.1804750E+01  2.2507524E+01
 1.1816251E+01  2.2531994E+01
 1.1827750E+01  2.2548019E+01
 1.1839251E+01  2.2557194E+01
 1.1850751E+01  2.2539961E+01
 1.1862250E+01  2.2527372E+01
 1.1873751E+01  2.2462618E+01
 1.1885251E+01  2.2401434E+01
 1.1896750E+01  2.2385317E+01
 1.1908251E+01  2.2394819E+01
 1.1919750E+01  2.2462217E+01
 1.1931251E+01  2.2547232E+01
 1.1942751E+01  2.2690027E+01
 1.1954250E+01  2.2783955E+01
 1.1965751E+01  2.2842800E+01
 1.1977251E+01  2.2870546E+01
 1.1988750E+01  2.2873785E+01
 1.2000251E+01  2.2849077E+01
 1.2011750E+01  2.2817310E+01
 1.2023251E+01  2.2836784E+01
 1.2034751E+01  2.2845549E+01
 1.2046250E+01  2.2857615E+01
 1.2057751E+01  2.2879095E+01
 1.2069251E+01  2.3018295E+01
 1.2080750E+01  2.3210089E+01
 1.2092251E+01  2.3340841E+01
 1.2103750E+01  2.3394701E+01
 1.2115251E+01  2.3289183E+01
 1.2126751E+01  2.3195232E+01
 1.2138250E+01  2.3120682E+01
 1.2149751E+01  2.3045332E+01
 1.2161251E+01  2.2952394E+01
 1.2172750E+01  2.2787943E+01
 1.2184251E+01  2.2730234E+01
 1.2195750E+01  2.2674223E+01
 1.2207251E+01  2.2663635E+01
 1.2218751E+01  2.2630705E+01
 1.2230250E+01  2.2618914E+01
 1.2241751E+01  2.2572170E+01
 1.2253251E+01  2.2537624E+01
 1.2264750E+01  2.2507185E+01
 1.2276251E+01  2.2516081E+01
 1.2287750E+01  2.2591368E+01
 1.2299251E+01  2.2637819E+01
 1.2310751E+01  2.2713636E+01
 1.2322250E+01  2.2673712E+01
 1.2333751E+01  2.2735882E+01
 1.2345250E+01  2.2717798E+01
 1.2356750E+01  2.2766129E+01
 1.2368251E+01  2.2707621E+01
 1.2379750E+01  2.2695904E+01
 1.2391251E+01  2.2654465E+01
 1.2402751E+01  2.2607122E+01
 1.2414250E+01  2.2575846E+01
 1.2425751E+01  2.2541710E+01
 1.2437250E+01  2.2591400E+01
 1.2448750E+01  2.2595396E+01
 1.2460251E+01  2.2651667E+01
 1.2471750E+01  2.2671644E+01
 1.2483251E+01  2.2722332E+01
 1.2494751E+01  2.2660379E+01
 1.2506250E+01  2.2585079E+01
 1.2517751E+01  2.2524721E+01
 1.2529250E+01  2.2607452E+01
 1.2540751E+01  2.2662193E+01
 1.2552251E+01  2.2730562E+01
 1.2563750E+01  2.2757605E+01
 1.2575251E+01  2.2766222E+01
 1.2586751E+01  2.2756020E+01
 1.2598250E+01  2.2769020E+01
 1.2609751E+01  2.2842422E+01
 1.2621250E+01  2.2878212E+01
 1.2632751E+01  2.2898100E+01
 1.2644251E+01  2.2834375E+01
 1.2655750E+01  2.2868923E+01
 1.2667251E+01  2.2873114E+01
 1.2678751E+01  2.2926189E+01
 1.2690250E+01  2.2964542E+01
 1.2701751E+01  2.2991396E+01
 1.2713250E+01  2.3050093E+01
 1.2724751E+01  2.2983093E+01
 1.2736251E+01  2.2929377E+01
 1.2747750E+01  2.2916035E+01
 1.2759251E+01  2.3088511E+01
 1.2770751E+01  2.3574852E+01
 1.2782250E+01  2.3769089E+01
 1.2793751E+01  2.3717516E+01
 1.2805250E+01  2.3453037E+01
 1.2816751E+01  2.3353148E+01
 1.2828251E+01  2.3371246E+01
 1.2839750E+01  2.3338696E+01
 1.2851251E+01  2.3447393E+01
 1.2862751E+01  2.3634813E+01
 1.2874250E+01  2.3708834E+01
 1.2885751E+01  2.3763205E+01
 1.2897250E+01  2.3686396E+01
 1.2908751E+01  2.3692286E+01
 1.2920251E+01  2.3715498E+01
 1.2931750E+01  2.3734476E+01
 1.2943251E+01  2.3720062E+01
 1.2954751E+01  2.3713362E+01
 1.2966250E+01  2.3723398E+01
 1.2977751E+01  2.3795181E+01
 1.2989250E+01  2.3796997E+01
 1.3000751E+01  2.3891729E+01
 1.3012251E+01  2.3939056E+01
 1.3023750E+01  2.4049498E+01
 1.3035251E+01  2.4156107E+01
 1.3046751E+01  2.4307076E+01
 1.3058250E+01  2.4416212E+01
 1.3069751E+01  2.4466160E+01
 1.3081250E+01  2.4547117E+01
 1.3092751E+01  2.4651419E+01
 1.3104251E+01  2.4805401E+01
 1.3115750E+01  2.4917879E+01
 1.3127251E+01  2.5050474E+01
 1.3138751E+01  2.5111248E+01
 1.3150250E+01  2.5212183E+01
 1.3161751E+01  2.5299395E+01
 1.3173250E+01  2.5406364E+01
 1.3184751E+01  2.5496563E+01
 1.3196251E+01  2.5576895E+01
 1.3207750E+01  2.5670452E+01
 1.3219251E+01  2.5856009E+01
 1.3230751E+01  2.6045111E+01
 1.3242250E+01  2.6256227E+01
 1.3253751E+01  2.6392841E+01
 1.3265250E+01  2.6609568E+01
 1.3276751E+01  2.6802969E+01
 1.3288251E+01  2.6974043E+01
 1.3299750E+01  2.7079790E+01
 1.3311251E+01  2.7183947E+01
 1.3322751E+01  2.7331942E+01
 1.3334250E+01  2.7558479E+01
 1.3345751E+01  2.7746181E+01
 1.3357250E+01  2.7971935E+01
 1.3368751E+01  2.8065960E+01
 1.3380251E+01  2.8235546E+01
 1.3391750E+01  2.8279062E+01
 1.3403251E+01  2.8428452E+01
 1.3414751E+01  2.8483839E+01
 1.3426250E+01  2.8597612E+01
 1.3437751E+01  2.8711771E+01
 1.3449250E+01  2.8876417E+01
 1.3460751E+01  2.9018549E+01
 1.3472251E+01  2.9172882E+01
 1.3483750E+01  2.9318813E+01
 1.3495251E+01  2.9448074E+01
 1.3506751E+01  2.9531267E+01
 1.3518250E+01  2.9547354E+01
 1.3529751E+01  2.9539848E+01
 1.3541250E+01  2.9555853E+01
 1.3552751E+01  2.9608231E+01
 1.3564251E+01  2.9702831E+01
 1.3575750E+01  2.9692678E+01
 1.3587251E+01  2.9728889E+01
 1.3598751E+01  2.9769073E+01
 1.3610250E+01  2.9795643E+01
 1.3621751E+01  2.9850533E+01
 1.3633250E+01  2.9873217E+01
 1.3644751E+01  2.9942301E+01
 1.3656251E+01  2.9971842E+01
 1.3667750E+01  3.0029348E+01
 1.3679251E+01  3.0009626E+01
 1.3690751E+01  2.9929708E+01
 1.3702250E+01  2.9811853E+01
 1.3713751E+01  2.9712896E+01
 1.3725250E+01  2.9670620E+01
 1.3736751E+01  2.9581121E+01
 1.3748251E+01  2.9536556E+01
 1.3759750E+01  2.9464348E+01
 1.3771251E+01  2.9463270E+01
 1.3782751E+01  2.9437336E+01
 1.3794250E+01  2.9390688E+01
 1.3805751E+01  2.9310516E+01
 1.3817250E+01  2.9234343E+01
 1.3828751E+01  2.9155796E+01
 1.3840251E+01  2.9104490E+01
 1.3851750E+01  2.9089176E+01
 1.3863251E+01  2.9122488E+01
 1.3874751E+01  2.9183643E+01
 1.3886250E+01  2.9328825E+01
 1.3897751E+01  2.9561518E+01
 1.3909250E+01  2.9973534E+01
 1.3920751E+01  3.0497272E+01
 1.3932251E+01  3.1015717E+01
 1.3943750E+01  3.1492088E+01
 1.3955251E+01  3.1621931E+01
 1.3966751E+01  3.1615088E+01
 1.3978251E+01  3.1152899E+01
 1.3989751E+01  3.0612871E+01
 1.4001250E+01  2.9831560E+01
 1.4012751E+01  2.9148949E+01
 1.4024251E+01  2.8519108E+01
 1.4035750E+01  2.8129053E+01
 1.4047251E+01  2.7812218E+01
 1.4058751E+01  2.7697899E+01
 1.4070251E+01  2.7613388E+01
 1.4081751E+01  2.7505388E+01
 1.4093250E+01  2.7427551E+01
 1.4104751E+01  2.7297241E+01
 1.4116251E+01  2.7267269E+01
 1.4127750E+01  2.7243231E+01
 1.4139251E+01  2.7204744E+01
 1.4150751E+01  2.7151424E+01
 1.4162251E+01  2.7088285E+01
 1.4173751E+01  2.7029322E+01
 1.4185250E+01  2.6936901E+01
 1.4196751E+01  2.6815193E+01
 1.4208251E+01  2.6741962E+01
 1.4219750E+01  2.6650539E+01
 1.4231251E+01  2.6529726E+01
 1.4242751E+01  2.6439234E+01
 1.4254251E+01  2.6390163E+01
 1.4265751E+01  2.6351273E+01
 1.4277250E+01  2.6276918E+01
 1.4288751E+01  2.6208328E+01
 1.4300251E+01  2.6142281E+01
 1.4311750E+01  2.6071770E+01
 1.4323251E+01  2.6019760E+01
 1.4334751E+01  2.6023611E+01
 1.4346251E+01  2.6052202E+01
 1.4357751E+01  2.6095362E+01
 1.4369250E+01  2.6100552E+01
 1.4380751E+01  2.6091986E+01
 1.4392251E+01  2.6037420E+01
 1.4403750E+01  2.5956213E+01
 1.4415251E+01  2.5875031E+01
 1.4426751E+01  2.5786001E+01
 1.4438251E+01  2.5758421E+01
 1.4449751E+01  2.5717312E+01
 1.4461250E+01  2.5690838E+01
 1.4472751E+01  2.5706152E+01
 1.4484251E+01  2.5732740E+01
 1.4495750E+01  2.5752344E+01
 1.4507251E+01  2.5711536E+01
 1.4518751E+01  2.5664625E+01
 1.4530251E+01  2.5610209E+01
 1.4541751E+01  2.5572226E+01
 1.4553250E+01  2.5535454E+01
 1.4564751E+01  2.5536900E+01
 1.4576251E+01  2.5495796E+01
 1.4587750E+01  2.5465982E+01
 1.4599251E+01  2.5376617E+01
 1.4610751E+01  2.5380461E+01
 1.4622251E+01  2.5380074E+01
 1.4633751E+01  2.5428364E+01
 1.4645250E+01  2.5415895E+01
 1.4656751E+01  2.5349304E+01
 1.4668251E+01  2.5306681E+01
 1.4679750E+01  2.5265694E+01
 1.4691251E+01  2.5245583E+01
 1.4702751E+01  2.5240732E+01
 1.4714251E+01  2.5194839E+01
 1.4725751E+01  2.5187525E+01
 1.4737250E+01  2.5116972E+01
 1.4748751E+01  2.5154470E+01
 1.4760251E+01  2.5092178E+01
 1.4771750E+01  2.5083597E+01
 1.4783251E+01  2.4998711E+01
 1.4794751E+01  2.4982283E+01
 1.4806251E+01  2.4875971E+01
 1.4817751E+01  2.4835215E+01
 1.4829250E+01  2.4823420E+01
 1.4840751E+01  2.4867800E+01
 1.4852251E+01  2.4920549E+01
 1.4863750E+01  2.4922823E+01
 1.4875251E+01  2.4933117E+01
 1.4886751E+01  2.4924646E+01
 1.4898251E+01  2.4975744E+01
 1.4909751E+01  2.4942402E+01
 1.4921250E+01  2.4929897E+01
 1.4932751E+01  2.4854164E+01
 1.4944251E+01  2.4778164E+01
 1.4955750E+01  2.4693092E+01
 1.4967251E+01  2.4660004E+01
 1.4978751E+01  2.4691883E+01
 1.4990251E+01  2.4703503E+01
 1.5001751E+01  2.4732845E+01
 1.5013250E+01  2.4787258E+01
 1.5024751E+01  2.4842304E+01
 1.5036251E+01  2.4867243E+01
 1.5047750E+01  2.4875343E+01
 1.5059251E+01  2.4900166E+01
 1.5070751E+01  2.4870440E+01
 1.5082251E+01  2.4857281E+01
 1.5093751E+01  2.4825367E+01
 1.5105250E+01  2.4883568E+01
 1.5116751E+01  2.4879917E+01
 1.5128251E+01  2.4899265E+01
 1.5139750E+01  2.4951605E+01
 1.5151251E+01  2.5084740E+01
 1.5162751E+01  2.5174456E+01
 1.5174251E+01  2.5263721E+01
 1.5185751E+01  2.5270756E+01
 1.5197250E+01  2.5241026E+01
 1.5208751E+01  2.5204603E+01
 1.5220251E+01  2.5143465E+01
 1.5231750E+01  2.5114792E+01
 1.5243251E+01  2.4965549E+01
 1.5254751E+01  2.4886944E+01
 1.5266251E+01  2.4762772E+01
 1.5277751E+01  2.4655239E+01
 1.5289250E+01  2.4578405E+01
 1.5300751E+01  2.4480005E+01
 1.5312251E+01  2.4431255E+01
 1.5323750E+01  2.4367125E+01
 1.5335251E+01  2.4387255E+01
 1.5346751E+01  2.4388460E+01
 1.5358251E+01  2.4445368E+01
 1.5369751E+01  2.4441599E+01
 1.5381250E+01  2.4434963E+01
 1.5392751E+01  2.4465767E+01
 1.5404251E+01  2.4498796E+01
 1.5415751E+01  2.4527649E+01
 1.5427251E+01  2.4468967E+01
 1.5438751E+01  2.4442114E+01
 1.5450251E+01  2.4423466E+01
 1.5461751E+01  2.4419788E+01
 1.5473250E+01  2.4417521E+01
 1.5484751E+01  2.4416645E+01
 1.5496251E+01  2.4465849E+01
 1.5507751E+01  2.4480877E+01
 1.5519251E+01  2.4507830E+01
 1.5530751E+01  2.4448147E+01
 1.5542251E+01  2.4428690E+01
 1.5553751E+01  2.4453991E+01
 1.5565250E+01  2.4476070E+01
 1.5576751E+01  2.4506462E+01
 1.5588251E+01  2.4542072E+01
 1.5599751E+01  2.4595139E+01
 1.5611251E+01  2.4584133E+01
 1.5622751E+01  2.4566006E+01
 1.5634251E+01  2.4553421E+01
 1.5645751E+01  2.4565119E+01
 1.5657250E+01  2.4555832E+01
 1.5668751E+01  2.4574629E+01
 1.5680251E+01  2.4564760E+01
 1.5691751E+01  2.4585758E+01
 1.5703251E+01  2.4645590E+01
 1.5714751E+01  2.4687321E+01
 1.5726251E+01  2.4730354E+01
 1.5737751E+01  2.4686878E+01
 1.5749250E+01  2.4681711E+01
 1.5760751E+01  2.4628605E+01
 1.5772251E+01  2.4664112E+01
 1.5783751E+01  2.4617170E+01
 1.5795251E+01  2.4668919E+01
 1.5806751E+01  2.4693447E+01
 1.5818251E+01  2.4704563E+01
 1.5829751E+01  2.4616287E+01
 1.5841250E+01  2.4524342E+01
 1.5852751E+01  2.4533110E+01
 1.5864251E+01  2.4494637E+01
 1.5875751E+01  2.4486301E+01
 1.5887251E+01  2.4465487E+01
 1.5898750E+01  2.4503447E+01
 1.5910251E+01  2.4566504E+01
 1.5921751E+01  2.4541176E+01
 1.5933250E+01  2.4540852E+01
 1.5944751E+01  2.4426674E+01
 1.5956251E+01  2.4439533E+01
 1.5967751E+01  2.4453762E+01
 1.5979251E+01  2.4548923E+01
 1.5990750E+01  2.4606552E+01
 1.6002251E+01  2.4635006E+01
 1.6013750E+01  2.4666431E+01
 1.6025251E+01  2.4613951E+01
 1.6036751E+01  2.4607052E+01
 1.6048250E+01  2.4575155E+01
 1.6059752E+01  2.4662722E+01
 1.6071251E+01  2.4664032E+01
 1.6082750E+01  2.4745651E+01
 1.6094252E+01  2.4800428E+01
 1.6105751E+01  2.4923155E+01
 1.6117250E+01  2.4928152E+01
 1.6128750E+01  2.4903740E+01
 1.6140251E+01  2.4914902E+01
 1.6151751E+01  2.4902485E+01
 1.6163250E+01  2.5014469E+01
 1.6174751E+01  2.4963343E+01
 1.6186251E+01  2.5320486E+01
 1.6197750E+01  2.5248960E+01
 1.6209251E+01  2.6068459E+01
 1.6220751E+01  2.6204264E+01
 1.6232250E+01  2.7407602E+01
 1.6243752E+01  2.7862459E+01
 1.6255251E+01  2.8469034E+01
 1.6266750E+01  2.8448120E+01
 1.6278252E+01  2.7567587E+01
 1.6289751E+01  2.7223467E+01
 1.6301250E+01  2.5968658E+01
 1.6312750E+01  2.5861959E+01
 1.6324251E+01  2.5118273E+01
 1.6335751E+01  2.5092014E+01
 1.6347250E+01  2.4822905E+01
 1.6358751E+01  2.4768435E+01
 1.6370251E+01  2.4668629E+01
 1.6381750E+01  2.4580097E+01
 1.6393251E+01  2.4593275E+01
 1.6404751E+01  2.4624128E+01
 1.6416250E+01  2.4780388E+01
 1.6427752E+01  2.4785418E+01
 1.6439251E+01  2.4813753E+01
 1.6450750E+01  2.4758759E+01
 1.6462252E+01  2.4763323E+01
 1.6473751E+01  2.4730539E+01
 1.6485250E+01  2.4707634E+01
 1.6496750E+01  2.4695745E+01
 1.6508251E+01  2.4680462E+01
 1.6519751E+01  2.4678186E+01
 1.6531250E+01  2.4672695E+01
 1.6542751E+01  2.4712254E+01
 1.6554251E+01  2.4692287E+01
 1.6565750E+01  2.4682392E+01
 1.6577251E+01  2.4617918E+01
 1.6588751E+01  2.4604010E+01
 1.6600250E+01  2.4584452E+01
 1.6611752E+01  2.4605629E+01
 1.6623251E+01  2.4495211E+01
 1.6634750E+01  2.4477781E+01
 1.6646252E+01  2.4398018E+01
 1.6657751E+01  2.4414000E+01
 1.6669250E+01  2.4442057E+01
 1.6680750E+01  2.4456194E+01
 1.6692251E+01  2.4490162E+01
 1.6703751E+01  2.4512617E+01
 1.6715250E+01  2.4555685E+01
 1.6726751E+01  2.4573036E+01
 1.6738251E+01  2.4531883E+01
 1.6749750E+01  2.4593218E+01
 1.6761251E+01  2.4612459E+01
 1.6772751E+01  2.4624620E+01
 1.6784250E+01  2.4600250E+01
 1.6795752E+01  2.4564054E+01
 1.6807251E+01  2.4538399E+01
 1.6818750E+01  2.4446100E+01
 1.6830252E+01  2.4408562E+01
 1.6841751E+01  2.4373011E+01
 1.6853251E+01  2.4369593E+01
 1.6864750E+01  2.4339087E+01
 1.6876251E+01  2.4311007E+01
 1.6887751E+01  2.4255617E+01
 1.6899250E+01  2.4234980E+01
 1.6910751E+01  2.4256174E+01
 1.6922251E+01  2.4289444E+01
 1.6933750E+01  2.4312702E+01
 1.6945251E+01  2.4274530E+01
 1.6956751E+01  2.4242569E+01
 1.6968250E+01  2.4200319E+01
 1.6979752E+01  2.4187132E+01
 1.6991251E+01  2.4205853E+01
 1.7002750E+01  2.4201281E+01
 1.7014252E+01  2.4183987E+01
 1.7025751E+01  2.4159452E+01
 1.7037251E+01  2.4132395E+01
 1.7048750E+01  2.4090889E+01
 1.7060251E+01  2.4090828E+01
 1.7071751E+01  2.4155340E+01
 1.7083250E+01  2.4209349E+01
 1.7094751E+01  2.4273472E+01
 1.7106251E+01  2.4236946E+01
 1.7117750E+01  2.4157118E+01
 1.7129251E+01  2.4077179E+01
 1.7140751E+01  2.4032654E+01
 1.7152250E+01  2.4064098E+01
 1.7163752E+01  2.4028244E+01
 1.7175251E+01  2.3995287E+01
 1.7186750E+01  2.3980001E+01
 1.7198252E+01  2.3988300E+01
 1.7209751E+01  2.4042852E+01
 1.7221251E+01  2.4046679E+01
 1.7232750E+01  2.4077490E+01
 1.7244251E+01  2.4064453E+01
 1.7255751E+01  2.4032574E+01
 1.7267250E+01  2.4032787E+01
 1.7278751E+01  2.4050560E+01
 1.7290251E+01  2.4123278E+01
 1.7301750E+01  2.4161793E+01
 1.7313251E+01  2.4110081E+01
 1.7324751E+01  2.4094271E+01
 1.7336250E+01  2.4037697E+01
 1.7347752E+01  2.4017923E+01
 1.7359251E+01  2.3934769E+01
 1.7370750E+01  2.3899626E+01
 1.7382252E+01  2.3897251E+01
 1.7393751E+01  2.3876984E+01
 1.7405251E+01  2.3919857E+01
 1.7416750E+01  2.3928232E+01
 1.7428251E+01  2.4008327E+01
 1.7439751E+01  2.3986830E+01
 1.7451250E+01  2.3997503E+01
 1.7462751E+01  2.4000860E+01
 1.7474251E+01  2.4020746E+01
 1.7485750E+01  2.4053177E+01
 1.7497252E+01  2.4006376E+01
 1.7508751E+01  2.4022871E+01
 1.7520250E+01  2.3995153E+01
 1.7531752E+01  2.3994062E+01
 1.7543251E+01  2.3981224E+01
 1.7554750E+01  2.3901659E+01
 1.7566252E+01  2.3824989E+01
 1.7577751E+01  2.3745422E+01
 1.7589251E+01  2.3748127E+01
 1.7600750E+01  2.3842220E+01
 1.7612251E+01  2.3920427E+01
 1.7623751E+01  2.4021315E+01
 1.7635250E+01  2.4026648E+01
 1.7646751E+01  2.4001383E+01
 1.7658251E+01  2.3980122E+01
 1.7669750E+01  2.3904408E+01
 1.7681252E+01  2.3889833E+01
 1.7692751E+01  2.3808489E+01
 1.7704250E+01  2.3788494E+01
 1.7715752E+01  2.3728662E+01
 1.7727251E+01  2.3657814E+01
 1.7738750E+01  2.3642187E+01
 1.7750252E+01  2.3664167E+01
 1.7761751E+01  2.3745996E+01
 1.7773251E+01  2.3770258E+01
 1.7784750E+01  2.3745819E+01
 1.7796251E+01  2.3743803E+01
 1.7807751E+01  2.3749472E+01
 1.7819250E+01  2.3768431E+01
 1.7830751E+01  2.3711891E+01
 1.7842251E+01  2.3665398E+01
 1.7853750E+01  2.3577845E+01
 1.7865252E+01  2.3522758E+01
 1.7876751E+01  2.3511679E+01
 1.7888250E+01  2.3526949E+01
 1.7899752E+01  2.3580675E+01
 1.7911251E+01  2.3652374E+01
 1.7922750E+01  2.3722694E+01
 1.7934252E+01  2.3701870E+01
 1.7945751E+01  2.3672855E+01
 1.7957251E+01  2.3656860E+01
 1.7968750E+01  2.3667883E+01
 1.7980251E+01  2.3689528E+01
 1.7991751E+01  2.3744940E+01
 1.8003250E+01  2.3802589E+01
 1.8014751E+01  2.3812426E+01
 1.8026251E+01  2.3817434E+01
 1.8037750E+01  2.3869873E+01
 1.8049252E+01  2.3986214E+01
 1.8060751E+01  2.4091816E+01
 1.8072250E+01  2.4102928E+01
 1.8083752E+01  2.4147429E+01
 1.8095251E+01  2.4158665E+01
 1.8106750E+01  2.4201656E+01
 1.8118252E+01  2.4177053E+01
 1.8129751E+01  2.4115545E+01
 1.8141251E+01  2.4076666E+01
 1.8152750E+01  2.3938002E+01
 1.8164251E+01  2.3864460E+01
 1.8175751E+01  2.3732248E+01
 1.8187250E+01  2.3665554E+01
 1.8198751E+01  2.3607832E+01
 1.8210251E+01  2.3596893E+01
 1.8221750E+01  2.3554880E+01
 1.8233252E+01  2.3507200E+01
 1.8244751E+01  2.3518087E+01
 1.8256250E+01  2.3530544E+01
 1.8267752E+01  2.3502283E+01
 1.8279251E+01  2.3399006E+01
 1.8290751E+01  2.3444452E+01
 1.8302252E+01  2.3470921E+01
 1.8313751E+01  2.3499527E+01
 1.8325251E+01  2.3432697E+01
 1.8336750E+01  2.3435427E+01
 1.8348251E+01  2.3433735E+01
 1.8359751E+01  2.3532227E+01
 1.8371250E+01  2.3524714E+01
 1.8382751E+01  2.3553127E+01
 1.8394251E+01  2.3521408E+01
 1.8405750E+01  2.3556009E+01
 1.8417252E+01  2.3566771E+01
 1.8428751E+01  2.3537756E+01
 1.8440250E+01  2.3522472E+01
 1.8451752E+01  2.3486645E+01
 1.8463251E+01  2.3535681E+01
 1.8474751E+01  2.3548105E+01
 1.8486252E+01  2.3546068E+01
 1.8497751E+01  2.3520824E+01
 1.8509251E+01  2.3491985E+01
 1.8520750E+01  2.3456432E+01
 1.8532251E+01  2.3432741E+01
 1.8543751E+01  2.3433981E+01
 1.8555250E+01  2.3422878E+01
 1.8566751E+01  2.3441517E+01
 1.8578251E+01  2.3416035E+01
 1.8589750E+01  2.3459051E+01
 1.8601252E+01  2.3484983E+01
 1.8612751E+01  2.3519409E+01
 1.8624250E+01  2.3491280E+01
 1.8635752E+01  2.3492149E+01
 1.8647251E+01  2.3437637E+01
 1.8658751E+01  2.3442766E+01
 1.8670252E+01  2.3466385E+01
 1.8681751E+01  2.3580339E+01
 1.8693251E+01  2.3635660E+01
 1.8704750E+01  2.3661718E+01
 1.8716251E+01  2.3619123E+01
 1.8727751E+01  2.3608339E+01
 1.8739250E+01  2.3543558E+01
 1.8750751E+01  2.3528797E+01
 1.8762251E+01  2.3506041E+01
 1.8773750E+01  2.3511745E+01
 1.8785252E+01  2.3522875E+01
 1.8796751E+01  2.3540039E+01
 1.8808250E+01  2.3552544E+01
 1.8819752E+01  2.3503408E+01
 1.8831251E+01  2.3415178E+01
 1.8842751E+01  2.3344524E+01
 1.8854252E+01  2.3295008E+01
 1.8865751E+01  2.3356070E+01
 1.8877251E+01  2.3407879E+01
 1.8888750E+01  2.3451548E+01
 1.8900251E+01  2.3460743E+01
 1.8911751E+01  2.3493265E+01
 1.8923250E+01  2.3542578E+01
 1.8934752E+01  2.3595081E+01
 1.8946251E+01  2.3597567E+01
 1.8957750E+01  2.3562534E+01
 1.8969252E+01  2.3524309E+01
 1.8980751E+01  2.3518948E+01
 1.8992250E+01  2.3506857E+01
 1.9003752E+01  2.3492773E+01
 1.9015251E+01  2.3532965E+01
 1.9026751E+01  2.3596729E+01
 1.9038252E+01  2.3642525E+01
 1.9049751E+01  2.3611149E+01
 1.9061251E+01  2.3576485E+01
 1.9072750E+01  2.3540546E+01
 1.9084251E+01  2.3497301E+01
 1.9095751E+01  2.3462578E+01
 1.9107250E+01  2.3442570E+01
 1.9118752E+01  2.3456696E+01
 1.9130251E+01  2.3501122E+01
 1.9141750E+01  2.3505188E+01
 1.9153252E+01  2.3511093E+01
 1.9164751E+01  2.3474360E+01
 1.9176250E+01  2.3466892E+01
 1.9187752E+01  2.3450203E+01
 1.9199251E+01  2.3486652E+01
 1.9210751E+01  2.3514170E+01
 1.9222252E+01  2.3488358E+01
 1.9233751E+01  2.3487568E+01
 1.9245251E+01  2.3511501E+01
 1.9256750E+01  2.3551691E+01
 1.9268251E+01  2.3565098E+01
 1.9279751E+01  2.3551155E+01
 1.9291250E+01  2.3516678E+01
 1.9302752E+01  2.3511131E+01
 1.9314251E+01  2.3509047E+01
 1.9325750E+01  2.3501268E+01
 1.9337252E+01  2.3534281E+01
 1.9348751E+01  2.3536819E+01
 1.9360250E+01  2.3552849E+01
 1.9371752E+01  2.3541183E+01
 1.9383251E+01  2.3515968E+01
 1.9394751E+01  2.3537682E+01
 1.9406250E+01  2.3520836E+01
 1.9417751E+01  2.3499214E+01
 1.9429251E+01  2.3419338E+01
 1.9440750E+01  2.3396231E+01
 1.9452251E+01  2.3425642E+01
 1.9463751E+01  2.3452204E+01
 1.9475250E+01  2.3489769E+01
 1.9486752E+01  2.3481503E+01
 1.9498251E+01  2.3449469E+01
 1.9509750E+01  2.3432503E+01
 1.9521252E+01  2.3467108E+01
 1.9532751E+01  2.3533300E+01
 1.9544250E+01  2.3587091E+01
 1.9555752E+01  2.3578928E+01
 1.9567251E+01  2.3592485E+01
 1.9578751E+01  2.3642801E+01
 1.9590250E+01  2.3679377E+01
 1.9601751E+01  2.3745077E+01
 1.9613251E+01  2.3755886E+01
 1.9624750E+01  2.3842491E+01
 1.9636251E+01  2.3952919E+01
 1.9647751E+01  2.4091988E+01
 1.9659250E+01  2.4299395E+01
 1.9670752E+01  2.4595339E+01
 1.9682251E+01  2.4933924E+01
 1.9693750E+01  2.5451511E+01
 1.9705252E+01  2.5991068E+01
 1.9716751E+01  2.6519579E+01
 1.9728251E+01  2.6744946E+01
 1.9739752E+01  2.6732193E+01
 1.9751251E+01  2.6507252E+01
 1.9762751E+01  2.5898987E+01
 1.9774250E+01  2.5364822E+01
 1.9785751E+01  2.4819672E+01
 1.9797251E+01  2.4562822E+01
 1.9808750E+01  2.4413078E+01
 1.9820251E+01  2.4403040E+01
 1.9831751E+01  2.4570976E+01
 1.9843250E+01  2.4665257E+01
 1.9854752E+01  2.4778744E+01
 1.9866251E+01  2.4837040E+01
 1.9877750E+01  2.4868275E+01
 1.9889252E+01  2.4909922E+01
 1.9900751E+01  2.4793497E+01
 1.9912251E+01  2.4655237E+01
 1.9923752E+01  2.4315866E+01
 1.9935251E+01  2.4045765E+01
 1.9946751E+01  2.3882507E+01
 1.9958250E+01  2.3798412E+01
 1.9969751E+01  2.3800604E+01
 1.9981251E+01  2.3723907E+01
 1.9992750E+01  2.3729637E+01
 2.0004251E+01  2.3694679E+01
 2.0015751E+01  2.3738409E+01
 2.0027250E+01  2.3712498E+01
 2.0038752E+01  2.3726530E+01
 2.0050251E+01  2.3753206E+01
 2.0061750E+01  2.3709766E+01
 2.0073252E+01  2.3662134E+01
 2.0084751E+01  2.3601458E+01
 2.0096251E+01  2.3640305E+01
 2.0107752E+01  2.3603550E+01
 2.0119251E+01  2.3665400E+01
 2.0130751E+01  2.3663301E+01
 2.0142250E+01  2.3650688E+01
 2.0153751E+01  2.3616875E+01
 2.0165251E+01  2.3655943E+01
 2.0176750E+01  2.3690561E+01
 2.0188251E+01  2.3732054E+01
 2.0199751E+01  2.3681553E+01
 2.0211250E+01  2.3640638E+01
 2.0222752E+01  2.3608313E+01
 2.0234251E+01  2.3620331E+01
 2.0245750E+01  2.3615776E+01
 2.0257252E+01  2.3623362E+01
 2.0268751E+01  2.3611753E+01
 2.0280251E+01  2.3606508E+01
 2.0291752E+01  2.3581985E+01
 2.0303251E+01  2.3530706E+01
 2.0314751E+01  2.3485283E+01
 2.0326250E+01  2.3473869E+01
 2.0337751E+01  2.3514168E+01
 2.0349251E+01  2.3547628E+01
 2.0360750E+01  2.3559200E+01
 2.0372252E+01  2.3578255E+01
 2.0383751E+01  2.3591467E+01
 2.0395250E+01  2.3611385E+01
 2.0406752E+01  2.3621449E+01
 2.0418251E+01  2.3641905E+01
 2.0429750E+01  2.3639940E+01
 2.0441252E+01  2.3607908E+01
 2.0452751E+01  2.3625807E+01
 2.0464251E+01  2.3632553E+01
 2.0475752E+01  2.3743904E+01
 2.0487251E+01  2.3772011E+01
 2.0498751E+01  2.3801414E+01
 2.0510250E+01  2.3649611E+01
 2.0521751E+01  2.3563257E+01
 2.0533251E+01  2.3515106E+01
 2.0544750E+01  2.3506670E+01
 2.0556252E+01  2.3570477E+01
 2.0567751E+01  2.3594215E+01
 2.0579250E+01  2.3623117E+01
 2.0590752E+01  2.3690674E+01
 2.0602251E+01  2.3755829E+01
 2.0613750E+01  2.3809956E+01
 2.0625252E+01  2.3833931E+01
 2.0636751E+01  2.3866920E+01
 2.0648251E+01  2.3897905E+01
 2.0659752E+01  2.3911182E+01
 2.0671251E+01  2.3986259E+01
 2.0682751E+01  2.4041922E+01
 2.0694250E+01  2.4114552E+01
 2.0705751E+01  2.4206051E+01
 2.0717251E+01  2.4328867E+01
 2.0728750E+01  2.4483927E+01
 2.0740252E+01  2.4553867E+01
 2.0751751E+01  2.4715334E+01
 2.0763250E+01  2.4708681E+01
 2.0774752E+01  2.4716518E+01
 2.0786251E+01  2.4624105E+01
 2.0797750E+01  2.4551712E+01
 2.0809252E+01  2.4348295E+01
 2.0820751E+01  2.4131828E+01
 2.0832251E+01  2.3979448E+01
 2.0843752E+01  2.3870535E+01
 2.0855251E+01  2.3841990E+01
 2.0866751E+01  2.3820292E+01
 2.0878250E+01  2.3855013E+01
 2.0889751E+01  2.3910036E+01
 2.0901251E+01  2.3953905E+01
 2.0912750E+01  2.3965902E+01
 2.0924252E+01  2.3968187E+01
 2.0935751E+01  2.3954386E+01
 2.0947250E+01  2.3961555E+01
 2.0958752E+01  2.3936697E+01
 2.0970251E+01  2.3894178E+01
 2.0981750E+01  2.3822552E+01
 2.0993252E+01  2.3813875E+01
 2.1004751E+01  2.3875742E+01
 2.1016251E+01  2.3927433E+01
 2.1027752E+01  2.3973036E+01
 2.1039251E+01  2.3977291E+01
 2.1050751E+01  2.3952297E+01
 2.1062250E+01  2.3925737E+01
 2.1073751E+01  2.3940901E+01
 2.1085251E+01  2.3953644E+01
 2.1096750E+01  2.3881849E+01
 2.1108252E+01  2.3799696E+01
 2.1119751E+01  2.3768982E+01
 2.1131250E+01  2.3747269E+01
 2.1142752E+01  2.3719294E+01
 2.1154251E+01  2.3637053E+01
 2.1165751E+01  2.3593204E+01
 2.1177252E+01  2.3616091E+01
 2.1188751E+01  2.3659945E+01
 2.1200251E+01  2.3739073E+01
 2.1211752E+01  2.3801205E+01
 2.1223251E+01  2.3860481E+01
 2.1234751E+01  2.3852062E+01
 2.1246250E+01  2.3890553E+01
 2.1257751E+01  2.3913347E+01
 2.1269251E+01  2.3885134E+01
 2.1280750E+01  2.3850100E+01
 2.1292252E+01  2.3849222E+01
 2.1303751E+01  2.3796993E+01
 2.1315250E+01  2.3768944E+01
 2.1326752E+01  2.3811556E+01
 2.1338251E+01  2.3819843E+01
 2.1349751E+01  2.3842506E+01
 2.1361252E+01  2.3840544E+01
 2.1372751E+01  2.3860365E+01
 2.1384251E+01  2.3783478E+01
 2.1395752E+01  2.3806295E+01
 2.1407251E+01  2.3814163E+01
 2.1418751E+01  2.3876432E+01
 2.1430250E+01  2.3878448E+01
 2.1441751E+01  2.3850004E+01
 2.1453251E+01  2.3836641E+01
 2.1464750E+01  2.3841822E+01
 2.1476252E+01  2.3842932E+01
 2.1487751E+01  2.3871656E+01
 2.1499250E+01  2.3882206E+01
 2.1510752E+01  2.3878660E+01
 2.1522251E+01  2.3893463E+01
 2.1533751E+01  2.3914835E+01
 2.1545252E+01  2.3948528E+01
 2.1556751E+01  2.3968964E+01
 2.1568251E+01  2.3965467E+01
 2.1579752E+01  2.3994732E+01
 2.1591251E+01  2.4024078E+01
 2.1602751E+01  2.4029776E+01
 2.1614250E+01  2.3998243E+01
 2.1625751E+01  2.3978264E+01
 2.1637251E+01  2.3989658E+01
 2.1648750E+01  2.4008776E+01
 2.1660252E+01  2.4041368E+01
 2.1671751E+01  2.4097681E+01
 2.1683250E+01  2.4131657E+01
 2.1694752E+01  2.4147072E+01
 2.1706251E+01  2.4133757E+01
 2.1717751E+01  2.4136681E+01
 2.1729252E+01  2.4100018E+01
 2.1740751E+01  2.4086212E+01
 2.1752251E+01  2.4041880E+01
 2.1763752E+01  2.4028933E+01
 2.1775251E+01  2.4019249E+01
 2.1786751E+01  2.4081409E+01
 2.1798250E+01  2.4125727E+01
 2.1809752E+01  2.4175552E+01
 2.1821251E+01  2.4209118E+01
 2.1832750E+01  2.4182255E+01
 2.1844252E+01  2.4139467E+01
 2.1855751E+01  2.4101402E+01
 2.1867250E+01  2.4129244E+01
 2.1878752E+01  2.4147697E+01
 2.1890251E+01  2.4118473E+01
 2.1901751E+01  2.4130318E+01
 2.1913252E+01  2.4133183E+01
 2.1924751E+01  2.4144089E+01
 2.1936251E+01  2.4125643E+01
 2.1947752E+01  2.4139980E+01
 2.1959251E+01  2.4153128E+01
 2.1970751E+01  2.4220741E+01
 2.1982250E+01  2.4337463E+01
 2.1993752E+01  2.4309259E+01
 2.2005251E+01  2.4229939E+01
 2.2016750E+01  2.4154007E+01
 2.2028252E+01  2.4129448E+01
 2.2039751E+01  2.4118549E+01
 2.2051250E+01  2.4121307E+01
 2.2062752E+01  2.4084133E+01
 2.2074251E+01  2.4060514E+01
 2.2085751E+01  2.4102343E+01
 2.2097252E+01  2.4150230E+01
 2.2108751E+01  2.4233923E+01
 2.2120251E+01  2.4285986E+01
 2.2131752E+01  2.4331247E+01
 2.2143251E+01  2.4338499E+01
 2.2154751E+01  2.4355234E+01
 2.2166250E+01  2.4329124E+01
 2.2177752E+01  2.4348982E+01
 2.2189251E+01  2.4316137E+01
 2.2200750E+01  2.4325693E+01
 2.2212252E+01  2.4268257E+01
 2.2223751E+01  2.4236839E+01
 2.2235250E+01  2.4184710E+01
 2.2246752E+01  2.4187366E+01
 2.2258251E+01  2.4196991E+01
 2.2269751E+01  2.4213606E+01
 2.2281252E+01  2.4278486E+01
 2.2292751E+01  2.4357244E+01
 2.2304251E+01  2.4459259E+01
 2.2315752E+01  2.4453442E+01
 2.2327251E+01  2.4422117E+01
 2.2338751E+01  2.4366730E+01
 2.2350250E+01  2.4329109E+01
 2.2361752E+01  2.4304478E+01
 2.2373251E+01  2.4336958E+01
 2.2384750E+01  2.4416668E+01
 2.2396252E+01  2.4438185E+01
 2.2407751E+01  2.4453621E+01
 2.2419250E+01  2.4435261E+01
 2.2430752E+01  2.4451916E+01
 2.2442251E+01  2.4446241E+01
 2.2453751E+01  2.4486071E+01
 2.2465252E+01  2.4502764E+01
 2.2476751E+01  2.4487471E+01
 2.2488251E+01  2.4488104E+01
 2.2499752E+01  2.4495676E+01
 2.2511251E+01  2.4536226E+01
 2.2522751E+01  2.4587067E+01
 2.2534250E+01  2.4622925E+01
 2.2545752E+01  2.4682102E+01
 2.2557251E+01  2.4675901E+01
 2.2568750E+01  2.4654696E+01
 2.2580252E+01  2.4629200E+01
 2.2591751E+01  2.4655794E+01
 2.2603251E+01  2.4702787E+01
 2.2614752E+01  2.4783705E+01
 2.2626251E+01  2.4860340E+01
 2.2637751E+01  2.4876730E+01
 2.2649252E+01  2.4923191E+01
 2.2660751E+01  2.5014927E+01
 2.2672251E+01  2.5080278E+01
 2.2683752E+01  2.5115641E+01
 2.2695251E+01  2.5120977E+01
 2.2706751E+01  2.5167934E+01
 2.2718250E+01  2.5288275E+01
 2.2729752E+01  2.5347694E+01
 2.2741251E+01  2.5448420E+01
 2.2752750E+01  2.5528671E+01
 2.2764252E+01  2.5511539E+01
 2.2775751E+01  2.5403227E+01
 2.2787251E+01  2.5360275E+01
 2.2798752E+01  2.5323357E+01
 2.2810251E+01  2.5298126E+01
 2.2821751E+01  2.5373016E+01
 2.2833252E+01  2.5417942E+01
 2.2844751E+01  2.5421770E+01
 2.2856251E+01  2.5404219E+01
 2.2867750E+01  2.5439404E+01
 2.2879251E+01  2.5516964E+01
 2.2890751E+01  2.5599964E+01
 2.2902250E+01  2.5619877E+01
 2.2913752E+01  2.5760937E+01
 2.2925251E+01  2.5844736E+01
 2.2936750E+01  2.5885740E+01
 2.2948252E+01  2.5895897E+01
 2.2959751E+01  2.5908821E+01
 2.2971251E+01  2.6001827E+01
 2.2982752E+01  2.6042669E+01
 2.2994251E+01  2.6072458E+01
