F:\20151113_APS_34IDE\\Brian\Particle1\OCV\Data_0028.tif
2-Theta Angle (Degrees)
Intensity
       2000
 5.7500005E-03  0.0000000E+00
 1.7250001E-02  0.0000000E+00
 2.8750001E-02  0.0000000E+00
 4.0250003E-02  0.0000000E+00
 5.1750004E-02  0.0000000E+00
 6.3250005E-02  0.0000000E+00
 7.4750006E-02  0.0000000E+00
 8.6250007E-02  0.0000000E+00
 9.7750008E-02  0.0000000E+00
 1.0925001E-01  0.0000000E+00
 1.2075000E-01  0.0000000E+00
 1.3225001E-01  0.0000000E+00
 1.4375001E-01  0.0000000E+00
 1.5525001E-01  0.0000000E+00
 1.6675001E-01  0.0000000E+00
 1.7825001E-01  0.0000000E+00
 1.8975002E-01  0.0000000E+00
 2.0125002E-01  0.0000000E+00
 2.1275002E-01  0.0000000E+00
 2.2425000E-01  0.0000000E+00
 2.3575000E-01  0.0000000E+00
 2.4725001E-01  0.0000000E+00
 2.5875002E-01  0.0000000E+00
 2.7025002E-01  0.0000000E+00
 2.8175002E-01  0.0000000E+00
 2.9325002E-01  0.0000000E+00
 3.0475003E-01  0.0000000E+00
 3.1625003E-01  0.0000000E+00
 3.2775003E-01  0.0000000E+00
 3.3925003E-01  0.0000000E+00
 3.5075003E-01  0.0000000E+00
 3.6225003E-01  0.0000000E+00
 3.7375003E-01  0.0000000E+00
 3.8525003E-01  0.0000000E+00
 3.9675003E-01  0.0000000E+00
 4.0825003E-01  0.0000000E+00
 4.1975003E-01  0.0000000E+00
 4.3125004E-01  0.0000000E+00
 4.4275001E-01  0.0000000E+00
 4.5425001E-01  0.0000000E+00
 4.6575001E-01  0.0000000E+00
 4.7725001E-01  0.0000000E+00
 4.8875001E-01  0.0000000E+00
 5.0025004E-01  0.0000000E+00
 5.1175004E-01  0.0000000E+00
 5.2325004E-01  0.0000000E+00
 5.3475004E-01  0.0000000E+00
 5.4625005E-01  0.0000000E+00
 5.5775005E-01  0.0000000E+00
 5.6925005E-01  0.0000000E+00
 5.8075005E-01  0.0000000E+00
 5.9225005E-01  0.0000000E+00
 6.0375005E-01  0.0000000E+00
 6.1525005E-01  0.0000000E+00
 6.2675005E-01  0.0000000E+00
 6.3825005E-01  0.0000000E+00
 6.4975005E-01  0.0000000E+00
 6.6125005E-01  0.0000000E+00
 6.7275006E-01  0.0000000E+00
 6.8425006E-01  0.0000000E+00
 6.9575006E-01  0.0000000E+00
 7.0725006E-01  0.0000000E+00
 7.1875006E-01  0.0000000E+00
 7.3025006E-01  0.0000000E+00
 7.4175006E-01  0.0000000E+00
 7.5325006E-01  0.0000000E+00
 7.6475006E-01  0.0000000E+00
 7.7625006E-01  0.0000000E+00
 7.8775007E-01  0.0000000E+00
 7.9925007E-01  0.0000000E+00
 8.1075007E-01  0.0000000E+00
 8.2225007E-01  0.0000000E+00
 8.3375007E-01  0.0000000E+00
 8.4525007E-01  0.0000000E+00
 8.5675007E-01  0.0000000E+00
 8.6825007E-01  0.0000000E+00
 8.7975001E-01  0.0000000E+00
 8.9125001E-01  0.0000000E+00
 9.0275002E-01  0.0000000E+00
 9.1425002E-01  0.0000000E+00
 9.2575002E-01  0.0000000E+00
 9.3725002E-01  0.0000000E+00
 9.4875002E-01  0.0000000E+00
 9.6025002E-01  0.0000000E+00
 9.7175002E-01  0.0000000E+00
 9.8325002E-01  0.0000000E+00
 9.9475002E-01  0.0000000E+00
 1.0062500E+00  0.0000000E+00
 1.0177500E+00  0.0000000E+00
 1.0292500E+00  0.0000000E+00
 1.0407500E+00  0.0000000E+00
 1.0522500E+00  0.0000000E+00
 1.0637500E+00  0.0000000E+00
 1.0752500E+00  0.0000000E+00
 1.0867500E+00  0.0000000E+00
 1.0982500E+00  0.0000000E+00
 1.1097500E+00  0.0000000E+00
 1.1212500E+00  0.0000000E+00
 1.1327500E+00  0.0000000E+00
 1.1442500E+00  0.0000000E+00
 1.1557500E+00  0.0000000E+00
 1.1672500E+00  0.0000000E+00
 1.1787500E+00  0.0000000E+00
 1.1902500E+00  0.0000000E+00
 1.2017500E+00  0.0000000E+00
 1.2132500E+00  0.0000000E+00
 1.2247500E+00  0.0000000E+00
 1.2362500E+00  0.0000000E+00
 1.2477500E+00  0.0000000E+00
 1.2592500E+00  0.0000000E+00
 1.2707500E+00  0.0000000E+00
 1.2822500E+00  0.0000000E+00
 1.2937500E+00  0.0000000E+00
 1.3052500E+00  0.0000000E+00
 1.3167500E+00  0.0000000E+00
 1.3282501E+00  0.0000000E+00
 1.3397501E+00  0.0000000E+00
 1.3512501E+00  0.0000000E+00
 1.3627501E+00  0.0000000E+00
 1.3742501E+00  0.0000000E+00
 1.3857501E+00  0.0000000E+00
 1.3972501E+00  0.0000000E+00
 1.4087501E+00  0.0000000E+00
 1.4202501E+00  0.0000000E+00
 1.4317501E+00  0.0000000E+00
 1.4432501E+00  0.0000000E+00
 1.4547501E+00  0.0000000E+00
 1.4662501E+00  0.0000000E+00
 1.4777501E+00  0.0000000E+00
 1.4892501E+00  0.0000000E+00
 1.5007501E+00  0.0000000E+00
 1.5122501E+00  0.0000000E+00
 1.5237501E+00  0.0000000E+00
 1.5352501E+00  0.0000000E+00
 1.5467501E+00  0.0000000E+00
 1.5582501E+00  0.0000000E+00
 1.5697501E+00  0.0000000E+00
 1.5812501E+00  0.0000000E+00
 1.5927501E+00  0.0000000E+00
 1.6042501E+00  0.0000000E+00
 1.6157501E+00  0.0000000E+00
 1.6272501E+00  0.0000000E+00
 1.6387501E+00  0.0000000E+00
 1.6502501E+00  0.0000000E+00
 1.6617501E+00  0.0000000E+00
 1.6732501E+00  0.0000000E+00
 1.6847501E+00  0.0000000E+00
 1.6962501E+00  0.0000000E+00
 1.7077501E+00  0.0000000E+00
 1.7192501E+00  0.0000000E+00
 1.7307501E+00  0.0000000E+00
 1.7422501E+00  0.0000000E+00
 1.7537501E+00  0.0000000E+00
 1.7652501E+00  0.0000000E+00
 1.7767501E+00  0.0000000E+00
 1.7882501E+00  0.0000000E+00
 1.7997501E+00  0.0000000E+00
 1.8112501E+00  0.0000000E+00
 1.8227501E+00  0.0000000E+00
 1.8342501E+00  0.0000000E+00
 1.8457501E+00  0.0000000E+00
 1.8572501E+00  0.0000000E+00
 1.8687501E+00  0.0000000E+00
 1.8802501E+00  0.0000000E+00
 1.8917501E+00  0.0000000E+00
 1.9032501E+00  0.0000000E+00
 1.9147501E+00  0.0000000E+00
 1.9262501E+00  0.0000000E+00
 1.9377501E+00  0.0000000E+00
 1.9492501E+00  0.0000000E+00
 1.9607501E+00  0.0000000E+00
 1.9722501E+00  0.0000000E+00
 1.9837501E+00  0.0000000E+00
 1.9952501E+00  0.0000000E+00
 2.0067501E+00  0.0000000E+00
 2.0182500E+00  0.0000000E+00
 2.0297501E+00  0.0000000E+00
 2.0412500E+00  0.0000000E+00
 2.0527501E+00  0.0000000E+00
 2.0642500E+00  0.0000000E+00
 2.0757501E+00  0.0000000E+00
 2.0872500E+00  0.0000000E+00
 2.0987501E+00  0.0000000E+00
 2.1102500E+00  0.0000000E+00
 2.1217501E+00  0.0000000E+00
 2.1332500E+00  0.0000000E+00
 2.1447501E+00  0.0000000E+00
 2.1562500E+00  0.0000000E+00
 2.1677501E+00  0.0000000E+00
 2.1792500E+00  0.0000000E+00
 2.1907501E+00  0.0000000E+00
 2.2022500E+00  0.0000000E+00
 2.2137501E+00  0.0000000E+00
 2.2252500E+00  0.0000000E+00
 2.2367501E+00  0.0000000E+00
 2.2482500E+00  0.0000000E+00
 2.2597501E+00  0.0000000E+00
 2.2712500E+00  0.0000000E+00
 2.2827501E+00  0.0000000E+00
 2.2942500E+00  0.0000000E+00
 2.3057501E+00  0.0000000E+00
 2.3172500E+00  0.0000000E+00
 2.3287501E+00  0.0000000E+00
 2.3402500E+00  0.0000000E+00
 2.3517501E+00  0.0000000E+00
 2.3632500E+00  0.0000000E+00
 2.3747501E+00  0.0000000E+00
 2.3862500E+00  0.0000000E+00
 2.3977501E+00  0.0000000E+00
 2.4092500E+00  0.0000000E+00
 2.4207501E+00  0.0000000E+00
 2.4322500E+00  0.0000000E+00
 2.4437501E+00  0.0000000E+00
 2.4552500E+00  0.0000000E+00
 2.4667501E+00  0.0000000E+00
 2.4782500E+00  0.0000000E+00
 2.4897501E+00  0.0000000E+00
 2.5012500E+00  0.0000000E+00
 2.5127501E+00  0.0000000E+00
 2.5242500E+00  0.0000000E+00
 2.5357502E+00  0.0000000E+00
 2.5472500E+00  0.0000000E+00
 2.5587502E+00  0.0000000E+00
 2.5702500E+00  0.0000000E+00
 2.5817502E+00  0.0000000E+00
 2.5932500E+00  0.0000000E+00
 2.6047502E+00  0.0000000E+00
 2.6162500E+00  0.0000000E+00
 2.6277502E+00  0.0000000E+00
 2.6392500E+00  0.0000000E+00
 2.6507502E+00  0.0000000E+00
 2.6622500E+00  0.0000000E+00
 2.6737502E+00  0.0000000E+00
 2.6852500E+00  0.0000000E+00
 2.6967502E+00  0.0000000E+00
 2.7082500E+00  0.0000000E+00
 2.7197502E+00  0.0000000E+00
 2.7312500E+00  0.0000000E+00
 2.7427502E+00  0.0000000E+00
 2.7542500E+00  0.0000000E+00
 2.7657502E+00  0.0000000E+00
 2.7772501E+00  0.0000000E+00
 2.7887502E+00  0.0000000E+00
 2.8002501E+00  0.0000000E+00
 2.8117502E+00  0.0000000E+00
 2.8232501E+00  3.1385637E+01
 2.8347502E+00  3.1984083E+01
 2.8462501E+00  3.2450905E+01
 2.8577502E+00  3.3338867E+01
 2.8692501E+00  3.3825912E+01
 2.8807502E+00  3.3949257E+01
 2.8922501E+00  3.4263580E+01
 2.9037502E+00  3.4701000E+01
 2.9152501E+00  3.5324192E+01
 2.9267502E+00  3.5107117E+01
 2.9382501E+00  3.5142056E+01
 2.9497502E+00  3.5647564E+01
 2.9612501E+00  3.5833374E+01
 2.9727502E+00  3.5980473E+01
 2.9842501E+00  3.5975773E+01
 2.9957502E+00  3.6592014E+01
 3.0072501E+00  3.6932709E+01
 3.0187502E+00  3.7260246E+01
 3.0302501E+00  3.6728222E+01
 3.0417502E+00  3.6640507E+01
 3.0532501E+00  3.5839970E+01
 3.0647502E+00  3.5600960E+01
 3.0762501E+00  3.5202911E+01
 3.0877502E+00  3.5215305E+01
 3.0992501E+00  3.4980457E+01
 3.1107502E+00  3.4878952E+01
 3.1222501E+00  3.4473583E+01
 3.1337502E+00  3.4833706E+01
 3.1452501E+00  3.4844521E+01
 3.1567502E+00  3.5256184E+01
 3.1682501E+00  3.5441067E+01
 3.1797502E+00  3.5818279E+01
 3.1912501E+00  3.6101479E+01
 3.2027502E+00  3.6101803E+01
 3.2142501E+00  3.6076546E+01
 3.2257502E+00  3.6399353E+01
 3.2372501E+00  3.6057594E+01
 3.2487502E+00  3.5888527E+01
 3.2602501E+00  3.5501133E+01
 3.2717502E+00  3.5231647E+01
 3.2832501E+00  3.5149315E+01
 3.2947502E+00  3.4703220E+01
 3.3062501E+00  3.4496861E+01
 3.3177502E+00  3.4086967E+01
 3.3292501E+00  3.4210323E+01
 3.3407502E+00  3.4098152E+01
 3.3522501E+00  3.4304447E+01
 3.3637502E+00  3.3951778E+01
 3.3752501E+00  3.4202290E+01
 3.3867502E+00  3.4197346E+01
 3.3982501E+00  3.4341183E+01
 3.4097502E+00  3.4381512E+01
 3.4212501E+00  3.4211502E+01
 3.4327502E+00  3.4253819E+01
 3.4442501E+00  3.4024826E+01
 3.4557502E+00  3.4120132E+01
 3.4672501E+00  3.4112629E+01
 3.4787502E+00  3.4226418E+01
 3.4902501E+00  3.4231041E+01
 3.5017502E+00  3.4089352E+01
 3.5132501E+00  3.3790398E+01
 3.5247502E+00  3.3622616E+01
 3.5362501E+00  3.3478695E+01
 3.5477502E+00  3.3463013E+01
 3.5592501E+00  3.3439831E+01
 3.5707502E+00  3.3485054E+01
 3.5822501E+00  3.3686451E+01
 3.5937502E+00  3.3905945E+01
 3.6052501E+00  3.4014492E+01
 3.6167502E+00  3.4055050E+01
 3.6282501E+00  3.4243637E+01
 3.6397502E+00  3.4098000E+01
 3.6512501E+00  3.4140530E+01
 3.6627502E+00  3.3856091E+01
 3.6742501E+00  3.3817471E+01
 3.6857502E+00  3.3747509E+01
 3.6972501E+00  3.3697433E+01
 3.7087502E+00  3.3571587E+01
 3.7202501E+00  3.3571957E+01
 3.7317502E+00  3.3476574E+01
 3.7432501E+00  3.3541500E+01
 3.7547503E+00  3.3452335E+01
 3.7662501E+00  3.3343578E+01
 3.7777503E+00  3.3183231E+01
 3.7892501E+00  3.3126743E+01
 3.8007503E+00  3.2831295E+01
 3.8122501E+00  3.2907619E+01
 3.8237503E+00  3.2668236E+01
 3.8352501E+00  3.2835815E+01
 3.8467503E+00  3.2922718E+01
 3.8582501E+00  3.3212852E+01
 3.8697503E+00  3.3097836E+01
 3.8812501E+00  3.3044071E+01
 3.8927503E+00  3.2726429E+01
 3.9042501E+00  3.2778904E+01
 3.9157503E+00  3.2580845E+01
 3.9272501E+00  3.2686432E+01
 3.9387503E+00  3.2759853E+01
 3.9502501E+00  3.2953957E+01
 3.9617503E+00  3.3164314E+01
 3.9732502E+00  3.3419296E+01
 3.9847503E+00  3.3510014E+01
 3.9962502E+00  3.3692711E+01
 4.0077500E+00  3.3511082E+01
 4.0192504E+00  3.3394623E+01
 4.0307503E+00  3.3067287E+01
 4.0422502E+00  3.2961262E+01
 4.0537500E+00  3.2939823E+01
 4.0652504E+00  3.2902771E+01
 4.0767503E+00  3.2837296E+01
 4.0882502E+00  3.2785679E+01
 4.0997500E+00  3.2824974E+01
 4.1112504E+00  3.2722153E+01
 4.1227503E+00  3.2597107E+01
 4.1342502E+00  3.2567280E+01
 4.1457500E+00  3.2618980E+01
 4.1572504E+00  3.2731274E+01
 4.1687503E+00  3.2614433E+01
 4.1802502E+00  3.2425900E+01
 4.1917500E+00  3.2442680E+01
 4.2032504E+00  3.2291504E+01
 4.2147503E+00  3.2218719E+01
 4.2262502E+00  3.2063068E+01
 4.2377501E+00  3.2145023E+01
 4.2492504E+00  3.2153473E+01
 4.2607503E+00  3.2439182E+01
 4.2722502E+00  3.2522247E+01
 4.2837501E+00  3.2881290E+01
 4.2952504E+00  3.2823475E+01
 4.3067503E+00  3.2779991E+01
 4.3182502E+00  3.2742626E+01
 4.3297501E+00  3.2607826E+01
 4.3412504E+00  3.2591812E+01
 4.3527503E+00  3.2428246E+01
 4.3642502E+00  3.2712517E+01
 4.3757501E+00  3.2880680E+01
 4.3872504E+00  3.3085812E+01
 4.3987503E+00  3.3022701E+01
 4.4102502E+00  3.2981773E+01
 4.4217501E+00  3.2967514E+01
 4.4332504E+00  3.2858570E+01
 4.4447503E+00  3.2782967E+01
 4.4562502E+00  3.2685547E+01
 4.4677501E+00  3.2693165E+01
 4.4792504E+00  3.2895241E+01
 4.4907503E+00  3.2961372E+01
 4.5022502E+00  3.3117027E+01
 4.5137501E+00  3.3002563E+01
 4.5252504E+00  3.2969589E+01
 4.5367503E+00  3.2938656E+01
 4.5482502E+00  3.2942532E+01
 4.5597501E+00  3.2857704E+01
 4.5712504E+00  3.2814781E+01
 4.5827503E+00  3.2843231E+01
 4.5942502E+00  3.2972729E+01
 4.6057501E+00  3.3023357E+01
 4.6172504E+00  3.3053028E+01
 4.6287503E+00  3.2928619E+01
 4.6402502E+00  3.2941055E+01
 4.6517501E+00  3.2846508E+01
 4.6632504E+00  3.3013348E+01
 4.6747503E+00  3.3077698E+01
 4.6862502E+00  3.3329304E+01
 4.6977501E+00  3.3427570E+01
 4.7092505E+00  3.3459988E+01
 4.7207503E+00  3.3329674E+01
 4.7322502E+00  3.3126804E+01
 4.7437501E+00  3.2912998E+01
 4.7552505E+00  3.2701462E+01
 4.7667503E+00  3.2652985E+01
 4.7782502E+00  3.2630630E+01
 4.7897501E+00  3.2749115E+01
 4.8012505E+00  3.2798355E+01
 4.8127503E+00  3.2907631E+01
 4.8242502E+00  3.2935719E+01
 4.8357501E+00  3.2934795E+01
 4.8472505E+00  3.2942951E+01
 4.8587503E+00  3.3041161E+01
 4.8702502E+00  3.3010021E+01
 4.8817501E+00  3.2978043E+01
 4.8932505E+00  3.2979809E+01
 4.9047503E+00  3.2984512E+01
 4.9162502E+00  3.3055809E+01
 4.9277501E+00  3.2970192E+01
 4.9392505E+00  3.2949474E+01
 4.9507504E+00  3.3016594E+01
 4.9622502E+00  3.3105930E+01
 4.9737501E+00  3.3340519E+01
 4.9852505E+00  3.3458652E+01
 4.9967504E+00  3.3556034E+01
 5.0082502E+00  3.3516579E+01
 5.0197501E+00  3.3404545E+01
 5.0312505E+00  3.3408569E+01
 5.0427504E+00  3.3364643E+01
 5.0542502E+00  3.3454800E+01
 5.0657501E+00  3.3475056E+01
 5.0772505E+00  3.3595703E+01
 5.0887504E+00  3.3579674E+01
 5.1002502E+00  3.3635738E+01
 5.1117501E+00  3.3552765E+01
 5.1232505E+00  3.3631767E+01
 5.1347504E+00  3.3707771E+01
 5.1462502E+00  3.3817841E+01
 5.1577501E+00  3.3815495E+01
 5.1692505E+00  3.3812912E+01
 5.1807504E+00  3.3830246E+01
 5.1922503E+00  3.4115723E+01
 5.2037501E+00  3.4246723E+01
 5.2152505E+00  3.4333126E+01
 5.2267504E+00  3.4223602E+01
 5.2382503E+00  3.4193886E+01
 5.2497501E+00  3.4176945E+01
 5.2612505E+00  3.4160240E+01
 5.2727504E+00  3.4134033E+01
 5.2842503E+00  3.4172295E+01
 5.2957501E+00  3.4345272E+01
 5.3072500E+00  3.4568890E+01
 5.3187504E+00  3.4800056E+01
 5.3302503E+00  3.4924484E+01
 5.3417501E+00  3.4902802E+01
 5.3532500E+00  3.4958179E+01
 5.3647504E+00  3.4924397E+01
 5.3762503E+00  3.4975342E+01
 5.3877501E+00  3.5084095E+01
 5.3992500E+00  3.5155846E+01
 5.4107504E+00  3.5292244E+01
 5.4222503E+00  3.5213776E+01
 5.4337502E+00  3.5110737E+01
 5.4452500E+00  3.5080883E+01
 5.4567504E+00  3.4999207E+01
 5.4682503E+00  3.5022911E+01
 5.4797502E+00  3.5024883E+01
 5.4912500E+00  3.5020374E+01
 5.5027504E+00  3.5123974E+01
 5.5142503E+00  3.5207954E+01
 5.5257502E+00  3.5298729E+01
 5.5372500E+00  3.5238739E+01
 5.5487504E+00  3.5324665E+01
 5.5602503E+00  3.5348358E+01
 5.5717502E+00  3.5510117E+01
 5.5832500E+00  3.5542236E+01
 5.5947504E+00  3.5586967E+01
 5.6062503E+00  3.5650230E+01
 5.6177502E+00  3.5626144E+01
 5.6292500E+00  3.5584824E+01
 5.6407504E+00  3.5547024E+01
 5.6522503E+00  3.5525997E+01
 5.6637502E+00  3.5678715E+01
 5.6752501E+00  3.5725937E+01
 5.6867504E+00  3.5892670E+01
 5.6982503E+00  3.5878258E+01
 5.7097502E+00  3.5973263E+01
 5.7212501E+00  3.5993252E+01
 5.7327504E+00  3.6163624E+01
 5.7442503E+00  3.6222649E+01
 5.7557502E+00  3.6266705E+01
 5.7672501E+00  3.6294537E+01
 5.7787504E+00  3.6372189E+01
 5.7902503E+00  3.6397518E+01
 5.8017502E+00  3.6462543E+01
 5.8132501E+00  3.6477238E+01
 5.8247504E+00  3.6584251E+01
 5.8362503E+00  3.6695518E+01
 5.8477502E+00  3.6838924E+01
 5.8592501E+00  3.6936668E+01
 5.8707504E+00  3.7174316E+01
 5.8822503E+00  3.7436749E+01
 5.8937502E+00  3.8153599E+01
 5.9052501E+00  3.8842606E+01
 5.9167504E+00  3.9700321E+01
 5.9282503E+00  4.2271076E+01
 5.9397502E+00  4.5008236E+01
 5.9512501E+00  4.7297405E+01
 5.9627504E+00  5.6115299E+01
 5.9742503E+00  5.9130970E+01
 5.9857502E+00  6.1528667E+01
 5.9972501E+00  5.9490437E+01
 6.0087504E+00  5.5388973E+01
 6.0202503E+00  5.2512138E+01
 6.0317502E+00  4.6027668E+01
 6.0432501E+00  4.3038422E+01
 6.0547504E+00  4.1459053E+01
 6.0662503E+00  3.9292747E+01
 6.0777502E+00  3.8754616E+01
 6.0892501E+00  3.8270699E+01
 6.1007504E+00  3.7999470E+01
 6.1122503E+00  3.7907055E+01
 6.1237502E+00  3.7836166E+01
 6.1352501E+00  3.7708626E+01
 6.1467505E+00  3.7573608E+01
 6.1582503E+00  3.7557484E+01
 6.1697502E+00  3.7478779E+01
 6.1812501E+00  3.7597061E+01
 6.1927505E+00  3.7682392E+01
 6.2042503E+00  3.7706985E+01
 6.2157502E+00  3.7770016E+01
 6.2272501E+00  3.7787804E+01
 6.2387505E+00  3.7790855E+01
 6.2502503E+00  3.7884136E+01
 6.2617502E+00  3.7848240E+01
 6.2732501E+00  3.7959774E+01
 6.2847505E+00  3.8063751E+01
 6.2962503E+00  3.8153046E+01
 6.3077502E+00  3.8254181E+01
 6.3192501E+00  3.8273552E+01
 6.3307505E+00  3.8432243E+01
 6.3422503E+00  3.8500004E+01
 6.3537502E+00  3.8595692E+01
 6.3652501E+00  3.8584667E+01
 6.3767505E+00  3.8591385E+01
 6.3882504E+00  3.8610252E+01
 6.3997502E+00  3.8740543E+01
 6.4112501E+00  3.8823689E+01
 6.4227505E+00  3.8973129E+01
 6.4342504E+00  3.9018147E+01
 6.4457502E+00  3.9151356E+01
 6.4572501E+00  3.9102383E+01
 6.4687505E+00  3.9105358E+01
 6.4802504E+00  3.9050949E+01
 6.4917502E+00  3.9246227E+01
 6.5032501E+00  3.9380573E+01
 6.5147505E+00  3.9567524E+01
 6.5262504E+00  3.9645714E+01
 6.5377502E+00  3.9662926E+01
 6.5492501E+00  3.9669891E+01
 6.5607505E+00  3.9632866E+01
 6.5722504E+00  3.9640556E+01
 6.5837502E+00  3.9739613E+01
 6.5952501E+00  3.9720100E+01
 6.6067505E+00  3.9731472E+01
 6.6182504E+00  3.9759235E+01
 6.6297503E+00  3.9992409E+01
 6.6412501E+00  4.0151588E+01
 6.6527505E+00  4.0362514E+01
 6.6642504E+00  4.0435665E+01
 6.6757503E+00  4.0556610E+01
 6.6872501E+00  4.0597492E+01
 6.6987505E+00  4.0679295E+01
 6.7102504E+00  4.0810947E+01
 6.7217503E+00  4.0973602E+01
 6.7332501E+00  4.1025173E+01
 6.7447505E+00  4.1134647E+01
 6.7562504E+00  4.1201508E+01
 6.7677503E+00  4.1302200E+01
 6.7792501E+00  4.1331039E+01
 6.7907505E+00  4.1281429E+01
 6.8022504E+00  4.1430504E+01
 6.8137503E+00  4.1543686E+01
 6.8252501E+00  4.1643543E+01
 6.8367505E+00  4.1727161E+01
 6.8482504E+00  4.1830479E+01
 6.8597503E+00  4.1925354E+01
 6.8712502E+00  4.1971722E+01
 6.8827505E+00  4.2051849E+01
 6.8942504E+00  4.2080360E+01
 6.9057503E+00  4.2129303E+01
 6.9172502E+00  4.2092213E+01
 6.9287505E+00  4.2135780E+01
 6.9402504E+00  4.2177235E+01
 6.9517503E+00  4.2185204E+01
 6.9632502E+00  4.2245544E+01
 6.9747505E+00  4.2358383E+01
 6.9862504E+00  4.2569706E+01
 6.9977503E+00  4.2755398E+01
 7.0092502E+00  4.2828369E+01
 7.0207505E+00  4.2920807E+01
 7.0322504E+00  4.3055470E+01
 7.0437503E+00  4.3287773E+01
 7.0552502E+00  4.3478889E+01
 7.0667505E+00  4.3544647E+01
 7.0782504E+00  4.3493797E+01
 7.0897503E+00  4.3428402E+01
 7.1012502E+00  4.3435612E+01
 7.1127505E+00  4.3532459E+01
 7.1242504E+00  4.3664940E+01
 7.1357503E+00  4.3801308E+01
 7.1472502E+00  4.3906124E+01
 7.1587505E+00  4.3934944E+01
 7.1702504E+00  4.3927818E+01
 7.1817503E+00  4.3917709E+01
 7.1932502E+00  4.3979485E+01
 7.2047505E+00  4.3983688E+01
 7.2162504E+00  4.4011982E+01
 7.2277503E+00  4.3994179E+01
 7.2392502E+00  4.4070484E+01
 7.2507505E+00  4.4137291E+01
 7.2622504E+00  4.4157871E+01
 7.2737503E+00  4.4177425E+01
 7.2852502E+00  4.4118114E+01
 7.2967505E+00  4.4177750E+01
 7.3082504E+00  4.4134045E+01
 7.3197503E+00  4.4172188E+01
 7.3312502E+00  4.4121792E+01
 7.3427505E+00  4.4113411E+01
 7.3542504E+00  4.4153469E+01
 7.3657503E+00  4.4153736E+01
 7.3772502E+00  4.4243553E+01
 7.3887506E+00  4.4223492E+01
 7.4002504E+00  4.4277500E+01
 7.4117503E+00  4.4364010E+01
 7.4232502E+00  4.4424053E+01
 7.4347506E+00  4.4494560E+01
 7.4462504E+00  4.4613277E+01
 7.4577503E+00  4.4737446E+01
 7.4692502E+00  4.4965397E+01
 7.4807506E+00  4.4916889E+01
 7.4922504E+00  4.4891838E+01
 7.5037503E+00  4.4778179E+01
 7.5152502E+00  4.4739964E+01
 7.5267506E+00  4.4652924E+01
 7.5382504E+00  4.4654198E+01
 7.5497503E+00  4.4606674E+01
 7.5612502E+00  4.4684090E+01
 7.5727506E+00  4.4701443E+01
 7.5842505E+00  4.4801327E+01
 7.5957503E+00  4.4872581E+01
 7.6072502E+00  4.4924641E+01
 7.6187506E+00  4.4999001E+01
 7.6302505E+00  4.5019852E+01
 7.6417503E+00  4.4995892E+01
 7.6532502E+00  4.4876293E+01
 7.6647506E+00  4.4842495E+01
 7.6762505E+00  4.4743111E+01
 7.6877503E+00  4.4758453E+01
 7.6992502E+00  4.4809708E+01
 7.7107506E+00  4.4841820E+01
 7.7222505E+00  4.4976864E+01
 7.7337503E+00  4.5061001E+01
 7.7452502E+00  4.5133831E+01
 7.7567506E+00  4.5186333E+01
 7.7682505E+00  4.5071011E+01
 7.7797503E+00  4.5097103E+01
 7.7912502E+00  4.5041508E+01
 7.8027506E+00  4.4984146E+01
 7.8142505E+00  4.4976402E+01
 7.8257504E+00  4.4896114E+01
 7.8372502E+00  4.4924374E+01
 7.8487506E+00  4.4928940E+01
 7.8602505E+00  4.4921211E+01
 7.8717504E+00  4.4872166E+01
 7.8832502E+00  4.4676785E+01
 7.8947506E+00  4.4548313E+01
 7.9062505E+00  4.4537510E+01
 7.9177504E+00  4.4529350E+01
 7.9292502E+00  4.4508907E+01
 7.9407506E+00  4.4402439E+01
 7.9522505E+00  4.4344093E+01
 7.9637504E+00  4.4228325E+01
 7.9752502E+00  4.4090538E+01
 7.9867506E+00  4.3978165E+01
 7.9982505E+00  4.3932270E+01
 8.0097504E+00  4.3886932E+01
 8.0212507E+00  4.3926327E+01
 8.0327501E+00  4.3759491E+01
 8.0442505E+00  4.3739101E+01
 8.0557508E+00  4.3506729E+01
 8.0672503E+00  4.3450214E+01
 8.0787506E+00  4.3288815E+01
 8.0902500E+00  4.3217678E+01
 8.1017504E+00  4.3143330E+01
 8.1132507E+00  4.3110989E+01
 8.1247501E+00  4.3040508E+01
 8.1362505E+00  4.3010128E+01
 8.1477509E+00  4.2906616E+01
 8.1592503E+00  4.2801079E+01
 8.1707506E+00  4.2673023E+01
 8.1822500E+00  4.2499260E+01
 8.1937504E+00  4.2422989E+01
 8.2052507E+00  4.2371609E+01
 8.2167501E+00  4.2386444E+01
 8.2282505E+00  4.2424206E+01
 8.2397509E+00  4.2363297E+01
 8.2512503E+00  4.2212463E+01
 8.2627506E+00  4.1947014E+01
 8.2742500E+00  4.1682755E+01
 8.2857504E+00  4.1405628E+01
 8.2972507E+00  4.1214684E+01
 8.3087502E+00  4.1062943E+01
 8.3202505E+00  4.0935375E+01
 8.3317509E+00  4.0810566E+01
 8.3432503E+00  4.0574966E+01
 8.3547506E+00  4.0457813E+01
 8.3662500E+00  4.0243107E+01
 8.3777504E+00  4.0075405E+01
 8.3892508E+00  3.9939396E+01
 8.4007502E+00  3.9768372E+01
 8.4122505E+00  3.9623684E+01
 8.4237509E+00  3.9387600E+01
 8.4352503E+00  3.9188671E+01
 8.4467506E+00  3.9082123E+01
 8.4582500E+00  3.8874290E+01
 8.4697504E+00  3.8739113E+01
 8.4812508E+00  3.8548458E+01
 8.4927502E+00  3.8338223E+01
 8.5042505E+00  3.8193424E+01
 8.5157509E+00  3.8060535E+01
 8.5272503E+00  3.7983715E+01
 8.5387506E+00  3.7813934E+01
 8.5502501E+00  3.7622826E+01
 8.5617504E+00  3.7468212E+01
 8.5732508E+00  3.7241451E+01
 8.5847502E+00  3.7001526E+01
 8.5962505E+00  3.6785538E+01
 8.6077509E+00  3.6705437E+01
 8.6192503E+00  3.6616306E+01
 8.6307507E+00  3.6495502E+01
 8.6422501E+00  3.6348007E+01
 8.6537504E+00  3.6113449E+01
 8.6652508E+00  3.5901207E+01
 8.6767502E+00  3.5568672E+01
 8.6882505E+00  3.5406311E+01
 8.6997509E+00  3.5156429E+01
 8.7112503E+00  3.4979988E+01
 8.7227507E+00  3.4736382E+01
 8.7342501E+00  3.4553604E+01
 8.7457504E+00  3.4402561E+01
 8.7572508E+00  3.4268517E+01
 8.7687502E+00  3.4127026E+01
 8.7802505E+00  3.4009869E+01
 8.7917500E+00  3.3878166E+01
 8.8032503E+00  3.3764294E+01
 8.8147507E+00  3.3670128E+01
 8.8262501E+00  3.3543510E+01
 8.8377504E+00  3.3471592E+01
 8.8492508E+00  3.3277100E+01
 8.8607502E+00  3.3120983E+01
 8.8722506E+00  3.2951183E+01
 8.8837500E+00  3.2807953E+01
 8.8952503E+00  3.2574944E+01
 8.9067507E+00  3.2352428E+01
 8.9182501E+00  3.2161457E+01
 8.9297504E+00  3.2035206E+01
 8.9412508E+00  3.2004917E+01
 8.9527502E+00  3.1883875E+01
 8.9642506E+00  3.1789114E+01
 8.9757500E+00  3.1574694E+01
 8.9872503E+00  3.1432667E+01
 8.9987507E+00  3.1285120E+01
 9.0102501E+00  3.1078953E+01
 9.0217505E+00  3.0839823E+01
 9.0332508E+00  3.0708998E+01
 9.0447502E+00  3.0603838E+01
 9.0562506E+00  3.0505791E+01
 9.0677500E+00  3.0380468E+01
 9.0792503E+00  3.0236320E+01
 9.0907507E+00  3.0074080E+01
 9.1022501E+00  2.9916756E+01
 9.1137505E+00  2.9803076E+01
 9.1252508E+00  2.9803209E+01
 9.1367502E+00  2.9715027E+01
 9.1482506E+00  2.9657801E+01
 9.1597500E+00  2.9555187E+01
 9.1712503E+00  2.9447123E+01
 9.1827507E+00  2.9369061E+01
 9.1942501E+00  2.9229338E+01
 9.2057505E+00  2.9112249E+01
 9.2172508E+00  2.9023205E+01
 9.2287502E+00  2.8854073E+01
 9.2402506E+00  2.8805613E+01
 9.2517500E+00  2.8720156E+01
 9.2632504E+00  2.8672279E+01
 9.2747507E+00  2.8567928E+01
 9.2862501E+00  2.8394615E+01
 9.2977505E+00  2.8249258E+01
 9.3092508E+00  2.8089933E+01
 9.3207502E+00  2.7944626E+01
 9.3322506E+00  2.7847355E+01
 9.3437500E+00  2.7725517E+01
 9.3552504E+00  2.7645529E+01
 9.3667507E+00  2.7596792E+01
 9.3782501E+00  2.7537462E+01
 9.3897505E+00  2.7457869E+01
 9.4012508E+00  2.7372881E+01
 9.4127502E+00  2.7328585E+01
 9.4242506E+00  2.7211941E+01
 9.4357500E+00  2.7137173E+01
 9.4472504E+00  2.7057381E+01
 9.4587507E+00  2.7029959E+01
 9.4702501E+00  2.6948120E+01
 9.4817505E+00  2.6903931E+01
 9.4932508E+00  2.6880175E+01
 9.5047503E+00  2.6856695E+01
 9.5162506E+00  2.6758781E+01
 9.5277500E+00  2.6631765E+01
 9.5392504E+00  2.6544250E+01
 9.5507507E+00  2.6418564E+01
 9.5622501E+00  2.6359320E+01
 9.5737505E+00  2.6236313E+01
 9.5852509E+00  2.6216629E+01
 9.5967503E+00  2.6145077E+01
 9.6082506E+00  2.6078489E+01
 9.6197500E+00  2.6005238E+01
 9.6312504E+00  2.5948019E+01
 9.6427507E+00  2.5912294E+01
 9.6542501E+00  2.5792788E+01
 9.6657505E+00  2.5691963E+01
 9.6772509E+00  2.5581203E+01
 9.6887503E+00  2.5534727E+01
 9.7002506E+00  2.5441444E+01
 9.7117500E+00  2.5467840E+01
 9.7232504E+00  2.5463617E+01
 9.7347507E+00  2.5445311E+01
 9.7462502E+00  2.5382761E+01
 9.7577505E+00  2.5319542E+01
 9.7692509E+00  2.5349468E+01
 9.7807503E+00  2.5295815E+01
 9.7922506E+00  2.5337738E+01
 9.8037500E+00  2.5244047E+01
 9.8152504E+00  2.5248432E+01
 9.8267508E+00  2.5142754E+01
 9.8382502E+00  2.5123863E+01
 9.8497505E+00  2.5033337E+01
 9.8612509E+00  2.4936888E+01
 9.8727503E+00  2.4890461E+01
 9.8842506E+00  2.4845276E+01
 9.8957500E+00  2.4891438E+01
 9.9072504E+00  2.4866840E+01
 9.9187508E+00  2.4849386E+01
 9.9302502E+00  2.4755873E+01
 9.9417505E+00  2.4746675E+01
 9.9532509E+00  2.4727369E+01
 9.9647503E+00  2.4751318E+01
 9.9762506E+00  2.4727390E+01
 9.9877501E+00  2.4718266E+01
 9.9992504E+00  2.4739895E+01
 1.0010751E+01  2.4684355E+01
 1.0022250E+01  2.4711742E+01
 1.0033751E+01  2.4646753E+01
 1.0045251E+01  2.4590874E+01
 1.0056750E+01  2.4500444E+01
 1.0068251E+01  2.4479542E+01
 1.0079750E+01  2.4499088E+01
 1.0091250E+01  2.4411928E+01
 1.0102751E+01  2.4304974E+01
 1.0114250E+01  2.4222198E+01
 1.0125751E+01  2.4219294E+01
 1.0137251E+01  2.4239594E+01
 1.0148750E+01  2.4273331E+01
 1.0160251E+01  2.4335716E+01
 1.0171750E+01  2.4348415E+01
 1.0183250E+01  2.4332083E+01
 1.0194751E+01  2.4271086E+01
 1.0206250E+01  2.4192825E+01
 1.0217751E+01  2.4092714E+01
 1.0229251E+01  2.4028149E+01
 1.0240750E+01  2.3989008E+01
 1.0252251E+01  2.3998215E+01
 1.0263750E+01  2.3954741E+01
 1.0275250E+01  2.3875204E+01
 1.0286751E+01  2.3807446E+01
 1.0298250E+01  2.3739067E+01
 1.0309751E+01  2.3747734E+01
 1.0321251E+01  2.3650753E+01
 1.0332750E+01  2.3616632E+01
 1.0344251E+01  2.3536705E+01
 1.0355750E+01  2.3508669E+01
 1.0367250E+01  2.3491432E+01
 1.0378751E+01  2.3499069E+01
 1.0390250E+01  2.3604959E+01
 1.0401751E+01  2.3601082E+01
 1.0413251E+01  2.3633953E+01
 1.0424750E+01  2.3608791E+01
 1.0436251E+01  2.3612020E+01
 1.0447750E+01  2.3621187E+01
 1.0459250E+01  2.3597479E+01
 1.0470751E+01  2.3617624E+01
 1.0482250E+01  2.3563713E+01
 1.0493751E+01  2.3546602E+01
 1.0505251E+01  2.3501745E+01
 1.0516750E+01  2.3507662E+01
 1.0528251E+01  2.3481339E+01
 1.0539750E+01  2.3480654E+01
 1.0551250E+01  2.3452988E+01
 1.0562751E+01  2.3451963E+01
 1.0574250E+01  2.3384809E+01
 1.0585751E+01  2.3260172E+01
 1.0597251E+01  2.3152309E+01
 1.0608750E+01  2.3087730E+01
 1.0620251E+01  2.3114925E+01
 1.0631750E+01  2.3149082E+01
 1.0643250E+01  2.3177258E+01
 1.0654751E+01  2.3213427E+01
 1.0666250E+01  2.3175549E+01
 1.0677751E+01  2.3152092E+01
 1.0689251E+01  2.3120052E+01
 1.0700750E+01  2.3173668E+01
 1.0712251E+01  2.3219189E+01
 1.0723750E+01  2.3230583E+01
 1.0735250E+01  2.3219925E+01
 1.0746751E+01  2.3172709E+01
 1.0758250E+01  2.3165474E+01
 1.0769751E+01  2.3153513E+01
 1.0781251E+01  2.3168634E+01
 1.0792750E+01  2.3152098E+01
 1.0804251E+01  2.3139791E+01
 1.0815750E+01  2.3121006E+01
 1.0827250E+01  2.3112434E+01
 1.0838751E+01  2.3094114E+01
 1.0850250E+01  2.3121767E+01
 1.0861751E+01  2.3128740E+01
 1.0873251E+01  2.3132923E+01
 1.0884750E+01  2.3078739E+01
 1.0896251E+01  2.3034746E+01
 1.0907750E+01  2.2982624E+01
 1.0919250E+01  2.2956097E+01
 1.0930751E+01  2.2929441E+01
 1.0942250E+01  2.2895277E+01
 1.0953751E+01  2.2849821E+01
 1.0965251E+01  2.2797092E+01
 1.0976750E+01  2.2776731E+01
 1.0988251E+01  2.2758278E+01
 1.0999750E+01  2.2771549E+01
 1.1011250E+01  2.2817434E+01
 1.1022751E+01  2.2865921E+01
 1.1034250E+01  2.2849304E+01
 1.1045751E+01  2.2823574E+01
 1.1057251E+01  2.2791302E+01
 1.1068750E+01  2.2803881E+01
 1.1080251E+01  2.2810980E+01
 1.1091750E+01  2.2840067E+01
 1.1103251E+01  2.2863371E+01
 1.1114751E+01  2.2813786E+01
 1.1126250E+01  2.2760227E+01
 1.1137751E+01  2.2660999E+01
 1.1149251E+01  2.2629337E+01
 1.1160750E+01  2.2699497E+01
 1.1172251E+01  2.2776733E+01
 1.1183750E+01  2.2821548E+01
 1.1195251E+01  2.2728424E+01
 1.1206751E+01  2.2696640E+01
 1.1218250E+01  2.2663216E+01
 1.1229751E+01  2.2681320E+01
 1.1241251E+01  2.2720751E+01
 1.1252750E+01  2.2712320E+01
 1.1264251E+01  2.2719824E+01
 1.1275750E+01  2.2683073E+01
 1.1287251E+01  2.2729813E+01
 1.1298751E+01  2.2708828E+01
 1.1310250E+01  2.2741827E+01
 1.1321751E+01  2.2756327E+01
 1.1333251E+01  2.2755478E+01
 1.1344750E+01  2.2763659E+01
 1.1356251E+01  2.2728952E+01
 1.1367750E+01  2.2754202E+01
 1.1379251E+01  2.2815975E+01
 1.1390751E+01  2.2840202E+01
 1.1402250E+01  2.3099493E+01
 1.1413751E+01  2.3118252E+01
 1.1425251E+01  2.3204655E+01
 1.1436750E+01  2.3089252E+01
 1.1448251E+01  2.3098650E+01
 1.1459750E+01  2.3104939E+01
 1.1471251E+01  2.3143482E+01
 1.1482751E+01  2.3141514E+01
 1.1494250E+01  2.3287016E+01
 1.1505751E+01  2.3345865E+01
 1.1517251E+01  2.3770584E+01
 1.1528750E+01  2.4346432E+01
 1.1540251E+01  2.5293198E+01
 1.1551750E+01  2.6557737E+01
 1.1563251E+01  2.7913656E+01
 1.1574751E+01  2.9285259E+01
 1.1586250E+01  3.0011448E+01
 1.1597751E+01  3.0191216E+01
 1.1609251E+01  2.9390326E+01
 1.1620750E+01  2.8215319E+01
 1.1632251E+01  2.6664417E+01
 1.1643750E+01  2.5483288E+01
 1.1655251E+01  2.4506371E+01
 1.1666751E+01  2.3931137E+01
 1.1678250E+01  2.3523365E+01
 1.1689751E+01  2.3307278E+01
 1.1701251E+01  2.3141624E+01
 1.1712750E+01  2.3069845E+01
 1.1724251E+01  2.2991798E+01
 1.1735750E+01  2.3007601E+01
 1.1747251E+01  2.2925549E+01
 1.1758751E+01  2.2863394E+01
 1.1770250E+01  2.2791553E+01
 1.1781751E+01  2.2800657E+01
 1.1793251E+01  2.2790337E+01
 1.1804750E+01  2.2782393E+01
 1.1816251E+01  2.2813442E+01
 1.1827750E+01  2.2781279E+01
 1.1839251E+01  2.2756788E+01
 1.1850751E+01  2.2650213E+01
 1.1862250E+01  2.2702431E+01
 1.1873751E+01  2.2682264E+01
 1.1885251E+01  2.2774254E+01
 1.1896750E+01  2.2855869E+01
 1.1908251E+01  2.2923340E+01
 1.1919750E+01  2.3052547E+01
 1.1931251E+01  2.3225714E+01
 1.1942751E+01  2.3472494E+01
 1.1954250E+01  2.3803530E+01
 1.1965751E+01  2.3935543E+01
 1.1977251E+01  2.4178270E+01
 1.1988750E+01  2.4308830E+01
 1.2000251E+01  2.4232267E+01
 1.2011750E+01  2.4130026E+01
 1.2023251E+01  2.3841709E+01
 1.2034751E+01  2.3772816E+01
 1.2046250E+01  2.3747612E+01
 1.2057751E+01  2.3847916E+01
 1.2069251E+01  2.4315990E+01
 1.2080750E+01  2.4794310E+01
 1.2092251E+01  2.5468508E+01
 1.2103750E+01  2.5954288E+01
 1.2115251E+01  2.6052145E+01
 1.2126751E+01  2.5844152E+01
 1.2138250E+01  2.5454182E+01
 1.2149751E+01  2.4868906E+01
 1.2161251E+01  2.4306744E+01
 1.2172750E+01  2.3701269E+01
 1.2184251E+01  2.3430868E+01
 1.2195750E+01  2.3174925E+01
 1.2207251E+01  2.3017679E+01
 1.2218751E+01  2.2921310E+01
 1.2230250E+01  2.2862484E+01
 1.2241751E+01  2.2798838E+01
 1.2253251E+01  2.2771341E+01
 1.2264750E+01  2.2800467E+01
 1.2276251E+01  2.2808996E+01
 1.2287750E+01  2.2867601E+01
 1.2299251E+01  2.2902861E+01
 1.2310751E+01  2.2950775E+01
 1.2322250E+01  2.2901068E+01
 1.2333751E+01  2.2885077E+01
 1.2345250E+01  2.2871231E+01
 1.2356750E+01  2.2907961E+01
 1.2368251E+01  2.2879356E+01
 1.2379750E+01  2.2887131E+01
 1.2391251E+01  2.2917370E+01
 1.2402751E+01  2.2899025E+01
 1.2414250E+01  2.2893766E+01
 1.2425751E+01  2.2803793E+01
 1.2437250E+01  2.2835514E+01
 1.2448750E+01  2.2815289E+01
 1.2460251E+01  2.2874449E+01
 1.2471750E+01  2.2896770E+01
 1.2483251E+01  2.2978699E+01
 1.2494751E+01  2.2944242E+01
 1.2506250E+01  2.2961899E+01
 1.2517751E+01  2.2911085E+01
 1.2529250E+01  2.2957346E+01
 1.2540751E+01  2.2930630E+01
 1.2552251E+01  2.2960653E+01
 1.2563750E+01  2.2954510E+01
 1.2575251E+01  2.2985661E+01
 1.2586751E+01  2.2996958E+01
 1.2598250E+01  2.3022318E+01
 1.2609751E+01  2.2995943E+01
 1.2621250E+01  2.3054144E+01
 1.2632751E+01  2.3090582E+01
 1.2644251E+01  2.3097933E+01
 1.2655750E+01  2.3103338E+01
 1.2667251E+01  2.3053780E+01
 1.2678751E+01  2.3069386E+01
 1.2690250E+01  2.3035074E+01
 1.2701751E+01  2.3047485E+01
 1.2713250E+01  2.3168993E+01
 1.2724751E+01  2.3191076E+01
 1.2736251E+01  2.3274124E+01
 1.2747750E+01  2.3262629E+01
 1.2759251E+01  2.3283058E+01
 1.2770751E+01  2.3332121E+01
 1.2782250E+01  2.3402493E+01
 1.2793751E+01  2.3416746E+01
 1.2805250E+01  2.3426605E+01
 1.2816751E+01  2.3389217E+01
 1.2828251E+01  2.3458809E+01
 1.2839750E+01  2.3505392E+01
 1.2851251E+01  2.3558849E+01
 1.2862751E+01  2.3639046E+01
 1.2874250E+01  2.3677555E+01
 1.2885751E+01  2.3742840E+01
 1.2897250E+01  2.3759806E+01
 1.2908751E+01  2.3874781E+01
 1.2920251E+01  2.3903101E+01
 1.2931750E+01  2.3991943E+01
 1.2943251E+01  2.3963076E+01
 1.2954751E+01  2.3964586E+01
 1.2966250E+01  2.3971960E+01
 1.2977751E+01  2.4026758E+01
 1.2989250E+01  2.4084635E+01
 1.3000751E+01  2.4164976E+01
 1.3012251E+01  2.4253414E+01
 1.3023750E+01  2.4363071E+01
 1.3035251E+01  2.4454340E+01
 1.3046751E+01  2.4564478E+01
 1.3058250E+01  2.4660501E+01
 1.3069751E+01  2.4687954E+01
 1.3081250E+01  2.4723326E+01
 1.3092751E+01  2.4769125E+01
 1.3104251E+01  2.4869671E+01
 1.3115750E+01  2.4972576E+01
 1.3127251E+01  2.5125746E+01
 1.3138751E+01  2.5298691E+01
 1.3150250E+01  2.5458408E+01
 1.3161751E+01  2.5568090E+01
 1.3173250E+01  2.5668335E+01
 1.3184751E+01  2.5830311E+01
 1.3196251E+01  2.5981186E+01
 1.3207750E+01  2.6149727E+01
 1.3219251E+01  2.6301273E+01
 1.3230751E+01  2.6484602E+01
 1.3242250E+01  2.6633547E+01
 1.3253751E+01  2.6721334E+01
 1.3265250E+01  2.6848513E+01
 1.3276751E+01  2.6932949E+01
 1.3288251E+01  2.7066576E+01
 1.3299750E+01  2.7212107E+01
 1.3311251E+01  2.7351061E+01
 1.3322751E+01  2.7531380E+01
 1.3334250E+01  2.7658113E+01
 1.3345751E+01  2.7787342E+01
 1.3357250E+01  2.7924009E+01
 1.3368751E+01  2.8022661E+01
 1.3380251E+01  2.8190666E+01
 1.3391750E+01  2.8318174E+01
 1.3403251E+01  2.8491106E+01
 1.3414751E+01  2.8621931E+01
 1.3426250E+01  2.8758284E+01
 1.3437751E+01  2.8936701E+01
 1.3449250E+01  2.9115206E+01
 1.3460751E+01  2.9239695E+01
 1.3472251E+01  2.9305317E+01
 1.3483750E+01  2.9492964E+01
 1.3495251E+01  2.9623869E+01
 1.3506751E+01  2.9796841E+01
 1.3518250E+01  2.9855398E+01
 1.3529751E+01  2.9934994E+01
 1.3541250E+01  3.0032572E+01
 1.3552751E+01  3.0080868E+01
 1.3564251E+01  3.0158386E+01
 1.3575750E+01  3.0187252E+01
 1.3587251E+01  3.0209076E+01
 1.3598751E+01  3.0189919E+01
 1.3610250E+01  3.0170139E+01
 1.3621751E+01  3.0234798E+01
 1.3633250E+01  3.0245625E+01
 1.3644751E+01  3.0216778E+01
 1.3656251E+01  3.0176840E+01
 1.3667750E+01  3.0206186E+01
 1.3679251E+01  3.0187603E+01
 1.3690751E+01  3.0123514E+01
 1.3702250E+01  3.0016048E+01
 1.3713751E+01  2.9942215E+01
 1.3725250E+01  2.9937376E+01
 1.3736751E+01  2.9982975E+01
 1.3748251E+01  3.0016872E+01
 1.3759750E+01  3.0078093E+01
 1.3771251E+01  3.0062405E+01
 1.3782751E+01  3.0089008E+01
 1.3794250E+01  3.0037939E+01
 1.3805751E+01  3.0050304E+01
 1.3817250E+01  3.0086447E+01
 1.3828751E+01  3.0182970E+01
 1.3840251E+01  3.0344423E+01
 1.3851750E+01  3.0720901E+01
 1.3863251E+01  3.1229282E+01
 1.3874751E+01  3.2177677E+01
 1.3886250E+01  3.3587803E+01
 1.3897751E+01  3.5164326E+01
 1.3909250E+01  3.8339058E+01
 1.3920751E+01  4.1380268E+01
 1.3932251E+01  4.5035480E+01
 1.3943750E+01  4.8222046E+01
 1.3955251E+01  4.9364784E+01
 1.3966751E+01  5.0118656E+01
 1.3978251E+01  4.7387806E+01
 1.3989751E+01  4.4362545E+01
 1.4001250E+01  4.0062881E+01
 1.4012751E+01  3.6244106E+01
 1.4024251E+01  3.3706982E+01
 1.4035750E+01  3.1420252E+01
 1.4047251E+01  3.0112072E+01
 1.4058751E+01  2.9275507E+01
 1.4070251E+01  2.8841986E+01
 1.4081751E+01  2.8579706E+01
 1.4093250E+01  2.8345541E+01
 1.4104751E+01  2.8171196E+01
 1.4116251E+01  2.8060188E+01
 1.4127750E+01  2.7946846E+01
 1.4139251E+01  2.7826540E+01
 1.4150751E+01  2.7689426E+01
 1.4162251E+01  2.7591646E+01
 1.4173751E+01  2.7427229E+01
 1.4185250E+01  2.7352196E+01
 1.4196751E+01  2.7260012E+01
 1.4208251E+01  2.7250679E+01
 1.4219750E+01  2.7181583E+01
 1.4231251E+01  2.7069536E+01
 1.4242751E+01  2.6952503E+01
 1.4254251E+01  2.6813021E+01
 1.4265751E+01  2.6754654E+01
 1.4277250E+01  2.6709749E+01
 1.4288751E+01  2.6745972E+01
 1.4300251E+01  2.6723444E+01
 1.4311750E+01  2.6735664E+01
 1.4323251E+01  2.6664078E+01
 1.4334751E+01  2.6644110E+01
 1.4346251E+01  2.6589664E+01
 1.4357751E+01  2.6556671E+01
 1.4369250E+01  2.6538649E+01
 1.4380751E+01  2.6427664E+01
 1.4392251E+01  2.6374594E+01
 1.4403750E+01  2.6293785E+01
 1.4415251E+01  2.6328693E+01
 1.4426751E+01  2.6298269E+01
 1.4438251E+01  2.6260279E+01
 1.4449751E+01  2.6187033E+01
 1.4461250E+01  2.6108175E+01
 1.4472751E+01  2.6076775E+01
 1.4484251E+01  2.6028948E+01
 1.4495750E+01  2.6008495E+01
 1.4507251E+01  2.5929253E+01
 1.4518751E+01  2.5845474E+01
 1.4530251E+01  2.5830885E+01
 1.4541751E+01  2.5842876E+01
 1.4553250E+01  2.5853811E+01
 1.4564751E+01  2.5832956E+01
 1.4576251E+01  2.5774815E+01
 1.4587750E+01  2.5726719E+01
 1.4599251E+01  2.5656244E+01
 1.4610751E+01  2.5662111E+01
 1.4622251E+01  2.5687851E+01
 1.4633751E+01  2.5673870E+01
 1.4645250E+01  2.5676394E+01
 1.4656751E+01  2.5655357E+01
 1.4668251E+01  2.5688797E+01
 1.4679750E+01  2.5733521E+01
 1.4691251E+01  2.5727926E+01
 1.4702751E+01  2.5665215E+01
 1.4714251E+01  2.5584993E+01
 1.4725751E+01  2.5554276E+01
 1.4737250E+01  2.5538303E+01
 1.4748751E+01  2.5489649E+01
 1.4760251E+01  2.5438887E+01
 1.4771750E+01  2.5444977E+01
 1.4783251E+01  2.5420116E+01
 1.4794751E+01  2.5397673E+01
 1.4806251E+01  2.5335724E+01
 1.4817751E+01  2.5309368E+01
 1.4829250E+01  2.5291735E+01
 1.4840751E+01  2.5337841E+01
 1.4852251E+01  2.5348349E+01
 1.4863750E+01  2.5323807E+01
 1.4875251E+01  2.5290318E+01
 1.4886751E+01  2.5291666E+01
 1.4898251E+01  2.5293671E+01
 1.4909751E+01  2.5274632E+01
 1.4921250E+01  2.5214359E+01
 1.4932751E+01  2.5190140E+01
 1.4944251E+01  2.5137201E+01
 1.4955750E+01  2.5173777E+01
 1.4967251E+01  2.5139376E+01
 1.4978751E+01  2.5135820E+01
 1.4990251E+01  2.5093554E+01
 1.5001751E+01  2.5075279E+01
 1.5013250E+01  2.5151920E+01
 1.5024751E+01  2.5197882E+01
 1.5036251E+01  2.5249098E+01
 1.5047750E+01  2.5248993E+01
 1.5059251E+01  2.5264505E+01
 1.5070751E+01  2.5252686E+01
 1.5082251E+01  2.5227331E+01
 1.5093751E+01  2.5317135E+01
 1.5105250E+01  2.5464334E+01
 1.5116751E+01  2.5646975E+01
 1.5128251E+01  2.5887644E+01
 1.5139750E+01  2.6165676E+01
 1.5151251E+01  2.6550930E+01
 1.5162751E+01  2.6944374E+01
 1.5174251E+01  2.7251478E+01
 1.5185751E+01  2.7518936E+01
 1.5197250E+01  2.7505346E+01
 1.5208751E+01  2.7408552E+01
 1.5220251E+01  2.7093464E+01
 1.5231750E+01  2.6672546E+01
 1.5243251E+01  2.6184299E+01
 1.5254751E+01  2.5750694E+01
 1.5266251E+01  2.5393688E+01
 1.5277751E+01  2.5145815E+01
 1.5289250E+01  2.5023827E+01
 1.5300751E+01  2.4958220E+01
 1.5312251E+01  2.4940081E+01
 1.5323750E+01  2.4884586E+01
 1.5335251E+01  2.4887863E+01
 1.5346751E+01  2.4876213E+01
 1.5358251E+01  2.4853798E+01
 1.5369751E+01  2.4853933E+01
 1.5381250E+01  2.4808344E+01
 1.5392751E+01  2.4840961E+01
 1.5404251E+01  2.4882362E+01
 1.5415751E+01  2.4868872E+01
 1.5427251E+01  2.4841843E+01
 1.5438751E+01  2.4798597E+01
 1.5450251E+01  2.4802612E+01
 1.5461751E+01  2.4754484E+01
 1.5473250E+01  2.4710737E+01
 1.5484751E+01  2.4753521E+01
 1.5496251E+01  2.4758331E+01
 1.5507751E+01  2.4753790E+01
 1.5519251E+01  2.4687666E+01
 1.5530751E+01  2.4688869E+01
 1.5542251E+01  2.4690737E+01
 1.5553751E+01  2.4716002E+01
 1.5565250E+01  2.4759102E+01
 1.5576751E+01  2.4783276E+01
 1.5588251E+01  2.4796732E+01
 1.5599751E+01  2.4795475E+01
 1.5611251E+01  2.4790421E+01
 1.5622751E+01  2.4816782E+01
 1.5634251E+01  2.4772663E+01
 1.5645751E+01  2.4820131E+01
 1.5657250E+01  2.4788076E+01
 1.5668751E+01  2.4817148E+01
 1.5680251E+01  2.4772785E+01
 1.5691751E+01  2.4784210E+01
 1.5703251E+01  2.4790222E+01
 1.5714751E+01  2.4793615E+01
 1.5726251E+01  2.4813503E+01
 1.5737751E+01  2.4805851E+01
 1.5749250E+01  2.4806768E+01
 1.5760751E+01  2.4835850E+01
 1.5772251E+01  2.4839857E+01
 1.5783751E+01  2.4831812E+01
 1.5795251E+01  2.4831980E+01
 1.5806751E+01  2.4841011E+01
 1.5818251E+01  2.4841757E+01
 1.5829751E+01  2.4799850E+01
 1.5841250E+01  2.4792238E+01
 1.5852751E+01  2.4796555E+01
 1.5864251E+01  2.4779324E+01
 1.5875751E+01  2.4749863E+01
 1.5887251E+01  2.4720116E+01
 1.5898750E+01  2.4710720E+01
 1.5910251E+01  2.4741325E+01
 1.5921751E+01  2.4732250E+01
 1.5933250E+01  2.4771893E+01
 1.5944751E+01  2.4745667E+01
 1.5956251E+01  2.4791210E+01
 1.5967751E+01  2.4770876E+01
 1.5979251E+01  2.4808928E+01
 1.5990750E+01  2.4804913E+01
 1.6002251E+01  2.4796030E+01
 1.6013750E+01  2.4763971E+01
 1.6025251E+01  2.4788464E+01
 1.6036751E+01  2.4867258E+01
 1.6048250E+01  2.4886925E+01
 1.6059752E+01  2.4935373E+01
 1.6071251E+01  2.4875740E+01
 1.6082750E+01  2.4936903E+01
 1.6094252E+01  2.4883232E+01
 1.6105751E+01  2.4958992E+01
 1.6117250E+01  2.4976089E+01
 1.6128750E+01  2.5016514E+01
 1.6140251E+01  2.5049324E+01
 1.6151751E+01  2.5038290E+01
 1.6163250E+01  2.5114765E+01
 1.6174751E+01  2.5061728E+01
 1.6186251E+01  2.5205883E+01
 1.6197750E+01  2.5124395E+01
 1.6209251E+01  2.5435162E+01
 1.6220751E+01  2.5337276E+01
 1.6232250E+01  2.5614164E+01
 1.6243752E+01  2.5674770E+01
 1.6255251E+01  2.5943769E+01
 1.6266750E+01  2.6193155E+01
 1.6278252E+01  2.6068832E+01
 1.6289751E+01  2.6171513E+01
 1.6301250E+01  2.5643759E+01
 1.6312750E+01  2.5645857E+01
 1.6324251E+01  2.5184877E+01
 1.6335751E+01  2.5174623E+01
 1.6347250E+01  2.5008671E+01
 1.6358751E+01  2.5014641E+01
 1.6370251E+01  2.5009884E+01
 1.6381750E+01  2.5003334E+01
 1.6393251E+01  2.5046942E+01
 1.6404751E+01  2.4979841E+01
 1.6416250E+01  2.4942223E+01
 1.6427752E+01  2.4843893E+01
 1.6439251E+01  2.4889448E+01
 1.6450750E+01  2.4940914E+01
 1.6462252E+01  2.5024088E+01
 1.6473751E+01  2.5022053E+01
 1.6485250E+01  2.5017405E+01
 1.6496750E+01  2.4968645E+01
 1.6508251E+01  2.4865999E+01
 1.6519751E+01  2.4833412E+01
 1.6531250E+01  2.4823660E+01
 1.6542751E+01  2.4868916E+01
 1.6554251E+01  2.4875723E+01
 1.6565750E+01  2.4843180E+01
 1.6577251E+01  2.4823574E+01
 1.6588751E+01  2.4782837E+01
 1.6600250E+01  2.4799231E+01
 1.6611752E+01  2.4800140E+01
 1.6623251E+01  2.4753273E+01
 1.6634750E+01  2.4748444E+01
 1.6646252E+01  2.4775631E+01
 1.6657751E+01  2.4843704E+01
 1.6669250E+01  2.4866096E+01
 1.6680750E+01  2.4866871E+01
 1.6692251E+01  2.4852886E+01
 1.6703751E+01  2.4816944E+01
 1.6715250E+01  2.4809099E+01
 1.6726751E+01  2.4779093E+01
 1.6738251E+01  2.4759089E+01
 1.6749750E+01  2.4729483E+01
 1.6761251E+01  2.4741102E+01
 1.6772751E+01  2.4791409E+01
 1.6784250E+01  2.4831924E+01
 1.6795752E+01  2.4807419E+01
 1.6807251E+01  2.4702934E+01
 1.6818750E+01  2.4631159E+01
 1.6830252E+01  2.4576506E+01
 1.6841751E+01  2.4581490E+01
 1.6853251E+01  2.4592581E+01
 1.6864750E+01  2.4650841E+01
 1.6876251E+01  2.4689489E+01
 1.6887751E+01  2.4669725E+01
 1.6899250E+01  2.4627131E+01
 1.6910751E+01  2.4597668E+01
 1.6922251E+01  2.4546904E+01
 1.6933750E+01  2.4499578E+01
 1.6945251E+01  2.4504742E+01
 1.6956751E+01  2.4506611E+01
 1.6968250E+01  2.4533941E+01
 1.6979752E+01  2.4525511E+01
 1.6991251E+01  2.4523445E+01
 1.7002750E+01  2.4489332E+01
 1.7014252E+01  2.4431023E+01
 1.7025751E+01  2.4407343E+01
 1.7037251E+01  2.4367340E+01
 1.7048750E+01  2.4367508E+01
 1.7060251E+01  2.4363676E+01
 1.7071751E+01  2.4422466E+01
 1.7083250E+01  2.4481005E+01
 1.7094751E+01  2.4523388E+01
 1.7106251E+01  2.4498688E+01
 1.7117750E+01  2.4482672E+01
 1.7129251E+01  2.4497145E+01
 1.7140751E+01  2.4514252E+01
 1.7152250E+01  2.4510468E+01
 1.7163752E+01  2.4512741E+01
 1.7175251E+01  2.4527920E+01
 1.7186750E+01  2.4544479E+01
 1.7198252E+01  2.4590752E+01
 1.7209751E+01  2.4603235E+01
 1.7221251E+01  2.4583731E+01
 1.7232750E+01  2.4510637E+01
 1.7244251E+01  2.4418720E+01
 1.7255751E+01  2.4319246E+01
 1.7267250E+01  2.4230339E+01
 1.7278751E+01  2.4238060E+01
 1.7290251E+01  2.4239155E+01
 1.7301750E+01  2.4295835E+01
 1.7313251E+01  2.4274338E+01
 1.7324751E+01  2.4314877E+01
 1.7336250E+01  2.4299894E+01
 1.7347752E+01  2.4281700E+01
 1.7359251E+01  2.4260550E+01
 1.7370750E+01  2.4291487E+01
 1.7382252E+01  2.4315519E+01
 1.7393751E+01  2.4335333E+01
 1.7405251E+01  2.4312418E+01
 1.7416750E+01  2.4292192E+01
 1.7428251E+01  2.4251337E+01
 1.7439751E+01  2.4179707E+01
 1.7451250E+01  2.4121618E+01
 1.7462751E+01  2.4100632E+01
 1.7474251E+01  2.4122330E+01
 1.7485750E+01  2.4176687E+01
 1.7497252E+01  2.4187433E+01
 1.7508751E+01  2.4199759E+01
 1.7520250E+01  2.4183006E+01
 1.7531752E+01  2.4190828E+01
 1.7543251E+01  2.4207626E+01
 1.7554750E+01  2.4155052E+01
 1.7566252E+01  2.4107401E+01
 1.7577751E+01  2.4035835E+01
 1.7589251E+01  2.4015223E+01
 1.7600750E+01  2.3977816E+01
 1.7612251E+01  2.4024488E+01
 1.7623751E+01  2.4082651E+01
 1.7635250E+01  2.4069695E+01
 1.7646751E+01  2.4054665E+01
 1.7658251E+01  2.4004545E+01
 1.7669750E+01  2.4069065E+01
 1.7681252E+01  2.4084980E+01
 1.7692751E+01  2.4156754E+01
 1.7704250E+01  2.4129400E+01
 1.7715752E+01  2.4075291E+01
 1.7727251E+01  2.4015474E+01
 1.7738750E+01  2.3976412E+01
 1.7750252E+01  2.4011978E+01
 1.7761751E+01  2.4043972E+01
 1.7773251E+01  2.4115395E+01
 1.7784750E+01  2.4138159E+01
 1.7796251E+01  2.4159435E+01
 1.7807751E+01  2.4153305E+01
 1.7819250E+01  2.4164631E+01
 1.7830751E+01  2.4168419E+01
 1.7842251E+01  2.4165224E+01
 1.7853750E+01  2.4125048E+01
 1.7865252E+01  2.4138680E+01
 1.7876751E+01  2.4152615E+01
 1.7888250E+01  2.4182959E+01
 1.7899752E+01  2.4148666E+01
 1.7911251E+01  2.4185574E+01
 1.7922750E+01  2.4195965E+01
 1.7934252E+01  2.4205654E+01
 1.7945751E+01  2.4209911E+01
 1.7957251E+01  2.4253675E+01
 1.7968750E+01  2.4347307E+01
 1.7980251E+01  2.4414413E+01
 1.7991751E+01  2.4609047E+01
 1.8003250E+01  2.4786669E+01
 1.8014751E+01  2.4988501E+01
 1.8026251E+01  2.5192085E+01
 1.8037750E+01  2.5433289E+01
 1.8049252E+01  2.5715002E+01
 1.8060751E+01  2.6023453E+01
 1.8072250E+01  2.6709705E+01
 1.8083752E+01  2.7179930E+01
 1.8095251E+01  2.8006962E+01
 1.8106750E+01  2.8249443E+01
 1.8118252E+01  2.8451571E+01
 1.8129751E+01  2.8499926E+01
 1.8141251E+01  2.8077497E+01
 1.8152750E+01  2.7288815E+01
 1.8164251E+01  2.6099230E+01
 1.8175751E+01  2.5403196E+01
 1.8187250E+01  2.4869612E+01
 1.8198751E+01  2.4523993E+01
 1.8210251E+01  2.4393568E+01
 1.8221750E+01  2.4310524E+01
 1.8233252E+01  2.4261091E+01
 1.8244751E+01  2.4179050E+01
 1.8256250E+01  2.4133554E+01
 1.8267752E+01  2.4048597E+01
 1.8279251E+01  2.3992516E+01
 1.8290751E+01  2.3973728E+01
 1.8302252E+01  2.3950836E+01
 1.8313751E+01  2.3902977E+01
 1.8325251E+01  2.3848091E+01
 1.8336750E+01  2.3808111E+01
 1.8348251E+01  2.3813940E+01
 1.8359751E+01  2.3884287E+01
 1.8371250E+01  2.3932566E+01
 1.8382751E+01  2.3915220E+01
 1.8394251E+01  2.3857346E+01
 1.8405750E+01  2.3837313E+01
 1.8417252E+01  2.3883778E+01
 1.8428751E+01  2.3915279E+01
 1.8440250E+01  2.3934889E+01
 1.8451752E+01  2.3903530E+01
 1.8463251E+01  2.3879499E+01
 1.8474751E+01  2.3875090E+01
 1.8486252E+01  2.3828642E+01
 1.8497751E+01  2.3858822E+01
 1.8509251E+01  2.3813099E+01
 1.8520750E+01  2.3799318E+01
 1.8532251E+01  2.3727493E+01
 1.8543751E+01  2.3646324E+01
 1.8555250E+01  2.3613585E+01
 1.8566751E+01  2.3568619E+01
 1.8578251E+01  2.3614622E+01
 1.8589750E+01  2.3593740E+01
 1.8601252E+01  2.3649353E+01
 1.8612751E+01  2.3655190E+01
 1.8624250E+01  2.3708529E+01
 1.8635752E+01  2.3736534E+01
 1.8647251E+01  2.3728678E+01
 1.8658751E+01  2.3711201E+01
 1.8670252E+01  2.3695610E+01
 1.8681751E+01  2.3727703E+01
 1.8693251E+01  2.3787828E+01
 1.8704750E+01  2.3772335E+01
 1.8716251E+01  2.3785828E+01
 1.8727751E+01  2.3738207E+01
 1.8739250E+01  2.3746527E+01
 1.8750751E+01  2.3711153E+01
 1.8762251E+01  2.3704521E+01
 1.8773750E+01  2.3710115E+01
 1.8785252E+01  2.3749416E+01
 1.8796751E+01  2.3823437E+01
 1.8808250E+01  2.3828690E+01
 1.8819752E+01  2.3772146E+01
 1.8831251E+01  2.3677906E+01
 1.8842751E+01  2.3660612E+01
 1.8854252E+01  2.3638561E+01
 1.8865751E+01  2.3619066E+01
 1.8877251E+01  2.3574625E+01
 1.8888750E+01  2.3584225E+01
 1.8900251E+01  2.3625465E+01
 1.8911751E+01  2.3696901E+01
 1.8923250E+01  2.3733810E+01
 1.8934752E+01  2.3774693E+01
 1.8946251E+01  2.3841789E+01
 1.8957750E+01  2.3853062E+01
 1.8969252E+01  2.3835667E+01
 1.8980751E+01  2.3794643E+01
 1.8992250E+01  2.3753059E+01
 1.9003752E+01  2.3764999E+01
 1.9015251E+01  2.3764919E+01
 1.9026751E+01  2.3798582E+01
 1.9038252E+01  2.3798798E+01
 1.9049751E+01  2.3856104E+01
 1.9061251E+01  2.3925274E+01
 1.9072750E+01  2.3936125E+01
 1.9084251E+01  2.3921122E+01
 1.9095751E+01  2.3887550E+01
 1.9107250E+01  2.3855448E+01
 1.9118752E+01  2.3823215E+01
 1.9130251E+01  2.3766584E+01
 1.9141750E+01  2.3723415E+01
 1.9153252E+01  2.3752043E+01
 1.9164751E+01  2.3772163E+01
 1.9176250E+01  2.3754877E+01
 1.9187752E+01  2.3730906E+01
 1.9199251E+01  2.3799137E+01
 1.9210751E+01  2.3878937E+01
 1.9222252E+01  2.3858940E+01
 1.9233751E+01  2.3781610E+01
 1.9245251E+01  2.3776590E+01
 1.9256750E+01  2.3812407E+01
 1.9268251E+01  2.3852114E+01
 1.9279751E+01  2.3841261E+01
 1.9291250E+01  2.3822454E+01
 1.9302752E+01  2.3810606E+01
 1.9314251E+01  2.3758070E+01
 1.9325750E+01  2.3751684E+01
 1.9337252E+01  2.3746199E+01
 1.9348751E+01  2.3771633E+01
 1.9360250E+01  2.3775997E+01
 1.9371752E+01  2.3788883E+01
 1.9383251E+01  2.3831507E+01
 1.9394751E+01  2.3899054E+01
 1.9406250E+01  2.3932703E+01
 1.9417751E+01  2.3968664E+01
 1.9429251E+01  2.4006535E+01
 1.9440750E+01  2.4029470E+01
 1.9452251E+01  2.4024406E+01
 1.9463751E+01  2.3989113E+01
 1.9475250E+01  2.4003048E+01
 1.9486752E+01  2.3974989E+01
 1.9498251E+01  2.3993019E+01
 1.9509750E+01  2.3989305E+01
 1.9521252E+01  2.4046173E+01
 1.9532751E+01  2.4009130E+01
 1.9544250E+01  2.3987698E+01
 1.9555752E+01  2.3947418E+01
 1.9567251E+01  2.3984329E+01
 1.9578751E+01  2.4101177E+01
 1.9590250E+01  2.4212542E+01
 1.9601751E+01  2.4339846E+01
 1.9613251E+01  2.4418121E+01
 1.9624750E+01  2.4558189E+01
 1.9636251E+01  2.4813908E+01
 1.9647751E+01  2.5183376E+01
 1.9659250E+01  2.5790348E+01
 1.9670752E+01  2.6508801E+01
 1.9682251E+01  2.7397438E+01
 1.9693750E+01  2.8295855E+01
 1.9705252E+01  2.9006878E+01
 1.9716751E+01  2.9325697E+01
 1.9728251E+01  2.9083206E+01
 1.9739752E+01  2.8315338E+01
 1.9751251E+01  2.7384645E+01
 1.9762751E+01  2.6523645E+01
 1.9774250E+01  2.5971519E+01
 1.9785751E+01  2.5724916E+01
 1.9797251E+01  2.5851925E+01
 1.9808750E+01  2.6241495E+01
 1.9820251E+01  2.6735155E+01
 1.9831751E+01  2.7230034E+01
 1.9843250E+01  2.7527933E+01
 1.9854752E+01  2.7687748E+01
 1.9866251E+01  2.7364038E+01
 1.9877750E+01  2.7031828E+01
 1.9889252E+01  2.6406267E+01
 1.9900751E+01  2.5892866E+01
 1.9912251E+01  2.5330791E+01
 1.9923752E+01  2.4888865E+01
 1.9935251E+01  2.4584326E+01
 1.9946751E+01  2.4363461E+01
 1.9958250E+01  2.4271952E+01
 1.9969751E+01  2.4215088E+01
 1.9981251E+01  2.4125685E+01
 1.9992750E+01  2.4091602E+01
 2.0004251E+01  2.3981653E+01
 2.0015751E+01  2.3973335E+01
 2.0027250E+01  2.3928976E+01
 2.0038752E+01  2.3956701E+01
 2.0050251E+01  2.3947165E+01
 2.0061750E+01  2.3891169E+01
 2.0073252E+01  2.3887167E+01
 2.0084751E+01  2.3912477E+01
 2.0096251E+01  2.3958620E+01
 2.0107752E+01  2.4008846E+01
 2.0119251E+01  2.4024748E+01
 2.0130751E+01  2.4030952E+01
 2.0142250E+01  2.4006380E+01
 2.0153751E+01  2.4032141E+01
 2.0165251E+01  2.4033548E+01
 2.0176750E+01  2.4026037E+01
 2.0188251E+01  2.4007874E+01
 2.0199751E+01  2.4023960E+01
 2.0211250E+01  2.4013805E+01
 2.0222752E+01  2.4018955E+01
 2.0234251E+01  2.4043964E+01
 2.0245750E+01  2.4050562E+01
 2.0257252E+01  2.4054728E+01
 2.0268751E+01  2.4013126E+01
 2.0280251E+01  2.4016047E+01
 2.0291752E+01  2.4021751E+01
 2.0303251E+01  2.3998486E+01
 2.0314751E+01  2.3988596E+01
 2.0326250E+01  2.4025372E+01
 2.0337751E+01  2.4041433E+01
 2.0349251E+01  2.4079752E+01
 2.0360750E+01  2.4038061E+01
 2.0372252E+01  2.4069618E+01
 2.0383751E+01  2.4015535E+01
 2.0395250E+01  2.4064653E+01
 2.0406752E+01  2.4065098E+01
 2.0418251E+01  2.4116072E+01
 2.0429750E+01  2.4094561E+01
 2.0441252E+01  2.4048330E+01
 2.0452751E+01  2.4019995E+01
 2.0464251E+01  2.4032146E+01
 2.0475752E+01  2.4048452E+01
 2.0487251E+01  2.4017952E+01
 2.0498751E+01  2.4024975E+01
 2.0510250E+01  2.3998629E+01
 2.0521751E+01  2.3975187E+01
 2.0533251E+01  2.3954037E+01
 2.0544750E+01  2.3990921E+01
 2.0556252E+01  2.4073837E+01
 2.0567751E+01  2.4096775E+01
 2.0579250E+01  2.4149645E+01
 2.0590752E+01  2.4193502E+01
 2.0602251E+01  2.4228098E+01
 2.0613750E+01  2.4219721E+01
 2.0625252E+01  2.4227921E+01
 2.0636751E+01  2.4229607E+01
 2.0648251E+01  2.4234535E+01
 2.0659752E+01  2.4309040E+01
 2.0671251E+01  2.4413969E+01
 2.0682751E+01  2.4696733E+01
 2.0694250E+01  2.5047276E+01
 2.0705751E+01  2.5682537E+01
 2.0717251E+01  2.6788813E+01
 2.0728750E+01  2.7350851E+01
 2.0740252E+01  2.8281458E+01
 2.0751751E+01  2.8481979E+01
 2.0763250E+01  2.8967579E+01
 2.0774752E+01  2.8435526E+01
 2.0786251E+01  2.8183138E+01
 2.0797750E+01  2.7366220E+01
 2.0809252E+01  2.6520828E+01
 2.0820751E+01  2.5808390E+01
 2.0832251E+01  2.5214909E+01
 2.0843752E+01  2.4863781E+01
 2.0855251E+01  2.4652288E+01
 2.0866751E+01  2.4470366E+01
 2.0878250E+01  2.4401033E+01
 2.0889751E+01  2.4296461E+01
 2.0901251E+01  2.4284866E+01
 2.0912750E+01  2.4255154E+01
 2.0924252E+01  2.4268826E+01
 2.0935751E+01  2.4206692E+01
 2.0947250E+01  2.4191086E+01
 2.0958752E+01  2.4092493E+01
 2.0970251E+01  2.4089155E+01
 2.0981750E+01  2.4050728E+01
 2.0993252E+01  2.4108137E+01
 2.1004751E+01  2.4124323E+01
 2.1016251E+01  2.4099318E+01
 2.1027752E+01  2.4134022E+01
 2.1039251E+01  2.4164831E+01
 2.1050751E+01  2.4166271E+01
 2.1062250E+01  2.4144569E+01
 2.1073751E+01  2.4096912E+01
 2.1085251E+01  2.4076540E+01
 2.1096750E+01  2.4059570E+01
 2.1108252E+01  2.4081451E+01
 2.1119751E+01  2.4119719E+01
 2.1131250E+01  2.4106501E+01
 2.1142752E+01  2.4139635E+01
 2.1154251E+01  2.4222975E+01
 2.1165751E+01  2.4291182E+01
 2.1177252E+01  2.4425917E+01
 2.1188751E+01  2.4372799E+01
 2.1200251E+01  2.4328350E+01
 2.1211752E+01  2.4218018E+01
 2.1223251E+01  2.4189426E+01
 2.1234751E+01  2.4147730E+01
 2.1246250E+01  2.4145990E+01
 2.1257751E+01  2.4148680E+01
 2.1269251E+01  2.4186777E+01
 2.1280750E+01  2.4205154E+01
 2.1292252E+01  2.4230888E+01
 2.1303751E+01  2.4213837E+01
 2.1315250E+01  2.4157492E+01
 2.1326752E+01  2.4103395E+01
 2.1338251E+01  2.4059450E+01
 2.1349751E+01  2.4060150E+01
 2.1361252E+01  2.4100822E+01
 2.1372751E+01  2.4101637E+01
 2.1384251E+01  2.4078844E+01
 2.1395752E+01  2.4040215E+01
 2.1407251E+01  2.4082758E+01
 2.1418751E+01  2.4094189E+01
 2.1430250E+01  2.4083782E+01
 2.1441751E+01  2.4065233E+01
 2.1453251E+01  2.4090588E+01
 2.1464750E+01  2.4144133E+01
 2.1476252E+01  2.4179317E+01
 2.1487751E+01  2.4192467E+01
 2.1499250E+01  2.4180204E+01
 2.1510752E+01  2.4178831E+01
 2.1522251E+01  2.4208513E+01
 2.1533751E+01  2.4246204E+01
 2.1545252E+01  2.4291649E+01
 2.1556751E+01  2.4265865E+01
 2.1568251E+01  2.4210985E+01
 2.1579752E+01  2.4204420E+01
 2.1591251E+01  2.4219000E+01
 2.1602751E+01  2.4243853E+01
 2.1614250E+01  2.4262123E+01
 2.1625751E+01  2.4297819E+01
 2.1637251E+01  2.4309286E+01
 2.1648750E+01  2.4326603E+01
 2.1660252E+01  2.4371717E+01
 2.1671751E+01  2.4420799E+01
 2.1683250E+01  2.4409590E+01
 2.1694752E+01  2.4400198E+01
 2.1706251E+01  2.4407204E+01
 2.1717751E+01  2.4433828E+01
 2.1729252E+01  2.4419434E+01
 2.1740751E+01  2.4405737E+01
 2.1752251E+01  2.4445442E+01
 2.1763752E+01  2.4796129E+01
 2.1775251E+01  2.4991896E+01
 2.1786751E+01  2.4897146E+01
 2.1798250E+01  2.4628405E+01
 2.1809752E+01  2.4530773E+01
 2.1821251E+01  2.4460415E+01
 2.1832750E+01  2.4370085E+01
 2.1844252E+01  2.4335712E+01
 2.1855751E+01  2.4298927E+01
 2.1867250E+01  2.4309269E+01
 2.1878752E+01  2.4340349E+01
 2.1890251E+01  2.4372324E+01
 2.1901751E+01  2.4364456E+01
 2.1913252E+01  2.4362494E+01
 2.1924751E+01  2.4344912E+01
 2.1936251E+01  2.4345293E+01
 2.1947752E+01  2.4356306E+01
 2.1959251E+01  2.4429377E+01
 2.1970751E+01  2.4498297E+01
 2.1982250E+01  2.4531139E+01
 2.1993752E+01  2.4527328E+01
 2.2005251E+01  2.4501116E+01
 2.2016750E+01  2.4514044E+01
 2.2028252E+01  2.4494587E+01
 2.2039751E+01  2.4477098E+01
 2.2051250E+01  2.4426247E+01
 2.2062752E+01  2.4451710E+01
 2.2074251E+01  2.4503609E+01
 2.2085751E+01  2.4556623E+01
 2.2097252E+01  2.4557991E+01
 2.2108751E+01  2.4563335E+01
 2.2120251E+01  2.4594391E+01
 2.2131752E+01  2.4582575E+01
 2.2143251E+01  2.4572412E+01
 2.2154751E+01  2.4560049E+01
 2.2166250E+01  2.4548626E+01
 2.2177752E+01  2.4543825E+01
 2.2189251E+01  2.4499174E+01
 2.2200750E+01  2.4511492E+01
 2.2212252E+01  2.4526205E+01
 2.2223751E+01  2.4594515E+01
 2.2235250E+01  2.4607401E+01
 2.2246752E+01  2.4621529E+01
 2.2258251E+01  2.4594109E+01
 2.2269751E+01  2.4583109E+01
 2.2281252E+01  2.4578985E+01
 2.2292751E+01  2.4577211E+01
 2.2304251E+01  2.4625816E+01
 2.2315752E+01  2.4644608E+01
 2.2327251E+01  2.4634874E+01
 2.2338751E+01  2.4645784E+01
 2.2350250E+01  2.4685516E+01
 2.2361752E+01  2.4746464E+01
 2.2373251E+01  2.4773443E+01
 2.2384750E+01  2.4764402E+01
 2.2396252E+01  2.4740582E+01
 2.2407751E+01  2.4732365E+01
 2.2419250E+01  2.4703571E+01
 2.2430752E+01  2.4694305E+01
 2.2442251E+01  2.4677843E+01
 2.2453751E+01  2.4753286E+01
 2.2465252E+01  2.4766106E+01
 2.2476751E+01  2.4768305E+01
 2.2488251E+01  2.4743750E+01
 2.2499752E+01  2.4746691E+01
 2.2511251E+01  2.4774664E+01
 2.2522751E+01  2.4865519E+01
 2.2534250E+01  2.4909712E+01
 2.2545752E+01  2.4977900E+01
 2.2557251E+01  2.5023863E+01
 2.2568750E+01  2.5039364E+01
 2.2580252E+01  2.5019743E+01
 2.2591751E+01  2.4941591E+01
 2.2603251E+01  2.4942781E+01
 2.2614752E+01  2.4986523E+01
 2.2626251E+01  2.5066525E+01
 2.2637751E+01  2.5067007E+01
 2.2649252E+01  2.5081717E+01
 2.2660751E+01  2.5090773E+01
 2.2672251E+01  2.5141457E+01
 2.2683752E+01  2.5200413E+01
 2.2695251E+01  2.5284529E+01
 2.2706751E+01  2.5304029E+01
 2.2718250E+01  2.5348454E+01
 2.2729752E+01  2.5372749E+01
 2.2741251E+01  2.5400610E+01
 2.2752750E+01  2.5411259E+01
 2.2764252E+01  2.5412460E+01
 2.2775751E+01  2.5440186E+01
 2.2787251E+01  2.5392475E+01
 2.2798752E+01  2.5413219E+01
 2.2810251E+01  2.5478836E+01
 2.2821751E+01  2.5543793E+01
 2.2833252E+01  2.5584538E+01
 2.2844751E+01  2.5646532E+01
 2.2856251E+01  2.5724150E+01
 2.2867750E+01  2.5793716E+01
 2.2879251E+01  2.5837912E+01
 2.2890751E+01  2.5929893E+01
 2.2902250E+01  2.5953470E+01
 2.2913752E+01  2.6056929E+01
 2.2925251E+01  2.6120882E+01
 2.2936750E+01  2.6190498E+01
 2.2948252E+01  2.6218836E+01
 2.2959751E+01  2.6256990E+01
 2.2971251E+01  2.6345203E+01
 2.2982752E+01  2.6456289E+01
 2.2994251E+01  2.6546949E+01
