F:\20151113_APS_34IDE\\Brian\Particle1\OCV\Data_0042.tif
2-Theta Angle (Degrees)
Intensity
       2000
 5.7500005E-03  0.0000000E+00
 1.7250001E-02  0.0000000E+00
 2.8750001E-02  0.0000000E+00
 4.0250003E-02  0.0000000E+00
 5.1750004E-02  0.0000000E+00
 6.3250005E-02  0.0000000E+00
 7.4750006E-02  0.0000000E+00
 8.6250007E-02  0.0000000E+00
 9.7750008E-02  0.0000000E+00
 1.0925001E-01  0.0000000E+00
 1.2075000E-01  0.0000000E+00
 1.3225001E-01  0.0000000E+00
 1.4375001E-01  0.0000000E+00
 1.5525001E-01  0.0000000E+00
 1.6675001E-01  0.0000000E+00
 1.7825001E-01  0.0000000E+00
 1.8975002E-01  0.0000000E+00
 2.0125002E-01  0.0000000E+00
 2.1275002E-01  0.0000000E+00
 2.2425000E-01  0.0000000E+00
 2.3575000E-01  0.0000000E+00
 2.4725001E-01  0.0000000E+00
 2.5875002E-01  0.0000000E+00
 2.7025002E-01  0.0000000E+00
 2.8175002E-01  0.0000000E+00
 2.9325002E-01  0.0000000E+00
 3.0475003E-01  0.0000000E+00
 3.1625003E-01  0.0000000E+00
 3.2775003E-01  0.0000000E+00
 3.3925003E-01  0.0000000E+00
 3.5075003E-01  0.0000000E+00
 3.6225003E-01  0.0000000E+00
 3.7375003E-01  0.0000000E+00
 3.8525003E-01  0.0000000E+00
 3.9675003E-01  0.0000000E+00
 4.0825003E-01  0.0000000E+00
 4.1975003E-01  0.0000000E+00
 4.3125004E-01  0.0000000E+00
 4.4275001E-01  0.0000000E+00
 4.5425001E-01  0.0000000E+00
 4.6575001E-01  0.0000000E+00
 4.7725001E-01  0.0000000E+00
 4.8875001E-01  0.0000000E+00
 5.0025004E-01  0.0000000E+00
 5.1175004E-01  0.0000000E+00
 5.2325004E-01  0.0000000E+00
 5.3475004E-01  0.0000000E+00
 5.4625005E-01  0.0000000E+00
 5.5775005E-01  0.0000000E+00
 5.6925005E-01  0.0000000E+00
 5.8075005E-01  0.0000000E+00
 5.9225005E-01  0.0000000E+00
 6.0375005E-01  0.0000000E+00
 6.1525005E-01  0.0000000E+00
 6.2675005E-01  0.0000000E+00
 6.3825005E-01  0.0000000E+00
 6.4975005E-01  0.0000000E+00
 6.6125005E-01  0.0000000E+00
 6.7275006E-01  0.0000000E+00
 6.8425006E-01  0.0000000E+00
 6.9575006E-01  0.0000000E+00
 7.0725006E-01  0.0000000E+00
 7.1875006E-01  0.0000000E+00
 7.3025006E-01  0.0000000E+00
 7.4175006E-01  0.0000000E+00
 7.5325006E-01  0.0000000E+00
 7.6475006E-01  0.0000000E+00
 7.7625006E-01  0.0000000E+00
 7.8775007E-01  0.0000000E+00
 7.9925007E-01  0.0000000E+00
 8.1075007E-01  0.0000000E+00
 8.2225007E-01  0.0000000E+00
 8.3375007E-01  0.0000000E+00
 8.4525007E-01  0.0000000E+00
 8.5675007E-01  0.0000000E+00
 8.6825007E-01  0.0000000E+00
 8.7975001E-01  0.0000000E+00
 8.9125001E-01  0.0000000E+00
 9.0275002E-01  0.0000000E+00
 9.1425002E-01  0.0000000E+00
 9.2575002E-01  0.0000000E+00
 9.3725002E-01  0.0000000E+00
 9.4875002E-01  0.0000000E+00
 9.6025002E-01  0.0000000E+00
 9.7175002E-01  0.0000000E+00
 9.8325002E-01  0.0000000E+00
 9.9475002E-01  0.0000000E+00
 1.0062500E+00  0.0000000E+00
 1.0177500E+00  0.0000000E+00
 1.0292500E+00  0.0000000E+00
 1.0407500E+00  0.0000000E+00
 1.0522500E+00  0.0000000E+00
 1.0637500E+00  0.0000000E+00
 1.0752500E+00  0.0000000E+00
 1.0867500E+00  0.0000000E+00
 1.0982500E+00  0.0000000E+00
 1.1097500E+00  0.0000000E+00
 1.1212500E+00  0.0000000E+00
 1.1327500E+00  0.0000000E+00
 1.1442500E+00  0.0000000E+00
 1.1557500E+00  0.0000000E+00
 1.1672500E+00  0.0000000E+00
 1.1787500E+00  0.0000000E+00
 1.1902500E+00  0.0000000E+00
 1.2017500E+00  0.0000000E+00
 1.2132500E+00  0.0000000E+00
 1.2247500E+00  0.0000000E+00
 1.2362500E+00  0.0000000E+00
 1.2477500E+00  0.0000000E+00
 1.2592500E+00  0.0000000E+00
 1.2707500E+00  0.0000000E+00
 1.2822500E+00  0.0000000E+00
 1.2937500E+00  0.0000000E+00
 1.3052500E+00  0.0000000E+00
 1.3167500E+00  0.0000000E+00
 1.3282501E+00  0.0000000E+00
 1.3397501E+00  0.0000000E+00
 1.3512501E+00  0.0000000E+00
 1.3627501E+00  0.0000000E+00
 1.3742501E+00  0.0000000E+00
 1.3857501E+00  0.0000000E+00
 1.3972501E+00  0.0000000E+00
 1.4087501E+00  0.0000000E+00
 1.4202501E+00  0.0000000E+00
 1.4317501E+00  0.0000000E+00
 1.4432501E+00  0.0000000E+00
 1.4547501E+00  0.0000000E+00
 1.4662501E+00  0.0000000E+00
 1.4777501E+00  0.0000000E+00
 1.4892501E+00  0.0000000E+00
 1.5007501E+00  0.0000000E+00
 1.5122501E+00  0.0000000E+00
 1.5237501E+00  0.0000000E+00
 1.5352501E+00  0.0000000E+00
 1.5467501E+00  0.0000000E+00
 1.5582501E+00  0.0000000E+00
 1.5697501E+00  0.0000000E+00
 1.5812501E+00  0.0000000E+00
 1.5927501E+00  0.0000000E+00
 1.6042501E+00  0.0000000E+00
 1.6157501E+00  0.0000000E+00
 1.6272501E+00  0.0000000E+00
 1.6387501E+00  0.0000000E+00
 1.6502501E+00  0.0000000E+00
 1.6617501E+00  0.0000000E+00
 1.6732501E+00  0.0000000E+00
 1.6847501E+00  0.0000000E+00
 1.6962501E+00  0.0000000E+00
 1.7077501E+00  0.0000000E+00
 1.7192501E+00  0.0000000E+00
 1.7307501E+00  0.0000000E+00
 1.7422501E+00  0.0000000E+00
 1.7537501E+00  0.0000000E+00
 1.7652501E+00  0.0000000E+00
 1.7767501E+00  0.0000000E+00
 1.7882501E+00  0.0000000E+00
 1.7997501E+00  0.0000000E+00
 1.8112501E+00  0.0000000E+00
 1.8227501E+00  0.0000000E+00
 1.8342501E+00  0.0000000E+00
 1.8457501E+00  0.0000000E+00
 1.8572501E+00  0.0000000E+00
 1.8687501E+00  0.0000000E+00
 1.8802501E+00  0.0000000E+00
 1.8917501E+00  0.0000000E+00
 1.9032501E+00  0.0000000E+00
 1.9147501E+00  0.0000000E+00
 1.9262501E+00  0.0000000E+00
 1.9377501E+00  0.0000000E+00
 1.9492501E+00  0.0000000E+00
 1.9607501E+00  0.0000000E+00
 1.9722501E+00  0.0000000E+00
 1.9837501E+00  0.0000000E+00
 1.9952501E+00  0.0000000E+00
 2.0067501E+00  0.0000000E+00
 2.0182500E+00  0.0000000E+00
 2.0297501E+00  0.0000000E+00
 2.0412500E+00  0.0000000E+00
 2.0527501E+00  0.0000000E+00
 2.0642500E+00  0.0000000E+00
 2.0757501E+00  0.0000000E+00
 2.0872500E+00  0.0000000E+00
 2.0987501E+00  0.0000000E+00
 2.1102500E+00  0.0000000E+00
 2.1217501E+00  0.0000000E+00
 2.1332500E+00  0.0000000E+00
 2.1447501E+00  0.0000000E+00
 2.1562500E+00  0.0000000E+00
 2.1677501E+00  0.0000000E+00
 2.1792500E+00  0.0000000E+00
 2.1907501E+00  0.0000000E+00
 2.2022500E+00  0.0000000E+00
 2.2137501E+00  0.0000000E+00
 2.2252500E+00  0.0000000E+00
 2.2367501E+00  0.0000000E+00
 2.2482500E+00  0.0000000E+00
 2.2597501E+00  0.0000000E+00
 2.2712500E+00  0.0000000E+00
 2.2827501E+00  0.0000000E+00
 2.2942500E+00  0.0000000E+00
 2.3057501E+00  0.0000000E+00
 2.3172500E+00  0.0000000E+00
 2.3287501E+00  0.0000000E+00
 2.3402500E+00  0.0000000E+00
 2.3517501E+00  0.0000000E+00
 2.3632500E+00  0.0000000E+00
 2.3747501E+00  0.0000000E+00
 2.3862500E+00  0.0000000E+00
 2.3977501E+00  0.0000000E+00
 2.4092500E+00  0.0000000E+00
 2.4207501E+00  0.0000000E+00
 2.4322500E+00  0.0000000E+00
 2.4437501E+00  0.0000000E+00
 2.4552500E+00  0.0000000E+00
 2.4667501E+00  0.0000000E+00
 2.4782500E+00  0.0000000E+00
 2.4897501E+00  0.0000000E+00
 2.5012500E+00  0.0000000E+00
 2.5127501E+00  0.0000000E+00
 2.5242500E+00  0.0000000E+00
 2.5357502E+00  0.0000000E+00
 2.5472500E+00  0.0000000E+00
 2.5587502E+00  0.0000000E+00
 2.5702500E+00  0.0000000E+00
 2.5817502E+00  0.0000000E+00
 2.5932500E+00  0.0000000E+00
 2.6047502E+00  0.0000000E+00
 2.6162500E+00  0.0000000E+00
 2.6277502E+00  0.0000000E+00
 2.6392500E+00  0.0000000E+00
 2.6507502E+00  0.0000000E+00
 2.6622500E+00  0.0000000E+00
 2.6737502E+00  0.0000000E+00
 2.6852500E+00  0.0000000E+00
 2.6967502E+00  0.0000000E+00
 2.7082500E+00  0.0000000E+00
 2.7197502E+00  0.0000000E+00
 2.7312500E+00  0.0000000E+00
 2.7427502E+00  0.0000000E+00
 2.7542500E+00  0.0000000E+00
 2.7657502E+00  0.0000000E+00
 2.7772501E+00  0.0000000E+00
 2.7887502E+00  0.0000000E+00
 2.8002501E+00  0.0000000E+00
 2.8117502E+00  0.0000000E+00
 2.8232501E+00  3.4512135E+01
 2.8347502E+00  3.3459297E+01
 2.8462501E+00  3.3420834E+01
 2.8577502E+00  3.3525341E+01
 2.8692501E+00  3.4219833E+01
 2.8807502E+00  3.4715881E+01
 2.8922501E+00  3.4724056E+01
 2.9037502E+00  3.4936787E+01
 2.9152501E+00  3.5159653E+01
 2.9267502E+00  3.5568150E+01
 2.9382501E+00  3.5295605E+01
 2.9497502E+00  3.5190128E+01
 2.9612501E+00  3.5322140E+01
 2.9727502E+00  3.5682110E+01
 2.9842501E+00  3.5989372E+01
 2.9957502E+00  3.5835781E+01
 3.0072501E+00  3.5819351E+01
 3.0187502E+00  3.5465965E+01
 3.0302501E+00  3.5212334E+01
 3.0417502E+00  3.4706711E+01
 3.0532501E+00  3.4513699E+01
 3.0647502E+00  3.4526283E+01
 3.0762501E+00  3.4671741E+01
 3.0877502E+00  3.4747669E+01
 3.0992501E+00  3.5396015E+01
 3.1107502E+00  3.5640743E+01
 3.1222501E+00  3.6280399E+01
 3.1337502E+00  3.6061611E+01
 3.1452501E+00  3.6003548E+01
 3.1567502E+00  3.5647331E+01
 3.1682501E+00  3.5490051E+01
 3.1797502E+00  3.5386635E+01
 3.1912501E+00  3.5517109E+01
 3.2027502E+00  3.5315075E+01
 3.2142501E+00  3.5274483E+01
 3.2257502E+00  3.5290581E+01
 3.2372501E+00  3.5510529E+01
 3.2487502E+00  3.5399387E+01
 3.2602501E+00  3.5140903E+01
 3.2717502E+00  3.4722141E+01
 3.2832501E+00  3.4478863E+01
 3.2947502E+00  3.4554314E+01
 3.3062501E+00  3.4579304E+01
 3.3177502E+00  3.4964710E+01
 3.3292501E+00  3.4976097E+01
 3.3407502E+00  3.4962067E+01
 3.3522501E+00  3.4857925E+01
 3.3637502E+00  3.4408054E+01
 3.3752501E+00  3.4277351E+01
 3.3867502E+00  3.3991898E+01
 3.3982501E+00  3.3480358E+01
 3.4097502E+00  3.3357628E+01
 3.4212501E+00  3.3069000E+01
 3.4327502E+00  3.3392570E+01
 3.4442501E+00  3.3534134E+01
 3.4557502E+00  3.3672359E+01
 3.4672501E+00  3.3784107E+01
 3.4787502E+00  3.3680363E+01
 3.4902501E+00  3.3650845E+01
 3.5017502E+00  3.3578930E+01
 3.5132501E+00  3.3538876E+01
 3.5247502E+00  3.3606266E+01
 3.5362501E+00  3.3619694E+01
 3.5477502E+00  3.3675735E+01
 3.5592501E+00  3.3734795E+01
 3.5707502E+00  3.3701767E+01
 3.5822501E+00  3.3710197E+01
 3.5937502E+00  3.3596668E+01
 3.6052501E+00  3.3531796E+01
 3.6167502E+00  3.3432991E+01
 3.6282501E+00  3.3236095E+01
 3.6397502E+00  3.3288319E+01
 3.6512501E+00  3.3378078E+01
 3.6627502E+00  3.3439758E+01
 3.6742501E+00  3.3244972E+01
 3.6857502E+00  3.3025364E+01
 3.6972501E+00  3.2765942E+01
 3.7087502E+00  3.2745792E+01
 3.7202501E+00  3.2660313E+01
 3.7317502E+00  3.2874218E+01
 3.7432501E+00  3.3013531E+01
 3.7547503E+00  3.3110668E+01
 3.7662501E+00  3.3174320E+01
 3.7777503E+00  3.3035271E+01
 3.7892501E+00  3.2889900E+01
 3.8007503E+00  3.2504375E+01
 3.8122501E+00  3.2498100E+01
 3.8237503E+00  3.2489834E+01
 3.8352501E+00  3.2605114E+01
 3.8467503E+00  3.2612339E+01
 3.8582501E+00  3.2667835E+01
 3.8697503E+00  3.2809387E+01
 3.8812501E+00  3.2851292E+01
 3.8927503E+00  3.2737164E+01
 3.9042501E+00  3.2535629E+01
 3.9157503E+00  3.2387688E+01
 3.9272501E+00  3.2516975E+01
 3.9387503E+00  3.2630966E+01
 3.9502501E+00  3.2587341E+01
 3.9617503E+00  3.2533901E+01
 3.9732502E+00  3.2555428E+01
 3.9847503E+00  3.2710537E+01
 3.9962502E+00  3.2850079E+01
 4.0077500E+00  3.2764862E+01
 4.0192504E+00  3.2562435E+01
 4.0307503E+00  3.2211433E+01
 4.0422502E+00  3.2127892E+01
 4.0537500E+00  3.2064800E+01
 4.0652504E+00  3.2079681E+01
 4.0767503E+00  3.2093712E+01
 4.0882502E+00  3.2199722E+01
 4.0997500E+00  3.2310711E+01
 4.1112504E+00  3.2391705E+01
 4.1227503E+00  3.2463055E+01
 4.1342502E+00  3.2622818E+01
 4.1457500E+00  3.2843487E+01
 4.1572504E+00  3.2744617E+01
 4.1687503E+00  3.2757713E+01
 4.1802502E+00  3.2402538E+01
 4.1917500E+00  3.2402863E+01
 4.2032504E+00  3.2318321E+01
 4.2147503E+00  3.2342945E+01
 4.2262502E+00  3.2321846E+01
 4.2377501E+00  3.2186455E+01
 4.2492504E+00  3.2098587E+01
 4.2607503E+00  3.2139027E+01
 4.2722502E+00  3.2151653E+01
 4.2837501E+00  3.2225967E+01
 4.2952504E+00  3.2265854E+01
 4.3067503E+00  3.2294117E+01
 4.3182502E+00  3.2395580E+01
 4.3297501E+00  3.2465523E+01
 4.3412504E+00  3.2691174E+01
 4.3527503E+00  3.2796757E+01
 4.3642502E+00  3.2737694E+01
 4.3757501E+00  3.2795410E+01
 4.3872504E+00  3.2578651E+01
 4.3987503E+00  3.2443890E+01
 4.4102502E+00  3.2206799E+01
 4.4217501E+00  3.2081757E+01
 4.4332504E+00  3.2208385E+01
 4.4447503E+00  3.2183418E+01
 4.4562502E+00  3.2272789E+01
 4.4677501E+00  3.2249035E+01
 4.4792504E+00  3.2308006E+01
 4.4907503E+00  3.2400635E+01
 4.5022502E+00  3.2428398E+01
 4.5137501E+00  3.2477421E+01
 4.5252504E+00  3.2530006E+01
 4.5367503E+00  3.2612686E+01
 4.5482502E+00  3.2558475E+01
 4.5597501E+00  3.2482979E+01
 4.5712504E+00  3.2439587E+01
 4.5827503E+00  3.2499344E+01
 4.5942502E+00  3.2530163E+01
 4.6057501E+00  3.2447643E+01
 4.6172504E+00  3.2495228E+01
 4.6287503E+00  3.2559124E+01
 4.6402502E+00  3.2754360E+01
 4.6517501E+00  3.2858395E+01
 4.6632504E+00  3.3009495E+01
 4.6747503E+00  3.3000290E+01
 4.6862502E+00  3.2943779E+01
 4.6977501E+00  3.2867119E+01
 4.7092505E+00  3.2827240E+01
 4.7207503E+00  3.2805664E+01
 4.7322502E+00  3.2709934E+01
 4.7437501E+00  3.2704754E+01
 4.7552505E+00  3.2661625E+01
 4.7667503E+00  3.2739250E+01
 4.7782502E+00  3.2633358E+01
 4.7897501E+00  3.2625267E+01
 4.8012505E+00  3.2558216E+01
 4.8127503E+00  3.2575680E+01
 4.8242502E+00  3.2592663E+01
 4.8357501E+00  3.2606628E+01
 4.8472505E+00  3.2688866E+01
 4.8587503E+00  3.2855415E+01
 4.8702502E+00  3.2754433E+01
 4.8817501E+00  3.2702759E+01
 4.8932505E+00  3.2628735E+01
 4.9047503E+00  3.2637684E+01
 4.9162502E+00  3.2820595E+01
 4.9277501E+00  3.2895199E+01
 4.9392505E+00  3.3116199E+01
 4.9507504E+00  3.3167400E+01
 4.9622502E+00  3.3210854E+01
 4.9737501E+00  3.3116814E+01
 4.9852505E+00  3.3062088E+01
 4.9967504E+00  3.2897293E+01
 5.0082502E+00  3.3000889E+01
 5.0197501E+00  3.2928310E+01
 5.0312505E+00  3.3123146E+01
 5.0427504E+00  3.3142994E+01
 5.0542502E+00  3.3215469E+01
 5.0657501E+00  3.3226429E+01
 5.0772505E+00  3.3267899E+01
 5.0887504E+00  3.3314445E+01
 5.1002502E+00  3.3348522E+01
 5.1117501E+00  3.3334106E+01
 5.1232505E+00  3.3158382E+01
 5.1347504E+00  3.3226662E+01
 5.1462502E+00  3.3229504E+01
 5.1577501E+00  3.3431370E+01
 5.1692505E+00  3.3619118E+01
 5.1807504E+00  3.3692768E+01
 5.1922503E+00  3.3774197E+01
 5.2037501E+00  3.3825527E+01
 5.2152505E+00  3.3890568E+01
 5.2267504E+00  3.3943951E+01
 5.2382503E+00  3.3906689E+01
 5.2497501E+00  3.3802113E+01
 5.2612505E+00  3.3772278E+01
 5.2727504E+00  3.3805218E+01
 5.2842503E+00  3.3940121E+01
 5.2957501E+00  3.4125683E+01
 5.3072500E+00  3.4190289E+01
 5.3187504E+00  3.4301235E+01
 5.3302503E+00  3.4351753E+01
 5.3417501E+00  3.4380688E+01
 5.3532500E+00  3.4297619E+01
 5.3647504E+00  3.4256161E+01
 5.3762503E+00  3.4231167E+01
 5.3877501E+00  3.4294735E+01
 5.3992500E+00  3.4356098E+01
 5.4107504E+00  3.4438377E+01
 5.4222503E+00  3.4468235E+01
 5.4337502E+00  3.4515957E+01
 5.4452500E+00  3.4694584E+01
 5.4567504E+00  3.4688538E+01
 5.4682503E+00  3.4755325E+01
 5.4797502E+00  3.4624039E+01
 5.4912500E+00  3.4662033E+01
 5.5027504E+00  3.4681217E+01
 5.5142503E+00  3.4719364E+01
 5.5257502E+00  3.4781414E+01
 5.5372500E+00  3.4770542E+01
 5.5487504E+00  3.4871464E+01
 5.5602503E+00  3.4870975E+01
 5.5717502E+00  3.4961781E+01
 5.5832500E+00  3.4992157E+01
 5.5947504E+00  3.5123791E+01
 5.6062503E+00  3.5135208E+01
 5.6177502E+00  3.5088444E+01
 5.6292500E+00  3.5046612E+01
 5.6407504E+00  3.5117252E+01
 5.6522503E+00  3.5187084E+01
 5.6637502E+00  3.5344543E+01
 5.6752501E+00  3.5371258E+01
 5.6867504E+00  3.5452778E+01
 5.6982503E+00  3.5408962E+01
 5.7097502E+00  3.5360146E+01
 5.7212501E+00  3.5333500E+01
 5.7327504E+00  3.5348824E+01
 5.7442503E+00  3.5451237E+01
 5.7557502E+00  3.5491638E+01
 5.7672501E+00  3.5515903E+01
 5.7787504E+00  3.5483322E+01
 5.7902503E+00  3.5509613E+01
 5.8017502E+00  3.5553146E+01
 5.8132501E+00  3.5655434E+01
 5.8247504E+00  3.5824051E+01
 5.8362503E+00  3.5942333E+01
 5.8477502E+00  3.6078724E+01
 5.8592501E+00  3.6028515E+01
 5.8707504E+00  3.6219135E+01
 5.8822503E+00  3.6277870E+01
 5.8937502E+00  3.6560471E+01
 5.9052501E+00  3.6697884E+01
 5.9167504E+00  3.7078362E+01
 5.9282503E+00  3.7776951E+01
 5.9397502E+00  3.8815899E+01
 5.9512501E+00  4.0559704E+01
 5.9627504E+00  4.2533825E+01
 5.9742503E+00  4.3858559E+01
 5.9857502E+00  4.5913139E+01
 5.9972501E+00  4.6139294E+01
 6.0087504E+00  4.5500568E+01
 6.0202503E+00  4.2907986E+01
 6.0317502E+00  4.0614285E+01
 6.0432501E+00  3.9278023E+01
 6.0547504E+00  3.8158146E+01
 6.0662503E+00  3.7610027E+01
 6.0777502E+00  3.7378014E+01
 6.0892501E+00  3.7212940E+01
 6.1007504E+00  3.7200527E+01
 6.1122503E+00  3.7178703E+01
 6.1237502E+00  3.7191708E+01
 6.1352501E+00  3.7079754E+01
 6.1467505E+00  3.6944843E+01
 6.1582503E+00  3.6817299E+01
 6.1697502E+00  3.6801880E+01
 6.1812501E+00  3.6868225E+01
 6.1927505E+00  3.6925472E+01
 6.2042503E+00  3.7038761E+01
 6.2157502E+00  3.7164463E+01
 6.2272501E+00  3.7276573E+01
 6.2387505E+00  3.7191315E+01
 6.2502503E+00  3.7078899E+01
 6.2617502E+00  3.6986591E+01
 6.2732501E+00  3.7134651E+01
 6.2847505E+00  3.7342831E+01
 6.2962503E+00  3.7507427E+01
 6.3077502E+00  3.7639103E+01
 6.3192501E+00  3.7690933E+01
 6.3307505E+00  3.7888882E+01
 6.3422503E+00  3.7937798E+01
 6.3537502E+00  3.8048313E+01
 6.3652501E+00  3.8054127E+01
 6.3767505E+00  3.8060966E+01
 6.3882504E+00  3.8089798E+01
 6.3997502E+00  3.8041679E+01
 6.4112501E+00  3.8119358E+01
 6.4227505E+00  3.8179298E+01
 6.4342504E+00  3.8298595E+01
 6.4457502E+00  3.8531105E+01
 6.4572501E+00  3.8616020E+01
 6.4687505E+00  3.8770718E+01
 6.4802504E+00  3.8709248E+01
 6.4917502E+00  3.8808487E+01
 6.5032501E+00  3.8846317E+01
 6.5147505E+00  3.8948956E+01
 6.5262504E+00  3.9038155E+01
 6.5377502E+00  3.9090179E+01
 6.5492501E+00  3.9153664E+01
 6.5607505E+00  3.9209110E+01
 6.5722504E+00  3.9273407E+01
 6.5837502E+00  3.9449776E+01
 6.5952501E+00  3.9582523E+01
 6.6067505E+00  3.9757538E+01
 6.6182504E+00  3.9815002E+01
 6.6297503E+00  3.9871708E+01
 6.6412501E+00  3.9922485E+01
 6.6527505E+00  3.9976906E+01
 6.6642504E+00  4.0077709E+01
 6.6757503E+00  4.0073479E+01
 6.6872501E+00  4.0127388E+01
 6.6987505E+00  4.0061253E+01
 6.7102504E+00  4.0189152E+01
 6.7217503E+00  4.0285130E+01
 6.7332501E+00  4.0391701E+01
 6.7447505E+00  4.0464420E+01
 6.7562504E+00  4.0511902E+01
 6.7677503E+00  4.0499428E+01
 6.7792501E+00  4.0499313E+01
 6.7907505E+00  4.0488102E+01
 6.8022504E+00  4.0561371E+01
 6.8137503E+00  4.0737740E+01
 6.8252501E+00  4.0862194E+01
 6.8367505E+00  4.1063465E+01
 6.8482504E+00  4.1151867E+01
 6.8597503E+00  4.1253338E+01
 6.8712502E+00  4.1323231E+01
 6.8827505E+00  4.1445396E+01
 6.8942504E+00  4.1569206E+01
 6.9057503E+00  4.1663094E+01
 6.9172502E+00  4.1737885E+01
 6.9287505E+00  4.1637352E+01
 6.9402504E+00  4.1700619E+01
 6.9517503E+00  4.1717880E+01
 6.9632502E+00  4.1763096E+01
 6.9747505E+00  4.1923843E+01
 6.9862504E+00  4.1970013E+01
 6.9977503E+00  4.2150726E+01
 7.0092502E+00  4.2205872E+01
 7.0207505E+00  4.2315903E+01
 7.0322504E+00  4.2376839E+01
 7.0437503E+00  4.2491310E+01
 7.0552502E+00  4.2640003E+01
 7.0667505E+00  4.2827126E+01
 7.0782504E+00  4.2815865E+01
 7.0897503E+00  4.2862396E+01
 7.1012502E+00  4.2818741E+01
 7.1127505E+00  4.2840214E+01
 7.1242504E+00  4.2864143E+01
 7.1357503E+00  4.2961044E+01
 7.1472502E+00  4.3118282E+01
 7.1587505E+00  4.3210979E+01
 7.1702504E+00  4.3304737E+01
 7.1817503E+00  4.3312050E+01
 7.1932502E+00  4.3267319E+01
 7.2047505E+00  4.3261959E+01
 7.2162504E+00  4.3287567E+01
 7.2277503E+00  4.3376099E+01
 7.2392502E+00  4.3440533E+01
 7.2507505E+00  4.3532566E+01
 7.2622504E+00  4.3675564E+01
 7.2737503E+00  4.3792854E+01
 7.2852502E+00  4.3886967E+01
 7.2967505E+00  4.3946915E+01
 7.3082504E+00  4.3966183E+01
 7.3197503E+00  4.4032970E+01
 7.3312502E+00  4.4027359E+01
 7.3427505E+00  4.3999744E+01
 7.3542504E+00  4.3946671E+01
 7.3657503E+00  4.3860619E+01
 7.3772502E+00  4.3831455E+01
 7.3887506E+00  4.3818192E+01
 7.4002504E+00  4.3900829E+01
 7.4117503E+00  4.4067863E+01
 7.4232502E+00  4.4167610E+01
 7.4347506E+00  4.4162148E+01
 7.4462504E+00  4.4057926E+01
 7.4577503E+00  4.4022530E+01
 7.4692502E+00  4.4002140E+01
 7.4807506E+00  4.4077621E+01
 7.4922504E+00  4.4032326E+01
 7.5037503E+00  4.4155422E+01
 7.5152502E+00  4.4161358E+01
 7.5267506E+00  4.4102154E+01
 7.5382504E+00  4.3978046E+01
 7.5497503E+00  4.3825512E+01
 7.5612502E+00  4.3912907E+01
 7.5727506E+00  4.3937340E+01
 7.5842505E+00  4.4036793E+01
 7.5957503E+00  4.4090076E+01
 7.6072502E+00  4.4138859E+01
 7.6187506E+00  4.4090626E+01
 7.6302505E+00  4.4082405E+01
 7.6417503E+00  4.4041004E+01
 7.6532502E+00  4.4039429E+01
 7.6647506E+00  4.3968800E+01
 7.6762505E+00  4.3990044E+01
 7.6877503E+00  4.4083488E+01
 7.6992502E+00  4.4190224E+01
 7.7107506E+00  4.4275997E+01
 7.7222505E+00  4.4257477E+01
 7.7337503E+00  4.4279705E+01
 7.7452502E+00  4.4244553E+01
 7.7567506E+00  4.4237946E+01
 7.7682505E+00  4.4228775E+01
 7.7797503E+00  4.4170193E+01
 7.7912502E+00  4.4168941E+01
 7.8027506E+00  4.4132637E+01
 7.8142505E+00  4.4086758E+01
 7.8257504E+00  4.4038998E+01
 7.8372502E+00  4.4023754E+01
 7.8487506E+00  4.4094658E+01
 7.8602505E+00  4.4162510E+01
 7.8717504E+00  4.4033806E+01
 7.8832502E+00  4.3954716E+01
 7.8947506E+00  4.3858208E+01
 7.9062505E+00  4.3893219E+01
 7.9177504E+00  4.3822952E+01
 7.9292502E+00  4.3735733E+01
 7.9407506E+00  4.3601749E+01
 7.9522505E+00  4.3450180E+01
 7.9637504E+00  4.3340446E+01
 7.9752502E+00  4.3223068E+01
 7.9867506E+00  4.3222546E+01
 7.9982505E+00  4.3146996E+01
 8.0097504E+00  4.3089539E+01
 8.0212507E+00  4.3056763E+01
 8.0327501E+00  4.3121563E+01
 8.0442505E+00  4.3184155E+01
 8.0557508E+00  4.3048309E+01
 8.0672503E+00  4.2845051E+01
 8.0787506E+00  4.2768200E+01
 8.0902500E+00  4.2759392E+01
 8.1017504E+00  4.2758713E+01
 8.1132507E+00  4.2658089E+01
 8.1247501E+00  4.2504433E+01
 8.1362505E+00  4.2375996E+01
 8.1477509E+00  4.2217094E+01
 8.1592503E+00  4.2064762E+01
 8.1707506E+00  4.1923447E+01
 8.1822500E+00  4.1732681E+01
 8.1937504E+00  4.1679657E+01
 8.2052507E+00  4.1521759E+01
 8.2167501E+00  4.1485088E+01
 8.2282505E+00  4.1399765E+01
 8.2397509E+00  4.1340393E+01
 8.2512503E+00  4.1243954E+01
 8.2627506E+00  4.1106037E+01
 8.2742500E+00  4.1014977E+01
 8.2857504E+00  4.0904217E+01
 8.2972507E+00  4.0757099E+01
 8.3087502E+00  4.0577549E+01
 8.3202505E+00  4.0460480E+01
 8.3317509E+00  4.0228439E+01
 8.3432503E+00  4.0133904E+01
 8.3547506E+00  3.9963017E+01
 8.3662500E+00  3.9902393E+01
 8.3777504E+00  3.9728168E+01
 8.3892508E+00  3.9601830E+01
 8.4007502E+00  3.9491470E+01
 8.4122505E+00  3.9352829E+01
 8.4237509E+00  3.9124355E+01
 8.4352503E+00  3.8910870E+01
 8.4467506E+00  3.8686996E+01
 8.4582500E+00  3.8478992E+01
 8.4697504E+00  3.8262032E+01
 8.4812508E+00  3.8069103E+01
 8.4927502E+00  3.7886738E+01
 8.5042505E+00  3.7776920E+01
 8.5157509E+00  3.7657352E+01
 8.5272503E+00  3.7545326E+01
 8.5387506E+00  3.7475090E+01
 8.5502501E+00  3.7320923E+01
 8.5617504E+00  3.7197704E+01
 8.5732508E+00  3.6973206E+01
 8.5847502E+00  3.6732868E+01
 8.5962505E+00  3.6514206E+01
 8.6077509E+00  3.6272270E+01
 8.6192503E+00  3.6120327E+01
 8.6307507E+00  3.5978889E+01
 8.6422501E+00  3.5823971E+01
 8.6537504E+00  3.5631924E+01
 8.6652508E+00  3.5401039E+01
 8.6767502E+00  3.5111816E+01
 8.6882505E+00  3.4979073E+01
 8.6997509E+00  3.4804852E+01
 8.7112503E+00  3.4725140E+01
 8.7227507E+00  3.4565674E+01
 8.7342501E+00  3.4347317E+01
 8.7457504E+00  3.4099354E+01
 8.7572508E+00  3.3830429E+01
 8.7687502E+00  3.3664078E+01
 8.7802505E+00  3.3520298E+01
 8.7917500E+00  3.3449844E+01
 8.8032503E+00  3.3369495E+01
 8.8147507E+00  3.3342564E+01
 8.8262501E+00  3.3180740E+01
 8.8377504E+00  3.3088474E+01
 8.8492508E+00  3.2887341E+01
 8.8607502E+00  3.2747700E+01
 8.8722506E+00  3.2537174E+01
 8.8837500E+00  3.2356888E+01
 8.8952503E+00  3.2174038E+01
 8.9067507E+00  3.2021648E+01
 8.9182501E+00  3.1919777E+01
 8.9297504E+00  3.1776434E+01
 8.9412508E+00  3.1620928E+01
 8.9527502E+00  3.1469242E+01
 8.9642506E+00  3.1254971E+01
 8.9757500E+00  3.1095219E+01
 8.9872503E+00  3.0863380E+01
 8.9987507E+00  3.0660210E+01
 9.0102501E+00  3.0427185E+01
 9.0217505E+00  3.0211161E+01
 9.0332508E+00  3.0081455E+01
 9.0447502E+00  2.9998602E+01
 9.0562506E+00  2.9871624E+01
 9.0677500E+00  2.9870415E+01
 9.0792503E+00  2.9772535E+01
 9.0907507E+00  2.9680853E+01
 9.1022501E+00  2.9499994E+01
 9.1137505E+00  2.9364431E+01
 9.1252508E+00  2.9316181E+01
 9.1367502E+00  2.9249891E+01
 9.1482506E+00  2.9196459E+01
 9.1597500E+00  2.9085424E+01
 9.1712503E+00  2.8908028E+01
 9.1827507E+00  2.8733734E+01
 9.1942501E+00  2.8599535E+01
 9.2057505E+00  2.8468399E+01
 9.2172508E+00  2.8431417E+01
 9.2287502E+00  2.8330238E+01
 9.2402506E+00  2.8516449E+01
 9.2517500E+00  2.8584789E+01
 9.2632504E+00  2.8494326E+01
 9.2747507E+00  2.8221458E+01
 9.2862501E+00  2.7892630E+01
 9.2977505E+00  2.7742336E+01
 9.3092508E+00  2.7551722E+01
 9.3207502E+00  2.7406261E+01
 9.3322506E+00  2.7298292E+01
 9.3437500E+00  2.7147310E+01
 9.3552504E+00  2.7029230E+01
 9.3667507E+00  2.6959543E+01
 9.3782501E+00  2.6989248E+01
 9.3897505E+00  2.6981533E+01
 9.4012508E+00  2.6891403E+01
 9.4127502E+00  2.6825624E+01
 9.4242506E+00  2.6707209E+01
 9.4357500E+00  2.6691898E+01
 9.4472504E+00  2.6569210E+01
 9.4587507E+00  2.6548124E+01
 9.4702501E+00  2.6489794E+01
 9.4817505E+00  2.6446798E+01
 9.4932508E+00  2.6392210E+01
 9.5047503E+00  2.6358004E+01
 9.5162506E+00  2.6357059E+01
 9.5277500E+00  2.6323664E+01
 9.5392504E+00  2.6229311E+01
 9.5507507E+00  2.6157528E+01
 9.5622501E+00  2.6099331E+01
 9.5737505E+00  2.6026079E+01
 9.5852509E+00  2.5886454E+01
 9.5967503E+00  2.5767487E+01
 9.6082506E+00  2.5715124E+01
 9.6197500E+00  2.5667587E+01
 9.6312504E+00  2.5554420E+01
 9.6427507E+00  2.5492353E+01
 9.6542501E+00  2.5381653E+01
 9.6657505E+00  2.5382832E+01
 9.6772509E+00  2.5293367E+01
 9.6887503E+00  2.5261181E+01
 9.7002506E+00  2.5164463E+01
 9.7117500E+00  2.5182669E+01
 9.7232504E+00  2.5151888E+01
 9.7347507E+00  2.5149426E+01
 9.7462502E+00  2.5094440E+01
 9.7577505E+00  2.5035830E+01
 9.7692509E+00  2.4975876E+01
 9.7807503E+00  2.4915422E+01
 9.7922506E+00  2.4912127E+01
 9.8037500E+00  2.4908596E+01
 9.8152504E+00  2.4823917E+01
 9.8267508E+00  2.4747887E+01
 9.8382502E+00  2.4719978E+01
 9.8497505E+00  2.4674622E+01
 9.8612509E+00  2.4597879E+01
 9.8727503E+00  2.4547094E+01
 9.8842506E+00  2.4528469E+01
 9.8957500E+00  2.4574049E+01
 9.9072504E+00  2.4540470E+01
 9.9187508E+00  2.4520504E+01
 9.9302502E+00  2.4458706E+01
 9.9417505E+00  2.4381775E+01
 9.9532509E+00  2.4365520E+01
 9.9647503E+00  2.4330835E+01
 9.9762506E+00  2.4332657E+01
 9.9877501E+00  2.4287102E+01
 9.9992504E+00  2.4273014E+01
 1.0010751E+01  2.4236311E+01
 1.0022250E+01  2.4188347E+01
 1.0033751E+01  2.4187609E+01
 1.0045251E+01  2.4176786E+01
 1.0056750E+01  2.4165524E+01
 1.0068251E+01  2.4104692E+01
 1.0079750E+01  2.4016508E+01
 1.0091250E+01  2.3904757E+01
 1.0102751E+01  2.3788864E+01
 1.0114250E+01  2.3742949E+01
 1.0125751E+01  2.3676619E+01
 1.0137251E+01  2.3650764E+01
 1.0148750E+01  2.3675499E+01
 1.0160251E+01  2.3705999E+01
 1.0171750E+01  2.3755732E+01
 1.0183250E+01  2.3799795E+01
 1.0194751E+01  2.3766693E+01
 1.0206250E+01  2.3738781E+01
 1.0217751E+01  2.3630695E+01
 1.0229251E+01  2.3642235E+01
 1.0240750E+01  2.3569305E+01
 1.0252251E+01  2.3541630E+01
 1.0263750E+01  2.3514593E+01
 1.0275250E+01  2.3512157E+01
 1.0286751E+01  2.3509382E+01
 1.0298250E+01  2.3507875E+01
 1.0309751E+01  2.3490438E+01
 1.0321251E+01  2.3433159E+01
 1.0332750E+01  2.3421093E+01
 1.0344251E+01  2.3447771E+01
 1.0355750E+01  2.3469128E+01
 1.0367250E+01  2.3407173E+01
 1.0378751E+01  2.3328363E+01
 1.0390250E+01  2.3305326E+01
 1.0401751E+01  2.3274307E+01
 1.0413251E+01  2.3289352E+01
 1.0424750E+01  2.3233961E+01
 1.0436251E+01  2.3242235E+01
 1.0447750E+01  2.3219330E+01
 1.0459250E+01  2.3204227E+01
 1.0470751E+01  2.3133705E+01
 1.0482250E+01  2.3110151E+01
 1.0493751E+01  2.3081568E+01
 1.0505251E+01  2.3113302E+01
 1.0516750E+01  2.3129782E+01
 1.0528251E+01  2.3137785E+01
 1.0539750E+01  2.3111437E+01
 1.0551250E+01  2.3077469E+01
 1.0562751E+01  2.3032301E+01
 1.0574250E+01  2.2961784E+01
 1.0585751E+01  2.2950684E+01
 1.0597251E+01  2.2910130E+01
 1.0608750E+01  2.2975536E+01
 1.0620251E+01  2.2919708E+01
 1.0631750E+01  2.2963411E+01
 1.0643250E+01  2.2942392E+01
 1.0654751E+01  2.2917738E+01
 1.0666250E+01  2.2880886E+01
 1.0677751E+01  2.2842398E+01
 1.0689251E+01  2.2853798E+01
 1.0700750E+01  2.2861446E+01
 1.0712251E+01  2.2851669E+01
 1.0723750E+01  2.2851658E+01
 1.0735250E+01  2.2848841E+01
 1.0746751E+01  2.2872633E+01
 1.0758250E+01  2.2839907E+01
 1.0769751E+01  2.2851757E+01
 1.0781251E+01  2.2861294E+01
 1.0792750E+01  2.2864067E+01
 1.0804251E+01  2.2856005E+01
 1.0815750E+01  2.2781279E+01
 1.0827250E+01  2.2799257E+01
 1.0838751E+01  2.2724619E+01
 1.0850250E+01  2.2751474E+01
 1.0861751E+01  2.2746273E+01
 1.0873251E+01  2.2755798E+01
 1.0884750E+01  2.2714197E+01
 1.0896251E+01  2.2637609E+01
 1.0907750E+01  2.2641403E+01
 1.0919250E+01  2.2619238E+01
 1.0930751E+01  2.2604105E+01
 1.0942250E+01  2.2564833E+01
 1.0953751E+01  2.2569099E+01
 1.0965251E+01  2.2556950E+01
 1.0976750E+01  2.2566051E+01
 1.0988251E+01  2.2494234E+01
 1.0999750E+01  2.2476130E+01
 1.1011250E+01  2.2398272E+01
 1.1022751E+01  2.2379990E+01
 1.1034250E+01  2.2364388E+01
 1.1045751E+01  2.2364504E+01
 1.1057251E+01  2.2363907E+01
 1.1068750E+01  2.2331396E+01
 1.1080251E+01  2.2319868E+01
 1.1091750E+01  2.2301821E+01
 1.1103251E+01  2.2307775E+01
 1.1114751E+01  2.2333298E+01
 1.1126250E+01  2.2370430E+01
 1.1137751E+01  2.2392195E+01
 1.1149251E+01  2.2367968E+01
 1.1160750E+01  2.2382256E+01
 1.1172251E+01  2.2351780E+01
 1.1183750E+01  2.2329306E+01
 1.1195251E+01  2.2272804E+01
 1.1206751E+01  2.2255796E+01
 1.1218250E+01  2.2289000E+01
 1.1229751E+01  2.2271156E+01
 1.1241251E+01  2.2307611E+01
 1.1252750E+01  2.2303368E+01
 1.1264251E+01  2.2340534E+01
 1.1275750E+01  2.2351435E+01
 1.1287251E+01  2.2372492E+01
 1.1298751E+01  2.2349916E+01
 1.1310250E+01  2.2354073E+01
 1.1321751E+01  2.2336309E+01
 1.1333251E+01  2.2348366E+01
 1.1344750E+01  2.2337551E+01
 1.1356251E+01  2.2322580E+01
 1.1367750E+01  2.2404705E+01
 1.1379251E+01  2.2453154E+01
 1.1390751E+01  2.2609066E+01
 1.1402250E+01  2.2888397E+01
 1.1413751E+01  2.2979324E+01
 1.1425251E+01  2.2992750E+01
 1.1436750E+01  2.2872274E+01
 1.1448251E+01  2.2893028E+01
 1.1459750E+01  2.2948690E+01
 1.1471251E+01  2.2954525E+01
 1.1482751E+01  2.3002443E+01
 1.1494250E+01  2.3069580E+01
 1.1505751E+01  2.3179089E+01
 1.1517251E+01  2.3514011E+01
 1.1528750E+01  2.4071676E+01
 1.1540251E+01  2.4785845E+01
 1.1551750E+01  2.5762098E+01
 1.1563251E+01  2.6835716E+01
 1.1574751E+01  2.7563660E+01
 1.1586250E+01  2.8044500E+01
 1.1597751E+01  2.7829264E+01
 1.1609251E+01  2.7253956E+01
 1.1620750E+01  2.6465755E+01
 1.1632251E+01  2.5536415E+01
 1.1643750E+01  2.4823046E+01
 1.1655251E+01  2.4041283E+01
 1.1666751E+01  2.3533480E+01
 1.1678250E+01  2.3235115E+01
 1.1689751E+01  2.2891941E+01
 1.1701251E+01  2.2722023E+01
 1.1712750E+01  2.2615734E+01
 1.1724251E+01  2.2547264E+01
 1.1735750E+01  2.2529398E+01
 1.1747251E+01  2.2451685E+01
 1.1758751E+01  2.2472862E+01
 1.1770250E+01  2.2408907E+01
 1.1781751E+01  2.2422642E+01
 1.1793251E+01  2.2410444E+01
 1.1804750E+01  2.2469757E+01
 1.1816251E+01  2.2491064E+01
 1.1827750E+01  2.2497587E+01
 1.1839251E+01  2.2459789E+01
 1.1850751E+01  2.2446226E+01
 1.1862250E+01  2.2461533E+01
 1.1873751E+01  2.2470247E+01
 1.1885251E+01  2.2486629E+01
 1.1896750E+01  2.2542591E+01
 1.1908251E+01  2.2577879E+01
 1.1919750E+01  2.2638018E+01
 1.1931251E+01  2.2608442E+01
 1.1942751E+01  2.2765656E+01
 1.1954250E+01  2.2985802E+01
 1.1965751E+01  2.3086330E+01
 1.1977251E+01  2.3279213E+01
 1.1988750E+01  2.3287737E+01
 1.2000251E+01  2.3388889E+01
 1.2011750E+01  2.3381851E+01
 1.2023251E+01  2.3342762E+01
 1.2034751E+01  2.3406067E+01
 1.2046250E+01  2.3387905E+01
 1.2057751E+01  2.3535076E+01
 1.2069251E+01  2.3841057E+01
 1.2080750E+01  2.4017754E+01
 1.2092251E+01  2.4210472E+01
 1.2103750E+01  2.4271635E+01
 1.2115251E+01  2.4102146E+01
 1.2126751E+01  2.3872925E+01
 1.2138250E+01  2.3466133E+01
 1.2149751E+01  2.3226795E+01
 1.2161251E+01  2.2954258E+01
 1.2172750E+01  2.2758848E+01
 1.2184251E+01  2.2715954E+01
 1.2195750E+01  2.2644629E+01
 1.2207251E+01  2.2571228E+01
 1.2218751E+01  2.2448971E+01
 1.2230250E+01  2.2445477E+01
 1.2241751E+01  2.2451279E+01
 1.2253251E+01  2.2488182E+01
 1.2264750E+01  2.2524715E+01
 1.2276251E+01  2.2522335E+01
 1.2287750E+01  2.2538567E+01
 1.2299251E+01  2.2489111E+01
 1.2310751E+01  2.2532841E+01
 1.2322250E+01  2.2478518E+01
 1.2333751E+01  2.2507116E+01
 1.2345250E+01  2.2434902E+01
 1.2356750E+01  2.2504814E+01
 1.2368251E+01  2.2497820E+01
 1.2379750E+01  2.2517555E+01
 1.2391251E+01  2.2508619E+01
 1.2402751E+01  2.2438520E+01
 1.2414250E+01  2.2429932E+01
 1.2425751E+01  2.2419346E+01
 1.2437250E+01  2.2465908E+01
 1.2448750E+01  2.2506847E+01
 1.2460251E+01  2.2533888E+01
 1.2471750E+01  2.2548651E+01
 1.2483251E+01  2.2560343E+01
 1.2494751E+01  2.2529829E+01
 1.2506250E+01  2.2507122E+01
 1.2517751E+01  2.2519068E+01
 1.2529250E+01  2.2539385E+01
 1.2540751E+01  2.2595785E+01
 1.2552251E+01  2.2618279E+01
 1.2563750E+01  2.2665014E+01
 1.2575251E+01  2.2691843E+01
 1.2586751E+01  2.2706955E+01
 1.2598250E+01  2.2750147E+01
 1.2609751E+01  2.2787708E+01
 1.2621250E+01  2.2814753E+01
 1.2632751E+01  2.2813868E+01
 1.2644251E+01  2.2714293E+01
 1.2655750E+01  2.2725445E+01
 1.2667251E+01  2.2706745E+01
 1.2678751E+01  2.2739281E+01
 1.2690250E+01  2.2736328E+01
 1.2701751E+01  2.2784796E+01
 1.2713250E+01  2.2883812E+01
 1.2724751E+01  2.2891464E+01
 1.2736251E+01  2.2905672E+01
 1.2747750E+01  2.2834391E+01
 1.2759251E+01  2.2827297E+01
 1.2770751E+01  2.2779861E+01
 1.2782250E+01  2.2844383E+01
 1.2793751E+01  2.2849815E+01
 1.2805250E+01  2.2952007E+01
 1.2816751E+01  2.3035990E+01
 1.2828251E+01  2.3101538E+01
 1.2839750E+01  2.3145849E+01
 1.2851251E+01  2.3165926E+01
 1.2862751E+01  2.3237459E+01
 1.2874250E+01  2.3288612E+01
 1.2885751E+01  2.3320757E+01
 1.2897250E+01  2.3321070E+01
 1.2908751E+01  2.3287628E+01
 1.2920251E+01  2.3360468E+01
 1.2931750E+01  2.3418945E+01
 1.2943251E+01  2.3492893E+01
 1.2954751E+01  2.3496849E+01
 1.2966250E+01  2.3610336E+01
 1.2977751E+01  2.3688734E+01
 1.2989250E+01  2.3753979E+01
 1.3000751E+01  2.3797617E+01
 1.3012251E+01  2.3814659E+01
 1.3023750E+01  2.3907068E+01
 1.3035251E+01  2.3941919E+01
 1.3046751E+01  2.4037300E+01
 1.3058250E+01  2.4130627E+01
 1.3069751E+01  2.4235353E+01
 1.3081250E+01  2.4398670E+01
 1.3092751E+01  2.4557888E+01
 1.3104251E+01  2.4714354E+01
 1.3115750E+01  2.4856564E+01
 1.3127251E+01  2.4938635E+01
 1.3138751E+01  2.5045946E+01
 1.3150250E+01  2.5157717E+01
 1.3161751E+01  2.5241386E+01
 1.3173250E+01  2.5352222E+01
 1.3184751E+01  2.5412245E+01
 1.3196251E+01  2.5542639E+01
 1.3207750E+01  2.5671501E+01
 1.3219251E+01  2.5829538E+01
 1.3230751E+01  2.5973129E+01
 1.3242250E+01  2.6115120E+01
 1.3253751E+01  2.6261709E+01
 1.3265250E+01  2.6381384E+01
 1.3276751E+01  2.6496416E+01
 1.3288251E+01  2.6638359E+01
 1.3299750E+01  2.6836102E+01
 1.3311251E+01  2.6983112E+01
 1.3322751E+01  2.7159475E+01
 1.3334250E+01  2.7318748E+01
 1.3345751E+01  2.7468378E+01
 1.3357250E+01  2.7604307E+01
 1.3368751E+01  2.7695932E+01
 1.3380251E+01  2.7848921E+01
 1.3391750E+01  2.7981453E+01
 1.3403251E+01  2.8173569E+01
 1.3414751E+01  2.8332937E+01
 1.3426250E+01  2.8460051E+01
 1.3437751E+01  2.8546644E+01
 1.3449250E+01  2.8624086E+01
 1.3460751E+01  2.8695976E+01
 1.3472251E+01  2.8800045E+01
 1.3483750E+01  2.8982082E+01
 1.3495251E+01  2.9065741E+01
 1.3506751E+01  2.9205738E+01
 1.3518250E+01  2.9221994E+01
 1.3529751E+01  2.9301331E+01
 1.3541250E+01  2.9333401E+01
 1.3552751E+01  2.9402109E+01
 1.3564251E+01  2.9521709E+01
 1.3575750E+01  2.9596813E+01
 1.3587251E+01  2.9688835E+01
 1.3598751E+01  2.9695297E+01
 1.3610250E+01  2.9726444E+01
 1.3621751E+01  2.9712103E+01
 1.3633250E+01  2.9709410E+01
 1.3644751E+01  2.9596584E+01
 1.3656251E+01  2.9590092E+01
 1.3667750E+01  2.9597185E+01
 1.3679251E+01  2.9661602E+01
 1.3690751E+01  2.9673254E+01
 1.3702250E+01  2.9688742E+01
 1.3713751E+01  2.9636801E+01
 1.3725250E+01  2.9559532E+01
 1.3736751E+01  2.9484949E+01
 1.3748251E+01  2.9438843E+01
 1.3759750E+01  2.9419535E+01
 1.3771251E+01  2.9402962E+01
 1.3782751E+01  2.9438805E+01
 1.3794250E+01  2.9437256E+01
 1.3805751E+01  2.9463066E+01
 1.3817250E+01  2.9421921E+01
 1.3828751E+01  2.9404182E+01
 1.3840251E+01  2.9383858E+01
 1.3851750E+01  2.9425528E+01
 1.3863251E+01  2.9501675E+01
 1.3874751E+01  2.9526632E+01
 1.3886250E+01  2.9742315E+01
 1.3897751E+01  3.0127281E+01
 1.3909250E+01  3.0662462E+01
 1.3920751E+01  3.1471678E+01
 1.3932251E+01  3.1867407E+01
 1.3943750E+01  3.2281227E+01
 1.3955251E+01  3.2294918E+01
 1.3966751E+01  3.2070488E+01
 1.3978251E+01  3.1508308E+01
 1.3989751E+01  3.0618961E+01
 1.4001250E+01  2.9998606E+01
 1.4012751E+01  2.9315857E+01
 1.4024251E+01  2.8857874E+01
 1.4035750E+01  2.8523964E+01
 1.4047251E+01  2.8209152E+01
 1.4058751E+01  2.8013067E+01
 1.4070251E+01  2.7853800E+01
 1.4081751E+01  2.7731920E+01
 1.4093250E+01  2.7622814E+01
 1.4104751E+01  2.7495070E+01
 1.4116251E+01  2.7416170E+01
 1.4127750E+01  2.7281590E+01
 1.4139251E+01  2.7212032E+01
 1.4150751E+01  2.7094204E+01
 1.4162251E+01  2.7040159E+01
 1.4173751E+01  2.6907589E+01
 1.4185250E+01  2.6762033E+01
 1.4196751E+01  2.6633118E+01
 1.4208251E+01  2.6562288E+01
 1.4219750E+01  2.6468853E+01
 1.4231251E+01  2.6366413E+01
 1.4242751E+01  2.6267284E+01
 1.4254251E+01  2.6238276E+01
 1.4265751E+01  2.6205721E+01
 1.4277250E+01  2.6142199E+01
 1.4288751E+01  2.6135847E+01
 1.4300251E+01  2.6142128E+01
 1.4311750E+01  2.6155798E+01
 1.4323251E+01  2.6122040E+01
 1.4334751E+01  2.6081863E+01
 1.4346251E+01  2.6064188E+01
 1.4357751E+01  2.6105265E+01
 1.4369250E+01  2.6088249E+01
 1.4380751E+01  2.6022911E+01
 1.4392251E+01  2.5914785E+01
 1.4403750E+01  2.5800232E+01
 1.4415251E+01  2.5786112E+01
 1.4426751E+01  2.5710165E+01
 1.4438251E+01  2.5741573E+01
 1.4449751E+01  2.5733841E+01
 1.4461250E+01  2.5749374E+01
 1.4472751E+01  2.5744539E+01
 1.4484251E+01  2.5687220E+01
 1.4495750E+01  2.5647911E+01
 1.4507251E+01  2.5558886E+01
 1.4518751E+01  2.5492735E+01
 1.4530251E+01  2.5437513E+01
 1.4541751E+01  2.5432110E+01
 1.4553250E+01  2.5439426E+01
 1.4564751E+01  2.5446531E+01
 1.4576251E+01  2.5450302E+01
 1.4587750E+01  2.5425566E+01
 1.4599251E+01  2.5393913E+01
 1.4610751E+01  2.5338526E+01
 1.4622251E+01  2.5329468E+01
 1.4633751E+01  2.5228888E+01
 1.4645250E+01  2.5182135E+01
 1.4656751E+01  2.5089418E+01
 1.4668251E+01  2.5080677E+01
 1.4679750E+01  2.5063585E+01
 1.4691251E+01  2.5088562E+01
 1.4702751E+01  2.5092325E+01
 1.4714251E+01  2.5091707E+01
 1.4725751E+01  2.5024769E+01
 1.4737250E+01  2.4993616E+01
 1.4748751E+01  2.4932053E+01
 1.4760251E+01  2.4864788E+01
 1.4771750E+01  2.4834972E+01
 1.4783251E+01  2.4826536E+01
 1.4794751E+01  2.4826284E+01
 1.4806251E+01  2.4814852E+01
 1.4817751E+01  2.4822369E+01
 1.4829250E+01  2.4856205E+01
 1.4840751E+01  2.4886196E+01
 1.4852251E+01  2.4881283E+01
 1.4863750E+01  2.4846699E+01
 1.4875251E+01  2.4768141E+01
 1.4886751E+01  2.4706955E+01
 1.4898251E+01  2.4716114E+01
 1.4909751E+01  2.4706367E+01
 1.4921250E+01  2.4759445E+01
 1.4932751E+01  2.4777630E+01
 1.4944251E+01  2.4803480E+01
 1.4955750E+01  2.4785639E+01
 1.4967251E+01  2.4749264E+01
 1.4978751E+01  2.4746424E+01
 1.4990251E+01  2.4686592E+01
 1.5001751E+01  2.4683836E+01
 1.5013250E+01  2.4682232E+01
 1.5024751E+01  2.4731218E+01
 1.5036251E+01  2.4751198E+01
 1.5047750E+01  2.4746918E+01
 1.5059251E+01  2.4803783E+01
 1.5070751E+01  2.4846632E+01
 1.5082251E+01  2.4928785E+01
 1.5093751E+01  2.4923964E+01
 1.5105250E+01  2.4952290E+01
 1.5116751E+01  2.4915464E+01
 1.5128251E+01  2.4974009E+01
 1.5139750E+01  2.5183908E+01
 1.5151251E+01  2.5383200E+01
 1.5162751E+01  2.5820551E+01
 1.5174251E+01  2.6120417E+01
 1.5185751E+01  2.6388277E+01
 1.5197250E+01  2.6418507E+01
 1.5208751E+01  2.6356873E+01
 1.5220251E+01  2.6233318E+01
 1.5231750E+01  2.5829819E+01
 1.5243251E+01  2.5518274E+01
 1.5254751E+01  2.5202148E+01
 1.5266251E+01  2.4951874E+01
 1.5277751E+01  2.4779697E+01
 1.5289250E+01  2.4674112E+01
 1.5300751E+01  2.4611801E+01
 1.5312251E+01  2.4586443E+01
 1.5323750E+01  2.4563099E+01
 1.5335251E+01  2.4563974E+01
 1.5346751E+01  2.4533812E+01
 1.5358251E+01  2.4513838E+01
 1.5369751E+01  2.4469423E+01
 1.5381250E+01  2.4412882E+01
 1.5392751E+01  2.4367228E+01
 1.5404251E+01  2.4298328E+01
 1.5415751E+01  2.4266336E+01
 1.5427251E+01  2.4261894E+01
 1.5438751E+01  2.4333254E+01
 1.5450251E+01  2.4391457E+01
 1.5461751E+01  2.4404943E+01
 1.5473250E+01  2.4363390E+01
 1.5484751E+01  2.4358341E+01
 1.5496251E+01  2.4355171E+01
 1.5507751E+01  2.4297216E+01
 1.5519251E+01  2.4299765E+01
 1.5530751E+01  2.4291628E+01
 1.5542251E+01  2.4313505E+01
 1.5553751E+01  2.4249624E+01
 1.5565250E+01  2.4288004E+01
 1.5576751E+01  2.4320124E+01
 1.5588251E+01  2.4357117E+01
 1.5599751E+01  2.4371050E+01
 1.5611251E+01  2.4357098E+01
 1.5622751E+01  2.4295094E+01
 1.5634251E+01  2.4257751E+01
 1.5645751E+01  2.4305523E+01
 1.5657250E+01  2.4410206E+01
 1.5668751E+01  2.4479452E+01
 1.5680251E+01  2.4480639E+01
 1.5691751E+01  2.4427872E+01
 1.5703251E+01  2.4409628E+01
 1.5714751E+01  2.4397264E+01
 1.5726251E+01  2.4382607E+01
 1.5737751E+01  2.4331259E+01
 1.5749250E+01  2.4333307E+01
 1.5760751E+01  2.4391623E+01
 1.5772251E+01  2.4420912E+01
 1.5783751E+01  2.4412512E+01
 1.5795251E+01  2.4383217E+01
 1.5806751E+01  2.4404522E+01
 1.5818251E+01  2.4435240E+01
 1.5829751E+01  2.4417231E+01
 1.5841250E+01  2.4379364E+01
 1.5852751E+01  2.4392490E+01
 1.5864251E+01  2.4360098E+01
 1.5875751E+01  2.4392696E+01
 1.5887251E+01  2.4395803E+01
 1.5898750E+01  2.4437553E+01
 1.5910251E+01  2.4524895E+01
 1.5921751E+01  2.4534288E+01
 1.5933250E+01  2.4574905E+01
 1.5944751E+01  2.4494694E+01
 1.5956251E+01  2.4519775E+01
 1.5967751E+01  2.4519217E+01
 1.5979251E+01  2.4525019E+01
 1.5990750E+01  2.4563536E+01
 1.6002251E+01  2.4546875E+01
 1.6013750E+01  2.4597488E+01
 1.6025251E+01  2.4574476E+01
 1.6036751E+01  2.4605511E+01
 1.6048250E+01  2.4604975E+01
 1.6059752E+01  2.4625011E+01
 1.6071251E+01  2.4560835E+01
 1.6082750E+01  2.4508884E+01
 1.6094252E+01  2.4472124E+01
 1.6105751E+01  2.4576212E+01
 1.6117250E+01  2.4627636E+01
 1.6128750E+01  2.4625187E+01
 1.6140251E+01  2.4666611E+01
 1.6151751E+01  2.4674664E+01
 1.6163250E+01  2.4745926E+01
 1.6174751E+01  2.4680931E+01
 1.6186251E+01  2.4730314E+01
 1.6197750E+01  2.4634651E+01
 1.6209251E+01  2.4792768E+01
 1.6220751E+01  2.4775763E+01
 1.6232250E+01  2.4939823E+01
 1.6243752E+01  2.4999672E+01
 1.6255251E+01  2.5140211E+01
 1.6266750E+01  2.5314405E+01
 1.6278252E+01  2.5216928E+01
 1.6289751E+01  2.5351286E+01
 1.6301250E+01  2.5028664E+01
 1.6312750E+01  2.5087170E+01
 1.6324251E+01  2.4782410E+01
 1.6335751E+01  2.4802992E+01
 1.6347250E+01  2.4662746E+01
 1.6358751E+01  2.4630833E+01
 1.6370251E+01  2.4563520E+01
 1.6381750E+01  2.4528521E+01
 1.6393251E+01  2.4585752E+01
 1.6404751E+01  2.4643675E+01
 1.6416250E+01  2.4760464E+01
 1.6427752E+01  2.4773445E+01
 1.6439251E+01  2.4769039E+01
 1.6450750E+01  2.4663973E+01
 1.6462252E+01  2.4651787E+01
 1.6473751E+01  2.4548498E+01
 1.6485250E+01  2.4574392E+01
 1.6496750E+01  2.4551216E+01
 1.6508251E+01  2.4577637E+01
 1.6519751E+01  2.4519569E+01
 1.6531250E+01  2.4533215E+01
 1.6542751E+01  2.4572048E+01
 1.6554251E+01  2.4581146E+01
 1.6565750E+01  2.4534502E+01
 1.6577251E+01  2.4464676E+01
 1.6588751E+01  2.4414454E+01
 1.6600250E+01  2.4374699E+01
 1.6611752E+01  2.4368347E+01
 1.6623251E+01  2.4313211E+01
 1.6634750E+01  2.4328831E+01
 1.6646252E+01  2.4332552E+01
 1.6657751E+01  2.4340508E+01
 1.6669250E+01  2.4334894E+01
 1.6680750E+01  2.4350246E+01
 1.6692251E+01  2.4430351E+01
 1.6703751E+01  2.4473402E+01
 1.6715250E+01  2.4496340E+01
 1.6726751E+01  2.4447971E+01
 1.6738251E+01  2.4426918E+01
 1.6749750E+01  2.4406820E+01
 1.6761251E+01  2.4379358E+01
 1.6772751E+01  2.4357967E+01
 1.6784250E+01  2.4293245E+01
 1.6795752E+01  2.4283878E+01
 1.6807251E+01  2.4276794E+01
 1.6818750E+01  2.4356823E+01
 1.6830252E+01  2.4400173E+01
 1.6841751E+01  2.4442703E+01
 1.6853251E+01  2.4408445E+01
 1.6864750E+01  2.4351345E+01
 1.6876251E+01  2.4334360E+01
 1.6887751E+01  2.4307451E+01
 1.6899250E+01  2.4293255E+01
 1.6910751E+01  2.4251764E+01
 1.6922251E+01  2.4208242E+01
 1.6933750E+01  2.4138962E+01
 1.6945251E+01  2.4111855E+01
 1.6956751E+01  2.4088360E+01
 1.6968250E+01  2.4106466E+01
 1.6979752E+01  2.4134510E+01
 1.6991251E+01  2.4159912E+01
 1.7002750E+01  2.4198551E+01
 1.7014252E+01  2.4216549E+01
 1.7025751E+01  2.4197958E+01
 1.7037251E+01  2.4132021E+01
 1.7048750E+01  2.4052834E+01
 1.7060251E+01  2.4006363E+01
 1.7071751E+01  2.3992252E+01
 1.7083250E+01  2.4032290E+01
 1.7094751E+01  2.4045021E+01
 1.7106251E+01  2.4090813E+01
 1.7117750E+01  2.4113110E+01
 1.7129251E+01  2.4167866E+01
 1.7140751E+01  2.4133638E+01
 1.7152250E+01  2.4095690E+01
 1.7163752E+01  2.4081530E+01
 1.7175251E+01  2.4123112E+01
 1.7186750E+01  2.4128599E+01
 1.7198252E+01  2.4071955E+01
 1.7209751E+01  2.4062399E+01
 1.7221251E+01  2.4102699E+01
 1.7232750E+01  2.4128325E+01
 1.7244251E+01  2.4091576E+01
 1.7255751E+01  2.4005766E+01
 1.7267250E+01  2.3972805E+01
 1.7278751E+01  2.3955294E+01
 1.7290251E+01  2.3947525E+01
 1.7301750E+01  2.3975079E+01
 1.7313251E+01  2.4005863E+01
 1.7324751E+01  2.4084970E+01
 1.7336250E+01  2.4064896E+01
 1.7347752E+01  2.3990692E+01
 1.7359251E+01  2.3947521E+01
 1.7370750E+01  2.3915106E+01
 1.7382252E+01  2.3928230E+01
 1.7393751E+01  2.3859425E+01
 1.7405251E+01  2.3862900E+01
 1.7416750E+01  2.3838202E+01
 1.7428251E+01  2.3864063E+01
 1.7439751E+01  2.3856295E+01
 1.7451250E+01  2.3877813E+01
 1.7462751E+01  2.3882750E+01
 1.7474251E+01  2.3863716E+01
 1.7485750E+01  2.3834774E+01
 1.7497252E+01  2.3772486E+01
 1.7508751E+01  2.3721874E+01
 1.7520250E+01  2.3691881E+01
 1.7531752E+01  2.3690392E+01
 1.7543251E+01  2.3766865E+01
 1.7554750E+01  2.3782894E+01
 1.7566252E+01  2.3809055E+01
 1.7577751E+01  2.3749243E+01
 1.7589251E+01  2.3667034E+01
 1.7600750E+01  2.3638136E+01
 1.7612251E+01  2.3664692E+01
 1.7623751E+01  2.3727388E+01
 1.7635250E+01  2.3723660E+01
 1.7646751E+01  2.3698437E+01
 1.7658251E+01  2.3643620E+01
 1.7669750E+01  2.3638563E+01
 1.7681252E+01  2.3658335E+01
 1.7692751E+01  2.3675041E+01
 1.7704250E+01  2.3688902E+01
 1.7715752E+01  2.3677694E+01
 1.7727251E+01  2.3672417E+01
 1.7738750E+01  2.3629856E+01
 1.7750252E+01  2.3570707E+01
 1.7761751E+01  2.3525171E+01
 1.7773251E+01  2.3548429E+01
 1.7784750E+01  2.3630259E+01
 1.7796251E+01  2.3694016E+01
 1.7807751E+01  2.3676958E+01
 1.7819250E+01  2.3617065E+01
 1.7830751E+01  2.3564236E+01
 1.7842251E+01  2.3617657E+01
 1.7853750E+01  2.3631052E+01
 1.7865252E+01  2.3633017E+01
 1.7876751E+01  2.3568182E+01
 1.7888250E+01  2.3542692E+01
 1.7899752E+01  2.3478777E+01
 1.7911251E+01  2.3501141E+01
 1.7922750E+01  2.3597963E+01
 1.7934252E+01  2.3682701E+01
 1.7945751E+01  2.3776457E+01
 1.7957251E+01  2.3815769E+01
 1.7968750E+01  2.3905205E+01
 1.7980251E+01  2.3938881E+01
 1.7991751E+01  2.3959826E+01
 1.8003250E+01  2.3944048E+01
 1.8014751E+01  2.3903496E+01
 1.8026251E+01  2.3922981E+01
 1.8037750E+01  2.3994514E+01
 1.8049252E+01  2.4114101E+01
 1.8060751E+01  2.4285912E+01
 1.8072250E+01  2.4375856E+01
 1.8083752E+01  2.4448349E+01
 1.8095251E+01  2.4470739E+01
 1.8106750E+01  2.4444435E+01
 1.8118252E+01  2.4357368E+01
 1.8129751E+01  2.4283163E+01
 1.8141251E+01  2.4209204E+01
 1.8152750E+01  2.4120811E+01
 1.8164251E+01  2.3972240E+01
 1.8175751E+01  2.3822960E+01
 1.8187250E+01  2.3666096E+01
 1.8198751E+01  2.3586895E+01
 1.8210251E+01  2.3575022E+01
 1.8221750E+01  2.3577858E+01
 1.8233252E+01  2.3563910E+01
 1.8244751E+01  2.3489893E+01
 1.8256250E+01  2.3513708E+01
 1.8267752E+01  2.3518747E+01
 1.8279251E+01  2.3519541E+01
 1.8290751E+01  2.3475773E+01
 1.8302252E+01  2.3493248E+01
 1.8313751E+01  2.3505941E+01
 1.8325251E+01  2.3476286E+01
 1.8336750E+01  2.3446173E+01
 1.8348251E+01  2.3410366E+01
 1.8359751E+01  2.3431456E+01
 1.8371250E+01  2.3439926E+01
 1.8382751E+01  2.3462158E+01
 1.8394251E+01  2.3479183E+01
 1.8405750E+01  2.3494297E+01
 1.8417252E+01  2.3452852E+01
 1.8428751E+01  2.3379911E+01
 1.8440250E+01  2.3359104E+01
 1.8451752E+01  2.3342955E+01
 1.8463251E+01  2.3381685E+01
 1.8474751E+01  2.3386831E+01
 1.8486252E+01  2.3403082E+01
 1.8497751E+01  2.3383204E+01
 1.8509251E+01  2.3379608E+01
 1.8520750E+01  2.3369236E+01
 1.8532251E+01  2.3355934E+01
 1.8543751E+01  2.3313053E+01
 1.8555250E+01  2.3303825E+01
 1.8566751E+01  2.3310896E+01
 1.8578251E+01  2.3348978E+01
 1.8589750E+01  2.3365906E+01
 1.8601252E+01  2.3381371E+01
 1.8612751E+01  2.3371826E+01
 1.8624250E+01  2.3348850E+01
 1.8635752E+01  2.3320097E+01
 1.8647251E+01  2.3315401E+01
 1.8658751E+01  2.3333227E+01
 1.8670252E+01  2.3352465E+01
 1.8681751E+01  2.3395287E+01
 1.8693251E+01  2.3437248E+01
 1.8704750E+01  2.3476027E+01
 1.8716251E+01  2.3451433E+01
 1.8727751E+01  2.3405130E+01
 1.8739250E+01  2.3333296E+01
 1.8750751E+01  2.3271240E+01
 1.8762251E+01  2.3245903E+01
 1.8773750E+01  2.3286591E+01
 1.8785252E+01  2.3333746E+01
 1.8796751E+01  2.3386234E+01
 1.8808250E+01  2.3408802E+01
 1.8819752E+01  2.3420877E+01
 1.8831251E+01  2.3402437E+01
 1.8842751E+01  2.3366096E+01
 1.8854252E+01  2.3306141E+01
 1.8865751E+01  2.3279152E+01
 1.8877251E+01  2.3310905E+01
 1.8888750E+01  2.3346319E+01
 1.8900251E+01  2.3403469E+01
 1.8911751E+01  2.3397783E+01
 1.8923250E+01  2.3397238E+01
 1.8934752E+01  2.3412992E+01
 1.8946251E+01  2.3438412E+01
 1.8957750E+01  2.3438128E+01
 1.8969252E+01  2.3400936E+01
 1.8980751E+01  2.3371012E+01
 1.8992250E+01  2.3346981E+01
 1.9003752E+01  2.3366728E+01
 1.9015251E+01  2.3382093E+01
 1.9026751E+01  2.3431070E+01
 1.9038252E+01  2.3455875E+01
 1.9049751E+01  2.3443352E+01
 1.9061251E+01  2.3411818E+01
 1.9072750E+01  2.3384317E+01
 1.9084251E+01  2.3403616E+01
 1.9095751E+01  2.3387005E+01
 1.9107250E+01  2.3391188E+01
 1.9118752E+01  2.3353846E+01
 1.9130251E+01  2.3346882E+01
 1.9141750E+01  2.3326042E+01
 1.9153252E+01  2.3331242E+01
 1.9164751E+01  2.3345516E+01
 1.9176250E+01  2.3391125E+01
 1.9187752E+01  2.3418646E+01
 1.9199251E+01  2.3471794E+01
 1.9210751E+01  2.3440327E+01
 1.9222252E+01  2.3400766E+01
 1.9233751E+01  2.3339071E+01
 1.9245251E+01  2.3365868E+01
 1.9256750E+01  2.3383823E+01
 1.9268251E+01  2.3380964E+01
 1.9279751E+01  2.3350771E+01
 1.9291250E+01  2.3361246E+01
 1.9302752E+01  2.3424252E+01
 1.9314251E+01  2.3467707E+01
 1.9325750E+01  2.3477751E+01
 1.9337252E+01  2.3441208E+01
 1.9348751E+01  2.3425869E+01
 1.9360250E+01  2.3369459E+01
 1.9371752E+01  2.3387690E+01
 1.9383251E+01  2.3416996E+01
 1.9394751E+01  2.3490664E+01
 1.9406250E+01  2.3494181E+01
 1.9417751E+01  2.3536308E+01
 1.9429251E+01  2.3508081E+01
 1.9440750E+01  2.3511690E+01
 1.9452251E+01  2.3498304E+01
 1.9463751E+01  2.3525711E+01
 1.9475250E+01  2.3567225E+01
 1.9486752E+01  2.3568747E+01
 1.9498251E+01  2.3541155E+01
 1.9509750E+01  2.3528379E+01
 1.9521252E+01  2.3576248E+01
 1.9532751E+01  2.3592848E+01
 1.9544250E+01  2.3615410E+01
 1.9555752E+01  2.3598091E+01
 1.9567251E+01  2.3585484E+01
 1.9578751E+01  2.3588760E+01
 1.9590250E+01  2.3607376E+01
 1.9601751E+01  2.3635853E+01
 1.9613251E+01  2.3662262E+01
 1.9624750E+01  2.3729836E+01
 1.9636251E+01  2.3873047E+01
 1.9647751E+01  2.4073063E+01
 1.9659250E+01  2.4259575E+01
 1.9670752E+01  2.4401379E+01
 1.9682251E+01  2.4552946E+01
 1.9693750E+01  2.4788113E+01
 1.9705252E+01  2.4926788E+01
 1.9716751E+01  2.5053034E+01
 1.9728251E+01  2.5084219E+01
 1.9739752E+01  2.5085602E+01
 1.9751251E+01  2.5063812E+01
 1.9762751E+01  2.4991831E+01
 1.9774250E+01  2.4917442E+01
 1.9785751E+01  2.4857441E+01
 1.9797251E+01  2.4844952E+01
 1.9808750E+01  2.4927998E+01
 1.9820251E+01  2.4934130E+01
 1.9831751E+01  2.5162352E+01
 1.9843250E+01  2.5284548E+01
 1.9854752E+01  2.5413237E+01
 1.9866251E+01  2.5374262E+01
 1.9877750E+01  2.5214132E+01
 1.9889252E+01  2.4975935E+01
 1.9900751E+01  2.4687551E+01
 1.9912251E+01  2.4460550E+01
 1.9923752E+01  2.4201599E+01
 1.9935251E+01  2.4043684E+01
 1.9946751E+01  2.3939024E+01
 1.9958250E+01  2.3846071E+01
 1.9969751E+01  2.3828142E+01
 1.9981251E+01  2.3742588E+01
 1.9992750E+01  2.3724901E+01
 2.0004251E+01  2.3638916E+01
 2.0015751E+01  2.3611729E+01
 2.0027250E+01  2.3550383E+01
 2.0038752E+01  2.3542517E+01
 2.0050251E+01  2.3560829E+01
 2.0061750E+01  2.3549175E+01
 2.0073252E+01  2.3576019E+01
 2.0084751E+01  2.3629505E+01
 2.0096251E+01  2.3740250E+01
 2.0107752E+01  2.3778595E+01
 2.0119251E+01  2.3753090E+01
 2.0130751E+01  2.3665262E+01
 2.0142250E+01  2.3610802E+01
 2.0153751E+01  2.3640327E+01
 2.0165251E+01  2.3663357E+01
 2.0176750E+01  2.3714592E+01
 2.0188251E+01  2.3729887E+01
 2.0199751E+01  2.3773285E+01
 2.0211250E+01  2.3741873E+01
 2.0222752E+01  2.3709721E+01
 2.0234251E+01  2.3708662E+01
 2.0245750E+01  2.3681828E+01
 2.0257252E+01  2.3679768E+01
 2.0268751E+01  2.3610455E+01
 2.0280251E+01  2.3577452E+01
 2.0291752E+01  2.3531813E+01
 2.0303251E+01  2.3493135E+01
 2.0314751E+01  2.3461481E+01
 2.0326250E+01  2.3474358E+01
 2.0337751E+01  2.3519274E+01
 2.0349251E+01  2.3540531E+01
 2.0360750E+01  2.3553623E+01
 2.0372252E+01  2.3575043E+01
 2.0383751E+01  2.3552147E+01
 2.0395250E+01  2.3582394E+01
 2.0406752E+01  2.3622871E+01
 2.0418251E+01  2.3709543E+01
 2.0429750E+01  2.3727926E+01
 2.0441252E+01  2.3685875E+01
 2.0452751E+01  2.3649176E+01
 2.0464251E+01  2.3609045E+01
 2.0475752E+01  2.3601757E+01
 2.0487251E+01  2.3591537E+01
 2.0498751E+01  2.3673258E+01
 2.0510250E+01  2.3634979E+01
 2.0521751E+01  2.3579891E+01
 2.0533251E+01  2.3498087E+01
 2.0544750E+01  2.3536747E+01
 2.0556252E+01  2.3580919E+01
 2.0567751E+01  2.3629395E+01
 2.0579250E+01  2.3672762E+01
 2.0590752E+01  2.3755676E+01
 2.0602251E+01  2.3810703E+01
 2.0613750E+01  2.3855158E+01
 2.0625252E+01  2.3855833E+01
 2.0636751E+01  2.3840250E+01
 2.0648251E+01  2.3814316E+01
 2.0659752E+01  2.3836643E+01
 2.0671251E+01  2.3935257E+01
 2.0682751E+01  2.4007774E+01
 2.0694250E+01  2.4175507E+01
 2.0705751E+01  2.4309557E+01
 2.0717251E+01  2.4538950E+01
 2.0728750E+01  2.4742590E+01
 2.0740252E+01  2.4957888E+01
 2.0751751E+01  2.5036434E+01
 2.0763250E+01  2.5117369E+01
 2.0774752E+01  2.5095078E+01
 2.0786251E+01  2.5030369E+01
 2.0797750E+01  2.4842358E+01
 2.0809252E+01  2.4608418E+01
 2.0820751E+01  2.4364483E+01
 2.0832251E+01  2.4141542E+01
 2.0843752E+01  2.3967020E+01
 2.0855251E+01  2.3901077E+01
 2.0866751E+01  2.3914940E+01
 2.0878250E+01  2.3931974E+01
 2.0889751E+01  2.3955647E+01
 2.0901251E+01  2.3939945E+01
 2.0912750E+01  2.3946882E+01
 2.0924252E+01  2.3948833E+01
 2.0935751E+01  2.3969868E+01
 2.0947250E+01  2.3982063E+01
 2.0958752E+01  2.3915623E+01
 2.0970251E+01  2.3839869E+01
 2.0981750E+01  2.3806660E+01
 2.0993252E+01  2.3800411E+01
 2.1004751E+01  2.3799267E+01
 2.1016251E+01  2.3716585E+01
 2.1027752E+01  2.3717337E+01
 2.1039251E+01  2.3739128E+01
 2.1050751E+01  2.3707527E+01
 2.1062250E+01  2.3704962E+01
 2.1073751E+01  2.3748199E+01
 2.1085251E+01  2.3775721E+01
 2.1096750E+01  2.3708761E+01
 2.1108252E+01  2.3691019E+01
 2.1119751E+01  2.3747614E+01
 2.1131250E+01  2.3764565E+01
 2.1142752E+01  2.3744265E+01
 2.1154251E+01  2.3688566E+01
 2.1165751E+01  2.3718885E+01
 2.1177252E+01  2.3715706E+01
 2.1188751E+01  2.3709110E+01
 2.1200251E+01  2.3707315E+01
 2.1211752E+01  2.3704481E+01
 2.1223251E+01  2.3674475E+01
 2.1234751E+01  2.3661180E+01
 2.1246250E+01  2.3701885E+01
 2.1257751E+01  2.3763086E+01
 2.1269251E+01  2.3708332E+01
 2.1280750E+01  2.3664747E+01
 2.1292252E+01  2.3659342E+01
 2.1303751E+01  2.3686678E+01
 2.1315250E+01  2.3706175E+01
 2.1326752E+01  2.3735950E+01
 2.1338251E+01  2.3742014E+01
 2.1349751E+01  2.3756683E+01
 2.1361252E+01  2.3765331E+01
 2.1372751E+01  2.3800358E+01
 2.1384251E+01  2.3770555E+01
 2.1395752E+01  2.3772541E+01
 2.1407251E+01  2.3759916E+01
 2.1418751E+01  2.3806454E+01
 2.1430250E+01  2.3828917E+01
 2.1441751E+01  2.3856848E+01
 2.1453251E+01  2.3847691E+01
 2.1464750E+01  2.3804529E+01
 2.1476252E+01  2.3739368E+01
 2.1487751E+01  2.3728781E+01
 2.1499250E+01  2.3743843E+01
 2.1510752E+01  2.3766626E+01
 2.1522251E+01  2.3746584E+01
 2.1533751E+01  2.3763275E+01
 2.1545252E+01  2.3790537E+01
 2.1556751E+01  2.3814589E+01
 2.1568251E+01  2.3828249E+01
 2.1579752E+01  2.3865797E+01
 2.1591251E+01  2.3884468E+01
 2.1602751E+01  2.3917711E+01
 2.1614250E+01  2.3892159E+01
 2.1625751E+01  2.3882774E+01
 2.1637251E+01  2.3887585E+01
 2.1648750E+01  2.3922947E+01
 2.1660252E+01  2.3942427E+01
 2.1671751E+01  2.3982618E+01
 2.1683250E+01  2.3979803E+01
 2.1694752E+01  2.3929569E+01
 2.1706251E+01  2.3942299E+01
 2.1717751E+01  2.3939648E+01
 2.1729252E+01  2.3926668E+01
 2.1740751E+01  2.3926586E+01
 2.1752251E+01  2.3928869E+01
 2.1763752E+01  2.3943653E+01
 2.1775251E+01  2.3930161E+01
 2.1786751E+01  2.3956984E+01
 2.1798250E+01  2.3935091E+01
 2.1809752E+01  2.3954647E+01
 2.1821251E+01  2.3931431E+01
 2.1832750E+01  2.3929800E+01
 2.1844252E+01  2.3928246E+01
 2.1855751E+01  2.3982235E+01
 2.1867250E+01  2.3989010E+01
 2.1878752E+01  2.3959791E+01
 2.1890251E+01  2.3889954E+01
 2.1901751E+01  2.3906660E+01
 2.1913252E+01  2.3959194E+01
 2.1924751E+01  2.4013866E+01
 2.1936251E+01  2.3988445E+01
 2.1947752E+01  2.4045261E+01
 2.1959251E+01  2.4092110E+01
 2.1970751E+01  2.4216156E+01
 2.1982250E+01  2.4322187E+01
 2.1993752E+01  2.4423176E+01
 2.2005251E+01  2.4542995E+01
 2.2016750E+01  2.4591270E+01
 2.2028252E+01  2.4615322E+01
 2.2039751E+01  2.4509161E+01
 2.2051250E+01  2.4446690E+01
 2.2062752E+01  2.4359678E+01
 2.2074251E+01  2.4322102E+01
 2.2085751E+01  2.4264536E+01
 2.2097252E+01  2.4213400E+01
 2.2108751E+01  2.4205975E+01
 2.2120251E+01  2.4225174E+01
 2.2131752E+01  2.4213682E+01
 2.2143251E+01  2.4184065E+01
 2.2154751E+01  2.4218777E+01
 2.2166250E+01  2.4259361E+01
 2.2177752E+01  2.4269630E+01
 2.2189251E+01  2.4246134E+01
 2.2200750E+01  2.4227051E+01
 2.2212252E+01  2.4205061E+01
 2.2223751E+01  2.4221825E+01
 2.2235250E+01  2.4262749E+01
 2.2246752E+01  2.4279247E+01
 2.2258251E+01  2.4253614E+01
 2.2269751E+01  2.4215193E+01
 2.2281252E+01  2.4232359E+01
 2.2292751E+01  2.4268312E+01
 2.2304251E+01  2.4331036E+01
 2.2315752E+01  2.4358175E+01
 2.2327251E+01  2.4332563E+01
 2.2338751E+01  2.4350887E+01
 2.2350250E+01  2.4355257E+01
 2.2361752E+01  2.4354204E+01
 2.2373251E+01  2.4351849E+01
 2.2384750E+01  2.4341192E+01
 2.2396252E+01  2.4347921E+01
 2.2407751E+01  2.4344732E+01
 2.2419250E+01  2.4383894E+01
 2.2430752E+01  2.4443829E+01
 2.2442251E+01  2.4555836E+01
 2.2453751E+01  2.4609339E+01
 2.2465252E+01  2.4630722E+01
 2.2476751E+01  2.4546879E+01
 2.2488251E+01  2.4501467E+01
 2.2499752E+01  2.4482229E+01
 2.2511251E+01  2.4522964E+01
 2.2522751E+01  2.4580677E+01
 2.2534250E+01  2.4609287E+01
 2.2545752E+01  2.4634781E+01
 2.2557251E+01  2.4614294E+01
 2.2568750E+01  2.4598125E+01
 2.2580252E+01  2.4570543E+01
 2.2591751E+01  2.4584318E+01
 2.2603251E+01  2.4626585E+01
 2.2614752E+01  2.4669172E+01
 2.2626251E+01  2.4744326E+01
 2.2637751E+01  2.4777031E+01
 2.2649252E+01  2.4795637E+01
 2.2660751E+01  2.4804661E+01
 2.2672251E+01  2.4886658E+01
 2.2683752E+01  2.4935816E+01
 2.2695251E+01  2.4987074E+01
 2.2706751E+01  2.4973289E+01
 2.2718250E+01  2.4998966E+01
 2.2729752E+01  2.4998854E+01
 2.2741251E+01  2.5041534E+01
 2.2752750E+01  2.5099255E+01
 2.2764252E+01  2.5134125E+01
 2.2775751E+01  2.5157930E+01
 2.2787251E+01  2.5145649E+01
 2.2798752E+01  2.5167620E+01
 2.2810251E+01  2.5259995E+01
 2.2821751E+01  2.5308891E+01
 2.2833252E+01  2.5342567E+01
 2.2844751E+01  2.5361216E+01
 2.2856251E+01  2.5399401E+01
 2.2867750E+01  2.5451550E+01
 2.2879251E+01  2.5491796E+01
 2.2890751E+01  2.5586025E+01
 2.2902250E+01  2.5598822E+01
 2.2913752E+01  2.5689312E+01
 2.2925251E+01  2.5767336E+01
 2.2936750E+01  2.5836969E+01
 2.2948252E+01  2.5934465E+01
 2.2959751E+01  2.5954668E+01
 2.2971251E+01  2.6096781E+01
 2.2982752E+01  2.6219374E+01
 2.2994251E+01  2.6383211E+01
