F:\20151113_APS_34IDE\\Brian\Particle1\OCV\Data_0092.tif
2-Theta Angle (Degrees)
Intensity
       2000
 5.7500005E-03  0.0000000E+00
 1.7250001E-02  0.0000000E+00
 2.8750001E-02  0.0000000E+00
 4.0250003E-02  0.0000000E+00
 5.1750004E-02  0.0000000E+00
 6.3250005E-02  0.0000000E+00
 7.4750006E-02  0.0000000E+00
 8.6250007E-02  0.0000000E+00
 9.7750008E-02  0.0000000E+00
 1.0925001E-01  0.0000000E+00
 1.2075000E-01  0.0000000E+00
 1.3225001E-01  0.0000000E+00
 1.4375001E-01  0.0000000E+00
 1.5525001E-01  0.0000000E+00
 1.6675001E-01  0.0000000E+00
 1.7825001E-01  0.0000000E+00
 1.8975002E-01  0.0000000E+00
 2.0125002E-01  0.0000000E+00
 2.1275002E-01  0.0000000E+00
 2.2425000E-01  0.0000000E+00
 2.3575000E-01  0.0000000E+00
 2.4725001E-01  0.0000000E+00
 2.5875002E-01  0.0000000E+00
 2.7025002E-01  0.0000000E+00
 2.8175002E-01  0.0000000E+00
 2.9325002E-01  0.0000000E+00
 3.0475003E-01  0.0000000E+00
 3.1625003E-01  0.0000000E+00
 3.2775003E-01  0.0000000E+00
 3.3925003E-01  0.0000000E+00
 3.5075003E-01  0.0000000E+00
 3.6225003E-01  0.0000000E+00
 3.7375003E-01  0.0000000E+00
 3.8525003E-01  0.0000000E+00
 3.9675003E-01  0.0000000E+00
 4.0825003E-01  0.0000000E+00
 4.1975003E-01  0.0000000E+00
 4.3125004E-01  0.0000000E+00
 4.4275001E-01  0.0000000E+00
 4.5425001E-01  0.0000000E+00
 4.6575001E-01  0.0000000E+00
 4.7725001E-01  0.0000000E+00
 4.8875001E-01  0.0000000E+00
 5.0025004E-01  0.0000000E+00
 5.1175004E-01  0.0000000E+00
 5.2325004E-01  0.0000000E+00
 5.3475004E-01  0.0000000E+00
 5.4625005E-01  0.0000000E+00
 5.5775005E-01  0.0000000E+00
 5.6925005E-01  0.0000000E+00
 5.8075005E-01  0.0000000E+00
 5.9225005E-01  0.0000000E+00
 6.0375005E-01  0.0000000E+00
 6.1525005E-01  0.0000000E+00
 6.2675005E-01  0.0000000E+00
 6.3825005E-01  0.0000000E+00
 6.4975005E-01  0.0000000E+00
 6.6125005E-01  0.0000000E+00
 6.7275006E-01  0.0000000E+00
 6.8425006E-01  0.0000000E+00
 6.9575006E-01  0.0000000E+00
 7.0725006E-01  0.0000000E+00
 7.1875006E-01  0.0000000E+00
 7.3025006E-01  0.0000000E+00
 7.4175006E-01  0.0000000E+00
 7.5325006E-01  0.0000000E+00
 7.6475006E-01  0.0000000E+00
 7.7625006E-01  0.0000000E+00
 7.8775007E-01  0.0000000E+00
 7.9925007E-01  0.0000000E+00
 8.1075007E-01  0.0000000E+00
 8.2225007E-01  0.0000000E+00
 8.3375007E-01  0.0000000E+00
 8.4525007E-01  0.0000000E+00
 8.5675007E-01  0.0000000E+00
 8.6825007E-01  0.0000000E+00
 8.7975001E-01  0.0000000E+00
 8.9125001E-01  0.0000000E+00
 9.0275002E-01  0.0000000E+00
 9.1425002E-01  0.0000000E+00
 9.2575002E-01  0.0000000E+00
 9.3725002E-01  0.0000000E+00
 9.4875002E-01  0.0000000E+00
 9.6025002E-01  0.0000000E+00
 9.7175002E-01  0.0000000E+00
 9.8325002E-01  0.0000000E+00
 9.9475002E-01  0.0000000E+00
 1.0062500E+00  0.0000000E+00
 1.0177500E+00  0.0000000E+00
 1.0292500E+00  0.0000000E+00
 1.0407500E+00  0.0000000E+00
 1.0522500E+00  0.0000000E+00
 1.0637500E+00  0.0000000E+00
 1.0752500E+00  0.0000000E+00
 1.0867500E+00  0.0000000E+00
 1.0982500E+00  0.0000000E+00
 1.1097500E+00  0.0000000E+00
 1.1212500E+00  0.0000000E+00
 1.1327500E+00  0.0000000E+00
 1.1442500E+00  0.0000000E+00
 1.1557500E+00  0.0000000E+00
 1.1672500E+00  0.0000000E+00
 1.1787500E+00  0.0000000E+00
 1.1902500E+00  0.0000000E+00
 1.2017500E+00  0.0000000E+00
 1.2132500E+00  0.0000000E+00
 1.2247500E+00  0.0000000E+00
 1.2362500E+00  0.0000000E+00
 1.2477500E+00  0.0000000E+00
 1.2592500E+00  0.0000000E+00
 1.2707500E+00  0.0000000E+00
 1.2822500E+00  0.0000000E+00
 1.2937500E+00  0.0000000E+00
 1.3052500E+00  0.0000000E+00
 1.3167500E+00  0.0000000E+00
 1.3282501E+00  0.0000000E+00
 1.3397501E+00  0.0000000E+00
 1.3512501E+00  0.0000000E+00
 1.3627501E+00  0.0000000E+00
 1.3742501E+00  0.0000000E+00
 1.3857501E+00  0.0000000E+00
 1.3972501E+00  0.0000000E+00
 1.4087501E+00  0.0000000E+00
 1.4202501E+00  0.0000000E+00
 1.4317501E+00  0.0000000E+00
 1.4432501E+00  0.0000000E+00
 1.4547501E+00  0.0000000E+00
 1.4662501E+00  0.0000000E+00
 1.4777501E+00  0.0000000E+00
 1.4892501E+00  0.0000000E+00
 1.5007501E+00  0.0000000E+00
 1.5122501E+00  0.0000000E+00
 1.5237501E+00  0.0000000E+00
 1.5352501E+00  0.0000000E+00
 1.5467501E+00  0.0000000E+00
 1.5582501E+00  0.0000000E+00
 1.5697501E+00  0.0000000E+00
 1.5812501E+00  0.0000000E+00
 1.5927501E+00  0.0000000E+00
 1.6042501E+00  0.0000000E+00
 1.6157501E+00  0.0000000E+00
 1.6272501E+00  0.0000000E+00
 1.6387501E+00  0.0000000E+00
 1.6502501E+00  0.0000000E+00
 1.6617501E+00  0.0000000E+00
 1.6732501E+00  0.0000000E+00
 1.6847501E+00  0.0000000E+00
 1.6962501E+00  0.0000000E+00
 1.7077501E+00  0.0000000E+00
 1.7192501E+00  0.0000000E+00
 1.7307501E+00  0.0000000E+00
 1.7422501E+00  0.0000000E+00
 1.7537501E+00  0.0000000E+00
 1.7652501E+00  0.0000000E+00
 1.7767501E+00  0.0000000E+00
 1.7882501E+00  0.0000000E+00
 1.7997501E+00  0.0000000E+00
 1.8112501E+00  0.0000000E+00
 1.8227501E+00  0.0000000E+00
 1.8342501E+00  0.0000000E+00
 1.8457501E+00  0.0000000E+00
 1.8572501E+00  0.0000000E+00
 1.8687501E+00  0.0000000E+00
 1.8802501E+00  0.0000000E+00
 1.8917501E+00  0.0000000E+00
 1.9032501E+00  0.0000000E+00
 1.9147501E+00  0.0000000E+00
 1.9262501E+00  0.0000000E+00
 1.9377501E+00  0.0000000E+00
 1.9492501E+00  0.0000000E+00
 1.9607501E+00  0.0000000E+00
 1.9722501E+00  0.0000000E+00
 1.9837501E+00  0.0000000E+00
 1.9952501E+00  0.0000000E+00
 2.0067501E+00  0.0000000E+00
 2.0182500E+00  0.0000000E+00
 2.0297501E+00  0.0000000E+00
 2.0412500E+00  0.0000000E+00
 2.0527501E+00  0.0000000E+00
 2.0642500E+00  0.0000000E+00
 2.0757501E+00  0.0000000E+00
 2.0872500E+00  0.0000000E+00
 2.0987501E+00  0.0000000E+00
 2.1102500E+00  0.0000000E+00
 2.1217501E+00  0.0000000E+00
 2.1332500E+00  0.0000000E+00
 2.1447501E+00  0.0000000E+00
 2.1562500E+00  0.0000000E+00
 2.1677501E+00  0.0000000E+00
 2.1792500E+00  0.0000000E+00
 2.1907501E+00  0.0000000E+00
 2.2022500E+00  0.0000000E+00
 2.2137501E+00  0.0000000E+00
 2.2252500E+00  0.0000000E+00
 2.2367501E+00  0.0000000E+00
 2.2482500E+00  0.0000000E+00
 2.2597501E+00  0.0000000E+00
 2.2712500E+00  0.0000000E+00
 2.2827501E+00  0.0000000E+00
 2.2942500E+00  0.0000000E+00
 2.3057501E+00  0.0000000E+00
 2.3172500E+00  0.0000000E+00
 2.3287501E+00  0.0000000E+00
 2.3402500E+00  0.0000000E+00
 2.3517501E+00  0.0000000E+00
 2.3632500E+00  0.0000000E+00
 2.3747501E+00  0.0000000E+00
 2.3862500E+00  0.0000000E+00
 2.3977501E+00  0.0000000E+00
 2.4092500E+00  0.0000000E+00
 2.4207501E+00  0.0000000E+00
 2.4322500E+00  0.0000000E+00
 2.4437501E+00  0.0000000E+00
 2.4552500E+00  0.0000000E+00
 2.4667501E+00  0.0000000E+00
 2.4782500E+00  0.0000000E+00
 2.4897501E+00  0.0000000E+00
 2.5012500E+00  0.0000000E+00
 2.5127501E+00  0.0000000E+00
 2.5242500E+00  0.0000000E+00
 2.5357502E+00  0.0000000E+00
 2.5472500E+00  0.0000000E+00
 2.5587502E+00  0.0000000E+00
 2.5702500E+00  0.0000000E+00
 2.5817502E+00  0.0000000E+00
 2.5932500E+00  0.0000000E+00
 2.6047502E+00  0.0000000E+00
 2.6162500E+00  0.0000000E+00
 2.6277502E+00  0.0000000E+00
 2.6392500E+00  0.0000000E+00
 2.6507502E+00  0.0000000E+00
 2.6622500E+00  0.0000000E+00
 2.6737502E+00  0.0000000E+00
 2.6852500E+00  0.0000000E+00
 2.6967502E+00  0.0000000E+00
 2.7082500E+00  0.0000000E+00
 2.7197502E+00  0.0000000E+00
 2.7312500E+00  0.0000000E+00
 2.7427502E+00  0.0000000E+00
 2.7542500E+00  0.0000000E+00
 2.7657502E+00  0.0000000E+00
 2.7772501E+00  0.0000000E+00
 2.7887502E+00  0.0000000E+00
 2.8002501E+00  0.0000000E+00
 2.8117502E+00  0.0000000E+00
 2.8232501E+00  3.4519264E+01
 2.8347502E+00  3.2733269E+01
 2.8462501E+00  3.2825413E+01
 2.8577502E+00  3.2789261E+01
 2.8692501E+00  3.3349388E+01
 2.8807502E+00  3.4881706E+01
 2.8922501E+00  3.6061687E+01
 2.9037502E+00  3.7473934E+01
 2.9152501E+00  3.7820049E+01
 2.9267502E+00  3.7927074E+01
 2.9382501E+00  3.7685658E+01
 2.9497502E+00  3.7249569E+01
 2.9612501E+00  3.6640682E+01
 2.9727502E+00  3.5936695E+01
 2.9842501E+00  3.5331955E+01
 2.9957502E+00  3.5302868E+01
 3.0072501E+00  3.5730667E+01
 3.0187502E+00  3.6257561E+01
 3.0302501E+00  3.6430279E+01
 3.0417502E+00  3.6355579E+01
 3.0532501E+00  3.6023411E+01
 3.0647502E+00  3.5934292E+01
 3.0762501E+00  3.5947414E+01
 3.0877502E+00  3.5743668E+01
 3.0992501E+00  3.6012028E+01
 3.1107502E+00  3.5821785E+01
 3.1222501E+00  3.5919525E+01
 3.1337502E+00  3.5645676E+01
 3.1452501E+00  3.5641220E+01
 3.1567502E+00  3.5819157E+01
 3.1682501E+00  3.5704071E+01
 3.1797502E+00  3.5781078E+01
 3.1912501E+00  3.5606453E+01
 3.2027502E+00  3.5770237E+01
 3.2142501E+00  3.5834450E+01
 3.2257502E+00  3.5895763E+01
 3.2372501E+00  3.5720867E+01
 3.2487502E+00  3.5703457E+01
 3.2602501E+00  3.5552273E+01
 3.2717502E+00  3.5501759E+01
 3.2832501E+00  3.5473923E+01
 3.2947502E+00  3.5509129E+01
 3.3062501E+00  3.5524345E+01
 3.3177502E+00  3.5439564E+01
 3.3292501E+00  3.5390217E+01
 3.3407502E+00  3.5049652E+01
 3.3522501E+00  3.4703308E+01
 3.3637502E+00  3.4492088E+01
 3.3752501E+00  3.4415409E+01
 3.3867502E+00  3.4365948E+01
 3.3982501E+00  3.4486832E+01
 3.4097502E+00  3.4427959E+01
 3.4212501E+00  3.4675426E+01
 3.4327502E+00  3.4585854E+01
 3.4442501E+00  3.4835342E+01
 3.4557502E+00  3.4849285E+01
 3.4672501E+00  3.4977322E+01
 3.4787502E+00  3.4837830E+01
 3.4902501E+00  3.4589981E+01
 3.5017502E+00  3.4179874E+01
 3.5132501E+00  3.3901192E+01
 3.5247502E+00  3.3863621E+01
 3.5362501E+00  3.3918861E+01
 3.5477502E+00  3.4020996E+01
 3.5592501E+00  3.3838295E+01
 3.5707502E+00  3.3944221E+01
 3.5822501E+00  3.3954250E+01
 3.5937502E+00  3.4175972E+01
 3.6052501E+00  3.4041439E+01
 3.6167502E+00  3.3984547E+01
 3.6282501E+00  3.3870785E+01
 3.6397502E+00  3.3704910E+01
 3.6512501E+00  3.3540127E+01
 3.6627502E+00  3.3408787E+01
 3.6742501E+00  3.3368130E+01
 3.6857502E+00  3.3311848E+01
 3.6972501E+00  3.3167538E+01
 3.7087502E+00  3.3206764E+01
 3.7202501E+00  3.3004688E+01
 3.7317502E+00  3.2987823E+01
 3.7432501E+00  3.2914070E+01
 3.7547503E+00  3.2850426E+01
 3.7662501E+00  3.2857651E+01
 3.7777503E+00  3.2815826E+01
 3.7892501E+00  3.2952572E+01
 3.8007503E+00  3.2813000E+01
 3.8122501E+00  3.3008175E+01
 3.8237503E+00  3.2972946E+01
 3.8352501E+00  3.3003754E+01
 3.8467503E+00  3.2632492E+01
 3.8582501E+00  3.2364048E+01
 3.8697503E+00  3.2293201E+01
 3.8812501E+00  3.2553921E+01
 3.8927503E+00  3.2619087E+01
 3.9042501E+00  3.2605499E+01
 3.9157503E+00  3.2833858E+01
 3.9272501E+00  3.3008808E+01
 3.9387503E+00  3.3163448E+01
 3.9502501E+00  3.3227314E+01
 3.9617503E+00  3.3128593E+01
 3.9732502E+00  3.3307129E+01
 3.9847503E+00  3.3143219E+01
 3.9962502E+00  3.3436157E+01
 4.0077500E+00  3.3388081E+01
 4.0192504E+00  3.3289047E+01
 4.0307503E+00  3.2863636E+01
 4.0422502E+00  3.2701481E+01
 4.0537500E+00  3.2590252E+01
 4.0652504E+00  3.2630554E+01
 4.0767503E+00  3.2649746E+01
 4.0882502E+00  3.2672230E+01
 4.0997500E+00  3.2612068E+01
 4.1112504E+00  3.2502205E+01
 4.1227503E+00  3.2323868E+01
 4.1342502E+00  3.2262199E+01
 4.1457500E+00  3.2119331E+01
 4.1572504E+00  3.2037479E+01
 4.1687503E+00  3.1993088E+01
 4.1802502E+00  3.1994518E+01
 4.1917500E+00  3.2380402E+01
 4.2032504E+00  3.2573154E+01
 4.2147503E+00  3.2765095E+01
 4.2262502E+00  3.2826454E+01
 4.2377501E+00  3.2696033E+01
 4.2492504E+00  3.2685760E+01
 4.2607503E+00  3.2555344E+01
 4.2722502E+00  3.2426361E+01
 4.2837501E+00  3.2414738E+01
 4.2952504E+00  3.2443054E+01
 4.3067503E+00  3.2628769E+01
 4.3182502E+00  3.2739296E+01
 4.3297501E+00  3.2690781E+01
 4.3412504E+00  3.2651855E+01
 4.3527503E+00  3.2600796E+01
 4.3642502E+00  3.2587925E+01
 4.3757501E+00  3.2541733E+01
 4.3872504E+00  3.2564171E+01
 4.3987503E+00  3.2566132E+01
 4.4102502E+00  3.2762779E+01
 4.4217501E+00  3.2678299E+01
 4.4332504E+00  3.2766556E+01
 4.4447503E+00  3.2605408E+01
 4.4562502E+00  3.2814175E+01
 4.4677501E+00  3.2752125E+01
 4.4792504E+00  3.2824566E+01
 4.4907503E+00  3.2629120E+01
 4.5022502E+00  3.2601219E+01
 4.5137501E+00  3.2507298E+01
 4.5252504E+00  3.2611309E+01
 4.5367503E+00  3.2692074E+01
 4.5482502E+00  3.2756050E+01
 4.5597501E+00  3.2748028E+01
 4.5712504E+00  3.2711815E+01
 4.5827503E+00  3.2674019E+01
 4.5942502E+00  3.2807323E+01
 4.6057501E+00  3.2769173E+01
 4.6172504E+00  3.2927612E+01
 4.6287503E+00  3.2951283E+01
 4.6402502E+00  3.3066685E+01
 4.6517501E+00  3.3121819E+01
 4.6632504E+00  3.3200668E+01
 4.6747503E+00  3.3056633E+01
 4.6862502E+00  3.3027950E+01
 4.6977501E+00  3.2923454E+01
 4.7092505E+00  3.2907299E+01
 4.7207503E+00  3.2871964E+01
 4.7322502E+00  3.2842728E+01
 4.7437501E+00  3.2936722E+01
 4.7552505E+00  3.2963974E+01
 4.7667503E+00  3.2984207E+01
 4.7782502E+00  3.2995270E+01
 4.7897501E+00  3.3009457E+01
 4.8012505E+00  3.2940285E+01
 4.8127503E+00  3.2818920E+01
 4.8242502E+00  3.2683617E+01
 4.8357501E+00  3.2705502E+01
 4.8472505E+00  3.2689999E+01
 4.8587503E+00  3.2790379E+01
 4.8702502E+00  3.2784164E+01
 4.8817501E+00  3.2951706E+01
 4.8932505E+00  3.2943157E+01
 4.9047503E+00  3.2959778E+01
 4.9162502E+00  3.2945507E+01
 4.9277501E+00  3.2950787E+01
 4.9392505E+00  3.3113228E+01
 4.9507504E+00  3.3218864E+01
 4.9622502E+00  3.3271400E+01
 4.9737501E+00  3.3271770E+01
 4.9852505E+00  3.3236759E+01
 4.9967504E+00  3.3288254E+01
 5.0082502E+00  3.3292049E+01
 5.0197501E+00  3.3351463E+01
 5.0312505E+00  3.3374020E+01
 5.0427504E+00  3.3430149E+01
 5.0542502E+00  3.3379433E+01
 5.0657501E+00  3.3399651E+01
 5.0772505E+00  3.3358665E+01
 5.0887504E+00  3.3392590E+01
 5.1002502E+00  3.3407814E+01
 5.1117501E+00  3.3497555E+01
 5.1232505E+00  3.3565041E+01
 5.1347504E+00  3.3657009E+01
 5.1462502E+00  3.3739037E+01
 5.1577501E+00  3.3773476E+01
 5.1692505E+00  3.3887165E+01
 5.1807504E+00  3.4024578E+01
 5.1922503E+00  3.4276154E+01
 5.2037501E+00  3.4308624E+01
 5.2152505E+00  3.4286766E+01
 5.2267504E+00  3.4264328E+01
 5.2382503E+00  3.4189659E+01
 5.2497501E+00  3.4147934E+01
 5.2612505E+00  3.4172958E+01
 5.2727504E+00  3.4239372E+01
 5.2842503E+00  3.4320938E+01
 5.2957501E+00  3.4272953E+01
 5.3072500E+00  3.4310390E+01
 5.3187504E+00  3.4412346E+01
 5.3302503E+00  3.4471546E+01
 5.3417501E+00  3.4406239E+01
 5.3532500E+00  3.4369476E+01
 5.3647504E+00  3.4445496E+01
 5.3762503E+00  3.4630371E+01
 5.3877501E+00  3.4841537E+01
 5.3992500E+00  3.4855656E+01
 5.4107504E+00  3.4897385E+01
 5.4222503E+00  3.4791454E+01
 5.4337502E+00  3.4777885E+01
 5.4452500E+00  3.4821186E+01
 5.4567504E+00  3.4980087E+01
 5.4682503E+00  3.5188786E+01
 5.4797502E+00  3.5331024E+01
 5.4912500E+00  3.5327747E+01
 5.5027504E+00  3.5340267E+01
 5.5142503E+00  3.5320618E+01
 5.5257502E+00  3.5322510E+01
 5.5372500E+00  3.5203583E+01
 5.5487504E+00  3.5165081E+01
 5.5602503E+00  3.5089008E+01
 5.5717502E+00  3.5223804E+01
 5.5832500E+00  3.5361092E+01
 5.5947504E+00  3.5495537E+01
 5.6062503E+00  3.5706936E+01
 5.6177502E+00  3.5757870E+01
 5.6292500E+00  3.5772984E+01
 5.6407504E+00  3.5606567E+01
 5.6522503E+00  3.5496239E+01
 5.6637502E+00  3.5586163E+01
 5.6752501E+00  3.5611145E+01
 5.6867504E+00  3.5622166E+01
 5.6982503E+00  3.5586540E+01
 5.7097502E+00  3.5669411E+01
 5.7212501E+00  3.5791298E+01
 5.7327504E+00  3.5994232E+01
 5.7442503E+00  3.6141953E+01
 5.7557502E+00  3.6258286E+01
 5.7672501E+00  3.6270416E+01
 5.7787504E+00  3.6313313E+01
 5.7902503E+00  3.6340530E+01
 5.8017502E+00  3.6333584E+01
 5.8132501E+00  3.6383968E+01
 5.8247504E+00  3.6467152E+01
 5.8362503E+00  3.6661793E+01
 5.8477502E+00  3.6817570E+01
 5.8592501E+00  3.6996174E+01
 5.8707504E+00  3.7281044E+01
 5.8822503E+00  3.7607170E+01
 5.8937502E+00  3.8205193E+01
 5.9052501E+00  3.9137775E+01
 5.9167504E+00  4.0952644E+01
 5.9282503E+00  4.3744480E+01
 5.9397502E+00  4.7577251E+01
 5.9512501E+00  5.3873127E+01
 5.9627504E+00  5.9025925E+01
 5.9742503E+00  6.3216984E+01
 5.9857502E+00  6.6311218E+01
 5.9972501E+00  6.4573975E+01
 6.0087504E+00  6.1659294E+01
 6.0202503E+00  5.5105618E+01
 6.0317502E+00  4.9915184E+01
 6.0432501E+00  4.5566746E+01
 6.0547504E+00  4.1922550E+01
 6.0662503E+00  4.0142445E+01
 6.0777502E+00  3.8981293E+01
 6.0892501E+00  3.8342930E+01
 6.1007504E+00  3.7903744E+01
 6.1122503E+00  3.7759678E+01
 6.1237502E+00  3.7534435E+01
 6.1352501E+00  3.7531342E+01
 6.1467505E+00  3.7335388E+01
 6.1582503E+00  3.7367405E+01
 6.1697502E+00  3.7315990E+01
 6.1812501E+00  3.7381683E+01
 6.1927505E+00  3.7424507E+01
 6.2042503E+00  3.7499588E+01
 6.2157502E+00  3.7602856E+01
 6.2272501E+00  3.7768639E+01
 6.2387505E+00  3.7847065E+01
 6.2502503E+00  3.7869808E+01
 6.2617502E+00  3.7882607E+01
 6.2732501E+00  3.7876957E+01
 6.2847505E+00  3.8006584E+01
 6.2962503E+00  3.8007111E+01
 6.3077502E+00  3.8021938E+01
 6.3192501E+00  3.8030300E+01
 6.3307505E+00  3.8061344E+01
 6.3422503E+00  3.8172199E+01
 6.3537502E+00  3.8254139E+01
 6.3652501E+00  3.8328465E+01
 6.3767505E+00  3.8443192E+01
 6.3882504E+00  3.8424110E+01
 6.3997502E+00  3.8491982E+01
 6.4112501E+00  3.8564484E+01
 6.4227505E+00  3.8684902E+01
 6.4342504E+00  3.8743675E+01
 6.4457502E+00  3.8788265E+01
 6.4572501E+00  3.8764198E+01
 6.4687505E+00  3.8856701E+01
 6.4802504E+00  3.8921947E+01
 6.4917502E+00  3.9097942E+01
 6.5032501E+00  3.9322762E+01
 6.5147505E+00  3.9546028E+01
 6.5262504E+00  3.9741566E+01
 6.5377502E+00  3.9870125E+01
 6.5492501E+00  3.9900768E+01
 6.5607505E+00  3.9956062E+01
 6.5722504E+00  3.9906940E+01
 6.5837502E+00  3.9879700E+01
 6.5952501E+00  3.9905533E+01
 6.6067505E+00  3.9962456E+01
 6.6182504E+00  4.0037571E+01
 6.6297503E+00  4.0098869E+01
 6.6412501E+00  4.0175350E+01
 6.6527505E+00  4.0283539E+01
 6.6642504E+00  4.0375278E+01
 6.6757503E+00  4.0519722E+01
 6.6872501E+00  4.0627792E+01
 6.6987505E+00  4.0666981E+01
 6.7102504E+00  4.0739807E+01
 6.7217503E+00  4.0752789E+01
 6.7332501E+00  4.0950054E+01
 6.7447505E+00  4.1057495E+01
 6.7562504E+00  4.1251907E+01
 6.7677503E+00  4.1331223E+01
 6.7792501E+00  4.1431252E+01
 6.7907505E+00  4.1521873E+01
 6.8022504E+00  4.1577347E+01
 6.8137503E+00  4.1654835E+01
 6.8252501E+00  4.1674831E+01
 6.8367505E+00  4.1732273E+01
 6.8482504E+00  4.1802521E+01
 6.8597503E+00  4.1918530E+01
 6.8712502E+00  4.2020420E+01
 6.8827505E+00  4.2131275E+01
 6.8942504E+00  4.2108089E+01
 6.9057503E+00  4.2216522E+01
 6.9172502E+00  4.2285740E+01
 6.9287505E+00  4.2422916E+01
 6.9402504E+00  4.2576874E+01
 6.9517503E+00  4.2669346E+01
 6.9632502E+00  4.2699509E+01
 6.9747505E+00  4.2629086E+01
 6.9862504E+00  4.2519409E+01
 6.9977503E+00  4.2537197E+01
 7.0092502E+00  4.2622990E+01
 7.0207505E+00  4.2728680E+01
 7.0322504E+00  4.2831890E+01
 7.0437503E+00  4.2889977E+01
 7.0552502E+00  4.2944725E+01
 7.0667505E+00  4.3084263E+01
 7.0782504E+00  4.3191612E+01
 7.0897503E+00  4.3347813E+01
 7.1012502E+00  4.3377781E+01
 7.1127505E+00  4.3462532E+01
 7.1242504E+00  4.3496304E+01
 7.1357503E+00  4.3524734E+01
 7.1472502E+00  4.3464756E+01
 7.1587505E+00  4.3452641E+01
 7.1702504E+00  4.3481747E+01
 7.1817503E+00  4.3570049E+01
 7.1932502E+00  4.3608410E+01
 7.2047505E+00  4.3662743E+01
 7.2162504E+00  4.3643604E+01
 7.2277503E+00  4.3648949E+01
 7.2392502E+00  4.3604599E+01
 7.2507505E+00  4.3608719E+01
 7.2622504E+00  4.3609802E+01
 7.2737503E+00  4.3738285E+01
 7.2852502E+00  4.3821602E+01
 7.2967505E+00  4.3908386E+01
 7.3082504E+00  4.3952148E+01
 7.3197503E+00  4.3964924E+01
 7.3312502E+00  4.4044147E+01
 7.3427505E+00  4.4194675E+01
 7.3542504E+00  4.4351154E+01
 7.3657503E+00  4.4350136E+01
 7.3772502E+00  4.4288967E+01
 7.3887506E+00  4.4180557E+01
 7.4002504E+00  4.4216690E+01
 7.4117503E+00  4.4233234E+01
 7.4232502E+00  4.4272072E+01
 7.4347506E+00  4.4270298E+01
 7.4462504E+00  4.4275242E+01
 7.4577503E+00  4.4403358E+01
 7.4692502E+00  4.4490295E+01
 7.4807506E+00  4.4659840E+01
 7.4922504E+00  4.4674538E+01
 7.5037503E+00  4.4736267E+01
 7.5152502E+00  4.4627293E+01
 7.5267506E+00  4.4635647E+01
 7.5382504E+00  4.4598293E+01
 7.5497503E+00  4.4570827E+01
 7.5612502E+00  4.4598541E+01
 7.5727506E+00  4.4546886E+01
 7.5842505E+00  4.4624283E+01
 7.5957503E+00  4.4628651E+01
 7.6072502E+00  4.4649555E+01
 7.6187506E+00  4.4649719E+01
 7.6302505E+00  4.4595917E+01
 7.6417503E+00  4.4635483E+01
 7.6532502E+00  4.4492882E+01
 7.6647506E+00  4.4400723E+01
 7.6762505E+00  4.4286320E+01
 7.6877503E+00  4.4384537E+01
 7.6992502E+00  4.4347847E+01
 7.7107506E+00  4.4415134E+01
 7.7222505E+00  4.4435955E+01
 7.7337503E+00  4.4442760E+01
 7.7452502E+00  4.4444881E+01
 7.7567506E+00  4.4346390E+01
 7.7682505E+00  4.4362873E+01
 7.7797503E+00  4.4349674E+01
 7.7912502E+00  4.4308090E+01
 7.8027506E+00  4.4261578E+01
 7.8142505E+00  4.4222660E+01
 7.8257504E+00  4.4150063E+01
 7.8372502E+00  4.4184387E+01
 7.8487506E+00  4.4077194E+01
 7.8602505E+00  4.4096798E+01
 7.8717504E+00  4.4006977E+01
 7.8832502E+00  4.3987019E+01
 7.8947506E+00  4.3905354E+01
 7.9062505E+00  4.3864059E+01
 7.9177504E+00  4.3855534E+01
 7.9292502E+00  4.3871304E+01
 7.9407506E+00  4.3922958E+01
 7.9522505E+00  4.3871769E+01
 7.9637504E+00  4.3854019E+01
 7.9752502E+00  4.3762291E+01
 7.9867506E+00  4.3745277E+01
 7.9982505E+00  4.3669594E+01
 8.0097504E+00  4.3602261E+01
 8.0212507E+00  4.3595833E+01
 8.0327501E+00  4.3505554E+01
 8.0442505E+00  4.3448906E+01
 8.0557508E+00  4.3311787E+01
 8.0672503E+00  4.3244308E+01
 8.0787506E+00  4.3182529E+01
 8.0902500E+00  4.3161873E+01
 8.1017504E+00  4.3164055E+01
 8.1132507E+00  4.3093658E+01
 8.1247501E+00  4.2932220E+01
 8.1362505E+00  4.2764874E+01
 8.1477509E+00  4.2568974E+01
 8.1592503E+00  4.2411259E+01
 8.1707506E+00  4.2310215E+01
 8.1822500E+00  4.2249245E+01
 8.1937504E+00  4.2213768E+01
 8.2052507E+00  4.2109463E+01
 8.2167501E+00  4.1929836E+01
 8.2282505E+00  4.1798607E+01
 8.2397509E+00  4.1570057E+01
 8.2512503E+00  4.1429485E+01
 8.2627506E+00  4.1276623E+01
 8.2742500E+00  4.1232037E+01
 8.2857504E+00  4.1092167E+01
 8.2972507E+00  4.0971142E+01
 8.3087502E+00  4.0802837E+01
 8.3202505E+00  4.0725006E+01
 8.3317509E+00  4.0552532E+01
 8.3432503E+00  4.0422863E+01
 8.3547506E+00  4.0317421E+01
 8.3662500E+00  4.0237061E+01
 8.3777504E+00  4.0096588E+01
 8.3892508E+00  3.9890461E+01
 8.4007502E+00  3.9665207E+01
 8.4122505E+00  3.9431770E+01
 8.4237509E+00  3.9202682E+01
 8.4352503E+00  3.8969036E+01
 8.4467506E+00  3.8898361E+01
 8.4582500E+00  3.8734715E+01
 8.4697504E+00  3.8629425E+01
 8.4812508E+00  3.8328781E+01
 8.4927502E+00  3.8154606E+01
 8.5042505E+00  3.7950203E+01
 8.5157509E+00  3.7847454E+01
 8.5272503E+00  3.7669930E+01
 8.5387506E+00  3.7467262E+01
 8.5502501E+00  3.7272457E+01
 8.5617504E+00  3.7107738E+01
 8.5732508E+00  3.6989174E+01
 8.5847502E+00  3.6905365E+01
 8.5962505E+00  3.6750149E+01
 8.6077509E+00  3.6551239E+01
 8.6192503E+00  3.6383377E+01
 8.6307507E+00  3.6218761E+01
 8.6422501E+00  3.6070839E+01
 8.6537504E+00  3.5747517E+01
 8.6652508E+00  3.5480602E+01
 8.6767502E+00  3.5255001E+01
 8.6882505E+00  3.5156601E+01
 8.6997509E+00  3.5125523E+01
 8.7112503E+00  3.4942329E+01
 8.7227507E+00  3.4803852E+01
 8.7342501E+00  3.4507412E+01
 8.7457504E+00  3.4322803E+01
 8.7572508E+00  3.4176830E+01
 8.7687502E+00  3.4010086E+01
 8.7802505E+00  3.3846577E+01
 8.7917500E+00  3.3646667E+01
 8.8032503E+00  3.3420124E+01
 8.8147507E+00  3.3329727E+01
 8.8262501E+00  3.3124088E+01
 8.8377504E+00  3.3055264E+01
 8.8492508E+00  3.2872295E+01
 8.8607502E+00  3.2676781E+01
 8.8722506E+00  3.2475849E+01
 8.8837500E+00  3.2339661E+01
 8.8952503E+00  3.2184170E+01
 8.9067507E+00  3.2063450E+01
 8.9182501E+00  3.1882338E+01
 8.9297504E+00  3.1774286E+01
 8.9412508E+00  3.1638241E+01
 8.9527502E+00  3.1518852E+01
 8.9642506E+00  3.1389874E+01
 8.9757500E+00  3.1281757E+01
 8.9872503E+00  3.1128469E+01
 8.9987507E+00  3.0923214E+01
 9.0102501E+00  3.0658384E+01
 9.0217505E+00  3.0452703E+01
 9.0332508E+00  3.0365551E+01
 9.0447502E+00  3.0272404E+01
 9.0562506E+00  3.0170069E+01
 9.0677500E+00  3.0061438E+01
 9.0792503E+00  2.9978691E+01
 9.0907507E+00  2.9871258E+01
 9.1022501E+00  2.9668137E+01
 9.1137505E+00  2.9482641E+01
 9.1252508E+00  2.9350470E+01
 9.1367502E+00  2.9232138E+01
 9.1482506E+00  2.9157349E+01
 9.1597500E+00  2.9014336E+01
 9.1712503E+00  2.8920229E+01
 9.1827507E+00  2.8732050E+01
 9.1942501E+00  2.8649765E+01
 9.2057505E+00  2.8549604E+01
 9.2172508E+00  2.8531433E+01
 9.2287502E+00  2.8352135E+01
 9.2402506E+00  2.8277761E+01
 9.2517500E+00  2.8130033E+01
 9.2632504E+00  2.8093710E+01
 9.2747507E+00  2.7981325E+01
 9.2862501E+00  2.7905741E+01
 9.2977505E+00  2.7830946E+01
 9.3092508E+00  2.7710443E+01
 9.3207502E+00  2.7583603E+01
 9.3322506E+00  2.7454082E+01
 9.3437500E+00  2.7379797E+01
 9.3552504E+00  2.7310644E+01
 9.3667507E+00  2.7270004E+01
 9.3782501E+00  2.7196180E+01
 9.3897505E+00  2.7106689E+01
 9.4012508E+00  2.6998993E+01
 9.4127502E+00  2.6930012E+01
 9.4242506E+00  2.6793455E+01
 9.4357500E+00  2.6690092E+01
 9.4472504E+00  2.6638466E+01
 9.4587507E+00  2.6555119E+01
 9.4702501E+00  2.6537336E+01
 9.4817505E+00  2.6430620E+01
 9.4932508E+00  2.6342972E+01
 9.5047503E+00  2.6329201E+01
 9.5162506E+00  2.6313623E+01
 9.5277500E+00  2.6351570E+01
 9.5392504E+00  2.6283562E+01
 9.5507507E+00  2.6155188E+01
 9.5622501E+00  2.6069365E+01
 9.5737505E+00  2.5874712E+01
 9.5852509E+00  2.5790455E+01
 9.5967503E+00  2.5752949E+01
 9.6082506E+00  2.5803947E+01
 9.6197500E+00  2.5854025E+01
 9.6312504E+00  2.5834570E+01
 9.6427507E+00  2.5767076E+01
 9.6542501E+00  2.5669661E+01
 9.6657505E+00  2.5601793E+01
 9.6772509E+00  2.5496727E+01
 9.6887503E+00  2.5370441E+01
 9.7002506E+00  2.5283482E+01
 9.7117500E+00  2.5310930E+01
 9.7232504E+00  2.5300097E+01
 9.7347507E+00  2.5276922E+01
 9.7462502E+00  2.5239929E+01
 9.7577505E+00  2.5207996E+01
 9.7692509E+00  2.5212044E+01
 9.7807503E+00  2.5134745E+01
 9.7922506E+00  2.5141268E+01
 9.8037500E+00  2.5110603E+01
 9.8152504E+00  2.5097082E+01
 9.8267508E+00  2.5030300E+01
 9.8382502E+00  2.5022970E+01
 9.8497505E+00  2.4983833E+01
 9.8612509E+00  2.4887175E+01
 9.8727503E+00  2.4770676E+01
 9.8842506E+00  2.4689005E+01
 9.8957500E+00  2.4693743E+01
 9.9072504E+00  2.4699575E+01
 9.9187508E+00  2.4737846E+01
 9.9302502E+00  2.4754744E+01
 9.9417505E+00  2.4699686E+01
 9.9532509E+00  2.4620605E+01
 9.9647503E+00  2.4587225E+01
 9.9762506E+00  2.4631783E+01
 9.9877501E+00  2.4555990E+01
 9.9992504E+00  2.4499033E+01
 1.0010751E+01  2.4393600E+01
 1.0022250E+01  2.4365503E+01
 1.0033751E+01  2.4357708E+01
 1.0045251E+01  2.4334717E+01
 1.0056750E+01  2.4315905E+01
 1.0068251E+01  2.4242859E+01
 1.0079750E+01  2.4169899E+01
 1.0091250E+01  2.4108698E+01
 1.0102751E+01  2.4089842E+01
 1.0114250E+01  2.4082485E+01
 1.0125751E+01  2.4127033E+01
 1.0137251E+01  2.4094215E+01
 1.0148750E+01  2.4080446E+01
 1.0160251E+01  2.4022425E+01
 1.0171750E+01  2.3975584E+01
 1.0183250E+01  2.3924490E+01
 1.0194751E+01  2.3889141E+01
 1.0206250E+01  2.3850582E+01
 1.0217751E+01  2.3825050E+01
 1.0229251E+01  2.3782780E+01
 1.0240750E+01  2.3735508E+01
 1.0252251E+01  2.3618313E+01
 1.0263750E+01  2.3542242E+01
 1.0275250E+01  2.3518246E+01
 1.0286751E+01  2.3560053E+01
 1.0298250E+01  2.3602814E+01
 1.0309751E+01  2.3609152E+01
 1.0321251E+01  2.3623732E+01
 1.0332750E+01  2.3637625E+01
 1.0344251E+01  2.3609760E+01
 1.0355750E+01  2.3579222E+01
 1.0367250E+01  2.3507563E+01
 1.0378751E+01  2.3485397E+01
 1.0390250E+01  2.3493177E+01
 1.0401751E+01  2.3477192E+01
 1.0413251E+01  2.3468843E+01
 1.0424750E+01  2.3420252E+01
 1.0436251E+01  2.3358463E+01
 1.0447750E+01  2.3297480E+01
 1.0459250E+01  2.3222441E+01
 1.0470751E+01  2.3250177E+01
 1.0482250E+01  2.3269085E+01
 1.0493751E+01  2.3342201E+01
 1.0505251E+01  2.3354206E+01
 1.0516750E+01  2.3376451E+01
 1.0528251E+01  2.3315361E+01
 1.0539750E+01  2.3263432E+01
 1.0551250E+01  2.3218414E+01
 1.0562751E+01  2.3259315E+01
 1.0574250E+01  2.3248169E+01
 1.0585751E+01  2.3261927E+01
 1.0597251E+01  2.3264349E+01
 1.0608750E+01  2.3343611E+01
 1.0620251E+01  2.3369076E+01
 1.0631750E+01  2.3316206E+01
 1.0643250E+01  2.3223530E+01
 1.0654751E+01  2.3158834E+01
 1.0666250E+01  2.3078775E+01
 1.0677751E+01  2.3036045E+01
 1.0689251E+01  2.2992321E+01
 1.0700750E+01  2.3006001E+01
 1.0712251E+01  2.3010885E+01
 1.0723750E+01  2.3031368E+01
 1.0735250E+01  2.3043341E+01
 1.0746751E+01  2.3032652E+01
 1.0758250E+01  2.3015841E+01
 1.0769751E+01  2.3034140E+01
 1.0781251E+01  2.2985903E+01
 1.0792750E+01  2.2927889E+01
 1.0804251E+01  2.2817820E+01
 1.0815750E+01  2.2779758E+01
 1.0827250E+01  2.2767841E+01
 1.0838751E+01  2.2801785E+01
 1.0850250E+01  2.2816774E+01
 1.0861751E+01  2.2822233E+01
 1.0873251E+01  2.2747749E+01
 1.0884750E+01  2.2698111E+01
 1.0896251E+01  2.2633366E+01
 1.0907750E+01  2.2668095E+01
 1.0919250E+01  2.2699926E+01
 1.0930751E+01  2.2697695E+01
 1.0942250E+01  2.2681690E+01
 1.0953751E+01  2.2707170E+01
 1.0965251E+01  2.2714132E+01
 1.0976750E+01  2.2744869E+01
 1.0988251E+01  2.2683746E+01
 1.0999750E+01  2.2618258E+01
 1.1011250E+01  2.2561413E+01
 1.1022751E+01  2.2538563E+01
 1.1034250E+01  2.2541723E+01
 1.1045751E+01  2.2536798E+01
 1.1057251E+01  2.2517124E+01
 1.1068750E+01  2.2583738E+01
 1.1080251E+01  2.2608404E+01
 1.1091750E+01  2.2619572E+01
 1.1103251E+01  2.2583401E+01
 1.1114751E+01  2.2530092E+01
 1.1126250E+01  2.2552988E+01
 1.1137751E+01  2.2534222E+01
 1.1149251E+01  2.2556944E+01
 1.1160750E+01  2.2521982E+01
 1.1172251E+01  2.2498484E+01
 1.1183750E+01  2.2434206E+01
 1.1195251E+01  2.2408331E+01
 1.1206751E+01  2.2384405E+01
 1.1218250E+01  2.2372751E+01
 1.1229751E+01  2.2420456E+01
 1.1241251E+01  2.2471016E+01
 1.1252750E+01  2.2529882E+01
 1.1264251E+01  2.2520554E+01
 1.1275750E+01  2.2507807E+01
 1.1287251E+01  2.2465776E+01
 1.1298751E+01  2.2444031E+01
 1.1310250E+01  2.2492176E+01
 1.1321751E+01  2.2552883E+01
 1.1333251E+01  2.2562071E+01
 1.1344750E+01  2.2618002E+01
 1.1356251E+01  2.2673353E+01
 1.1367750E+01  2.2835129E+01
 1.1379251E+01  2.2863943E+01
 1.1390751E+01  2.2891897E+01
 1.1402250E+01  2.2948605E+01
 1.1413751E+01  2.2920658E+01
 1.1425251E+01  2.2929054E+01
 1.1436750E+01  2.2907984E+01
 1.1448251E+01  2.2985975E+01
 1.1459750E+01  2.3039557E+01
 1.1471251E+01  2.3052441E+01
 1.1482751E+01  2.3081852E+01
 1.1494250E+01  2.3170668E+01
 1.1505751E+01  2.3234594E+01
 1.1517251E+01  2.3561632E+01
 1.1528750E+01  2.3870865E+01
 1.1540251E+01  2.4728951E+01
 1.1551750E+01  2.5704868E+01
 1.1563251E+01  2.6779612E+01
 1.1574751E+01  2.8589504E+01
 1.1586250E+01  2.9709679E+01
 1.1597751E+01  3.0366152E+01
 1.1609251E+01  3.0327446E+01
 1.1620750E+01  2.9213917E+01
 1.1632251E+01  2.8062828E+01
 1.1643750E+01  2.5967833E+01
 1.1655251E+01  2.4988430E+01
 1.1666751E+01  2.4145645E+01
 1.1678250E+01  2.3572235E+01
 1.1689751E+01  2.3228966E+01
 1.1701251E+01  2.3012890E+01
 1.1712750E+01  2.2823132E+01
 1.1724251E+01  2.2687834E+01
 1.1735750E+01  2.2619040E+01
 1.1747251E+01  2.2617914E+01
 1.1758751E+01  2.2620037E+01
 1.1770250E+01  2.2592144E+01
 1.1781751E+01  2.2576290E+01
 1.1793251E+01  2.2579803E+01
 1.1804750E+01  2.2618940E+01
 1.1816251E+01  2.2673220E+01
 1.1827750E+01  2.2686972E+01
 1.1839251E+01  2.2707903E+01
 1.1850751E+01  2.2672409E+01
 1.1862250E+01  2.2651285E+01
 1.1873751E+01  2.2582983E+01
 1.1885251E+01  2.2585989E+01
 1.1896750E+01  2.2629080E+01
 1.1908251E+01  2.2697781E+01
 1.1919750E+01  2.2841913E+01
 1.1931251E+01  2.3019617E+01
 1.1942751E+01  2.3343029E+01
 1.1954250E+01  2.3677078E+01
 1.1965751E+01  2.4049868E+01
 1.1977251E+01  2.4261677E+01
 1.1988750E+01  2.4415995E+01
 1.2000251E+01  2.4375029E+01
 1.2011750E+01  2.4186340E+01
 1.2023251E+01  2.3891756E+01
 1.2034751E+01  2.3785673E+01
 1.2046250E+01  2.3888748E+01
 1.2057751E+01  2.4293095E+01
 1.2069251E+01  2.4908705E+01
 1.2080750E+01  2.5684973E+01
 1.2092251E+01  2.6562279E+01
 1.2103750E+01  2.7158649E+01
 1.2115251E+01  2.7210529E+01
 1.2126751E+01  2.6620489E+01
 1.2138250E+01  2.5753225E+01
 1.2149751E+01  2.4963970E+01
 1.2161251E+01  2.4253216E+01
 1.2172750E+01  2.3680611E+01
 1.2184251E+01  2.3242010E+01
 1.2195750E+01  2.2995001E+01
 1.2207251E+01  2.2770447E+01
 1.2218751E+01  2.2651974E+01
 1.2230250E+01  2.2586353E+01
 1.2241751E+01  2.2570465E+01
 1.2253251E+01  2.2579290E+01
 1.2264750E+01  2.2581367E+01
 1.2276251E+01  2.2590893E+01
 1.2287750E+01  2.2610332E+01
 1.2299251E+01  2.2641073E+01
 1.2310751E+01  2.2718998E+01
 1.2322250E+01  2.2719028E+01
 1.2333751E+01  2.2765831E+01
 1.2345250E+01  2.2766638E+01
 1.2356750E+01  2.2831810E+01
 1.2368251E+01  2.2811077E+01
 1.2379750E+01  2.2816425E+01
 1.2391251E+01  2.2794662E+01
 1.2402751E+01  2.2804861E+01
 1.2414250E+01  2.2775215E+01
 1.2425751E+01  2.2737837E+01
 1.2437250E+01  2.2716766E+01
 1.2448750E+01  2.2713593E+01
 1.2460251E+01  2.2719423E+01
 1.2471750E+01  2.2717440E+01
 1.2483251E+01  2.2786892E+01
 1.2494751E+01  2.2801497E+01
 1.2506250E+01  2.2788540E+01
 1.2517751E+01  2.2787140E+01
 1.2529250E+01  2.2824467E+01
 1.2540751E+01  2.2877745E+01
 1.2552251E+01  2.2893560E+01
 1.2563750E+01  2.2910454E+01
 1.2575251E+01  2.2921453E+01
 1.2586751E+01  2.2905308E+01
 1.2598250E+01  2.2922726E+01
 1.2609751E+01  2.2955181E+01
 1.2621250E+01  2.2975655E+01
 1.2632751E+01  2.2959925E+01
 1.2644251E+01  2.2890793E+01
 1.2655750E+01  2.2898293E+01
 1.2667251E+01  2.2946146E+01
 1.2678751E+01  2.3052246E+01
 1.2690250E+01  2.3105593E+01
 1.2701751E+01  2.3138819E+01
 1.2713250E+01  2.3184526E+01
 1.2724751E+01  2.3215748E+01
 1.2736251E+01  2.3222097E+01
 1.2747750E+01  2.3225445E+01
 1.2759251E+01  2.3227215E+01
 1.2770751E+01  2.3256092E+01
 1.2782250E+01  2.3290056E+01
 1.2793751E+01  2.3284075E+01
 1.2805250E+01  2.3277252E+01
 1.2816751E+01  2.3284464E+01
 1.2828251E+01  2.3308779E+01
 1.2839750E+01  2.3365303E+01
 1.2851251E+01  2.3381250E+01
 1.2862751E+01  2.3421074E+01
 1.2874250E+01  2.3490440E+01
 1.2885751E+01  2.3533060E+01
 1.2897250E+01  2.3626938E+01
 1.2908751E+01  2.3705439E+01
 1.2920251E+01  2.3734865E+01
 1.2931750E+01  2.3763119E+01
 1.2943251E+01  2.3725372E+01
 1.2954751E+01  2.3732958E+01
 1.2966250E+01  2.3788500E+01
 1.2977751E+01  2.3887915E+01
 1.2989250E+01  2.3986427E+01
 1.3000751E+01  2.4015839E+01
 1.3012251E+01  2.4064779E+01
 1.3023750E+01  2.4173784E+01
 1.3035251E+01  2.4253120E+01
 1.3046751E+01  2.4333948E+01
 1.3058250E+01  2.4406824E+01
 1.3069751E+01  2.4511553E+01
 1.3081250E+01  2.4609772E+01
 1.3092751E+01  2.4723068E+01
 1.3104251E+01  2.4871645E+01
 1.3115750E+01  2.5006056E+01
 1.3127251E+01  2.5111092E+01
 1.3138751E+01  2.5223572E+01
 1.3150250E+01  2.5345573E+01
 1.3161751E+01  2.5454634E+01
 1.3173250E+01  2.5559809E+01
 1.3184751E+01  2.5669859E+01
 1.3196251E+01  2.5830601E+01
 1.3207750E+01  2.5976196E+01
 1.3219251E+01  2.6121637E+01
 1.3230751E+01  2.6247482E+01
 1.3242250E+01  2.6349674E+01
 1.3253751E+01  2.6396965E+01
 1.3265250E+01  2.6500612E+01
 1.3276751E+01  2.6613543E+01
 1.3288251E+01  2.6811077E+01
 1.3299750E+01  2.6957132E+01
 1.3311251E+01  2.7064407E+01
 1.3322751E+01  2.7185366E+01
 1.3334250E+01  2.7367636E+01
 1.3345751E+01  2.7500149E+01
 1.3357250E+01  2.7649027E+01
 1.3368751E+01  2.7733065E+01
 1.3380251E+01  2.7962275E+01
 1.3391750E+01  2.8130608E+01
 1.3403251E+01  2.8345621E+01
 1.3414751E+01  2.8468538E+01
 1.3426250E+01  2.8554699E+01
 1.3437751E+01  2.8630720E+01
 1.3449250E+01  2.8718813E+01
 1.3460751E+01  2.8838415E+01
 1.3472251E+01  2.8978260E+01
 1.3483750E+01  2.9150991E+01
 1.3495251E+01  2.9252748E+01
 1.3506751E+01  2.9353882E+01
 1.3518250E+01  2.9408537E+01
 1.3529751E+01  2.9509520E+01
 1.3541250E+01  2.9569910E+01
 1.3552751E+01  2.9660475E+01
 1.3564251E+01  2.9684248E+01
 1.3575750E+01  2.9695980E+01
 1.3587251E+01  2.9754881E+01
 1.3598751E+01  2.9815008E+01
 1.3610250E+01  2.9822422E+01
 1.3621751E+01  2.9802376E+01
 1.3633250E+01  2.9816984E+01
 1.3644751E+01  2.9834435E+01
 1.3656251E+01  2.9888411E+01
 1.3667750E+01  2.9960342E+01
 1.3679251E+01  3.0011383E+01
 1.3690751E+01  2.9985619E+01
 1.3702250E+01  2.9894316E+01
 1.3713751E+01  2.9819109E+01
 1.3725250E+01  2.9778162E+01
 1.3736751E+01  2.9732771E+01
 1.3748251E+01  2.9682821E+01
 1.3759750E+01  2.9605482E+01
 1.3771251E+01  2.9652433E+01
 1.3782751E+01  2.9632215E+01
 1.3794250E+01  2.9656431E+01
 1.3805751E+01  2.9601503E+01
 1.3817250E+01  2.9633129E+01
 1.3828751E+01  2.9672712E+01
 1.3840251E+01  2.9744680E+01
 1.3851750E+01  2.9957630E+01
 1.3863251E+01  3.0247974E+01
 1.3874751E+01  3.0851257E+01
 1.3886250E+01  3.1572081E+01
 1.3897751E+01  3.3098347E+01
 1.3909250E+01  3.4735359E+01
 1.3920751E+01  3.7638409E+01
 1.3932251E+01  4.0132687E+01
 1.3943750E+01  4.3330498E+01
 1.3955251E+01  4.5153427E+01
 1.3966751E+01  4.6055676E+01
 1.3978251E+01  4.4921211E+01
 1.3989751E+01  4.1880760E+01
 1.4001250E+01  3.8852886E+01
 1.4012751E+01  3.5146042E+01
 1.4024251E+01  3.3010166E+01
 1.4035750E+01  3.0872480E+01
 1.4047251E+01  2.9895107E+01
 1.4058751E+01  2.9051443E+01
 1.4070251E+01  2.8680487E+01
 1.4081751E+01  2.8346304E+01
 1.4093250E+01  2.8155447E+01
 1.4104751E+01  2.7986526E+01
 1.4116251E+01  2.7842081E+01
 1.4127750E+01  2.7686527E+01
 1.4139251E+01  2.7539524E+01
 1.4150751E+01  2.7347618E+01
 1.4162251E+01  2.7290697E+01
 1.4173751E+01  2.7183224E+01
 1.4185250E+01  2.7085688E+01
 1.4196751E+01  2.6973768E+01
 1.4208251E+01  2.6957600E+01
 1.4219750E+01  2.6979317E+01
 1.4231251E+01  2.7003593E+01
 1.4242751E+01  2.6955210E+01
 1.4254251E+01  2.6906528E+01
 1.4265751E+01  2.6788200E+01
 1.4277250E+01  2.6689404E+01
 1.4288751E+01  2.6643950E+01
 1.4300251E+01  2.6581839E+01
 1.4311750E+01  2.6462408E+01
 1.4323251E+01  2.6331753E+01
 1.4334751E+01  2.6242546E+01
 1.4346251E+01  2.6247402E+01
 1.4357751E+01  2.6256758E+01
 1.4369250E+01  2.6290806E+01
 1.4380751E+01  2.6281668E+01
 1.4392251E+01  2.6248333E+01
 1.4403750E+01  2.6231094E+01
 1.4415251E+01  2.6198906E+01
 1.4426751E+01  2.6153416E+01
 1.4438251E+01  2.6103024E+01
 1.4449751E+01  2.6079224E+01
 1.4461250E+01  2.6007071E+01
 1.4472751E+01  2.5949825E+01
 1.4484251E+01  2.5884693E+01
 1.4495750E+01  2.5866800E+01
 1.4507251E+01  2.5821190E+01
 1.4518751E+01  2.5794569E+01
 1.4530251E+01  2.5796169E+01
 1.4541751E+01  2.5787333E+01
 1.4553250E+01  2.5821667E+01
 1.4564751E+01  2.5806780E+01
 1.4576251E+01  2.5794106E+01
 1.4587750E+01  2.5730167E+01
 1.4599251E+01  2.5643398E+01
 1.4610751E+01  2.5551363E+01
 1.4622251E+01  2.5490784E+01
 1.4633751E+01  2.5458281E+01
 1.4645250E+01  2.5469858E+01
 1.4656751E+01  2.5453724E+01
 1.4668251E+01  2.5432590E+01
 1.4679750E+01  2.5412762E+01
 1.4691251E+01  2.5405376E+01
 1.4702751E+01  2.5409544E+01
 1.4714251E+01  2.5387007E+01
 1.4725751E+01  2.5337397E+01
 1.4737250E+01  2.5261143E+01
 1.4748751E+01  2.5203690E+01
 1.4760251E+01  2.5163406E+01
 1.4771750E+01  2.5217665E+01
 1.4783251E+01  2.5225754E+01
 1.4794751E+01  2.5282642E+01
 1.4806251E+01  2.5269220E+01
 1.4817751E+01  2.5279837E+01
 1.4829250E+01  2.5215008E+01
 1.4840751E+01  2.5189203E+01
 1.4852251E+01  2.5163849E+01
 1.4863750E+01  2.5136814E+01
 1.4875251E+01  2.5088312E+01
 1.4886751E+01  2.5085443E+01
 1.4898251E+01  2.5135777E+01
 1.4909751E+01  2.5177368E+01
 1.4921250E+01  2.5176477E+01
 1.4932751E+01  2.5153677E+01
 1.4944251E+01  2.5056372E+01
 1.4955750E+01  2.4985598E+01
 1.4967251E+01  2.4942621E+01
 1.4978751E+01  2.5005423E+01
 1.4990251E+01  2.5032234E+01
 1.5001751E+01  2.5027052E+01
 1.5013250E+01  2.5057549E+01
 1.5024751E+01  2.5137011E+01
 1.5036251E+01  2.5152649E+01
 1.5047750E+01  2.5126701E+01
 1.5059251E+01  2.5053976E+01
 1.5070751E+01  2.5042513E+01
 1.5082251E+01  2.5004566E+01
 1.5093751E+01  2.5030495E+01
 1.5105250E+01  2.5031166E+01
 1.5116751E+01  2.5171797E+01
 1.5128251E+01  2.5455252E+01
 1.5139750E+01  2.5947474E+01
 1.5151251E+01  2.6708139E+01
 1.5162751E+01  2.7506172E+01
 1.5174251E+01  2.8218323E+01
 1.5185751E+01  2.8939695E+01
 1.5197250E+01  2.9217468E+01
 1.5208751E+01  2.9067949E+01
 1.5220251E+01  2.8471300E+01
 1.5231750E+01  2.7697451E+01
 1.5243251E+01  2.6935814E+01
 1.5254751E+01  2.6008123E+01
 1.5266251E+01  2.5469852E+01
 1.5277751E+01  2.5156048E+01
 1.5289250E+01  2.4998697E+01
 1.5300751E+01  2.4969133E+01
 1.5312251E+01  2.4882685E+01
 1.5323750E+01  2.4860884E+01
 1.5335251E+01  2.4853037E+01
 1.5346751E+01  2.4843170E+01
 1.5358251E+01  2.4839781E+01
 1.5369751E+01  2.4825167E+01
 1.5381250E+01  2.4801323E+01
 1.5392751E+01  2.4763309E+01
 1.5404251E+01  2.4747046E+01
 1.5415751E+01  2.4753523E+01
 1.5427251E+01  2.4722977E+01
 1.5438751E+01  2.4749966E+01
 1.5450251E+01  2.4732168E+01
 1.5461751E+01  2.4754072E+01
 1.5473250E+01  2.4746742E+01
 1.5484751E+01  2.4772469E+01
 1.5496251E+01  2.4805117E+01
 1.5507751E+01  2.4786905E+01
 1.5519251E+01  2.4777905E+01
 1.5530751E+01  2.4771770E+01
 1.5542251E+01  2.4735086E+01
 1.5553751E+01  2.4726082E+01
 1.5565250E+01  2.4745491E+01
 1.5576751E+01  2.4754490E+01
 1.5588251E+01  2.4759604E+01
 1.5599751E+01  2.4685350E+01
 1.5611251E+01  2.4695555E+01
 1.5622751E+01  2.4640764E+01
 1.5634251E+01  2.4644402E+01
 1.5645751E+01  2.4626734E+01
 1.5657250E+01  2.4650377E+01
 1.5668751E+01  2.4670670E+01
 1.5680251E+01  2.4705265E+01
 1.5691751E+01  2.4710487E+01
 1.5703251E+01  2.4749813E+01
 1.5714751E+01  2.4731276E+01
 1.5726251E+01  2.4723633E+01
 1.5737751E+01  2.4619118E+01
 1.5749250E+01  2.4599121E+01
 1.5760751E+01  2.4585339E+01
 1.5772251E+01  2.4611135E+01
 1.5783751E+01  2.4589664E+01
 1.5795251E+01  2.4666014E+01
 1.5806751E+01  2.4772665E+01
 1.5818251E+01  2.4814951E+01
 1.5829751E+01  2.4739649E+01
 1.5841250E+01  2.4665951E+01
 1.5852751E+01  2.4676220E+01
 1.5864251E+01  2.4672813E+01
 1.5875751E+01  2.4726948E+01
 1.5887251E+01  2.4741533E+01
 1.5898750E+01  2.4788315E+01
 1.5910251E+01  2.4790966E+01
 1.5921751E+01  2.4825310E+01
 1.5933250E+01  2.4823952E+01
 1.5944751E+01  2.4799810E+01
 1.5956251E+01  2.4783991E+01
 1.5967751E+01  2.4749855E+01
 1.5979251E+01  2.4758198E+01
 1.5990750E+01  2.4768003E+01
 1.6002251E+01  2.4780758E+01
 1.6013750E+01  2.4794844E+01
 1.6025251E+01  2.4846949E+01
 1.6036751E+01  2.4891760E+01
 1.6048250E+01  2.4893579E+01
 1.6059752E+01  2.4888592E+01
 1.6071251E+01  2.4833498E+01
 1.6082750E+01  2.4871370E+01
 1.6094252E+01  2.4835457E+01
 1.6105751E+01  2.4936550E+01
 1.6117250E+01  2.4898003E+01
 1.6128750E+01  2.4902468E+01
 1.6140251E+01  2.4914585E+01
 1.6151751E+01  2.4879602E+01
 1.6163250E+01  2.4960787E+01
 1.6174751E+01  2.4939381E+01
 1.6186251E+01  2.5131336E+01
 1.6197750E+01  2.5088987E+01
 1.6209251E+01  2.5472395E+01
 1.6220751E+01  2.5498890E+01
 1.6232250E+01  2.5976234E+01
 1.6243752E+01  2.6156376E+01
 1.6255251E+01  2.6437632E+01
 1.6266750E+01  2.6620739E+01
 1.6278252E+01  2.6260715E+01
 1.6289751E+01  2.6295713E+01
 1.6301250E+01  2.5592152E+01
 1.6312750E+01  2.5653873E+01
 1.6324251E+01  2.5182089E+01
 1.6335751E+01  2.5217180E+01
 1.6347250E+01  2.4972200E+01
 1.6358751E+01  2.4930691E+01
 1.6370251E+01  2.4847462E+01
 1.6381750E+01  2.4800182E+01
 1.6393251E+01  2.4774950E+01
 1.6404751E+01  2.4736975E+01
 1.6416250E+01  2.4731413E+01
 1.6427752E+01  2.4661686E+01
 1.6439251E+01  2.4673605E+01
 1.6450750E+01  2.4668634E+01
 1.6462252E+01  2.4690790E+01
 1.6473751E+01  2.4704710E+01
 1.6485250E+01  2.4753643E+01
 1.6496750E+01  2.4743740E+01
 1.6508251E+01  2.4739361E+01
 1.6519751E+01  2.4763084E+01
 1.6531250E+01  2.4807013E+01
 1.6542751E+01  2.4873831E+01
 1.6554251E+01  2.4846531E+01
 1.6565750E+01  2.4848591E+01
 1.6577251E+01  2.4769627E+01
 1.6588751E+01  2.4750742E+01
 1.6600250E+01  2.4709085E+01
 1.6611752E+01  2.4739359E+01
 1.6623251E+01  2.4717865E+01
 1.6634750E+01  2.4726486E+01
 1.6646252E+01  2.4743559E+01
 1.6657751E+01  2.4790306E+01
 1.6669250E+01  2.4803959E+01
 1.6680750E+01  2.4756971E+01
 1.6692251E+01  2.4718798E+01
 1.6703751E+01  2.4661364E+01
 1.6715250E+01  2.4630806E+01
 1.6726751E+01  2.4605656E+01
 1.6738251E+01  2.4614511E+01
 1.6749750E+01  2.4625988E+01
 1.6761251E+01  2.4614988E+01
 1.6772751E+01  2.4599087E+01
 1.6784250E+01  2.4601803E+01
 1.6795752E+01  2.4610155E+01
 1.6807251E+01  2.4639957E+01
 1.6818750E+01  2.4606337E+01
 1.6830252E+01  2.4559555E+01
 1.6841751E+01  2.4497145E+01
 1.6853251E+01  2.4468170E+01
 1.6864750E+01  2.4490913E+01
 1.6876251E+01  2.4485107E+01
 1.6887751E+01  2.4519438E+01
 1.6899250E+01  2.4519976E+01
 1.6910751E+01  2.4521719E+01
 1.6922251E+01  2.4522896E+01
 1.6933750E+01  2.4528021E+01
 1.6945251E+01  2.4527288E+01
 1.6956751E+01  2.4517178E+01
 1.6968250E+01  2.4512384E+01
 1.6979752E+01  2.4526495E+01
 1.6991251E+01  2.4492676E+01
 1.7002750E+01  2.4454294E+01
 1.7014252E+01  2.4394346E+01
 1.7025751E+01  2.4307777E+01
 1.7037251E+01  2.4252584E+01
 1.7048750E+01  2.4211422E+01
 1.7060251E+01  2.4262743E+01
 1.7071751E+01  2.4304930E+01
 1.7083250E+01  2.4334608E+01
 1.7094751E+01  2.4362154E+01
 1.7106251E+01  2.4371981E+01
 1.7117750E+01  2.4369881E+01
 1.7129251E+01  2.4346884E+01
 1.7140751E+01  2.4359190E+01
 1.7152250E+01  2.4316111E+01
 1.7163752E+01  2.4289644E+01
 1.7175251E+01  2.4282618E+01
 1.7186750E+01  2.4364843E+01
 1.7198252E+01  2.4402149E+01
 1.7209751E+01  2.4420378E+01
 1.7221251E+01  2.4364325E+01
 1.7232750E+01  2.4335661E+01
 1.7244251E+01  2.4272158E+01
 1.7255751E+01  2.4225885E+01
 1.7267250E+01  2.4159836E+01
 1.7278751E+01  2.4180496E+01
 1.7290251E+01  2.4204847E+01
 1.7301750E+01  2.4289692E+01
 1.7313251E+01  2.4297367E+01
 1.7324751E+01  2.4276691E+01
 1.7336250E+01  2.4230474E+01
 1.7347752E+01  2.4134888E+01
 1.7359251E+01  2.4111702E+01
 1.7370750E+01  2.4091843E+01
 1.7382252E+01  2.4106895E+01
 1.7393751E+01  2.4045074E+01
 1.7405251E+01  2.3992329E+01
 1.7416750E+01  2.4000696E+01
 1.7428251E+01  2.4058001E+01
 1.7439751E+01  2.4115349E+01
 1.7451250E+01  2.4128031E+01
 1.7462751E+01  2.4129370E+01
 1.7474251E+01  2.4136461E+01
 1.7485750E+01  2.4150322E+01
 1.7497252E+01  2.4116909E+01
 1.7508751E+01  2.4068989E+01
 1.7520250E+01  2.4047480E+01
 1.7531752E+01  2.4086016E+01
 1.7543251E+01  2.4134848E+01
 1.7554750E+01  2.4118134E+01
 1.7566252E+01  2.4059532E+01
 1.7577751E+01  2.3955025E+01
 1.7589251E+01  2.3894369E+01
 1.7600750E+01  2.3875145E+01
 1.7612251E+01  2.3886202E+01
 1.7623751E+01  2.3926432E+01
 1.7635250E+01  2.3929607E+01
 1.7646751E+01  2.3972258E+01
 1.7658251E+01  2.3942581E+01
 1.7669750E+01  2.3956326E+01
 1.7681252E+01  2.3984713E+01
 1.7692751E+01  2.4016928E+01
 1.7704250E+01  2.3998764E+01
 1.7715752E+01  2.3938236E+01
 1.7727251E+01  2.3892540E+01
 1.7738750E+01  2.3866074E+01
 1.7750252E+01  2.3844810E+01
 1.7761751E+01  2.3820755E+01
 1.7773251E+01  2.3848202E+01
 1.7784750E+01  2.3922949E+01
 1.7796251E+01  2.4007885E+01
 1.7807751E+01  2.3982786E+01
 1.7819250E+01  2.3976381E+01
 1.7830751E+01  2.3914833E+01
 1.7842251E+01  2.3928034E+01
 1.7853750E+01  2.3934389E+01
 1.7865252E+01  2.3962702E+01
 1.7876751E+01  2.3964405E+01
 1.7888250E+01  2.3951626E+01
 1.7899752E+01  2.3960960E+01
 1.7911251E+01  2.3986368E+01
 1.7922750E+01  2.4015554E+01
 1.7934252E+01  2.4059298E+01
 1.7945751E+01  2.4093105E+01
 1.7957251E+01  2.4229782E+01
 1.7968750E+01  2.4449839E+01
 1.7980251E+01  2.4560141E+01
 1.7991751E+01  2.4767866E+01
 1.8003250E+01  2.4860947E+01
 1.8014751E+01  2.5178988E+01
 1.8026251E+01  2.5406775E+01
 1.8037750E+01  2.5848619E+01
 1.8049252E+01  2.6109941E+01
 1.8060751E+01  2.6646240E+01
 1.8072250E+01  2.7043041E+01
 1.8083752E+01  2.7482227E+01
 1.8095251E+01  2.7727270E+01
 1.8106750E+01  2.7683847E+01
 1.8118252E+01  2.7494118E+01
 1.8129751E+01  2.6974911E+01
 1.8141251E+01  2.6503891E+01
 1.8152750E+01  2.5906576E+01
 1.8164251E+01  2.5380274E+01
 1.8175751E+01  2.4895704E+01
 1.8187250E+01  2.4474909E+01
 1.8198751E+01  2.4214611E+01
 1.8210251E+01  2.4138657E+01
 1.8221750E+01  2.4016930E+01
 1.8233252E+01  2.3919226E+01
 1.8244751E+01  2.3842440E+01
 1.8256250E+01  2.3805233E+01
 1.8267752E+01  2.3786089E+01
 1.8279251E+01  2.3808516E+01
 1.8290751E+01  2.3848179E+01
 1.8302252E+01  2.3872215E+01
 1.8313751E+01  2.3816893E+01
 1.8325251E+01  2.3805695E+01
 1.8336750E+01  2.3834923E+01
 1.8348251E+01  2.3874098E+01
 1.8359751E+01  2.3948790E+01
 1.8371250E+01  2.3922174E+01
 1.8382751E+01  2.3903097E+01
 1.8394251E+01  2.3851414E+01
 1.8405750E+01  2.3853994E+01
 1.8417252E+01  2.3834642E+01
 1.8428751E+01  2.3737747E+01
 1.8440250E+01  2.3712944E+01
 1.8451752E+01  2.3680874E+01
 1.8463251E+01  2.3678160E+01
 1.8474751E+01  2.3676041E+01
 1.8486252E+01  2.3652754E+01
 1.8497751E+01  2.3655273E+01
 1.8509251E+01  2.3635347E+01
 1.8520750E+01  2.3604462E+01
 1.8532251E+01  2.3575851E+01
 1.8543751E+01  2.3576231E+01
 1.8555250E+01  2.3642523E+01
 1.8566751E+01  2.3673584E+01
 1.8578251E+01  2.3698629E+01
 1.8589750E+01  2.3722116E+01
 1.8601252E+01  2.3738850E+01
 1.8612751E+01  2.3732737E+01
 1.8624250E+01  2.3660387E+01
 1.8635752E+01  2.3652870E+01
 1.8647251E+01  2.3596331E+01
 1.8658751E+01  2.3589924E+01
 1.8670252E+01  2.3548655E+01
 1.8681751E+01  2.3615274E+01
 1.8693251E+01  2.3654776E+01
 1.8704750E+01  2.3686989E+01
 1.8716251E+01  2.3667074E+01
 1.8727751E+01  2.3641428E+01
 1.8739250E+01  2.3578085E+01
 1.8750751E+01  2.3596363E+01
 1.8762251E+01  2.3629122E+01
 1.8773750E+01  2.3677347E+01
 1.8785252E+01  2.3725210E+01
 1.8796751E+01  2.3785492E+01
 1.8808250E+01  2.3789160E+01
 1.8819752E+01  2.3759413E+01
 1.8831251E+01  2.3691805E+01
 1.8842751E+01  2.3607325E+01
 1.8854252E+01  2.3566618E+01
 1.8865751E+01  2.3594036E+01
 1.8877251E+01  2.3643040E+01
 1.8888750E+01  2.3629494E+01
 1.8900251E+01  2.3647730E+01
 1.8911751E+01  2.3661411E+01
 1.8923250E+01  2.3712294E+01
 1.8934752E+01  2.3715721E+01
 1.8946251E+01  2.3787664E+01
 1.8957750E+01  2.3738642E+01
 1.8969252E+01  2.3711683E+01
 1.8980751E+01  2.3678810E+01
 1.8992250E+01  2.3736967E+01
 1.9003752E+01  2.3754934E+01
 1.9015251E+01  2.3786140E+01
 1.9026751E+01  2.3785215E+01
 1.9038252E+01  2.3729544E+01
 1.9049751E+01  2.3682989E+01
 1.9061251E+01  2.3684961E+01
 1.9072750E+01  2.3694145E+01
 1.9084251E+01  2.3711243E+01
 1.9095751E+01  2.3658510E+01
 1.9107250E+01  2.3593472E+01
 1.9118752E+01  2.3513584E+01
 1.9130251E+01  2.3527346E+01
 1.9141750E+01  2.3564156E+01
 1.9153252E+01  2.3563591E+01
 1.9164751E+01  2.3534016E+01
 1.9176250E+01  2.3554363E+01
 1.9187752E+01  2.3582878E+01
 1.9199251E+01  2.3619555E+01
 1.9210751E+01  2.3662493E+01
 1.9222252E+01  2.3688110E+01
 1.9233751E+01  2.3694159E+01
 1.9245251E+01  2.3700243E+01
 1.9256750E+01  2.3759003E+01
 1.9268251E+01  2.3784359E+01
 1.9279751E+01  2.3761326E+01
 1.9291250E+01  2.3683439E+01
 1.9302752E+01  2.3657333E+01
 1.9314251E+01  2.3617399E+01
 1.9325750E+01  2.3636425E+01
 1.9337252E+01  2.3639269E+01
 1.9348751E+01  2.3677160E+01
 1.9360250E+01  2.3690754E+01
 1.9371752E+01  2.3736370E+01
 1.9383251E+01  2.3774645E+01
 1.9394751E+01  2.3836483E+01
 1.9406250E+01  2.3846090E+01
 1.9417751E+01  2.3883276E+01
 1.9429251E+01  2.3845175E+01
 1.9440750E+01  2.3810980E+01
 1.9452251E+01  2.3752922E+01
 1.9463751E+01  2.3749317E+01
 1.9475250E+01  2.3808596E+01
 1.9486752E+01  2.3842628E+01
 1.9498251E+01  2.3837767E+01
 1.9509750E+01  2.3849545E+01
 1.9521252E+01  2.3905424E+01
 1.9532751E+01  2.3927505E+01
 1.9544250E+01  2.3920650E+01
 1.9555752E+01  2.3922085E+01
 1.9567251E+01  2.3940687E+01
 1.9578751E+01  2.3941820E+01
 1.9590250E+01  2.3971106E+01
 1.9601751E+01  2.4044979E+01
 1.9613251E+01  2.4146091E+01
 1.9624750E+01  2.4201490E+01
 1.9636251E+01  2.4435966E+01
 1.9647751E+01  2.4638699E+01
 1.9659250E+01  2.5245827E+01
 1.9670752E+01  2.5843971E+01
 1.9682251E+01  2.6412630E+01
 1.9693750E+01  2.7554176E+01
 1.9705252E+01  2.7773825E+01
 1.9716751E+01  2.8775309E+01
 1.9728251E+01  2.8421061E+01
 1.9739752E+01  2.8398575E+01
 1.9751251E+01  2.7947723E+01
 1.9762751E+01  2.7326340E+01
 1.9774250E+01  2.7112925E+01
 1.9785751E+01  2.6522718E+01
 1.9797251E+01  2.6885799E+01
 1.9808750E+01  2.7051073E+01
 1.9820251E+01  2.7679564E+01
 1.9831751E+01  2.9008163E+01
 1.9843250E+01  2.9815651E+01
 1.9854752E+01  3.0929749E+01
 1.9866251E+01  3.1120590E+01
 1.9877750E+01  3.1130215E+01
 1.9889252E+01  3.0051443E+01
 1.9900751E+01  2.8843912E+01
 1.9912251E+01  2.7646173E+01
 1.9923752E+01  2.6392818E+01
 1.9935251E+01  2.5636499E+01
 1.9946751E+01  2.5036251E+01
 1.9958250E+01  2.4714968E+01
 1.9969751E+01  2.4554914E+01
 1.9981251E+01  2.4361937E+01
 1.9992750E+01  2.4283459E+01
 2.0004251E+01  2.4190563E+01
 2.0015751E+01  2.4165672E+01
 2.0027250E+01  2.4155462E+01
 2.0038752E+01  2.4197222E+01
 2.0050251E+01  2.4187689E+01
 2.0061750E+01  2.4104015E+01
 2.0073252E+01  2.4041597E+01
 2.0084751E+01  2.4007427E+01
 2.0096251E+01  2.4001814E+01
 2.0107752E+01  2.3991896E+01
 2.0119251E+01  2.3992710E+01
 2.0130751E+01  2.3999298E+01
 2.0142250E+01  2.3985689E+01
 2.0153751E+01  2.3948832E+01
 2.0165251E+01  2.3927797E+01
 2.0176750E+01  2.3916452E+01
 2.0188251E+01  2.3918545E+01
 2.0199751E+01  2.3927366E+01
 2.0211250E+01  2.3928963E+01
 2.0222752E+01  2.3928989E+01
 2.0234251E+01  2.3908388E+01
 2.0245750E+01  2.3892639E+01
 2.0257252E+01  2.3887890E+01
 2.0268751E+01  2.3840963E+01
 2.0280251E+01  2.3856762E+01
 2.0291752E+01  2.3847509E+01
 2.0303251E+01  2.3846766E+01
 2.0314751E+01  2.3856234E+01
 2.0326250E+01  2.3887997E+01
 2.0337751E+01  2.3912569E+01
 2.0349251E+01  2.3899096E+01
 2.0360750E+01  2.3872213E+01
 2.0372252E+01  2.3864285E+01
 2.0383751E+01  2.3826601E+01
 2.0395250E+01  2.3865145E+01
 2.0406752E+01  2.3874170E+01
 2.0418251E+01  2.3902845E+01
 2.0429750E+01  2.3889231E+01
 2.0441252E+01  2.3909540E+01
 2.0452751E+01  2.3944914E+01
 2.0464251E+01  2.3972652E+01
 2.0475752E+01  2.4015907E+01
 2.0487251E+01  2.4008873E+01
 2.0498751E+01  2.4035549E+01
 2.0510250E+01  2.4023829E+01
 2.0521751E+01  2.4013313E+01
 2.0533251E+01  2.3977182E+01
 2.0544750E+01  2.3976149E+01
 2.0556252E+01  2.4005983E+01
 2.0567751E+01  2.3955194E+01
 2.0579250E+01  2.3913979E+01
 2.0590752E+01  2.3950365E+01
 2.0602251E+01  2.3984287E+01
 2.0613750E+01  2.4065577E+01
 2.0625252E+01  2.4110626E+01
 2.0636751E+01  2.4215654E+01
 2.0648251E+01  2.4280005E+01
 2.0659752E+01  2.4371288E+01
 2.0671251E+01  2.4478001E+01
 2.0682751E+01  2.4685163E+01
 2.0694250E+01  2.4962233E+01
 2.0705751E+01  2.5414064E+01
 2.0717251E+01  2.5818056E+01
 2.0728750E+01  2.6487352E+01
 2.0740252E+01  2.6977734E+01
 2.0751751E+01  2.7485563E+01
 2.0763250E+01  2.7763292E+01
 2.0774752E+01  2.7924713E+01
 2.0786251E+01  2.7724537E+01
 2.0797750E+01  2.7577486E+01
 2.0809252E+01  2.6993446E+01
 2.0820751E+01  2.6264452E+01
 2.0832251E+01  2.5436783E+01
 2.0843752E+01  2.4935301E+01
 2.0855251E+01  2.4612848E+01
 2.0866751E+01  2.4391256E+01
 2.0878250E+01  2.4318201E+01
 2.0889751E+01  2.4254187E+01
 2.0901251E+01  2.4236851E+01
 2.0912750E+01  2.4215788E+01
 2.0924252E+01  2.4194620E+01
 2.0935751E+01  2.4177866E+01
 2.0947250E+01  2.4180971E+01
 2.0958752E+01  2.4118784E+01
 2.0970251E+01  2.4096292E+01
 2.0981750E+01  2.4079132E+01
 2.0993252E+01  2.4094261E+01
 2.1004751E+01  2.4109360E+01
 2.1016251E+01  2.4118549E+01
 2.1027752E+01  2.4136965E+01
 2.1039251E+01  2.4127897E+01
 2.1050751E+01  2.4096174E+01
 2.1062250E+01  2.4047543E+01
 2.1073751E+01  2.4020599E+01
 2.1085251E+01  2.3976242E+01
 2.1096750E+01  2.3919825E+01
 2.1108252E+01  2.3941420E+01
 2.1119751E+01  2.3995010E+01
 2.1131250E+01  2.4020258E+01
 2.1142752E+01  2.4012054E+01
 2.1154251E+01  2.3967321E+01
 2.1165751E+01  2.3969372E+01
 2.1177252E+01  2.4015974E+01
 2.1188751E+01  2.4040436E+01
 2.1200251E+01  2.4052717E+01
 2.1211752E+01  2.4029963E+01
 2.1223251E+01  2.4031837E+01
 2.1234751E+01  2.4017834E+01
 2.1246250E+01  2.4056376E+01
 2.1257751E+01  2.4093872E+01
 2.1269251E+01  2.4096127E+01
 2.1280750E+01  2.4095440E+01
 2.1292252E+01  2.4111177E+01
 2.1303751E+01  2.4103529E+01
 2.1315250E+01  2.4084566E+01
 2.1326752E+01  2.4057238E+01
 2.1338251E+01  2.4064926E+01
 2.1349751E+01  2.4108570E+01
 2.1361252E+01  2.4140755E+01
 2.1372751E+01  2.4184362E+01
 2.1384251E+01  2.4152302E+01
 2.1395752E+01  2.4166311E+01
 2.1407251E+01  2.4127459E+01
 2.1418751E+01  2.4121582E+01
 2.1430250E+01  2.4096054E+01
 2.1441751E+01  2.4081022E+01
 2.1453251E+01  2.4074598E+01
 2.1464750E+01  2.4108770E+01
 2.1476252E+01  2.4123693E+01
 2.1487751E+01  2.4162029E+01
 2.1499250E+01  2.4134029E+01
 2.1510752E+01  2.4119368E+01
 2.1522251E+01  2.4104401E+01
 2.1533751E+01  2.4125225E+01
 2.1545252E+01  2.4139498E+01
 2.1556751E+01  2.4173504E+01
 2.1568251E+01  2.4147829E+01
 2.1579752E+01  2.4174795E+01
 2.1591251E+01  2.4158268E+01
 2.1602751E+01  2.4197266E+01
 2.1614250E+01  2.4163004E+01
 2.1625751E+01  2.4206326E+01
 2.1637251E+01  2.4219070E+01
 2.1648750E+01  2.4234047E+01
 2.1660252E+01  2.4258448E+01
 2.1671751E+01  2.4277060E+01
 2.1683250E+01  2.4249193E+01
 2.1694752E+01  2.4185024E+01
 2.1706251E+01  2.4142067E+01
 2.1717751E+01  2.4168758E+01
 2.1729252E+01  2.4197826E+01
 2.1740751E+01  2.4246559E+01
 2.1752251E+01  2.4258081E+01
 2.1763752E+01  2.4272301E+01
 2.1775251E+01  2.4274040E+01
 2.1786751E+01  2.4288691E+01
 2.1798250E+01  2.4343479E+01
 2.1809752E+01  2.4374353E+01
 2.1821251E+01  2.4371149E+01
 2.1832750E+01  2.4287960E+01
 2.1844252E+01  2.4235743E+01
 2.1855751E+01  2.4190887E+01
 2.1867250E+01  2.4178078E+01
 2.1878752E+01  2.4193150E+01
 2.1890251E+01  2.4161043E+01
 2.1901751E+01  2.4168173E+01
 2.1913252E+01  2.4203827E+01
 2.1924751E+01  2.4240938E+01
 2.1936251E+01  2.4270773E+01
 2.1947752E+01  2.4275801E+01
 2.1959251E+01  2.4310406E+01
 2.1970751E+01  2.4338488E+01
 2.1982250E+01  2.4348888E+01
 2.1993752E+01  2.4361847E+01
 2.2005251E+01  2.4375259E+01
 2.2016750E+01  2.4389399E+01
 2.2028252E+01  2.4413054E+01
 2.2039751E+01  2.4430119E+01
 2.2051250E+01  2.4446596E+01
 2.2062752E+01  2.4415194E+01
 2.2074251E+01  2.4399149E+01
 2.2085751E+01  2.4379927E+01
 2.2097252E+01  2.4351486E+01
 2.2108751E+01  2.4314743E+01
 2.2120251E+01  2.4366024E+01
 2.2131752E+01  2.4385187E+01
 2.2143251E+01  2.4465612E+01
 2.2154751E+01  2.4507429E+01
 2.2166250E+01  2.4508787E+01
 2.2177752E+01  2.4479250E+01
 2.2189251E+01  2.4438078E+01
 2.2200750E+01  2.4403795E+01
 2.2212252E+01  2.4393702E+01
 2.2223751E+01  2.4443518E+01
 2.2235250E+01  2.4519119E+01
 2.2246752E+01  2.4542213E+01
 2.2258251E+01  2.4537979E+01
 2.2269751E+01  2.4472059E+01
 2.2281252E+01  2.4477942E+01
 2.2292751E+01  2.4515316E+01
 2.2304251E+01  2.4576221E+01
 2.2315752E+01  2.4580725E+01
 2.2327251E+01  2.4578388E+01
 2.2338751E+01  2.4582756E+01
 2.2350250E+01  2.4581333E+01
 2.2361752E+01  2.4568880E+01
 2.2373251E+01  2.4563452E+01
 2.2384750E+01  2.4584879E+01
 2.2396252E+01  2.4574064E+01
 2.2407751E+01  2.4574545E+01
 2.2419250E+01  2.4602568E+01
 2.2430752E+01  2.4716522E+01
 2.2442251E+01  2.4796837E+01
 2.2453751E+01  2.4841043E+01
 2.2465252E+01  2.4841839E+01
 2.2476751E+01  2.4830065E+01
 2.2488251E+01  2.4842484E+01
 2.2499752E+01  2.4859289E+01
 2.2511251E+01  2.4904829E+01
 2.2522751E+01  2.4940319E+01
 2.2534250E+01  2.4928158E+01
 2.2545752E+01  2.4952999E+01
 2.2557251E+01  2.4957043E+01
 2.2568750E+01  2.4986647E+01
 2.2580252E+01  2.4992455E+01
 2.2591751E+01  2.5061108E+01
 2.2603251E+01  2.5088263E+01
 2.2614752E+01  2.5156281E+01
 2.2626251E+01  2.5170746E+01
 2.2637751E+01  2.5189005E+01
 2.2649252E+01  2.5140350E+01
 2.2660751E+01  2.5135799E+01
 2.2672251E+01  2.5115614E+01
 2.2683752E+01  2.5143017E+01
 2.2695251E+01  2.5218704E+01
 2.2706751E+01  2.5306496E+01
 2.2718250E+01  2.5341787E+01
 2.2729752E+01  2.5318842E+01
 2.2741251E+01  2.5288898E+01
 2.2752750E+01  2.5312328E+01
 2.2764252E+01  2.5349291E+01
 2.2775751E+01  2.5345615E+01
 2.2787251E+01  2.5370554E+01
 2.2798752E+01  2.5424717E+01
 2.2810251E+01  2.5529295E+01
 2.2821751E+01  2.5528566E+01
 2.2833252E+01  2.5609459E+01
 2.2844751E+01  2.5624895E+01
 2.2856251E+01  2.5685165E+01
 2.2867750E+01  2.5773752E+01
 2.2879251E+01  2.5820438E+01
 2.2890751E+01  2.5869545E+01
 2.2902250E+01  2.5914310E+01
 2.2913752E+01  2.6044474E+01
 2.2925251E+01  2.6154032E+01
 2.2936750E+01  2.6190918E+01
 2.2948252E+01  2.6209728E+01
 2.2959751E+01  2.6215097E+01
 2.2971251E+01  2.6243811E+01
 2.2982752E+01  2.6273867E+01
 2.2994251E+01  2.6339979E+01
