F:\20151113_APS_34IDE\\Brian\Particle1\OCV\Data_0045.tif
2-Theta Angle (Degrees)
Intensity
       2000
 5.7500005E-03  0.0000000E+00
 1.7250001E-02  0.0000000E+00
 2.8750001E-02  0.0000000E+00
 4.0250003E-02  0.0000000E+00
 5.1750004E-02  0.0000000E+00
 6.3250005E-02  0.0000000E+00
 7.4750006E-02  0.0000000E+00
 8.6250007E-02  0.0000000E+00
 9.7750008E-02  0.0000000E+00
 1.0925001E-01  0.0000000E+00
 1.2075000E-01  0.0000000E+00
 1.3225001E-01  0.0000000E+00
 1.4375001E-01  0.0000000E+00
 1.5525001E-01  0.0000000E+00
 1.6675001E-01  0.0000000E+00
 1.7825001E-01  0.0000000E+00
 1.8975002E-01  0.0000000E+00
 2.0125002E-01  0.0000000E+00
 2.1275002E-01  0.0000000E+00
 2.2425000E-01  0.0000000E+00
 2.3575000E-01  0.0000000E+00
 2.4725001E-01  0.0000000E+00
 2.5875002E-01  0.0000000E+00
 2.7025002E-01  0.0000000E+00
 2.8175002E-01  0.0000000E+00
 2.9325002E-01  0.0000000E+00
 3.0475003E-01  0.0000000E+00
 3.1625003E-01  0.0000000E+00
 3.2775003E-01  0.0000000E+00
 3.3925003E-01  0.0000000E+00
 3.5075003E-01  0.0000000E+00
 3.6225003E-01  0.0000000E+00
 3.7375003E-01  0.0000000E+00
 3.8525003E-01  0.0000000E+00
 3.9675003E-01  0.0000000E+00
 4.0825003E-01  0.0000000E+00
 4.1975003E-01  0.0000000E+00
 4.3125004E-01  0.0000000E+00
 4.4275001E-01  0.0000000E+00
 4.5425001E-01  0.0000000E+00
 4.6575001E-01  0.0000000E+00
 4.7725001E-01  0.0000000E+00
 4.8875001E-01  0.0000000E+00
 5.0025004E-01  0.0000000E+00
 5.1175004E-01  0.0000000E+00
 5.2325004E-01  0.0000000E+00
 5.3475004E-01  0.0000000E+00
 5.4625005E-01  0.0000000E+00
 5.5775005E-01  0.0000000E+00
 5.6925005E-01  0.0000000E+00
 5.8075005E-01  0.0000000E+00
 5.9225005E-01  0.0000000E+00
 6.0375005E-01  0.0000000E+00
 6.1525005E-01  0.0000000E+00
 6.2675005E-01  0.0000000E+00
 6.3825005E-01  0.0000000E+00
 6.4975005E-01  0.0000000E+00
 6.6125005E-01  0.0000000E+00
 6.7275006E-01  0.0000000E+00
 6.8425006E-01  0.0000000E+00
 6.9575006E-01  0.0000000E+00
 7.0725006E-01  0.0000000E+00
 7.1875006E-01  0.0000000E+00
 7.3025006E-01  0.0000000E+00
 7.4175006E-01  0.0000000E+00
 7.5325006E-01  0.0000000E+00
 7.6475006E-01  0.0000000E+00
 7.7625006E-01  0.0000000E+00
 7.8775007E-01  0.0000000E+00
 7.9925007E-01  0.0000000E+00
 8.1075007E-01  0.0000000E+00
 8.2225007E-01  0.0000000E+00
 8.3375007E-01  0.0000000E+00
 8.4525007E-01  0.0000000E+00
 8.5675007E-01  0.0000000E+00
 8.6825007E-01  0.0000000E+00
 8.7975001E-01  0.0000000E+00
 8.9125001E-01  0.0000000E+00
 9.0275002E-01  0.0000000E+00
 9.1425002E-01  0.0000000E+00
 9.2575002E-01  0.0000000E+00
 9.3725002E-01  0.0000000E+00
 9.4875002E-01  0.0000000E+00
 9.6025002E-01  0.0000000E+00
 9.7175002E-01  0.0000000E+00
 9.8325002E-01  0.0000000E+00
 9.9475002E-01  0.0000000E+00
 1.0062500E+00  0.0000000E+00
 1.0177500E+00  0.0000000E+00
 1.0292500E+00  0.0000000E+00
 1.0407500E+00  0.0000000E+00
 1.0522500E+00  0.0000000E+00
 1.0637500E+00  0.0000000E+00
 1.0752500E+00  0.0000000E+00
 1.0867500E+00  0.0000000E+00
 1.0982500E+00  0.0000000E+00
 1.1097500E+00  0.0000000E+00
 1.1212500E+00  0.0000000E+00
 1.1327500E+00  0.0000000E+00
 1.1442500E+00  0.0000000E+00
 1.1557500E+00  0.0000000E+00
 1.1672500E+00  0.0000000E+00
 1.1787500E+00  0.0000000E+00
 1.1902500E+00  0.0000000E+00
 1.2017500E+00  0.0000000E+00
 1.2132500E+00  0.0000000E+00
 1.2247500E+00  0.0000000E+00
 1.2362500E+00  0.0000000E+00
 1.2477500E+00  0.0000000E+00
 1.2592500E+00  0.0000000E+00
 1.2707500E+00  0.0000000E+00
 1.2822500E+00  0.0000000E+00
 1.2937500E+00  0.0000000E+00
 1.3052500E+00  0.0000000E+00
 1.3167500E+00  0.0000000E+00
 1.3282501E+00  0.0000000E+00
 1.3397501E+00  0.0000000E+00
 1.3512501E+00  0.0000000E+00
 1.3627501E+00  0.0000000E+00
 1.3742501E+00  0.0000000E+00
 1.3857501E+00  0.0000000E+00
 1.3972501E+00  0.0000000E+00
 1.4087501E+00  0.0000000E+00
 1.4202501E+00  0.0000000E+00
 1.4317501E+00  0.0000000E+00
 1.4432501E+00  0.0000000E+00
 1.4547501E+00  0.0000000E+00
 1.4662501E+00  0.0000000E+00
 1.4777501E+00  0.0000000E+00
 1.4892501E+00  0.0000000E+00
 1.5007501E+00  0.0000000E+00
 1.5122501E+00  0.0000000E+00
 1.5237501E+00  0.0000000E+00
 1.5352501E+00  0.0000000E+00
 1.5467501E+00  0.0000000E+00
 1.5582501E+00  0.0000000E+00
 1.5697501E+00  0.0000000E+00
 1.5812501E+00  0.0000000E+00
 1.5927501E+00  0.0000000E+00
 1.6042501E+00  0.0000000E+00
 1.6157501E+00  0.0000000E+00
 1.6272501E+00  0.0000000E+00
 1.6387501E+00  0.0000000E+00
 1.6502501E+00  0.0000000E+00
 1.6617501E+00  0.0000000E+00
 1.6732501E+00  0.0000000E+00
 1.6847501E+00  0.0000000E+00
 1.6962501E+00  0.0000000E+00
 1.7077501E+00  0.0000000E+00
 1.7192501E+00  0.0000000E+00
 1.7307501E+00  0.0000000E+00
 1.7422501E+00  0.0000000E+00
 1.7537501E+00  0.0000000E+00
 1.7652501E+00  0.0000000E+00
 1.7767501E+00  0.0000000E+00
 1.7882501E+00  0.0000000E+00
 1.7997501E+00  0.0000000E+00
 1.8112501E+00  0.0000000E+00
 1.8227501E+00  0.0000000E+00
 1.8342501E+00  0.0000000E+00
 1.8457501E+00  0.0000000E+00
 1.8572501E+00  0.0000000E+00
 1.8687501E+00  0.0000000E+00
 1.8802501E+00  0.0000000E+00
 1.8917501E+00  0.0000000E+00
 1.9032501E+00  0.0000000E+00
 1.9147501E+00  0.0000000E+00
 1.9262501E+00  0.0000000E+00
 1.9377501E+00  0.0000000E+00
 1.9492501E+00  0.0000000E+00
 1.9607501E+00  0.0000000E+00
 1.9722501E+00  0.0000000E+00
 1.9837501E+00  0.0000000E+00
 1.9952501E+00  0.0000000E+00
 2.0067501E+00  0.0000000E+00
 2.0182500E+00  0.0000000E+00
 2.0297501E+00  0.0000000E+00
 2.0412500E+00  0.0000000E+00
 2.0527501E+00  0.0000000E+00
 2.0642500E+00  0.0000000E+00
 2.0757501E+00  0.0000000E+00
 2.0872500E+00  0.0000000E+00
 2.0987501E+00  0.0000000E+00
 2.1102500E+00  0.0000000E+00
 2.1217501E+00  0.0000000E+00
 2.1332500E+00  0.0000000E+00
 2.1447501E+00  0.0000000E+00
 2.1562500E+00  0.0000000E+00
 2.1677501E+00  0.0000000E+00
 2.1792500E+00  0.0000000E+00
 2.1907501E+00  0.0000000E+00
 2.2022500E+00  0.0000000E+00
 2.2137501E+00  0.0000000E+00
 2.2252500E+00  0.0000000E+00
 2.2367501E+00  0.0000000E+00
 2.2482500E+00  0.0000000E+00
 2.2597501E+00  0.0000000E+00
 2.2712500E+00  0.0000000E+00
 2.2827501E+00  0.0000000E+00
 2.2942500E+00  0.0000000E+00
 2.3057501E+00  0.0000000E+00
 2.3172500E+00  0.0000000E+00
 2.3287501E+00  0.0000000E+00
 2.3402500E+00  0.0000000E+00
 2.3517501E+00  0.0000000E+00
 2.3632500E+00  0.0000000E+00
 2.3747501E+00  0.0000000E+00
 2.3862500E+00  0.0000000E+00
 2.3977501E+00  0.0000000E+00
 2.4092500E+00  0.0000000E+00
 2.4207501E+00  0.0000000E+00
 2.4322500E+00  0.0000000E+00
 2.4437501E+00  0.0000000E+00
 2.4552500E+00  0.0000000E+00
 2.4667501E+00  0.0000000E+00
 2.4782500E+00  0.0000000E+00
 2.4897501E+00  0.0000000E+00
 2.5012500E+00  0.0000000E+00
 2.5127501E+00  0.0000000E+00
 2.5242500E+00  0.0000000E+00
 2.5357502E+00  0.0000000E+00
 2.5472500E+00  0.0000000E+00
 2.5587502E+00  0.0000000E+00
 2.5702500E+00  0.0000000E+00
 2.5817502E+00  0.0000000E+00
 2.5932500E+00  0.0000000E+00
 2.6047502E+00  0.0000000E+00
 2.6162500E+00  0.0000000E+00
 2.6277502E+00  0.0000000E+00
 2.6392500E+00  0.0000000E+00
 2.6507502E+00  0.0000000E+00
 2.6622500E+00  0.0000000E+00
 2.6737502E+00  0.0000000E+00
 2.6852500E+00  0.0000000E+00
 2.6967502E+00  0.0000000E+00
 2.7082500E+00  0.0000000E+00
 2.7197502E+00  0.0000000E+00
 2.7312500E+00  0.0000000E+00
 2.7427502E+00  0.0000000E+00
 2.7542500E+00  0.0000000E+00
 2.7657502E+00  0.0000000E+00
 2.7772501E+00  0.0000000E+00
 2.7887502E+00  0.0000000E+00
 2.8002501E+00  0.0000000E+00
 2.8117502E+00  0.0000000E+00
 2.8232501E+00  3.3842262E+01
 2.8347502E+00  3.4389915E+01
 2.8462501E+00  3.4341034E+01
 2.8577502E+00  3.4541317E+01
 2.8692501E+00  3.4831181E+01
 2.8807502E+00  3.4962643E+01
 2.8922501E+00  3.5010719E+01
 2.9037502E+00  3.5324966E+01
 2.9152501E+00  3.5453934E+01
 2.9267502E+00  3.5418568E+01
 2.9382501E+00  3.5232613E+01
 2.9497502E+00  3.5342117E+01
 2.9612501E+00  3.5714783E+01
 2.9727502E+00  3.5732105E+01
 2.9842501E+00  3.5706165E+01
 2.9957502E+00  3.5109959E+01
 3.0072501E+00  3.4924343E+01
 3.0187502E+00  3.4741333E+01
 3.0302501E+00  3.4930931E+01
 3.0417502E+00  3.5002079E+01
 3.0532501E+00  3.4831963E+01
 3.0647502E+00  3.5113079E+01
 3.0762501E+00  3.5187489E+01
 3.0877502E+00  3.5329445E+01
 3.0992501E+00  3.5356701E+01
 3.1107502E+00  3.4853115E+01
 3.1222501E+00  3.4775352E+01
 3.1337502E+00  3.4460945E+01
 3.1452501E+00  3.5062832E+01
 3.1567502E+00  3.5211792E+01
 3.1682501E+00  3.5459625E+01
 3.1797502E+00  3.5523224E+01
 3.1912501E+00  3.5357521E+01
 3.2027502E+00  3.5336876E+01
 3.2142501E+00  3.4861000E+01
 3.2257502E+00  3.4828411E+01
 3.2372501E+00  3.4664692E+01
 3.2487502E+00  3.4649155E+01
 3.2602501E+00  3.4714794E+01
 3.2717502E+00  3.4607231E+01
 3.2832501E+00  3.4419548E+01
 3.2947502E+00  3.4109753E+01
 3.3062501E+00  3.4265392E+01
 3.3177502E+00  3.4391560E+01
 3.3292501E+00  3.4380756E+01
 3.3407502E+00  3.4372982E+01
 3.3522501E+00  3.4274940E+01
 3.3637502E+00  3.4346859E+01
 3.3752501E+00  3.4407387E+01
 3.3867502E+00  3.4186768E+01
 3.3982501E+00  3.4078411E+01
 3.4097502E+00  3.3562534E+01
 3.4212501E+00  3.3538124E+01
 3.4327502E+00  3.3467266E+01
 3.4442501E+00  3.3485752E+01
 3.4557502E+00  3.3413086E+01
 3.4672501E+00  3.3488480E+01
 3.4787502E+00  3.3470642E+01
 3.4902501E+00  3.3439598E+01
 3.5017502E+00  3.3089081E+01
 3.5132501E+00  3.3003422E+01
 3.5247502E+00  3.2892685E+01
 3.5362501E+00  3.3146290E+01
 3.5477502E+00  3.3173729E+01
 3.5592501E+00  3.3493240E+01
 3.5707502E+00  3.3458073E+01
 3.5822501E+00  3.3427494E+01
 3.5937502E+00  3.3257385E+01
 3.6052501E+00  3.3189365E+01
 3.6167502E+00  3.3047688E+01
 3.6282501E+00  3.3129921E+01
 3.6397502E+00  3.3082775E+01
 3.6512501E+00  3.3273064E+01
 3.6627502E+00  3.3175629E+01
 3.6742501E+00  3.2980904E+01
 3.6857502E+00  3.3028454E+01
 3.6972501E+00  3.2850639E+01
 3.7087502E+00  3.2854042E+01
 3.7202501E+00  3.2509956E+01
 3.7317502E+00  3.2387733E+01
 3.7432501E+00  3.2510750E+01
 3.7547503E+00  3.2429710E+01
 3.7662501E+00  3.2482521E+01
 3.7777503E+00  3.2379307E+01
 3.7892501E+00  3.2239040E+01
 3.8007503E+00  3.2122498E+01
 3.8122501E+00  3.1899475E+01
 3.8237503E+00  3.2001740E+01
 3.8352501E+00  3.1980875E+01
 3.8467503E+00  3.2292297E+01
 3.8582501E+00  3.2554199E+01
 3.8697503E+00  3.2884945E+01
 3.8812501E+00  3.3104271E+01
 3.8927503E+00  3.2917538E+01
 3.9042501E+00  3.2992714E+01
 3.9157503E+00  3.2747486E+01
 3.9272501E+00  3.2658951E+01
 3.9387503E+00  3.2484894E+01
 3.9502501E+00  3.2443535E+01
 3.9617503E+00  3.2493626E+01
 3.9732502E+00  3.2484360E+01
 3.9847503E+00  3.2369747E+01
 3.9962502E+00  3.2382095E+01
 4.0077500E+00  3.2268486E+01
 4.0192504E+00  3.2170746E+01
 4.0307503E+00  3.2090206E+01
 4.0422502E+00  3.2044018E+01
 4.0537500E+00  3.2197521E+01
 4.0652504E+00  3.2191040E+01
 4.0767503E+00  3.2215820E+01
 4.0882502E+00  3.2135956E+01
 4.0997500E+00  3.2108387E+01
 4.1112504E+00  3.2199100E+01
 4.1227503E+00  3.2312176E+01
 4.1342502E+00  3.2375244E+01
 4.1457500E+00  3.2503525E+01
 4.1572504E+00  3.2363552E+01
 4.1687503E+00  3.2301304E+01
 4.1802502E+00  3.2090549E+01
 4.1917500E+00  3.2288265E+01
 4.2032504E+00  3.2208599E+01
 4.2147503E+00  3.2233501E+01
 4.2262502E+00  3.2108856E+01
 4.2377501E+00  3.2063774E+01
 4.2492504E+00  3.1989824E+01
 4.2607503E+00  3.2011986E+01
 4.2722502E+00  3.2040051E+01
 4.2837501E+00  3.2070953E+01
 4.2952504E+00  3.2098938E+01
 4.3067503E+00  3.2121124E+01
 4.3182502E+00  3.2122353E+01
 4.3297501E+00  3.2100010E+01
 4.3412504E+00  3.2040932E+01
 4.3527503E+00  3.2122917E+01
 4.3642502E+00  3.2134167E+01
 4.3757501E+00  3.2113880E+01
 4.3872504E+00  3.2089706E+01
 4.3987503E+00  3.1791126E+01
 4.4102502E+00  3.1886742E+01
 4.4217501E+00  3.1852198E+01
 4.4332504E+00  3.1899288E+01
 4.4447503E+00  3.1719389E+01
 4.4562502E+00  3.1660627E+01
 4.4677501E+00  3.1772955E+01
 4.4792504E+00  3.1984846E+01
 4.4907503E+00  3.2081844E+01
 4.5022502E+00  3.2270996E+01
 4.5137501E+00  3.2385971E+01
 4.5252504E+00  3.2439438E+01
 4.5367503E+00  3.2347713E+01
 4.5482502E+00  3.2252857E+01
 4.5597501E+00  3.2208538E+01
 4.5712504E+00  3.2293213E+01
 4.5827503E+00  3.2345798E+01
 4.5942502E+00  3.2413315E+01
 4.6057501E+00  3.2500965E+01
 4.6172504E+00  3.2547619E+01
 4.6287503E+00  3.2728180E+01
 4.6402502E+00  3.2805401E+01
 4.6517501E+00  3.2995205E+01
 4.6632504E+00  3.2949451E+01
 4.6747503E+00  3.2926033E+01
 4.6862502E+00  3.2791676E+01
 4.6977501E+00  3.2833996E+01
 4.7092505E+00  3.2860489E+01
 4.7207503E+00  3.2869083E+01
 4.7322502E+00  3.2754158E+01
 4.7437501E+00  3.2778229E+01
 4.7552505E+00  3.2599182E+01
 4.7667503E+00  3.2654911E+01
 4.7782502E+00  3.2525772E+01
 4.7897501E+00  3.2632080E+01
 4.8012505E+00  3.2599239E+01
 4.8127503E+00  3.2582298E+01
 4.8242502E+00  3.2568268E+01
 4.8357501E+00  3.2472710E+01
 4.8472505E+00  3.2359600E+01
 4.8587503E+00  3.2484268E+01
 4.8702502E+00  3.2451023E+01
 4.8817501E+00  3.2516281E+01
 4.8932505E+00  3.2398064E+01
 4.9047503E+00  3.2468109E+01
 4.9162502E+00  3.2661411E+01
 4.9277501E+00  3.2736568E+01
 4.9392505E+00  3.2855690E+01
 4.9507504E+00  3.2884472E+01
 4.9622502E+00  3.3014927E+01
 4.9737501E+00  3.3084450E+01
 4.9852505E+00  3.3132862E+01
 4.9967504E+00  3.3166645E+01
 5.0082502E+00  3.3181911E+01
 5.0197501E+00  3.3149315E+01
 5.0312505E+00  3.3166904E+01
 5.0427504E+00  3.3130474E+01
 5.0542502E+00  3.3143139E+01
 5.0657501E+00  3.3132431E+01
 5.0772505E+00  3.3202152E+01
 5.0887504E+00  3.3280216E+01
 5.1002502E+00  3.3357605E+01
 5.1117501E+00  3.3439728E+01
 5.1232505E+00  3.3474239E+01
 5.1347504E+00  3.3489456E+01
 5.1462502E+00  3.3530689E+01
 5.1577501E+00  3.3497112E+01
 5.1692505E+00  3.3623295E+01
 5.1807504E+00  3.3664444E+01
 5.1922503E+00  3.3849907E+01
 5.2037501E+00  3.3976765E+01
 5.2152505E+00  3.3968327E+01
 5.2267504E+00  3.3914829E+01
 5.2382503E+00  3.3803635E+01
 5.2497501E+00  3.3751019E+01
 5.2612505E+00  3.3782345E+01
 5.2727504E+00  3.3841866E+01
 5.2842503E+00  3.3914192E+01
 5.2957501E+00  3.4005497E+01
 5.3072500E+00  3.3972313E+01
 5.3187504E+00  3.4067310E+01
 5.3302503E+00  3.4133701E+01
 5.3417501E+00  3.4149490E+01
 5.3532500E+00  3.4230499E+01
 5.3647504E+00  3.4239967E+01
 5.3762503E+00  3.4349640E+01
 5.3877501E+00  3.4483891E+01
 5.3992500E+00  3.4493187E+01
 5.4107504E+00  3.4551857E+01
 5.4222503E+00  3.4562069E+01
 5.4337502E+00  3.4556438E+01
 5.4452500E+00  3.4742752E+01
 5.4567504E+00  3.4776543E+01
 5.4682503E+00  3.4883240E+01
 5.4797502E+00  3.4951481E+01
 5.4912500E+00  3.4903881E+01
 5.5027504E+00  3.5022114E+01
 5.5142503E+00  3.5092659E+01
 5.5257502E+00  3.5183735E+01
 5.5372500E+00  3.5124706E+01
 5.5487504E+00  3.5032280E+01
 5.5602503E+00  3.4975697E+01
 5.5717502E+00  3.5049675E+01
 5.5832500E+00  3.5242863E+01
 5.5947504E+00  3.5408161E+01
 5.6062503E+00  3.5581764E+01
 5.6177502E+00  3.5614029E+01
 5.6292500E+00  3.5692131E+01
 5.6407504E+00  3.5661850E+01
 5.6522503E+00  3.5704182E+01
 5.6637502E+00  3.5833805E+01
 5.6752501E+00  3.5906075E+01
 5.6867504E+00  3.5891006E+01
 5.6982503E+00  3.5801647E+01
 5.7097502E+00  3.5828854E+01
 5.7212501E+00  3.5991306E+01
 5.7327504E+00  3.6096264E+01
 5.7442503E+00  3.6317913E+01
 5.7557502E+00  3.6426311E+01
 5.7672501E+00  3.6716076E+01
 5.7787504E+00  3.7031822E+01
 5.7902503E+00  3.7394398E+01
 5.8017502E+00  3.7586018E+01
 5.8132501E+00  3.7802265E+01
 5.8247504E+00  3.8081554E+01
 5.8362503E+00  3.8583607E+01
 5.8477502E+00  3.9201164E+01
 5.8592501E+00  3.9992252E+01
 5.8707504E+00  4.0791061E+01
 5.8822503E+00  4.1895329E+01
 5.8937502E+00  4.3650063E+01
 5.9052501E+00  4.7522758E+01
 5.9167504E+00  5.3068115E+01
 5.9282503E+00  6.4379242E+01
 5.9397502E+00  9.4402283E+01
 5.9512501E+00  1.2173341E+02
 5.9627504E+00  1.6322522E+02
 5.9742503E+00  2.4114684E+02
 5.9857502E+00  2.4528223E+02
 5.9972501E+00  2.6609830E+02
 6.0087504E+00  2.4189508E+02
 6.0202503E+00  2.0834685E+02
 6.0317502E+00  1.5166234E+02
 6.0432501E+00  7.1025917E+01
 6.0547504E+00  5.9101563E+01
 6.0662503E+00  5.3055809E+01
 6.0777502E+00  4.4773102E+01
 6.0892501E+00  4.3323547E+01
 6.1007504E+00  4.2162258E+01
 6.1122503E+00  4.1185257E+01
 6.1237502E+00  4.0438248E+01
 6.1352501E+00  3.9663372E+01
 6.1467505E+00  3.9198772E+01
 6.1582503E+00  3.8795876E+01
 6.1697502E+00  3.8667889E+01
 6.1812501E+00  3.8628559E+01
 6.1927505E+00  3.8537556E+01
 6.2042503E+00  3.8516537E+01
 6.2157502E+00  3.8473225E+01
 6.2272501E+00  3.8520508E+01
 6.2387505E+00  3.8558720E+01
 6.2502503E+00  3.8505939E+01
 6.2617502E+00  3.8450062E+01
 6.2732501E+00  3.8460968E+01
 6.2847505E+00  3.8540604E+01
 6.2962503E+00  3.8493519E+01
 6.3077502E+00  3.8427685E+01
 6.3192501E+00  3.8328148E+01
 6.3307505E+00  3.8353546E+01
 6.3422503E+00  3.8346924E+01
 6.3537502E+00  3.8395271E+01
 6.3652501E+00  3.8495541E+01
 6.3767505E+00  3.8538231E+01
 6.3882504E+00  3.8642307E+01
 6.3997502E+00  3.8578972E+01
 6.4112501E+00  3.8672489E+01
 6.4227505E+00  3.8695164E+01
 6.4342504E+00  3.8843014E+01
 6.4457502E+00  3.8894333E+01
 6.4572501E+00  3.8882946E+01
 6.4687505E+00  3.8900955E+01
 6.4802504E+00  3.8945427E+01
 6.4917502E+00  3.9002670E+01
 6.5032501E+00  3.9046886E+01
 6.5147505E+00  3.9118057E+01
 6.5262504E+00  3.9089882E+01
 6.5377502E+00  3.9231171E+01
 6.5492501E+00  3.9251156E+01
 6.5607505E+00  3.9344864E+01
 6.5722504E+00  3.9462860E+01
 6.5837502E+00  3.9615952E+01
 6.5952501E+00  3.9767166E+01
 6.6067505E+00  3.9860664E+01
 6.6182504E+00  3.9913326E+01
 6.6297503E+00  3.9997219E+01
 6.6412501E+00  4.0043674E+01
 6.6527505E+00  4.0165104E+01
 6.6642504E+00  4.0312508E+01
 6.6757503E+00  4.0278217E+01
 6.6872501E+00  4.0292057E+01
 6.6987505E+00  4.0330376E+01
 6.7102504E+00  4.0438858E+01
 6.7217503E+00  4.0562729E+01
 6.7332501E+00  4.0626659E+01
 6.7447505E+00  4.0796230E+01
 6.7562504E+00  4.0836849E+01
 6.7677503E+00  4.0941925E+01
 6.7792501E+00  4.0900372E+01
 6.7907505E+00  4.1059593E+01
 6.8022504E+00  4.1150105E+01
 6.8137503E+00  4.1287868E+01
 6.8252501E+00  4.1370220E+01
 6.8367505E+00  4.1440346E+01
 6.8482504E+00  4.1707127E+01
 6.8597503E+00  4.1810848E+01
 6.8712502E+00  4.1938778E+01
 6.8827505E+00  4.1929901E+01
 6.8942504E+00  4.1990585E+01
 6.9057503E+00  4.2026215E+01
 6.9172502E+00  4.2144459E+01
 6.9287505E+00  4.2171764E+01
 6.9402504E+00  4.2313301E+01
 6.9517503E+00  4.2300095E+01
 6.9632502E+00  4.2347126E+01
 6.9747505E+00  4.2341774E+01
 6.9862504E+00  4.2332817E+01
 6.9977503E+00  4.2319988E+01
 7.0092502E+00  4.2350506E+01
 7.0207505E+00  4.2436474E+01
 7.0322504E+00  4.2537510E+01
 7.0437503E+00  4.2562748E+01
 7.0552502E+00  4.2674995E+01
 7.0667505E+00  4.2665382E+01
 7.0782504E+00  4.2780827E+01
 7.0897503E+00  4.2851429E+01
 7.1012502E+00  4.3053658E+01
 7.1127505E+00  4.3096722E+01
 7.1242504E+00  4.3106091E+01
 7.1357503E+00  4.3030064E+01
 7.1472502E+00  4.3046837E+01
 7.1587505E+00  4.3104122E+01
 7.1702504E+00  4.3141094E+01
 7.1817503E+00  4.3262165E+01
 7.1932502E+00  4.3232365E+01
 7.2047505E+00  4.3318687E+01
 7.2162504E+00  4.3259773E+01
 7.2277503E+00  4.3354832E+01
 7.2392502E+00  4.3379726E+01
 7.2507505E+00  4.3601875E+01
 7.2622504E+00  4.3650959E+01
 7.2737503E+00  4.3775562E+01
 7.2852502E+00  4.3778183E+01
 7.2967505E+00  4.3794598E+01
 7.3082504E+00  4.3860458E+01
 7.3197503E+00  4.3869675E+01
 7.3312502E+00  4.3998440E+01
 7.3427505E+00  4.4019604E+01
 7.3542504E+00  4.3997101E+01
 7.3657503E+00  4.3976395E+01
 7.3772502E+00  4.3928711E+01
 7.3887506E+00  4.4002659E+01
 7.4002504E+00  4.4089649E+01
 7.4117503E+00  4.4224274E+01
 7.4232502E+00  4.4323334E+01
 7.4347506E+00  4.4328255E+01
 7.4462504E+00  4.4360062E+01
 7.4577503E+00  4.4257198E+01
 7.4692502E+00  4.4142513E+01
 7.4807506E+00  4.4063869E+01
 7.4922504E+00  4.4045166E+01
 7.5037503E+00  4.4146454E+01
 7.5152502E+00  4.4240173E+01
 7.5267506E+00  4.4320946E+01
 7.5382504E+00  4.4474255E+01
 7.5497503E+00  4.4566280E+01
 7.5612502E+00  4.4586960E+01
 7.5727506E+00  4.4553371E+01
 7.5842505E+00  4.4401119E+01
 7.5957503E+00  4.4346359E+01
 7.6072502E+00  4.4362545E+01
 7.6187506E+00  4.4348396E+01
 7.6302505E+00  4.4373844E+01
 7.6417503E+00  4.4383339E+01
 7.6532502E+00  4.4405170E+01
 7.6647506E+00  4.4351810E+01
 7.6762505E+00  4.4395294E+01
 7.6877503E+00  4.4459827E+01
 7.6992502E+00  4.4546078E+01
 7.7107506E+00  4.4483940E+01
 7.7222505E+00  4.4387268E+01
 7.7337503E+00  4.4331768E+01
 7.7452502E+00  4.4176502E+01
 7.7567506E+00  4.4087669E+01
 7.7682505E+00  4.4087883E+01
 7.7797503E+00  4.4153934E+01
 7.7912502E+00  4.4201397E+01
 7.8027506E+00  4.4218159E+01
 7.8142505E+00  4.4261787E+01
 7.8257504E+00  4.4265743E+01
 7.8372502E+00  4.4219093E+01
 7.8487506E+00  4.4196205E+01
 7.8602505E+00  4.4153809E+01
 7.8717504E+00  4.4122875E+01
 7.8832502E+00  4.3962219E+01
 7.8947506E+00  4.3892189E+01
 7.9062505E+00  4.3867695E+01
 7.9177504E+00  4.3939865E+01
 7.9292502E+00  4.3862011E+01
 7.9407506E+00  4.3734226E+01
 7.9522505E+00  4.3519241E+01
 7.9637504E+00  4.3439854E+01
 7.9752502E+00  4.3357727E+01
 7.9867506E+00  4.3383430E+01
 7.9982505E+00  4.3388252E+01
 8.0097504E+00  4.3414703E+01
 8.0212507E+00  4.3433151E+01
 8.0327501E+00  4.3429001E+01
 8.0442505E+00  4.3409306E+01
 8.0557508E+00  4.3218239E+01
 8.0672503E+00  4.3102230E+01
 8.0787506E+00  4.3058571E+01
 8.0902500E+00  4.3189400E+01
 8.1017504E+00  4.3187576E+01
 8.1132507E+00  4.3140644E+01
 8.1247501E+00  4.3010609E+01
 8.1362505E+00  4.2869850E+01
 8.1477509E+00  4.2736732E+01
 8.1592503E+00  4.2609436E+01
 8.1707506E+00  4.2522858E+01
 8.1822500E+00  4.2406586E+01
 8.1937504E+00  4.2293617E+01
 8.2052507E+00  4.2140171E+01
 8.2167501E+00  4.1958466E+01
 8.2282505E+00  4.1768852E+01
 8.2397509E+00  4.1670158E+01
 8.2512503E+00  4.1524815E+01
 8.2627506E+00  4.1422005E+01
 8.2742500E+00  4.1173088E+01
 8.2857504E+00  4.0990246E+01
 8.2972507E+00  4.0817024E+01
 8.3087502E+00  4.0650696E+01
 8.3202505E+00  4.0558582E+01
 8.3317509E+00  4.0351833E+01
 8.3432503E+00  4.0222786E+01
 8.3547506E+00  4.0029053E+01
 8.3662500E+00  3.9943459E+01
 8.3777504E+00  3.9823715E+01
 8.3892508E+00  3.9792339E+01
 8.4007502E+00  3.9689739E+01
 8.4122505E+00  3.9539795E+01
 8.4237509E+00  3.9399242E+01
 8.4352503E+00  3.9225712E+01
 8.4467506E+00  3.9113472E+01
 8.4582500E+00  3.8922359E+01
 8.4697504E+00  3.8754826E+01
 8.4812508E+00  3.8452000E+01
 8.4927502E+00  3.8194420E+01
 8.5042505E+00  3.8011478E+01
 8.5157509E+00  3.7985233E+01
 8.5272503E+00  3.7823929E+01
 8.5387506E+00  3.7659985E+01
 8.5502501E+00  3.7409245E+01
 8.5617504E+00  3.7281864E+01
 8.5732508E+00  3.7131977E+01
 8.5847502E+00  3.6957058E+01
 8.5962505E+00  3.6792439E+01
 8.6077509E+00  3.6535709E+01
 8.6192503E+00  3.6384777E+01
 8.6307507E+00  3.6201687E+01
 8.6422501E+00  3.5980419E+01
 8.6537504E+00  3.5767239E+01
 8.6652508E+00  3.5513721E+01
 8.6767502E+00  3.5300632E+01
 8.6882505E+00  3.5171360E+01
 8.6997509E+00  3.5030445E+01
 8.7112503E+00  3.4856037E+01
 8.7227507E+00  3.4641644E+01
 8.7342501E+00  3.4433475E+01
 8.7457504E+00  3.4250530E+01
 8.7572508E+00  3.4054615E+01
 8.7687502E+00  3.3978481E+01
 8.7802505E+00  3.3885803E+01
 8.7917500E+00  3.3791565E+01
 8.8032503E+00  3.3639126E+01
 8.8147507E+00  3.3529408E+01
 8.8262501E+00  3.3347084E+01
 8.8377504E+00  3.3125183E+01
 8.8492508E+00  3.2950150E+01
 8.8607502E+00  3.2782249E+01
 8.8722506E+00  3.2668396E+01
 8.8837500E+00  3.2543972E+01
 8.8952503E+00  3.2440300E+01
 8.9067507E+00  3.2279362E+01
 8.9182501E+00  3.2048187E+01
 8.9297504E+00  3.1823605E+01
 8.9412508E+00  3.1663223E+01
 8.9527502E+00  3.1488604E+01
 8.9642506E+00  3.1353357E+01
 8.9757500E+00  3.1191669E+01
 8.9872503E+00  3.1042048E+01
 8.9987507E+00  3.0806656E+01
 9.0102501E+00  3.0596855E+01
 9.0217505E+00  3.0452482E+01
 9.0332508E+00  3.0384943E+01
 9.0447502E+00  3.0309626E+01
 9.0562506E+00  3.0219559E+01
 9.0677500E+00  3.0143171E+01
 9.0792503E+00  3.0085417E+01
 9.0907507E+00  3.0005964E+01
 9.1022501E+00  2.9899998E+01
 9.1137505E+00  2.9786461E+01
 9.1252508E+00  2.9623550E+01
 9.1367502E+00  2.9495190E+01
 9.1482506E+00  2.9351612E+01
 9.1597500E+00  2.9240309E+01
 9.1712503E+00  2.9088875E+01
 9.1827507E+00  2.8959879E+01
 9.1942501E+00  2.8861540E+01
 9.2057505E+00  2.8763170E+01
 9.2172508E+00  2.8674072E+01
 9.2287502E+00  2.8471449E+01
 9.2402506E+00  2.8350206E+01
 9.2517500E+00  2.8211329E+01
 9.2632504E+00  2.8172810E+01
 9.2747507E+00  2.8126402E+01
 9.2862501E+00  2.8004986E+01
 9.2977505E+00  2.7923697E+01
 9.3092508E+00  2.7794397E+01
 9.3207502E+00  2.7704004E+01
 9.3322506E+00  2.7656286E+01
 9.3437500E+00  2.7577393E+01
 9.3552504E+00  2.7557632E+01
 9.3667507E+00  2.7491125E+01
 9.3782501E+00  2.7473566E+01
 9.3897505E+00  2.7455126E+01
 9.4012508E+00  2.7402699E+01
 9.4127502E+00  2.7277252E+01
 9.4242506E+00  2.7115059E+01
 9.4357500E+00  2.6927265E+01
 9.4472504E+00  2.6837009E+01
 9.4587507E+00  2.6703789E+01
 9.4702501E+00  2.6672297E+01
 9.4817505E+00  2.6642612E+01
 9.4932508E+00  2.6650948E+01
 9.5047503E+00  2.6594694E+01
 9.5162506E+00  2.6512070E+01
 9.5277500E+00  2.6431383E+01
 9.5392504E+00  2.6337378E+01
 9.5507507E+00  2.6198227E+01
 9.5622501E+00  2.6101723E+01
 9.5737505E+00  2.5951534E+01
 9.5852509E+00  2.5955011E+01
 9.5967503E+00  2.5950756E+01
 9.6082506E+00  2.5955580E+01
 9.6197500E+00  2.5906387E+01
 9.6312504E+00  2.5804817E+01
 9.6427507E+00  2.5723246E+01
 9.6542501E+00  2.5605431E+01
 9.6657505E+00  2.5532953E+01
 9.6772509E+00  2.5422253E+01
 9.6887503E+00  2.5416346E+01
 9.7002506E+00  2.5385008E+01
 9.7117500E+00  2.5427639E+01
 9.7232504E+00  2.5400539E+01
 9.7347507E+00  2.5320913E+01
 9.7462502E+00  2.5261187E+01
 9.7577505E+00  2.5162334E+01
 9.7692509E+00  2.5104172E+01
 9.7807503E+00  2.5064127E+01
 9.7922506E+00  2.5017431E+01
 9.8037500E+00  2.5027601E+01
 9.8152504E+00  2.5036282E+01
 9.8267508E+00  2.4960970E+01
 9.8382502E+00  2.4929373E+01
 9.8497505E+00  2.4814190E+01
 9.8612509E+00  2.4810822E+01
 9.8727503E+00  2.4766312E+01
 9.8842506E+00  2.4711359E+01
 9.8957500E+00  2.4713055E+01
 9.9072504E+00  2.4674580E+01
 9.9187508E+00  2.4668358E+01
 9.9302502E+00  2.4603985E+01
 9.9417505E+00  2.4559574E+01
 9.9532509E+00  2.4505350E+01
 9.9647503E+00  2.4453646E+01
 9.9762506E+00  2.4408806E+01
 9.9877501E+00  2.4427225E+01
 9.9992504E+00  2.4420786E+01
 1.0010751E+01  2.4382620E+01
 1.0022250E+01  2.4302933E+01
 1.0033751E+01  2.4306032E+01
 1.0045251E+01  2.4286737E+01
 1.0056750E+01  2.4210451E+01
 1.0068251E+01  2.4142410E+01
 1.0079750E+01  2.4041433E+01
 1.0091250E+01  2.3946533E+01
 1.0102751E+01  2.3859852E+01
 1.0114250E+01  2.3852201E+01
 1.0125751E+01  2.3898985E+01
 1.0137251E+01  2.3902641E+01
 1.0148750E+01  2.3863977E+01
 1.0160251E+01  2.3847984E+01
 1.0171750E+01  2.3803310E+01
 1.0183250E+01  2.3805622E+01
 1.0194751E+01  2.3787535E+01
 1.0206250E+01  2.3759605E+01
 1.0217751E+01  2.3746529E+01
 1.0229251E+01  2.3701336E+01
 1.0240750E+01  2.3660269E+01
 1.0252251E+01  2.3621323E+01
 1.0263750E+01  2.3631584E+01
 1.0275250E+01  2.3688078E+01
 1.0286751E+01  2.3677103E+01
 1.0298250E+01  2.3653347E+01
 1.0309751E+01  2.3642496E+01
 1.0321251E+01  2.3645994E+01
 1.0332750E+01  2.3696566E+01
 1.0344251E+01  2.3739908E+01
 1.0355750E+01  2.3745117E+01
 1.0367250E+01  2.3732315E+01
 1.0378751E+01  2.3713835E+01
 1.0390250E+01  2.3727345E+01
 1.0401751E+01  2.3656702E+01
 1.0413251E+01  2.3518042E+01
 1.0424750E+01  2.3397404E+01
 1.0436251E+01  2.3269632E+01
 1.0447750E+01  2.3217566E+01
 1.0459250E+01  2.3215113E+01
 1.0470751E+01  2.3254322E+01
 1.0482250E+01  2.3261164E+01
 1.0493751E+01  2.3224245E+01
 1.0505251E+01  2.3277071E+01
 1.0516750E+01  2.3252066E+01
 1.0528251E+01  2.3286575E+01
 1.0539750E+01  2.3238771E+01
 1.0551250E+01  2.3249825E+01
 1.0562751E+01  2.3244884E+01
 1.0574250E+01  2.3183689E+01
 1.0585751E+01  2.3190815E+01
 1.0597251E+01  2.3113575E+01
 1.0608750E+01  2.3117689E+01
 1.0620251E+01  2.3127897E+01
 1.0631750E+01  2.3161360E+01
 1.0643250E+01  2.3229036E+01
 1.0654751E+01  2.3274591E+01
 1.0666250E+01  2.3264631E+01
 1.0677751E+01  2.3165152E+01
 1.0689251E+01  2.3087851E+01
 1.0700750E+01  2.3019007E+01
 1.0712251E+01  2.3112095E+01
 1.0723750E+01  2.3018049E+01
 1.0735250E+01  2.3191244E+01
 1.0746751E+01  2.3437262E+01
 1.0758250E+01  2.3453787E+01
 1.0769751E+01  2.3972204E+01
 1.0781251E+01  2.4018091E+01
 1.0792750E+01  2.4029406E+01
 1.0804251E+01  2.4188450E+01
 1.0815750E+01  2.3752151E+01
 1.0827250E+01  2.3741676E+01
 1.0838751E+01  2.2962851E+01
 1.0850250E+01  2.2914021E+01
 1.0861751E+01  2.2949089E+01
 1.0873251E+01  2.2914829E+01
 1.0884750E+01  2.2881039E+01
 1.0896251E+01  2.2964796E+01
 1.0907750E+01  2.2915672E+01
 1.0919250E+01  2.2956684E+01
 1.0930751E+01  2.3297777E+01
 1.0942250E+01  2.3321138E+01
 1.0953751E+01  2.3259804E+01
 1.0965251E+01  2.2770536E+01
 1.0976750E+01  2.2706146E+01
 1.0988251E+01  2.2710468E+01
 1.0999750E+01  2.2672178E+01
 1.1011250E+01  2.2662188E+01
 1.1022751E+01  2.2671738E+01
 1.1034250E+01  2.2711159E+01
 1.1045751E+01  2.2649858E+01
 1.1057251E+01  2.2653877E+01
 1.1068750E+01  2.2566748E+01
 1.1080251E+01  2.2631493E+01
 1.1091750E+01  2.2652254E+01
 1.1103251E+01  2.2708124E+01
 1.1114751E+01  2.2756773E+01
 1.1126250E+01  2.2799559E+01
 1.1137751E+01  2.2845490E+01
 1.1149251E+01  2.2821177E+01
 1.1160750E+01  2.2803446E+01
 1.1172251E+01  2.2727644E+01
 1.1183750E+01  2.2676626E+01
 1.1195251E+01  2.2588781E+01
 1.1206751E+01  2.2570000E+01
 1.1218250E+01  2.2486034E+01
 1.1229751E+01  2.2458925E+01
 1.1241251E+01  2.2439766E+01
 1.1252750E+01  2.2476097E+01
 1.1264251E+01  2.2486227E+01
 1.1275750E+01  2.2469280E+01
 1.1287251E+01  2.2470037E+01
 1.1298751E+01  2.2488468E+01
 1.1310250E+01  2.2542446E+01
 1.1321751E+01  2.2557343E+01
 1.1333251E+01  2.2567535E+01
 1.1344750E+01  2.2606548E+01
 1.1356251E+01  2.2656246E+01
 1.1367750E+01  2.2733723E+01
 1.1379251E+01  2.2687391E+01
 1.1390751E+01  2.2660988E+01
 1.1402250E+01  2.2709858E+01
 1.1413751E+01  2.2736275E+01
 1.1425251E+01  2.2818731E+01
 1.1436750E+01  2.2814480E+01
 1.1448251E+01  2.2918827E+01
 1.1459750E+01  2.2962513E+01
 1.1471251E+01  2.3066599E+01
 1.1482751E+01  2.3097118E+01
 1.1494250E+01  2.3195971E+01
 1.1505751E+01  2.3225096E+01
 1.1517251E+01  2.3512199E+01
 1.1528750E+01  2.3929911E+01
 1.1540251E+01  2.4672646E+01
 1.1551750E+01  2.5743919E+01
 1.1563251E+01  2.6849245E+01
 1.1574751E+01  2.7722021E+01
 1.1586250E+01  2.8201855E+01
 1.1597751E+01  2.7848078E+01
 1.1609251E+01  2.6971581E+01
 1.1620750E+01  2.5805067E+01
 1.1632251E+01  2.4738363E+01
 1.1643750E+01  2.4014881E+01
 1.1655251E+01  2.3397161E+01
 1.1666751E+01  2.3204298E+01
 1.1678250E+01  2.3079145E+01
 1.1689751E+01  2.3079035E+01
 1.1701251E+01  2.3004848E+01
 1.1712750E+01  2.2929901E+01
 1.1724251E+01  2.2737665E+01
 1.1735750E+01  2.2700323E+01
 1.1747251E+01  2.2623030E+01
 1.1758751E+01  2.2615095E+01
 1.1770250E+01  2.2548357E+01
 1.1781751E+01  2.2543711E+01
 1.1793251E+01  2.2498056E+01
 1.1804750E+01  2.2518040E+01
 1.1816251E+01  2.2566204E+01
 1.1827750E+01  2.2609776E+01
 1.1839251E+01  2.2657743E+01
 1.1850751E+01  2.2617737E+01
 1.1862250E+01  2.2613207E+01
 1.1873751E+01  2.2591270E+01
 1.1885251E+01  2.2578781E+01
 1.1896750E+01  2.2569254E+01
 1.1908251E+01  2.2617594E+01
 1.1919750E+01  2.2668398E+01
 1.1931251E+01  2.2735033E+01
 1.1942751E+01  2.2813061E+01
 1.1954250E+01  2.2947517E+01
 1.1965751E+01  2.3004436E+01
 1.1977251E+01  2.3072718E+01
 1.1988750E+01  2.3076483E+01
 1.2000251E+01  2.3057739E+01
 1.2011750E+01  2.2977789E+01
 1.2023251E+01  2.2929934E+01
 1.2034751E+01  2.2895838E+01
 1.2046250E+01  2.2845343E+01
 1.2057751E+01  2.2880049E+01
 1.2069251E+01  2.3091724E+01
 1.2080750E+01  2.3381353E+01
 1.2092251E+01  2.3652956E+01
 1.2103750E+01  2.3823477E+01
 1.2115251E+01  2.3871449E+01
 1.2126751E+01  2.3793980E+01
 1.2138250E+01  2.3607603E+01
 1.2149751E+01  2.3331783E+01
 1.2161251E+01  2.3060993E+01
 1.2172750E+01  2.2845545E+01
 1.2184251E+01  2.2685823E+01
 1.2195750E+01  2.2584112E+01
 1.2207251E+01  2.2493433E+01
 1.2218751E+01  2.2450617E+01
 1.2230250E+01  2.2484180E+01
 1.2241751E+01  2.2523699E+01
 1.2253251E+01  2.2596565E+01
 1.2264750E+01  2.2600317E+01
 1.2276251E+01  2.2651476E+01
 1.2287750E+01  2.2750717E+01
 1.2299251E+01  2.2758717E+01
 1.2310751E+01  2.2794140E+01
 1.2322250E+01  2.2735209E+01
 1.2333751E+01  2.2749460E+01
 1.2345250E+01  2.2713377E+01
 1.2356750E+01  2.2733444E+01
 1.2368251E+01  2.2723602E+01
 1.2379750E+01  2.2720272E+01
 1.2391251E+01  2.2689396E+01
 1.2402751E+01  2.2637949E+01
 1.2414250E+01  2.2598289E+01
 1.2425751E+01  2.2557821E+01
 1.2437250E+01  2.2606039E+01
 1.2448750E+01  2.2614723E+01
 1.2460251E+01  2.2674891E+01
 1.2471750E+01  2.2679121E+01
 1.2483251E+01  2.2711575E+01
 1.2494751E+01  2.2652676E+01
 1.2506250E+01  2.2636677E+01
 1.2517751E+01  2.2572454E+01
 1.2529250E+01  2.2649736E+01
 1.2540751E+01  2.2659985E+01
 1.2552251E+01  2.2731499E+01
 1.2563750E+01  2.2743877E+01
 1.2575251E+01  2.2793625E+01
 1.2586751E+01  2.2847193E+01
 1.2598250E+01  2.2883038E+01
 1.2609751E+01  2.2949564E+01
 1.2621250E+01  2.3021067E+01
 1.2632751E+01  2.3052162E+01
 1.2644251E+01  2.3009020E+01
 1.2655750E+01  2.2951101E+01
 1.2667251E+01  2.2892029E+01
 1.2678751E+01  2.2928404E+01
 1.2690250E+01  2.2990849E+01
 1.2701751E+01  2.3054440E+01
 1.2713250E+01  2.3090147E+01
 1.2724751E+01  2.3072586E+01
 1.2736251E+01  2.3115135E+01
 1.2747750E+01  2.3120546E+01
 1.2759251E+01  2.3134600E+01
 1.2770751E+01  2.3105125E+01
 1.2782250E+01  2.3157000E+01
 1.2793751E+01  2.3215389E+01
 1.2805250E+01  2.3257910E+01
 1.2816751E+01  2.3277420E+01
 1.2828251E+01  2.3272533E+01
 1.2839750E+01  2.3276020E+01
 1.2851251E+01  2.3292410E+01
 1.2862751E+01  2.3310545E+01
 1.2874250E+01  2.3374622E+01
 1.2885751E+01  2.3423920E+01
 1.2897250E+01  2.3476982E+01
 1.2908751E+01  2.3537376E+01
 1.2920251E+01  2.3540775E+01
 1.2931750E+01  2.3644211E+01
 1.2943251E+01  2.3720209E+01
 1.2954751E+01  2.3841135E+01
 1.2966250E+01  2.3914118E+01
 1.2977751E+01  2.3961260E+01
 1.2989250E+01  2.3920362E+01
 1.3000751E+01  2.3895832E+01
 1.3012251E+01  2.3872255E+01
 1.3023750E+01  2.4007021E+01
 1.3035251E+01  2.4114824E+01
 1.3046751E+01  2.4307756E+01
 1.3058250E+01  2.4411615E+01
 1.3069751E+01  2.4486738E+01
 1.3081250E+01  2.4570467E+01
 1.3092751E+01  2.4691774E+01
 1.3104251E+01  2.4871048E+01
 1.3115750E+01  2.5024769E+01
 1.3127251E+01  2.5152452E+01
 1.3138751E+01  2.5281181E+01
 1.3150250E+01  2.5420322E+01
 1.3161751E+01  2.5549639E+01
 1.3173250E+01  2.5652332E+01
 1.3184751E+01  2.5737612E+01
 1.3196251E+01  2.5830423E+01
 1.3207750E+01  2.5967930E+01
 1.3219251E+01  2.6072435E+01
 1.3230751E+01  2.6226120E+01
 1.3242250E+01  2.6363146E+01
 1.3253751E+01  2.6472763E+01
 1.3265250E+01  2.6572880E+01
 1.3276751E+01  2.6667583E+01
 1.3288251E+01  2.6846178E+01
 1.3299750E+01  2.7002903E+01
 1.3311251E+01  2.7161978E+01
 1.3322751E+01  2.7293493E+01
 1.3334250E+01  2.7506250E+01
 1.3345751E+01  2.7625143E+01
 1.3357250E+01  2.7833035E+01
 1.3368751E+01  2.7958214E+01
 1.3380251E+01  2.8151314E+01
 1.3391750E+01  2.8297966E+01
 1.3403251E+01  2.8413160E+01
 1.3414751E+01  2.8536880E+01
 1.3426250E+01  2.8590034E+01
 1.3437751E+01  2.8697683E+01
 1.3449250E+01  2.8760752E+01
 1.3460751E+01  2.8922676E+01
 1.3472251E+01  2.9008114E+01
 1.3483750E+01  2.9193893E+01
 1.3495251E+01  2.9281624E+01
 1.3506751E+01  2.9437128E+01
 1.3518250E+01  2.9437288E+01
 1.3529751E+01  2.9441244E+01
 1.3541250E+01  2.9454590E+01
 1.3552751E+01  2.9533691E+01
 1.3564251E+01  2.9623604E+01
 1.3575750E+01  2.9674706E+01
 1.3587251E+01  2.9712101E+01
 1.3598751E+01  2.9736420E+01
 1.3610250E+01  2.9760954E+01
 1.3621751E+01  2.9743326E+01
 1.3633250E+01  2.9762049E+01
 1.3644751E+01  2.9701023E+01
 1.3656251E+01  2.9722654E+01
 1.3667750E+01  2.9684715E+01
 1.3679251E+01  2.9665766E+01
 1.3690751E+01  2.9590475E+01
 1.3702250E+01  2.9506819E+01
 1.3713751E+01  2.9490152E+01
 1.3725250E+01  2.9480558E+01
 1.3736751E+01  2.9525667E+01
 1.3748251E+01  2.9528330E+01
 1.3759750E+01  2.9501371E+01
 1.3771251E+01  2.9457644E+01
 1.3782751E+01  2.9397245E+01
 1.3794250E+01  2.9352848E+01
 1.3805751E+01  2.9307941E+01
 1.3817250E+01  2.9354677E+01
 1.3828751E+01  2.9368753E+01
 1.3840251E+01  2.9451460E+01
 1.3851750E+01  2.9459349E+01
 1.3863251E+01  2.9570696E+01
 1.3874751E+01  2.9767057E+01
 1.3886250E+01  3.0067007E+01
 1.3897751E+01  3.0815811E+01
 1.3909250E+01  3.1534727E+01
 1.3920751E+01  3.2734055E+01
 1.3932251E+01  3.4211674E+01
 1.3943750E+01  3.5325638E+01
 1.3955251E+01  3.6519459E+01
 1.3966751E+01  3.6690914E+01
 1.3978251E+01  3.5943604E+01
 1.3989751E+01  3.5410202E+01
 1.4001250E+01  3.3415768E+01
 1.4012751E+01  3.2651882E+01
 1.4024251E+01  3.0550720E+01
 1.4035750E+01  2.9956009E+01
 1.4047251E+01  2.8897205E+01
 1.4058751E+01  2.8335884E+01
 1.4070251E+01  2.8129126E+01
 1.4081751E+01  2.7849064E+01
 1.4093250E+01  2.7767035E+01
 1.4104751E+01  2.7652340E+01
 1.4116251E+01  2.7527699E+01
 1.4127750E+01  2.7389013E+01
 1.4139251E+01  2.7231670E+01
 1.4150751E+01  2.7071444E+01
 1.4162251E+01  2.6960014E+01
 1.4173751E+01  2.6858967E+01
 1.4185250E+01  2.6782085E+01
 1.4196751E+01  2.6705791E+01
 1.4208251E+01  2.6656466E+01
 1.4219750E+01  2.6621311E+01
 1.4231251E+01  2.6604414E+01
 1.4242751E+01  2.6620823E+01
 1.4254251E+01  2.6670486E+01
 1.4265751E+01  2.6894878E+01
 1.4277250E+01  2.6794888E+01
 1.4288751E+01  2.6661640E+01
 1.4300251E+01  2.6355440E+01
 1.4311750E+01  2.6293095E+01
 1.4323251E+01  2.6138384E+01
 1.4334751E+01  2.6122543E+01
 1.4346251E+01  2.6045052E+01
 1.4357751E+01  2.6071804E+01
 1.4369250E+01  2.6014223E+01
 1.4380751E+01  2.6076611E+01
 1.4392251E+01  2.6064705E+01
 1.4403750E+01  2.6097059E+01
 1.4415251E+01  2.6072021E+01
 1.4426751E+01  2.6063677E+01
 1.4438251E+01  2.5978804E+01
 1.4449751E+01  2.5862999E+01
 1.4461250E+01  2.5789312E+01
 1.4472751E+01  2.5687540E+01
 1.4484251E+01  2.5672474E+01
 1.4495750E+01  2.5627554E+01
 1.4507251E+01  2.5654535E+01
 1.4518751E+01  2.5652845E+01
 1.4530251E+01  2.5656979E+01
 1.4541751E+01  2.5615780E+01
 1.4553250E+01  2.5629862E+01
 1.4564751E+01  2.5635315E+01
 1.4576251E+01  2.5647932E+01
 1.4587750E+01  2.5593529E+01
 1.4599251E+01  2.5487295E+01
 1.4610751E+01  2.5429235E+01
 1.4622251E+01  2.5397850E+01
 1.4633751E+01  2.5415140E+01
 1.4645250E+01  2.5429615E+01
 1.4656751E+01  2.5412212E+01
 1.4668251E+01  2.5374142E+01
 1.4679750E+01  2.5324030E+01
 1.4691251E+01  2.5336416E+01
 1.4702751E+01  2.5324007E+01
 1.4714251E+01  2.5291597E+01
 1.4725751E+01  2.5215954E+01
 1.4737250E+01  2.5166979E+01
 1.4748751E+01  2.5140764E+01
 1.4760251E+01  2.5109585E+01
 1.4771750E+01  2.5107521E+01
 1.4783251E+01  2.5110987E+01
 1.4794751E+01  2.5113195E+01
 1.4806251E+01  2.5138943E+01
 1.4817751E+01  2.5121756E+01
 1.4829250E+01  2.5157339E+01
 1.4840751E+01  2.5112612E+01
 1.4852251E+01  2.5126991E+01
 1.4863750E+01  2.5069769E+01
 1.4875251E+01  2.5032642E+01
 1.4886751E+01  2.5002203E+01
 1.4898251E+01  2.5012114E+01
 1.4909751E+01  2.5007616E+01
 1.4921250E+01  2.5018631E+01
 1.4932751E+01  2.5008762E+01
 1.4944251E+01  2.5004530E+01
 1.4955750E+01  2.4982594E+01
 1.4967251E+01  2.4947990E+01
 1.4978751E+01  2.4985077E+01
 1.4990251E+01  2.4949793E+01
 1.5001751E+01  2.4915203E+01
 1.5013250E+01  2.4883127E+01
 1.5024751E+01  2.4925966E+01
 1.5036251E+01  2.4948542E+01
 1.5047750E+01  2.4929188E+01
 1.5059251E+01  2.4954500E+01
 1.5070751E+01  2.4970360E+01
 1.5082251E+01  2.4950905E+01
 1.5093751E+01  2.4942352E+01
 1.5105250E+01  2.4988295E+01
 1.5116751E+01  2.5029409E+01
 1.5128251E+01  2.5093683E+01
 1.5139750E+01  2.5189980E+01
 1.5151251E+01  2.5387398E+01
 1.5162751E+01  2.5554218E+01
 1.5174251E+01  2.5750090E+01
 1.5185751E+01  2.5857765E+01
 1.5197250E+01  2.5851858E+01
 1.5208751E+01  2.5736097E+01
 1.5220251E+01  2.5574535E+01
 1.5231750E+01  2.5385111E+01
 1.5243251E+01  2.5186905E+01
 1.5254751E+01  2.5031694E+01
 1.5266251E+01  2.4932869E+01
 1.5277751E+01  2.4883631E+01
 1.5289250E+01  2.4841370E+01
 1.5300751E+01  2.4796511E+01
 1.5312251E+01  2.4732265E+01
 1.5323750E+01  2.4653273E+01
 1.5335251E+01  2.4681946E+01
 1.5346751E+01  2.4714382E+01
 1.5358251E+01  2.4711050E+01
 1.5369751E+01  2.4663095E+01
 1.5381250E+01  2.4609695E+01
 1.5392751E+01  2.4627708E+01
 1.5404251E+01  2.4615364E+01
 1.5415751E+01  2.4621199E+01
 1.5427251E+01  2.4597713E+01
 1.5438751E+01  2.4565458E+01
 1.5450251E+01  2.4525217E+01
 1.5461751E+01  2.4533007E+01
 1.5473250E+01  2.4502625E+01
 1.5484751E+01  2.4567116E+01
 1.5496251E+01  2.4579836E+01
 1.5507751E+01  2.4678476E+01
 1.5519251E+01  2.4736362E+01
 1.5530751E+01  2.4760059E+01
 1.5542251E+01  2.4753191E+01
 1.5553751E+01  2.4685896E+01
 1.5565250E+01  2.4708319E+01
 1.5576751E+01  2.4694897E+01
 1.5588251E+01  2.4664619E+01
 1.5599751E+01  2.4616590E+01
 1.5611251E+01  2.4594675E+01
 1.5622751E+01  2.4563225E+01
 1.5634251E+01  2.4579905E+01
 1.5645751E+01  2.4580769E+01
 1.5657250E+01  2.4625233E+01
 1.5668751E+01  2.4595430E+01
 1.5680251E+01  2.4602476E+01
 1.5691751E+01  2.4614916E+01
 1.5703251E+01  2.4599909E+01
 1.5714751E+01  2.4578348E+01
 1.5726251E+01  2.4527025E+01
 1.5737751E+01  2.4488565E+01
 1.5749250E+01  2.4463142E+01
 1.5760751E+01  2.4457052E+01
 1.5772251E+01  2.4462437E+01
 1.5783751E+01  2.4460047E+01
 1.5795251E+01  2.4475237E+01
 1.5806751E+01  2.4536041E+01
 1.5818251E+01  2.4589420E+01
 1.5829751E+01  2.4641426E+01
 1.5841250E+01  2.4610666E+01
 1.5852751E+01  2.4626699E+01
 1.5864251E+01  2.4623865E+01
 1.5875751E+01  2.4685022E+01
 1.5887251E+01  2.4663620E+01
 1.5898750E+01  2.4661442E+01
 1.5910251E+01  2.4644638E+01
 1.5921751E+01  2.4626915E+01
 1.5933250E+01  2.4638315E+01
 1.5944751E+01  2.4603958E+01
 1.5956251E+01  2.4613674E+01
 1.5967751E+01  2.4572210E+01
 1.5979251E+01  2.4537703E+01
 1.5990750E+01  2.4577667E+01
 1.6002251E+01  2.4573231E+01
 1.6013750E+01  2.4617222E+01
 1.6025251E+01  2.4601280E+01
 1.6036751E+01  2.4722517E+01
 1.6048250E+01  2.4815748E+01
 1.6059752E+01  2.4911249E+01
 1.6071251E+01  2.4911985E+01
 1.6082750E+01  2.4967728E+01
 1.6094252E+01  2.4906776E+01
 1.6105751E+01  2.4953257E+01
 1.6117250E+01  2.4911524E+01
 1.6128750E+01  2.4968807E+01
 1.6140251E+01  2.5012667E+01
 1.6151751E+01  2.5081884E+01
 1.6163250E+01  2.5272537E+01
 1.6174751E+01  2.5237198E+01
 1.6186251E+01  2.5694080E+01
 1.6197750E+01  2.5604939E+01
 1.6209251E+01  2.6632835E+01
 1.6220751E+01  2.6695063E+01
 1.6232250E+01  2.7886417E+01
 1.6243752E+01  2.8099260E+01
 1.6255251E+01  2.8511751E+01
 1.6266750E+01  2.8393751E+01
 1.6278252E+01  2.7493935E+01
 1.6289751E+01  2.7168425E+01
 1.6301250E+01  2.5912800E+01
 1.6312750E+01  2.5841339E+01
 1.6324251E+01  2.5105562E+01
 1.6335751E+01  2.5158377E+01
 1.6347250E+01  2.4886425E+01
 1.6358751E+01  2.4866705E+01
 1.6370251E+01  2.4826124E+01
 1.6381750E+01  2.4796019E+01
 1.6393251E+01  2.4859425E+01
 1.6404751E+01  2.4814806E+01
 1.6416250E+01  2.4891188E+01
 1.6427752E+01  2.4831728E+01
 1.6439251E+01  2.4825310E+01
 1.6450750E+01  2.4760757E+01
 1.6462252E+01  2.4761738E+01
 1.6473751E+01  2.4757633E+01
 1.6485250E+01  2.4774643E+01
 1.6496750E+01  2.4786285E+01
 1.6508251E+01  2.4800699E+01
 1.6519751E+01  2.4821854E+01
 1.6531250E+01  2.4785082E+01
 1.6542751E+01  2.4769283E+01
 1.6554251E+01  2.4750906E+01
 1.6565750E+01  2.4715099E+01
 1.6577251E+01  2.4727198E+01
 1.6588751E+01  2.4712318E+01
 1.6600250E+01  2.4760494E+01
 1.6611752E+01  2.4725933E+01
 1.6623251E+01  2.4658133E+01
 1.6634750E+01  2.4635178E+01
 1.6646252E+01  2.4594526E+01
 1.6657751E+01  2.4605164E+01
 1.6669250E+01  2.4616413E+01
 1.6680750E+01  2.4609167E+01
 1.6692251E+01  2.4555300E+01
 1.6703751E+01  2.4470900E+01
 1.6715250E+01  2.4427383E+01
 1.6726751E+01  2.4391758E+01
 1.6738251E+01  2.4409262E+01
 1.6749750E+01  2.4503761E+01
 1.6761251E+01  2.4560005E+01
 1.6772751E+01  2.4568758E+01
 1.6784250E+01  2.4555527E+01
 1.6795752E+01  2.4556883E+01
 1.6807251E+01  2.4536461E+01
 1.6818750E+01  2.4499554E+01
 1.6830252E+01  2.4450235E+01
 1.6841751E+01  2.4430937E+01
 1.6853251E+01  2.4419426E+01
 1.6864750E+01  2.4437735E+01
 1.6876251E+01  2.4428276E+01
 1.6887751E+01  2.4422615E+01
 1.6899250E+01  2.4402264E+01
 1.6910751E+01  2.4404758E+01
 1.6922251E+01  2.4414833E+01
 1.6933750E+01  2.4418083E+01
 1.6945251E+01  2.4398769E+01
 1.6956751E+01  2.4384399E+01
 1.6968250E+01  2.4356062E+01
 1.6979752E+01  2.4364349E+01
 1.6991251E+01  2.4322273E+01
 1.7002750E+01  2.4275669E+01
 1.7014252E+01  2.4226002E+01
 1.7025751E+01  2.4223511E+01
 1.7037251E+01  2.4215904E+01
 1.7048750E+01  2.4222578E+01
 1.7060251E+01  2.4208910E+01
 1.7071751E+01  2.4250322E+01
 1.7083250E+01  2.4258966E+01
 1.7094751E+01  2.4298801E+01
 1.7106251E+01  2.4285053E+01
 1.7117750E+01  2.4270559E+01
 1.7129251E+01  2.4292000E+01
 1.7140751E+01  2.4255896E+01
 1.7152250E+01  2.4198122E+01
 1.7163752E+01  2.4094753E+01
 1.7175251E+01  2.4078747E+01
 1.7186750E+01  2.4104752E+01
 1.7198252E+01  2.4173317E+01
 1.7209751E+01  2.4215939E+01
 1.7221251E+01  2.4208328E+01
 1.7232750E+01  2.4232046E+01
 1.7244251E+01  2.4205791E+01
 1.7255751E+01  2.4160898E+01
 1.7267250E+01  2.4066593E+01
 1.7278751E+01  2.4065838E+01
 1.7290251E+01  2.4079855E+01
 1.7301750E+01  2.4219866E+01
 1.7313251E+01  2.4173985E+01
 1.7324751E+01  2.4160662E+01
 1.7336250E+01  2.4045734E+01
 1.7347752E+01  2.4051083E+01
 1.7359251E+01  2.4079819E+01
 1.7370750E+01  2.4083704E+01
 1.7382252E+01  2.4121220E+01
 1.7393751E+01  2.4054892E+01
 1.7405251E+01  2.4048176E+01
 1.7416750E+01  2.4014006E+01
 1.7428251E+01  2.4028606E+01
 1.7439751E+01  2.4017900E+01
 1.7451250E+01  2.4018953E+01
 1.7462751E+01  2.4024113E+01
 1.7474251E+01  2.4037394E+01
 1.7485750E+01  2.4059639E+01
 1.7497252E+01  2.4058409E+01
 1.7508751E+01  2.4004009E+01
 1.7520250E+01  2.3913631E+01
 1.7531752E+01  2.3844627E+01
 1.7543251E+01  2.3882280E+01
 1.7554750E+01  2.3881592E+01
 1.7566252E+01  2.3896040E+01
 1.7577751E+01  2.3872084E+01
 1.7589251E+01  2.3847433E+01
 1.7600750E+01  2.3889631E+01
 1.7612251E+01  2.3919226E+01
 1.7623751E+01  2.3968538E+01
 1.7635250E+01  2.3940189E+01
 1.7646751E+01  2.3912720E+01
 1.7658251E+01  2.3915117E+01
 1.7669750E+01  2.3928928E+01
 1.7681252E+01  2.3959787E+01
 1.7692751E+01  2.3972090E+01
 1.7704250E+01  2.3935162E+01
 1.7715752E+01  2.3881624E+01
 1.7727251E+01  2.3799036E+01
 1.7738750E+01  2.3787384E+01
 1.7750252E+01  2.3817711E+01
 1.7761751E+01  2.3842503E+01
 1.7773251E+01  2.3857903E+01
 1.7784750E+01  2.3839697E+01
 1.7796251E+01  2.3826668E+01
 1.7807751E+01  2.3790421E+01
 1.7819250E+01  2.3762115E+01
 1.7830751E+01  2.3728615E+01
 1.7842251E+01  2.3721622E+01
 1.7853750E+01  2.3737661E+01
 1.7865252E+01  2.3753958E+01
 1.7876751E+01  2.3788105E+01
 1.7888250E+01  2.3798523E+01
 1.7899752E+01  2.3844900E+01
 1.7911251E+01  2.3889975E+01
 1.7922750E+01  2.3933748E+01
 1.7934252E+01  2.3894341E+01
 1.7945751E+01  2.3862993E+01
 1.7957251E+01  2.3869577E+01
 1.7968750E+01  2.3859821E+01
 1.7980251E+01  2.3865150E+01
 1.7991751E+01  2.3914055E+01
 1.8003250E+01  2.4022774E+01
 1.8014751E+01  2.4110241E+01
 1.8026251E+01  2.4214745E+01
 1.8037750E+01  2.4438635E+01
 1.8049252E+01  2.4748096E+01
 1.8060751E+01  2.5055595E+01
 1.8072250E+01  2.5615429E+01
 1.8083752E+01  2.5810539E+01
 1.8095251E+01  2.6045973E+01
 1.8106750E+01  2.5747099E+01
 1.8118252E+01  2.5730707E+01
 1.8129751E+01  2.5393070E+01
 1.8141251E+01  2.5096254E+01
 1.8152750E+01  2.4793245E+01
 1.8164251E+01  2.4492216E+01
 1.8175751E+01  2.4222095E+01
 1.8187250E+01  2.3979803E+01
 1.8198751E+01  2.3893353E+01
 1.8210251E+01  2.3866161E+01
 1.8221750E+01  2.3834969E+01
 1.8233252E+01  2.3751358E+01
 1.8244751E+01  2.3741255E+01
 1.8256250E+01  2.3688046E+01
 1.8267752E+01  2.3718313E+01
 1.8279251E+01  2.3683683E+01
 1.8290751E+01  2.3701864E+01
 1.8302252E+01  2.3696484E+01
 1.8313751E+01  2.3698151E+01
 1.8325251E+01  2.3678743E+01
 1.8336750E+01  2.3646120E+01
 1.8348251E+01  2.3647997E+01
 1.8359751E+01  2.3660696E+01
 1.8371250E+01  2.3674276E+01
 1.8382751E+01  2.3692698E+01
 1.8394251E+01  2.3701710E+01
 1.8405750E+01  2.3695732E+01
 1.8417252E+01  2.3687044E+01
 1.8428751E+01  2.3664825E+01
 1.8440250E+01  2.3640978E+01
 1.8451752E+01  2.3628567E+01
 1.8463251E+01  2.3624563E+01
 1.8474751E+01  2.3644964E+01
 1.8486252E+01  2.3700954E+01
 1.8497751E+01  2.3757233E+01
 1.8509251E+01  2.3810562E+01
 1.8520750E+01  2.3750275E+01
 1.8532251E+01  2.3680290E+01
 1.8543751E+01  2.3580992E+01
 1.8555250E+01  2.3556931E+01
 1.8566751E+01  2.3564554E+01
 1.8578251E+01  2.3576338E+01
 1.8589750E+01  2.3586365E+01
 1.8601252E+01  2.3614128E+01
 1.8612751E+01  2.3610109E+01
 1.8624250E+01  2.3581039E+01
 1.8635752E+01  2.3531300E+01
 1.8647251E+01  2.3487101E+01
 1.8658751E+01  2.3479630E+01
 1.8670252E+01  2.3528383E+01
 1.8681751E+01  2.3597218E+01
 1.8693251E+01  2.3652550E+01
 1.8704750E+01  2.3665056E+01
 1.8716251E+01  2.3601803E+01
 1.8727751E+01  2.3569151E+01
 1.8739250E+01  2.3536018E+01
 1.8750751E+01  2.3557066E+01
 1.8762251E+01  2.3508663E+01
 1.8773750E+01  2.3516262E+01
 1.8785252E+01  2.3458612E+01
 1.8796751E+01  2.3455011E+01
 1.8808250E+01  2.3448366E+01
 1.8819752E+01  2.3510517E+01
 1.8831251E+01  2.3538645E+01
 1.8842751E+01  2.3585052E+01
 1.8854252E+01  2.3545876E+01
 1.8865751E+01  2.3534443E+01
 1.8877251E+01  2.3543390E+01
 1.8888750E+01  2.3585752E+01
 1.8900251E+01  2.3565369E+01
 1.8911751E+01  2.3586775E+01
 1.8923250E+01  2.3623934E+01
 1.8934752E+01  2.3660851E+01
 1.8946251E+01  2.3685047E+01
 1.8957750E+01  2.3659218E+01
 1.8969252E+01  2.3623636E+01
 1.8980751E+01  2.3545876E+01
 1.8992250E+01  2.3510933E+01
 1.9003752E+01  2.3506886E+01
 1.9015251E+01  2.3552185E+01
 1.9026751E+01  2.3577366E+01
 1.9038252E+01  2.3594658E+01
 1.9049751E+01  2.3562994E+01
 1.9061251E+01  2.3585726E+01
 1.9072750E+01  2.3538183E+01
 1.9084251E+01  2.3498411E+01
 1.9095751E+01  2.3442898E+01
 1.9107250E+01  2.3498159E+01
 1.9118752E+01  2.3516838E+01
 1.9130251E+01  2.3601063E+01
 1.9141750E+01  2.3606506E+01
 1.9153252E+01  2.3642330E+01
 1.9164751E+01  2.3613127E+01
 1.9176250E+01  2.3615704E+01
 1.9187752E+01  2.3645777E+01
 1.9199251E+01  2.3653849E+01
 1.9210751E+01  2.3682999E+01
 1.9222252E+01  2.3646233E+01
 1.9233751E+01  2.3618107E+01
 1.9245251E+01  2.3570406E+01
 1.9256750E+01  2.3550362E+01
 1.9268251E+01  2.3566305E+01
 1.9279751E+01  2.3515390E+01
 1.9291250E+01  2.3526041E+01
 1.9302752E+01  2.3522408E+01
 1.9314251E+01  2.3575838E+01
 1.9325750E+01  2.3541105E+01
 1.9337252E+01  2.3553431E+01
 1.9348751E+01  2.3519337E+01
 1.9360250E+01  2.3498787E+01
 1.9371752E+01  2.3493155E+01
 1.9383251E+01  2.3524410E+01
 1.9394751E+01  2.3606113E+01
 1.9406250E+01  2.3629906E+01
 1.9417751E+01  2.3683573E+01
 1.9429251E+01  2.3656769E+01
 1.9440750E+01  2.3666639E+01
 1.9452251E+01  2.3645321E+01
 1.9463751E+01  2.3654358E+01
 1.9475250E+01  2.3639046E+01
 1.9486752E+01  2.3690790E+01
 1.9498251E+01  2.3697121E+01
 1.9509750E+01  2.3695635E+01
 1.9521252E+01  2.3713917E+01
 1.9532751E+01  2.3770620E+01
 1.9544250E+01  2.3840483E+01
 1.9555752E+01  2.3817726E+01
 1.9567251E+01  2.3790461E+01
 1.9578751E+01  2.3797453E+01
 1.9590250E+01  2.3759207E+01
 1.9601751E+01  2.3791174E+01
 1.9613251E+01  2.3787668E+01
 1.9624750E+01  2.3907265E+01
 1.9636251E+01  2.4019249E+01
 1.9647751E+01  2.4189795E+01
 1.9659250E+01  2.4433125E+01
 1.9670752E+01  2.4693661E+01
 1.9682251E+01  2.4976669E+01
 1.9693750E+01  2.5249546E+01
 1.9705252E+01  2.5520025E+01
 1.9716751E+01  2.5557615E+01
 1.9728251E+01  2.5522343E+01
 1.9739752E+01  2.5287493E+01
 1.9751251E+01  2.5165455E+01
 1.9762751E+01  2.4908508E+01
 1.9774250E+01  2.4750418E+01
 1.9785751E+01  2.4555233E+01
 1.9797251E+01  2.4480499E+01
 1.9808750E+01  2.4472195E+01
 1.9820251E+01  2.4656580E+01
 1.9831751E+01  2.5002424E+01
 1.9843250E+01  2.5511883E+01
 1.9854752E+01  2.6021305E+01
 1.9866251E+01  2.6361298E+01
 1.9877750E+01  2.6674715E+01
 1.9889252E+01  2.6288227E+01
 1.9900751E+01  2.6111563E+01
 1.9912251E+01  2.5369417E+01
 1.9923752E+01  2.4938238E+01
 1.9935251E+01  2.4487934E+01
 1.9946751E+01  2.4194866E+01
 1.9958250E+01  2.4053675E+01
 1.9969751E+01  2.3964285E+01
 1.9981251E+01  2.3937428E+01
 1.9992750E+01  2.3924868E+01
 2.0004251E+01  2.3882378E+01
 2.0015751E+01  2.3819538E+01
 2.0027250E+01  2.3756405E+01
 2.0038752E+01  2.3738714E+01
 2.0050251E+01  2.3784445E+01
 2.0061750E+01  2.3759396E+01
 2.0073252E+01  2.3711351E+01
 2.0084751E+01  2.3647665E+01
 2.0096251E+01  2.3623316E+01
 2.0107752E+01  2.3645206E+01
 2.0119251E+01  2.3697912E+01
 2.0130751E+01  2.3716543E+01
 2.0142250E+01  2.3714754E+01
 2.0153751E+01  2.3700468E+01
 2.0165251E+01  2.3738039E+01
 2.0176750E+01  2.3754694E+01
 2.0188251E+01  2.3739880E+01
 2.0199751E+01  2.3713493E+01
 2.0211250E+01  2.3699276E+01
 2.0222752E+01  2.3680426E+01
 2.0234251E+01  2.3743538E+01
 2.0245750E+01  2.3755671E+01
 2.0257252E+01  2.3761827E+01
 2.0268751E+01  2.3720810E+01
 2.0280251E+01  2.3728855E+01
 2.0291752E+01  2.3768438E+01
 2.0303251E+01  2.3774391E+01
 2.0314751E+01  2.3853619E+01
 2.0326250E+01  2.3823011E+01
 2.0337751E+01  2.3821577E+01
 2.0349251E+01  2.3751846E+01
 2.0360750E+01  2.3719212E+01
 2.0372252E+01  2.3720528E+01
 2.0383751E+01  2.3728842E+01
 2.0395250E+01  2.3762817E+01
 2.0406752E+01  2.3752953E+01
 2.0418251E+01  2.3756868E+01
 2.0429750E+01  2.3774942E+01
 2.0441252E+01  2.3831285E+01
 2.0452751E+01  2.3888861E+01
 2.0464251E+01  2.3900574E+01
 2.0475752E+01  2.3874702E+01
 2.0487251E+01  2.3814672E+01
 2.0498751E+01  2.3790800E+01
 2.0510250E+01  2.3736193E+01
 2.0521751E+01  2.3715916E+01
 2.0533251E+01  2.3702606E+01
 2.0544750E+01  2.3730881E+01
 2.0556252E+01  2.3781996E+01
 2.0567751E+01  2.3812834E+01
 2.0579250E+01  2.3857836E+01
 2.0590752E+01  2.3867905E+01
 2.0602251E+01  2.3956261E+01
 2.0613750E+01  2.3953640E+01
 2.0625252E+01  2.4015938E+01
 2.0636751E+01  2.4052336E+01
 2.0648251E+01  2.4148617E+01
 2.0659752E+01  2.4242697E+01
 2.0671251E+01  2.4325123E+01
 2.0682751E+01  2.4493580E+01
 2.0694250E+01  2.4997339E+01
 2.0705751E+01  2.5283449E+01
 2.0717251E+01  2.6209021E+01
 2.0728750E+01  2.6714615E+01
 2.0740252E+01  2.7515944E+01
 2.0751751E+01  2.7512653E+01
 2.0763250E+01  2.7701326E+01
 2.0774752E+01  2.7345329E+01
 2.0786251E+01  2.6481901E+01
 2.0797750E+01  2.6009928E+01
 2.0809252E+01  2.5264931E+01
 2.0820751E+01  2.4858896E+01
 2.0832251E+01  2.4553471E+01
 2.0843752E+01  2.4351442E+01
 2.0855251E+01  2.4303576E+01
 2.0866751E+01  2.4231461E+01
 2.0878250E+01  2.4188988E+01
 2.0889751E+01  2.4084467E+01
 2.0901251E+01  2.4049381E+01
 2.0912750E+01  2.4075771E+01
 2.0924252E+01  2.4060352E+01
 2.0935751E+01  2.4113749E+01
 2.0947250E+01  2.4135445E+01
 2.0958752E+01  2.4145954E+01
 2.0970251E+01  2.4087845E+01
 2.0981750E+01  2.4055408E+01
 2.0993252E+01  2.4004820E+01
 2.1004751E+01  2.3998165E+01
 2.1016251E+01  2.3942896E+01
 2.1027752E+01  2.3971561E+01
 2.1039251E+01  2.3969444E+01
 2.1050751E+01  2.4002251E+01
 2.1062250E+01  2.3981953E+01
 2.1073751E+01  2.4016285E+01
 2.1085251E+01  2.3971123E+01
 2.1096750E+01  2.3970524E+01
 2.1108252E+01  2.3964670E+01
 2.1119751E+01  2.4000166E+01
 2.1131250E+01  2.3959137E+01
 2.1142752E+01  2.3885895E+01
 2.1154251E+01  2.3828016E+01
 2.1165751E+01  2.3836126E+01
 2.1177252E+01  2.3896019E+01
 2.1188751E+01  2.3884478E+01
 2.1200251E+01  2.3915379E+01
 2.1211752E+01  2.3924191E+01
 2.1223251E+01  2.3911106E+01
 2.1234751E+01  2.3910267E+01
 2.1246250E+01  2.3999426E+01
 2.1257751E+01  2.4066526E+01
 2.1269251E+01  2.4054014E+01
 2.1280750E+01  2.4012461E+01
 2.1292252E+01  2.3957851E+01
 2.1303751E+01  2.3970381E+01
 2.1315250E+01  2.3948946E+01
 2.1326752E+01  2.3974606E+01
 2.1338251E+01  2.3982210E+01
 2.1349751E+01  2.3999872E+01
 2.1361252E+01  2.3991949E+01
 2.1372751E+01  2.4021193E+01
 2.1384251E+01  2.4048464E+01
 2.1395752E+01  2.4060766E+01
 2.1407251E+01  2.4035049E+01
 2.1418751E+01  2.4072824E+01
 2.1430250E+01  2.4064331E+01
 2.1441751E+01  2.4136814E+01
 2.1453251E+01  2.4182585E+01
 2.1464750E+01  2.4216270E+01
 2.1476252E+01  2.4145439E+01
 2.1487751E+01  2.4135525E+01
 2.1499250E+01  2.4077629E+01
 2.1510752E+01  2.4012024E+01
 2.1522251E+01  2.4022810E+01
 2.1533751E+01  2.4096182E+01
 2.1545252E+01  2.4094965E+01
 2.1556751E+01  2.4032852E+01
 2.1568251E+01  2.3972977E+01
 2.1579752E+01  2.3993755E+01
 2.1591251E+01  2.4083328E+01
 2.1602751E+01  2.4083467E+01
 2.1614250E+01  2.4068832E+01
 2.1625751E+01  2.4079418E+01
 2.1637251E+01  2.4135275E+01
 2.1648750E+01  2.4188120E+01
 2.1660252E+01  2.4235806E+01
 2.1671751E+01  2.4288298E+01
 2.1683250E+01  2.4319492E+01
 2.1694752E+01  2.4291658E+01
 2.1706251E+01  2.4289497E+01
 2.1717751E+01  2.4232269E+01
 2.1729252E+01  2.4270489E+01
 2.1740751E+01  2.4312933E+01
 2.1752251E+01  2.4302555E+01
 2.1763752E+01  2.4276049E+01
 2.1775251E+01  2.4206255E+01
 2.1786751E+01  2.4169357E+01
 2.1798250E+01  2.4136408E+01
 2.1809752E+01  2.4114651E+01
 2.1821251E+01  2.4133707E+01
 2.1832750E+01  2.4156424E+01
 2.1844252E+01  2.4213102E+01
 2.1855751E+01  2.4254009E+01
 2.1867250E+01  2.4265621E+01
 2.1878752E+01  2.4275974E+01
 2.1890251E+01  2.4290165E+01
 2.1901751E+01  2.4350313E+01
 2.1913252E+01  2.4419226E+01
 2.1924751E+01  2.4430820E+01
 2.1936251E+01  2.4412645E+01
 2.1947752E+01  2.4362295E+01
 2.1959251E+01  2.4324947E+01
 2.1970751E+01  2.4295425E+01
 2.1982250E+01  2.4233234E+01
 2.1993752E+01  2.4197136E+01
 2.2005251E+01  2.4150211E+01
 2.2016750E+01  2.4155399E+01
 2.2028252E+01  2.4181297E+01
 2.2039751E+01  2.4180567E+01
 2.2051250E+01  2.4283211E+01
 2.2062752E+01  2.4293962E+01
 2.2074251E+01  2.4321465E+01
 2.2085751E+01  2.4249998E+01
 2.2097252E+01  2.4259348E+01
 2.2108751E+01  2.4245548E+01
 2.2120251E+01  2.4278202E+01
 2.2131752E+01  2.4274498E+01
 2.2143251E+01  2.4282898E+01
 2.2154751E+01  2.4272999E+01
 2.2166250E+01  2.4311804E+01
 2.2177752E+01  2.4277063E+01
 2.2189251E+01  2.4269711E+01
 2.2200750E+01  2.4284445E+01
 2.2212252E+01  2.4290798E+01
 2.2223751E+01  2.4339733E+01
 2.2235250E+01  2.4362467E+01
 2.2246752E+01  2.4394735E+01
 2.2258251E+01  2.4395264E+01
 2.2269751E+01  2.4363050E+01
 2.2281252E+01  2.4359257E+01
 2.2292751E+01  2.4368677E+01
 2.2304251E+01  2.4453632E+01
 2.2315752E+01  2.4482624E+01
 2.2327251E+01  2.4470997E+01
 2.2338751E+01  2.4466055E+01
 2.2350250E+01  2.4483387E+01
 2.2361752E+01  2.4503180E+01
 2.2373251E+01  2.4523054E+01
 2.2384750E+01  2.4553579E+01
 2.2396252E+01  2.4595154E+01
 2.2407751E+01  2.4548521E+01
 2.2419250E+01  2.4548412E+01
 2.2430752E+01  2.4575825E+01
 2.2442251E+01  2.4651686E+01
 2.2453751E+01  2.4656155E+01
 2.2465252E+01  2.4655586E+01
 2.2476751E+01  2.4663088E+01
 2.2488251E+01  2.4719965E+01
 2.2499752E+01  2.4811241E+01
 2.2511251E+01  2.4980474E+01
 2.2522751E+01  2.5186352E+01
 2.2534250E+01  2.5366659E+01
 2.2545752E+01  2.5587803E+01
 2.2557251E+01  2.5414209E+01
 2.2568750E+01  2.5259785E+01
 2.2580252E+01  2.4883417E+01
 2.2591751E+01  2.4831442E+01
 2.2603251E+01  2.4807085E+01
 2.2614752E+01  2.4824476E+01
 2.2626251E+01  2.4914471E+01
 2.2637751E+01  2.4981253E+01
 2.2649252E+01  2.5003386E+01
 2.2660751E+01  2.5006321E+01
 2.2672251E+01  2.5045425E+01
 2.2683752E+01  2.5087172E+01
 2.2695251E+01  2.5111366E+01
 2.2706751E+01  2.5103905E+01
 2.2718250E+01  2.5142719E+01
 2.2729752E+01  2.5176081E+01
 2.2741251E+01  2.5213717E+01
 2.2752750E+01  2.5236673E+01
 2.2764252E+01  2.5321352E+01
 2.2775751E+01  2.5363001E+01
 2.2787251E+01  2.5356089E+01
 2.2798752E+01  2.5441963E+01
 2.2810251E+01  2.5488493E+01
 2.2821751E+01  2.5538990E+01
 2.2833252E+01  2.5569981E+01
 2.2844751E+01  2.5621494E+01
 2.2856251E+01  2.5619818E+01
 2.2867750E+01  2.5615532E+01
 2.2879251E+01  2.5606216E+01
 2.2890751E+01  2.5650820E+01
 2.2902250E+01  2.5682209E+01
 2.2913752E+01  2.5843309E+01
 2.2925251E+01  2.5984182E+01
 2.2936750E+01  2.6085114E+01
 2.2948252E+01  2.6109983E+01
 2.2959751E+01  2.6165520E+01
 2.2971251E+01  2.6271990E+01
 2.2982752E+01  2.6433199E+01
 2.2994251E+01  2.6530931E+01
