F:\20151113_APS_34IDE\\Brian\Particle1\OCV\Data_0062.tif
2-Theta Angle (Degrees)
Intensity
       2000
 5.7500005E-03  0.0000000E+00
 1.7250001E-02  0.0000000E+00
 2.8750001E-02  0.0000000E+00
 4.0250003E-02  0.0000000E+00
 5.1750004E-02  0.0000000E+00
 6.3250005E-02  0.0000000E+00
 7.4750006E-02  0.0000000E+00
 8.6250007E-02  0.0000000E+00
 9.7750008E-02  0.0000000E+00
 1.0925001E-01  0.0000000E+00
 1.2075000E-01  0.0000000E+00
 1.3225001E-01  0.0000000E+00
 1.4375001E-01  0.0000000E+00
 1.5525001E-01  0.0000000E+00
 1.6675001E-01  0.0000000E+00
 1.7825001E-01  0.0000000E+00
 1.8975002E-01  0.0000000E+00
 2.0125002E-01  0.0000000E+00
 2.1275002E-01  0.0000000E+00
 2.2425000E-01  0.0000000E+00
 2.3575000E-01  0.0000000E+00
 2.4725001E-01  0.0000000E+00
 2.5875002E-01  0.0000000E+00
 2.7025002E-01  0.0000000E+00
 2.8175002E-01  0.0000000E+00
 2.9325002E-01  0.0000000E+00
 3.0475003E-01  0.0000000E+00
 3.1625003E-01  0.0000000E+00
 3.2775003E-01  0.0000000E+00
 3.3925003E-01  0.0000000E+00
 3.5075003E-01  0.0000000E+00
 3.6225003E-01  0.0000000E+00
 3.7375003E-01  0.0000000E+00
 3.8525003E-01  0.0000000E+00
 3.9675003E-01  0.0000000E+00
 4.0825003E-01  0.0000000E+00
 4.1975003E-01  0.0000000E+00
 4.3125004E-01  0.0000000E+00
 4.4275001E-01  0.0000000E+00
 4.5425001E-01  0.0000000E+00
 4.6575001E-01  0.0000000E+00
 4.7725001E-01  0.0000000E+00
 4.8875001E-01  0.0000000E+00
 5.0025004E-01  0.0000000E+00
 5.1175004E-01  0.0000000E+00
 5.2325004E-01  0.0000000E+00
 5.3475004E-01  0.0000000E+00
 5.4625005E-01  0.0000000E+00
 5.5775005E-01  0.0000000E+00
 5.6925005E-01  0.0000000E+00
 5.8075005E-01  0.0000000E+00
 5.9225005E-01  0.0000000E+00
 6.0375005E-01  0.0000000E+00
 6.1525005E-01  0.0000000E+00
 6.2675005E-01  0.0000000E+00
 6.3825005E-01  0.0000000E+00
 6.4975005E-01  0.0000000E+00
 6.6125005E-01  0.0000000E+00
 6.7275006E-01  0.0000000E+00
 6.8425006E-01  0.0000000E+00
 6.9575006E-01  0.0000000E+00
 7.0725006E-01  0.0000000E+00
 7.1875006E-01  0.0000000E+00
 7.3025006E-01  0.0000000E+00
 7.4175006E-01  0.0000000E+00
 7.5325006E-01  0.0000000E+00
 7.6475006E-01  0.0000000E+00
 7.7625006E-01  0.0000000E+00
 7.8775007E-01  0.0000000E+00
 7.9925007E-01  0.0000000E+00
 8.1075007E-01  0.0000000E+00
 8.2225007E-01  0.0000000E+00
 8.3375007E-01  0.0000000E+00
 8.4525007E-01  0.0000000E+00
 8.5675007E-01  0.0000000E+00
 8.6825007E-01  0.0000000E+00
 8.7975001E-01  0.0000000E+00
 8.9125001E-01  0.0000000E+00
 9.0275002E-01  0.0000000E+00
 9.1425002E-01  0.0000000E+00
 9.2575002E-01  0.0000000E+00
 9.3725002E-01  0.0000000E+00
 9.4875002E-01  0.0000000E+00
 9.6025002E-01  0.0000000E+00
 9.7175002E-01  0.0000000E+00
 9.8325002E-01  0.0000000E+00
 9.9475002E-01  0.0000000E+00
 1.0062500E+00  0.0000000E+00
 1.0177500E+00  0.0000000E+00
 1.0292500E+00  0.0000000E+00
 1.0407500E+00  0.0000000E+00
 1.0522500E+00  0.0000000E+00
 1.0637500E+00  0.0000000E+00
 1.0752500E+00  0.0000000E+00
 1.0867500E+00  0.0000000E+00
 1.0982500E+00  0.0000000E+00
 1.1097500E+00  0.0000000E+00
 1.1212500E+00  0.0000000E+00
 1.1327500E+00  0.0000000E+00
 1.1442500E+00  0.0000000E+00
 1.1557500E+00  0.0000000E+00
 1.1672500E+00  0.0000000E+00
 1.1787500E+00  0.0000000E+00
 1.1902500E+00  0.0000000E+00
 1.2017500E+00  0.0000000E+00
 1.2132500E+00  0.0000000E+00
 1.2247500E+00  0.0000000E+00
 1.2362500E+00  0.0000000E+00
 1.2477500E+00  0.0000000E+00
 1.2592500E+00  0.0000000E+00
 1.2707500E+00  0.0000000E+00
 1.2822500E+00  0.0000000E+00
 1.2937500E+00  0.0000000E+00
 1.3052500E+00  0.0000000E+00
 1.3167500E+00  0.0000000E+00
 1.3282501E+00  0.0000000E+00
 1.3397501E+00  0.0000000E+00
 1.3512501E+00  0.0000000E+00
 1.3627501E+00  0.0000000E+00
 1.3742501E+00  0.0000000E+00
 1.3857501E+00  0.0000000E+00
 1.3972501E+00  0.0000000E+00
 1.4087501E+00  0.0000000E+00
 1.4202501E+00  0.0000000E+00
 1.4317501E+00  0.0000000E+00
 1.4432501E+00  0.0000000E+00
 1.4547501E+00  0.0000000E+00
 1.4662501E+00  0.0000000E+00
 1.4777501E+00  0.0000000E+00
 1.4892501E+00  0.0000000E+00
 1.5007501E+00  0.0000000E+00
 1.5122501E+00  0.0000000E+00
 1.5237501E+00  0.0000000E+00
 1.5352501E+00  0.0000000E+00
 1.5467501E+00  0.0000000E+00
 1.5582501E+00  0.0000000E+00
 1.5697501E+00  0.0000000E+00
 1.5812501E+00  0.0000000E+00
 1.5927501E+00  0.0000000E+00
 1.6042501E+00  0.0000000E+00
 1.6157501E+00  0.0000000E+00
 1.6272501E+00  0.0000000E+00
 1.6387501E+00  0.0000000E+00
 1.6502501E+00  0.0000000E+00
 1.6617501E+00  0.0000000E+00
 1.6732501E+00  0.0000000E+00
 1.6847501E+00  0.0000000E+00
 1.6962501E+00  0.0000000E+00
 1.7077501E+00  0.0000000E+00
 1.7192501E+00  0.0000000E+00
 1.7307501E+00  0.0000000E+00
 1.7422501E+00  0.0000000E+00
 1.7537501E+00  0.0000000E+00
 1.7652501E+00  0.0000000E+00
 1.7767501E+00  0.0000000E+00
 1.7882501E+00  0.0000000E+00
 1.7997501E+00  0.0000000E+00
 1.8112501E+00  0.0000000E+00
 1.8227501E+00  0.0000000E+00
 1.8342501E+00  0.0000000E+00
 1.8457501E+00  0.0000000E+00
 1.8572501E+00  0.0000000E+00
 1.8687501E+00  0.0000000E+00
 1.8802501E+00  0.0000000E+00
 1.8917501E+00  0.0000000E+00
 1.9032501E+00  0.0000000E+00
 1.9147501E+00  0.0000000E+00
 1.9262501E+00  0.0000000E+00
 1.9377501E+00  0.0000000E+00
 1.9492501E+00  0.0000000E+00
 1.9607501E+00  0.0000000E+00
 1.9722501E+00  0.0000000E+00
 1.9837501E+00  0.0000000E+00
 1.9952501E+00  0.0000000E+00
 2.0067501E+00  0.0000000E+00
 2.0182500E+00  0.0000000E+00
 2.0297501E+00  0.0000000E+00
 2.0412500E+00  0.0000000E+00
 2.0527501E+00  0.0000000E+00
 2.0642500E+00  0.0000000E+00
 2.0757501E+00  0.0000000E+00
 2.0872500E+00  0.0000000E+00
 2.0987501E+00  0.0000000E+00
 2.1102500E+00  0.0000000E+00
 2.1217501E+00  0.0000000E+00
 2.1332500E+00  0.0000000E+00
 2.1447501E+00  0.0000000E+00
 2.1562500E+00  0.0000000E+00
 2.1677501E+00  0.0000000E+00
 2.1792500E+00  0.0000000E+00
 2.1907501E+00  0.0000000E+00
 2.2022500E+00  0.0000000E+00
 2.2137501E+00  0.0000000E+00
 2.2252500E+00  0.0000000E+00
 2.2367501E+00  0.0000000E+00
 2.2482500E+00  0.0000000E+00
 2.2597501E+00  0.0000000E+00
 2.2712500E+00  0.0000000E+00
 2.2827501E+00  0.0000000E+00
 2.2942500E+00  0.0000000E+00
 2.3057501E+00  0.0000000E+00
 2.3172500E+00  0.0000000E+00
 2.3287501E+00  0.0000000E+00
 2.3402500E+00  0.0000000E+00
 2.3517501E+00  0.0000000E+00
 2.3632500E+00  0.0000000E+00
 2.3747501E+00  0.0000000E+00
 2.3862500E+00  0.0000000E+00
 2.3977501E+00  0.0000000E+00
 2.4092500E+00  0.0000000E+00
 2.4207501E+00  0.0000000E+00
 2.4322500E+00  0.0000000E+00
 2.4437501E+00  0.0000000E+00
 2.4552500E+00  0.0000000E+00
 2.4667501E+00  0.0000000E+00
 2.4782500E+00  0.0000000E+00
 2.4897501E+00  0.0000000E+00
 2.5012500E+00  0.0000000E+00
 2.5127501E+00  0.0000000E+00
 2.5242500E+00  0.0000000E+00
 2.5357502E+00  0.0000000E+00
 2.5472500E+00  0.0000000E+00
 2.5587502E+00  0.0000000E+00
 2.5702500E+00  0.0000000E+00
 2.5817502E+00  0.0000000E+00
 2.5932500E+00  0.0000000E+00
 2.6047502E+00  0.0000000E+00
 2.6162500E+00  0.0000000E+00
 2.6277502E+00  0.0000000E+00
 2.6392500E+00  0.0000000E+00
 2.6507502E+00  0.0000000E+00
 2.6622500E+00  0.0000000E+00
 2.6737502E+00  0.0000000E+00
 2.6852500E+00  0.0000000E+00
 2.6967502E+00  0.0000000E+00
 2.7082500E+00  0.0000000E+00
 2.7197502E+00  0.0000000E+00
 2.7312500E+00  0.0000000E+00
 2.7427502E+00  0.0000000E+00
 2.7542500E+00  0.0000000E+00
 2.7657502E+00  0.0000000E+00
 2.7772501E+00  0.0000000E+00
 2.7887502E+00  0.0000000E+00
 2.8002501E+00  0.0000000E+00
 2.8117502E+00  0.0000000E+00
 2.8232501E+00  2.9843069E+01
 2.8347502E+00  3.0461649E+01
 2.8462501E+00  3.1177607E+01
 2.8577502E+00  3.1495031E+01
 2.8692501E+00  3.2274475E+01
 2.8807502E+00  3.2995045E+01
 2.8922501E+00  3.3645863E+01
 2.9037502E+00  3.4172596E+01
 2.9152501E+00  3.4445225E+01
 2.9267502E+00  3.4804352E+01
 2.9382501E+00  3.4959209E+01
 2.9497502E+00  3.5096951E+01
 2.9612501E+00  3.4560371E+01
 2.9727502E+00  3.4479244E+01
 2.9842501E+00  3.4449116E+01
 2.9957502E+00  3.5307129E+01
 3.0072501E+00  3.5743450E+01
 3.0187502E+00  3.5896217E+01
 3.0302501E+00  3.5570358E+01
 3.0417502E+00  3.5234707E+01
 3.0532501E+00  3.4498310E+01
 3.0647502E+00  3.4166939E+01
 3.0762501E+00  3.4571411E+01
 3.0877502E+00  3.5007092E+01
 3.0992501E+00  3.5420403E+01
 3.1107502E+00  3.4995754E+01
 3.1222501E+00  3.4885906E+01
 3.1337502E+00  3.4604610E+01
 3.1452501E+00  3.4552639E+01
 3.1567502E+00  3.4382374E+01
 3.1682501E+00  3.4344307E+01
 3.1797502E+00  3.4459488E+01
 3.1912501E+00  3.4573303E+01
 3.2027502E+00  3.4785988E+01
 3.2142501E+00  3.4846466E+01
 3.2257502E+00  3.5054134E+01
 3.2372501E+00  3.4892529E+01
 3.2487502E+00  3.4690556E+01
 3.2602501E+00  3.4531586E+01
 3.2717502E+00  3.4919697E+01
 3.2832501E+00  3.4949348E+01
 3.2947502E+00  3.4765938E+01
 3.3062501E+00  3.4223385E+01
 3.3177502E+00  3.4155602E+01
 3.3292501E+00  3.4000282E+01
 3.3407502E+00  3.4047913E+01
 3.3522501E+00  3.3923332E+01
 3.3637502E+00  3.4117527E+01
 3.3752501E+00  3.4191036E+01
 3.3867502E+00  3.4388832E+01
 3.3982501E+00  3.4573353E+01
 3.4097502E+00  3.4320377E+01
 3.4212501E+00  3.4270195E+01
 3.4327502E+00  3.3765591E+01
 3.4442501E+00  3.3913631E+01
 3.4557502E+00  3.3921379E+01
 3.4672501E+00  3.4160641E+01
 3.4787502E+00  3.4102528E+01
 3.4902501E+00  3.4053078E+01
 3.5017502E+00  3.3679966E+01
 3.5132501E+00  3.3640972E+01
 3.5247502E+00  3.3341103E+01
 3.5362501E+00  3.3545143E+01
 3.5477502E+00  3.3530140E+01
 3.5592501E+00  3.3400394E+01
 3.5707502E+00  3.3312584E+01
 3.5822501E+00  3.3015526E+01
 3.5937502E+00  3.3099064E+01
 3.6052501E+00  3.3076321E+01
 3.6167502E+00  3.3307480E+01
 3.6282501E+00  3.3418251E+01
 3.6397502E+00  3.3438938E+01
 3.6512501E+00  3.3411472E+01
 3.6627502E+00  3.3304714E+01
 3.6742501E+00  3.3238190E+01
 3.6857502E+00  3.3189369E+01
 3.6972501E+00  3.3323948E+01
 3.7087502E+00  3.3333618E+01
 3.7202501E+00  3.3052525E+01
 3.7317502E+00  3.2832600E+01
 3.7432501E+00  3.2609203E+01
 3.7547503E+00  3.2593037E+01
 3.7662501E+00  3.2501762E+01
 3.7777503E+00  3.2564735E+01
 3.7892501E+00  3.2545914E+01
 3.8007503E+00  3.2491493E+01
 3.8122501E+00  3.2540058E+01
 3.8237503E+00  3.2440807E+01
 3.8352501E+00  3.2460773E+01
 3.8467503E+00  3.2254799E+01
 3.8582501E+00  3.2263439E+01
 3.8697503E+00  3.2359043E+01
 3.8812501E+00  3.2368481E+01
 3.8927503E+00  3.2439705E+01
 3.9042501E+00  3.2345531E+01
 3.9157503E+00  3.2250473E+01
 3.9272501E+00  3.2186916E+01
 3.9387503E+00  3.2277782E+01
 3.9502501E+00  3.2163212E+01
 3.9617503E+00  3.2153275E+01
 3.9732502E+00  3.2188671E+01
 3.9847503E+00  3.2094723E+01
 3.9962502E+00  3.2116722E+01
 4.0077500E+00  3.1929983E+01
 4.0192504E+00  3.1752586E+01
 4.0307503E+00  3.1627129E+01
 4.0422502E+00  3.1577129E+01
 4.0537500E+00  3.1742245E+01
 4.0652504E+00  3.1824179E+01
 4.0767503E+00  3.1645792E+01
 4.0882502E+00  3.1811977E+01
 4.0997500E+00  3.1977406E+01
 4.1112504E+00  3.2135082E+01
 4.1227503E+00  3.2070953E+01
 4.1342502E+00  3.1896561E+01
 4.1457500E+00  3.1926474E+01
 4.1572504E+00  3.1739496E+01
 4.1687503E+00  3.1642523E+01
 4.1802502E+00  3.1549288E+01
 4.1917500E+00  3.1772774E+01
 4.2032504E+00  3.1726927E+01
 4.2147503E+00  3.1768921E+01
 4.2262502E+00  3.1681929E+01
 4.2377501E+00  3.1725672E+01
 4.2492504E+00  3.1706453E+01
 4.2607503E+00  3.1684849E+01
 4.2722502E+00  3.1800327E+01
 4.2837501E+00  3.1888613E+01
 4.2952504E+00  3.1970228E+01
 4.3067503E+00  3.1973791E+01
 4.3182502E+00  3.1987938E+01
 4.3297501E+00  3.1857176E+01
 4.3412504E+00  3.1923082E+01
 4.3527503E+00  3.1846849E+01
 4.3642502E+00  3.1929155E+01
 4.3757501E+00  3.1993181E+01
 4.3872504E+00  3.2080181E+01
 4.3987503E+00  3.2244808E+01
 4.4102502E+00  3.2307949E+01
 4.4217501E+00  3.2267738E+01
 4.4332504E+00  3.2251369E+01
 4.4447503E+00  3.2208321E+01
 4.4562502E+00  3.2186573E+01
 4.4677501E+00  3.2317085E+01
 4.4792504E+00  3.2189732E+01
 4.4907503E+00  3.2241329E+01
 4.5022502E+00  3.2210197E+01
 4.5137501E+00  3.2262524E+01
 4.5252504E+00  3.2412750E+01
 4.5367503E+00  3.2449738E+01
 4.5482502E+00  3.2525097E+01
 4.5597501E+00  3.2517239E+01
 4.5712504E+00  3.2507721E+01
 4.5827503E+00  3.2485161E+01
 4.5942502E+00  3.2552078E+01
 4.6057501E+00  3.2561436E+01
 4.6172504E+00  3.2589249E+01
 4.6287503E+00  3.2511475E+01
 4.6402502E+00  3.2520432E+01
 4.6517501E+00  3.2572216E+01
 4.6632504E+00  3.2530350E+01
 4.6747503E+00  3.2493538E+01
 4.6862502E+00  3.2328125E+01
 4.6977501E+00  3.2427925E+01
 4.7092505E+00  3.2407715E+01
 4.7207503E+00  3.2563251E+01
 4.7322502E+00  3.2528667E+01
 4.7437501E+00  3.2463985E+01
 4.7552505E+00  3.2337433E+01
 4.7667503E+00  3.2270168E+01
 4.7782502E+00  3.2146511E+01
 4.7897501E+00  3.2318951E+01
 4.8012505E+00  3.2301937E+01
 4.8127503E+00  3.2480431E+01
 4.8242502E+00  3.2442368E+01
 4.8357501E+00  3.2385723E+01
 4.8472505E+00  3.2427155E+01
 4.8587503E+00  3.2444855E+01
 4.8702502E+00  3.2431389E+01
 4.8817501E+00  3.2288940E+01
 4.8932505E+00  3.2154751E+01
 4.9047503E+00  3.2072933E+01
 4.9162502E+00  3.2220520E+01
 4.9277501E+00  3.2255161E+01
 4.9392505E+00  3.2405010E+01
 4.9507504E+00  3.2538975E+01
 4.9622502E+00  3.2678867E+01
 4.9737501E+00  3.2860214E+01
 4.9852505E+00  3.2937374E+01
 4.9967504E+00  3.2993149E+01
 5.0082502E+00  3.3104488E+01
 5.0197501E+00  3.2993393E+01
 5.0312505E+00  3.3121662E+01
 5.0427504E+00  3.3109711E+01
 5.0542502E+00  3.3244114E+01
 5.0657501E+00  3.3401531E+01
 5.0772505E+00  3.3466103E+01
 5.0887504E+00  3.3506489E+01
 5.1002502E+00  3.3474983E+01
 5.1117501E+00  3.3428387E+01
 5.1232505E+00  3.3420082E+01
 5.1347504E+00  3.3451725E+01
 5.1462502E+00  3.3491390E+01
 5.1577501E+00  3.3549618E+01
 5.1692505E+00  3.3507160E+01
 5.1807504E+00  3.3513687E+01
 5.1922503E+00  3.3610718E+01
 5.2037501E+00  3.3672760E+01
 5.2152505E+00  3.3691814E+01
 5.2267504E+00  3.3654297E+01
 5.2382503E+00  3.3656151E+01
 5.2497501E+00  3.3724068E+01
 5.2612505E+00  3.3901455E+01
 5.2727504E+00  3.3788326E+01
 5.2842503E+00  3.3854660E+01
 5.2957501E+00  3.3747803E+01
 5.3072500E+00  3.3769157E+01
 5.3187504E+00  3.3722767E+01
 5.3302503E+00  3.3644882E+01
 5.3417501E+00  3.3656563E+01
 5.3532500E+00  3.3643127E+01
 5.3647504E+00  3.3673538E+01
 5.3762503E+00  3.3852654E+01
 5.3877501E+00  3.3988762E+01
 5.3992500E+00  3.4128479E+01
 5.4107504E+00  3.4146568E+01
 5.4222503E+00  3.4146301E+01
 5.4337502E+00  3.4025707E+01
 5.4452500E+00  3.3985828E+01
 5.4567504E+00  3.3964790E+01
 5.4682503E+00  3.4134705E+01
 5.4797502E+00  3.4254463E+01
 5.4912500E+00  3.4481964E+01
 5.5027504E+00  3.4614300E+01
 5.5142503E+00  3.4830990E+01
 5.5257502E+00  3.4903023E+01
 5.5372500E+00  3.4885822E+01
 5.5487504E+00  3.4760490E+01
 5.5602503E+00  3.4624031E+01
 5.5717502E+00  3.4659763E+01
 5.5832500E+00  3.4710346E+01
 5.5947504E+00  3.4737244E+01
 5.6062503E+00  3.4825317E+01
 5.6177502E+00  3.4748653E+01
 5.6292500E+00  3.4791107E+01
 5.6407504E+00  3.4688351E+01
 5.6522503E+00  3.4749626E+01
 5.6637502E+00  3.4853401E+01
 5.6752501E+00  3.5000919E+01
 5.6867504E+00  3.5098373E+01
 5.6982503E+00  3.5141491E+01
 5.7097502E+00  3.5169697E+01
 5.7212501E+00  3.5274399E+01
 5.7327504E+00  3.5252579E+01
 5.7442503E+00  3.5209000E+01
 5.7557502E+00  3.5115349E+01
 5.7672501E+00  3.5130505E+01
 5.7787504E+00  3.5150948E+01
 5.7902503E+00  3.5272240E+01
 5.8017502E+00  3.5314934E+01
 5.8132501E+00  3.5523724E+01
 5.8247504E+00  3.5609760E+01
 5.8362503E+00  3.5779087E+01
 5.8477502E+00  3.5886520E+01
 5.8592501E+00  3.5847961E+01
 5.8707504E+00  3.6100277E+01
 5.8822503E+00  3.6271233E+01
 5.8937502E+00  3.6733307E+01
 5.9052501E+00  3.7357159E+01
 5.9167504E+00  3.8047375E+01
 5.9282503E+00  3.9384686E+01
 5.9397502E+00  4.2226250E+01
 5.9512501E+00  4.4767410E+01
 5.9627504E+00  5.1100178E+01
 5.9742503E+00  5.4307819E+01
 5.9857502E+00  5.9881123E+01
 5.9972501E+00  6.0659531E+01
 6.0087504E+00  6.2545307E+01
 6.0202503E+00  5.6510811E+01
 6.0317502E+00  5.3041409E+01
 6.0432501E+00  4.5015636E+01
 6.0547504E+00  4.3134895E+01
 6.0662503E+00  3.9242168E+01
 6.0777502E+00  3.8467964E+01
 6.0892501E+00  3.7513874E+01
 6.1007504E+00  3.7280842E+01
 6.1122503E+00  3.6963703E+01
 6.1237502E+00  3.6802383E+01
 6.1352501E+00  3.6507294E+01
 6.1467505E+00  3.6491753E+01
 6.1582503E+00  3.6555504E+01
 6.1697502E+00  3.6647690E+01
 6.1812501E+00  3.6707970E+01
 6.1927505E+00  3.6830246E+01
 6.2042503E+00  3.6846882E+01
 6.2157502E+00  3.6910126E+01
 6.2272501E+00  3.6989574E+01
 6.2387505E+00  3.7006630E+01
 6.2502503E+00  3.7122288E+01
 6.2617502E+00  3.7130589E+01
 6.2732501E+00  3.7310368E+01
 6.2847505E+00  3.7401363E+01
 6.2962503E+00  3.7390186E+01
 6.3077502E+00  3.7416092E+01
 6.3192501E+00  3.7354504E+01
 6.3307505E+00  3.7483303E+01
 6.3422503E+00  3.7598099E+01
 6.3537502E+00  3.7726692E+01
 6.3652501E+00  3.7778290E+01
 6.3767505E+00  3.7795277E+01
 6.3882504E+00  3.7877434E+01
 6.3997502E+00  3.7861649E+01
 6.4112501E+00  3.7924976E+01
 6.4227505E+00  3.7960987E+01
 6.4342504E+00  3.8095219E+01
 6.4457502E+00  3.8276440E+01
 6.4572501E+00  3.8368908E+01
 6.4687505E+00  3.8538029E+01
 6.4802504E+00  3.8600903E+01
 6.4917502E+00  3.8699127E+01
 6.5032501E+00  3.8768917E+01
 6.5147505E+00  3.8758057E+01
 6.5262504E+00  3.8800999E+01
 6.5377502E+00  3.8813023E+01
 6.5492501E+00  3.8805561E+01
 6.5607505E+00  3.8820770E+01
 6.5722504E+00  3.8858299E+01
 6.5837502E+00  3.8942890E+01
 6.5952501E+00  3.9106911E+01
 6.6067505E+00  3.9274334E+01
 6.6182504E+00  3.9423378E+01
 6.6297503E+00  3.9503571E+01
 6.6412501E+00  3.9595139E+01
 6.6527505E+00  3.9589405E+01
 6.6642504E+00  3.9684669E+01
 6.6757503E+00  3.9674152E+01
 6.6872501E+00  3.9726315E+01
 6.6987505E+00  3.9684353E+01
 6.7102504E+00  3.9760941E+01
 6.7217503E+00  3.9862972E+01
 6.7332501E+00  4.0110828E+01
 6.7447505E+00  4.0250332E+01
 6.7562504E+00  4.0408905E+01
 6.7677503E+00  4.0547451E+01
 6.7792501E+00  4.0633492E+01
 6.7907505E+00  4.0662865E+01
 6.8022504E+00  4.0741989E+01
 6.8137503E+00  4.0825657E+01
 6.8252501E+00  4.0959225E+01
 6.8367505E+00  4.1057030E+01
 6.8482504E+00  4.1240864E+01
 6.8597503E+00  4.1371910E+01
 6.8712502E+00  4.1405468E+01
 6.8827505E+00  4.1425690E+01
 6.8942504E+00  4.1457241E+01
 6.9057503E+00  4.1565784E+01
 6.9172502E+00  4.1611938E+01
 6.9287505E+00  4.1778961E+01
 6.9402504E+00  4.1839920E+01
 6.9517503E+00  4.1907219E+01
 6.9632502E+00  4.1855751E+01
 6.9747505E+00  4.1941616E+01
 6.9862504E+00  4.2037228E+01
 6.9977503E+00  4.2055317E+01
 7.0092502E+00  4.1981026E+01
 7.0207505E+00  4.1924362E+01
 7.0322504E+00  4.1945908E+01
 7.0437503E+00  4.2086884E+01
 7.0552502E+00  4.2121624E+01
 7.0667505E+00  4.2235649E+01
 7.0782504E+00  4.2267906E+01
 7.0897503E+00  4.2280445E+01
 7.1012502E+00  4.2356224E+01
 7.1127505E+00  4.2326736E+01
 7.1242504E+00  4.2407207E+01
 7.1357503E+00  4.2453579E+01
 7.1472502E+00  4.2570004E+01
 7.1587505E+00  4.2771881E+01
 7.1702504E+00  4.2908649E+01
 7.1817503E+00  4.3037971E+01
 7.1932502E+00  4.3149815E+01
 7.2047505E+00  4.3228264E+01
 7.2162504E+00  4.3345020E+01
 7.2277503E+00  4.3374653E+01
 7.2392502E+00  4.3412357E+01
 7.2507505E+00  4.3470379E+01
 7.2622504E+00  4.3421387E+01
 7.2737503E+00  4.3320030E+01
 7.2852502E+00  4.3243961E+01
 7.2967505E+00  4.3162189E+01
 7.3082504E+00  4.3206249E+01
 7.3197503E+00  4.3194317E+01
 7.3312502E+00  4.3241604E+01
 7.3427505E+00  4.3283855E+01
 7.3542504E+00  4.3331631E+01
 7.3657503E+00  4.3456566E+01
 7.3772502E+00  4.3492855E+01
 7.3887506E+00  4.3499020E+01
 7.4002504E+00  4.3447117E+01
 7.4117503E+00  4.3545029E+01
 7.4232502E+00  4.3594231E+01
 7.4347506E+00  4.3587753E+01
 7.4462504E+00  4.3553822E+01
 7.4577503E+00  4.3568695E+01
 7.4692502E+00  4.3606350E+01
 7.4807506E+00  4.3638363E+01
 7.4922504E+00  4.3686249E+01
 7.5037503E+00  4.3865139E+01
 7.5152502E+00  4.3914295E+01
 7.5267506E+00  4.3998764E+01
 7.5382504E+00  4.3880608E+01
 7.5497503E+00  4.3828136E+01
 7.5612502E+00  4.3717121E+01
 7.5727506E+00  4.3684673E+01
 7.5842505E+00  4.3705070E+01
 7.5957503E+00  4.3699181E+01
 7.6072502E+00  4.3745399E+01
 7.6187506E+00  4.3747791E+01
 7.6302505E+00  4.3771957E+01
 7.6417503E+00  4.3727436E+01
 7.6532502E+00  4.3637428E+01
 7.6647506E+00  4.3554310E+01
 7.6762505E+00  4.3546543E+01
 7.6877503E+00  4.3512512E+01
 7.6992502E+00  4.3596992E+01
 7.7107506E+00  4.3711243E+01
 7.7222505E+00  4.3840023E+01
 7.7337503E+00  4.3883881E+01
 7.7452502E+00  4.3870079E+01
 7.7567506E+00  4.3854134E+01
 7.7682505E+00  4.3775543E+01
 7.7797503E+00  4.3672939E+01
 7.7912502E+00  4.3647850E+01
 7.8027506E+00  4.3582481E+01
 7.8142505E+00  4.3549686E+01
 7.8257504E+00  4.3485481E+01
 7.8372502E+00  4.3455040E+01
 7.8487506E+00  4.3418335E+01
 7.8602505E+00  4.3408024E+01
 7.8717504E+00  4.3388229E+01
 7.8832502E+00  4.3402195E+01
 7.8947506E+00  4.3331535E+01
 7.9062505E+00  4.3322998E+01
 7.9177504E+00  4.3272583E+01
 7.9292502E+00  4.3215706E+01
 7.9407506E+00  4.3263008E+01
 7.9522505E+00  4.3184845E+01
 7.9637504E+00  4.3159260E+01
 7.9752502E+00  4.3002304E+01
 7.9867506E+00  4.3023136E+01
 7.9982505E+00  4.3006916E+01
 8.0097504E+00  4.3035778E+01
 8.0212507E+00  4.3018642E+01
 8.0327501E+00  4.2992329E+01
 8.0442505E+00  4.2887142E+01
 8.0557508E+00  4.2793919E+01
 8.0672503E+00  4.2699467E+01
 8.0787506E+00  4.2609360E+01
 8.0902500E+00  4.2519196E+01
 8.1017504E+00  4.2390652E+01
 8.1132507E+00  4.2331757E+01
 8.1247501E+00  4.2223507E+01
 8.1362505E+00  4.2243992E+01
 8.1477509E+00  4.2178574E+01
 8.1592503E+00  4.2149635E+01
 8.1707506E+00  4.1923721E+01
 8.1822500E+00  4.1710560E+01
 8.1937504E+00  4.1573154E+01
 8.2052507E+00  4.1416138E+01
 8.2167501E+00  4.1190865E+01
 8.2282505E+00  4.0913658E+01
 8.2397509E+00  4.0720135E+01
 8.2512503E+00  4.0652184E+01
 8.2627506E+00  4.0545284E+01
 8.2742500E+00  4.0477474E+01
 8.2857504E+00  4.0449158E+01
 8.2972507E+00  4.0445278E+01
 8.3087502E+00  4.0374847E+01
 8.3202505E+00  4.0264481E+01
 8.3317509E+00  3.9986221E+01
 8.3432503E+00  3.9761887E+01
 8.3547506E+00  3.9533291E+01
 8.3662500E+00  3.9422298E+01
 8.3777504E+00  3.9390461E+01
 8.3892508E+00  3.9290230E+01
 8.4007502E+00  3.9154465E+01
 8.4122505E+00  3.9021881E+01
 8.4237509E+00  3.8780487E+01
 8.4352503E+00  3.8615807E+01
 8.4467506E+00  3.8382862E+01
 8.4582500E+00  3.8223946E+01
 8.4697504E+00  3.8089745E+01
 8.4812508E+00  3.7912804E+01
 8.4927502E+00  3.7742901E+01
 8.5042505E+00  3.7544884E+01
 8.5157509E+00  3.7396027E+01
 8.5272503E+00  3.7243362E+01
 8.5387506E+00  3.7117622E+01
 8.5502501E+00  3.6858837E+01
 8.5617504E+00  3.6641361E+01
 8.5732508E+00  3.6445377E+01
 8.5847502E+00  3.6274410E+01
 8.5962505E+00  3.6199814E+01
 8.6077509E+00  3.6054020E+01
 8.6192503E+00  3.5957607E+01
 8.6307507E+00  3.5778629E+01
 8.6422501E+00  3.5612263E+01
 8.6537504E+00  3.5417534E+01
 8.6652508E+00  3.5215130E+01
 8.6767502E+00  3.4967613E+01
 8.6882505E+00  3.4813171E+01
 8.6997509E+00  3.4733173E+01
 8.7112503E+00  3.4601955E+01
 8.7227507E+00  3.4422836E+01
 8.7342501E+00  3.4164810E+01
 8.7457504E+00  3.3952782E+01
 8.7572508E+00  3.3745224E+01
 8.7687502E+00  3.3603371E+01
 8.7802505E+00  3.3496136E+01
 8.7917500E+00  3.3357452E+01
 8.8032503E+00  3.3200329E+01
 8.8147507E+00  3.3094032E+01
 8.8262501E+00  3.2931507E+01
 8.8377504E+00  3.2745640E+01
 8.8492508E+00  3.2538578E+01
 8.8607502E+00  3.2387127E+01
 8.8722506E+00  3.2253059E+01
 8.8837500E+00  3.2039509E+01
 8.8952503E+00  3.1855719E+01
 8.9067507E+00  3.1693455E+01
 8.9182501E+00  3.1525410E+01
 8.9297504E+00  3.1343582E+01
 8.9412508E+00  3.1207329E+01
 8.9527502E+00  3.1066904E+01
 8.9642506E+00  3.0987837E+01
 8.9757500E+00  3.0850042E+01
 8.9872503E+00  3.0744061E+01
 8.9987507E+00  3.0563007E+01
 9.0102501E+00  3.0377548E+01
 9.0217505E+00  3.0182461E+01
 9.0332508E+00  3.0090487E+01
 9.0447502E+00  2.9949896E+01
 9.0562506E+00  2.9839346E+01
 9.0677500E+00  2.9671812E+01
 9.0792503E+00  2.9580547E+01
 9.0907507E+00  2.9489040E+01
 9.1022501E+00  2.9419048E+01
 9.1137505E+00  2.9288952E+01
 9.1252508E+00  2.9158501E+01
 9.1367502E+00  2.9019938E+01
 9.1482506E+00  2.8967918E+01
 9.1597500E+00  2.8926178E+01
 9.1712503E+00  2.8908722E+01
 9.1827507E+00  2.8837446E+01
 9.1942501E+00  2.8754387E+01
 9.2057505E+00  2.8594971E+01
 9.2172508E+00  2.8441532E+01
 9.2287502E+00  2.8263500E+01
 9.2402506E+00  2.8159630E+01
 9.2517500E+00  2.7979843E+01
 9.2632504E+00  2.7846174E+01
 9.2747507E+00  2.7700907E+01
 9.2862501E+00  2.7648022E+01
 9.2977505E+00  2.7613314E+01
 9.3092508E+00  2.7516165E+01
 9.3207502E+00  2.7429464E+01
 9.3322506E+00  2.7359240E+01
 9.3437500E+00  2.7214598E+01
 9.3552504E+00  2.7156239E+01
 9.3667507E+00  2.7069365E+01
 9.3782501E+00  2.7083113E+01
 9.3897505E+00  2.7023870E+01
 9.4012508E+00  2.6974874E+01
 9.4127502E+00  2.6899055E+01
 9.4242506E+00  2.6761877E+01
 9.4357500E+00  2.6589428E+01
 9.4472504E+00  2.6442947E+01
 9.4587507E+00  2.6386040E+01
 9.4702501E+00  2.6380917E+01
 9.4817505E+00  2.6485577E+01
 9.4932508E+00  2.6498056E+01
 9.5047503E+00  2.6496374E+01
 9.5162506E+00  2.6472198E+01
 9.5277500E+00  2.6446556E+01
 9.5392504E+00  2.6399385E+01
 9.5507507E+00  2.6288097E+01
 9.5622501E+00  2.6201534E+01
 9.5737505E+00  2.6055954E+01
 9.5852509E+00  2.5928431E+01
 9.5967503E+00  2.5903444E+01
 9.6082506E+00  2.5882404E+01
 9.6197500E+00  2.5927252E+01
 9.6312504E+00  2.5826292E+01
 9.6427507E+00  2.5710228E+01
 9.6542501E+00  2.5571117E+01
 9.6657505E+00  2.5448139E+01
 9.6772509E+00  2.5334312E+01
 9.6887503E+00  2.5242609E+01
 9.7002506E+00  2.5172153E+01
 9.7117500E+00  2.5205034E+01
 9.7232504E+00  2.5182371E+01
 9.7347507E+00  2.5201065E+01
 9.7462502E+00  2.5197174E+01
 9.7577505E+00  2.5133253E+01
 9.7692509E+00  2.5044895E+01
 9.7807503E+00  2.4951574E+01
 9.7922506E+00  2.4983795E+01
 9.8037500E+00  2.4982117E+01
 9.8152504E+00  2.4963678E+01
 9.8267508E+00  2.4821716E+01
 9.8382502E+00  2.4686274E+01
 9.8497505E+00  2.4560867E+01
 9.8612509E+00  2.4494761E+01
 9.8727503E+00  2.4448187E+01
 9.8842506E+00  2.4399632E+01
 9.8957500E+00  2.4405535E+01
 9.9072504E+00  2.4373804E+01
 9.9187508E+00  2.4397209E+01
 9.9302502E+00  2.4321911E+01
 9.9417505E+00  2.4313021E+01
 9.9532509E+00  2.4279594E+01
 9.9647503E+00  2.4261482E+01
 9.9762506E+00  2.4252878E+01
 9.9877501E+00  2.4221380E+01
 9.9992504E+00  2.4186012E+01
 1.0010751E+01  2.4125153E+01
 1.0022250E+01  2.4060232E+01
 1.0033751E+01  2.3991703E+01
 1.0045251E+01  2.3947737E+01
 1.0056750E+01  2.3940327E+01
 1.0068251E+01  2.3931936E+01
 1.0079750E+01  2.3873434E+01
 1.0091250E+01  2.3830809E+01
 1.0102751E+01  2.3821049E+01
 1.0114250E+01  2.3895672E+01
 1.0125751E+01  2.3950207E+01
 1.0137251E+01  2.3927753E+01
 1.0148750E+01  2.3895334E+01
 1.0160251E+01  2.3873096E+01
 1.0171750E+01  2.3825172E+01
 1.0183250E+01  2.3802486E+01
 1.0194751E+01  2.3733332E+01
 1.0206250E+01  2.3735682E+01
 1.0217751E+01  2.3704636E+01
 1.0229251E+01  2.3646976E+01
 1.0240750E+01  2.3539558E+01
 1.0252251E+01  2.3481161E+01
 1.0263750E+01  2.3447542E+01
 1.0275250E+01  2.3563305E+01
 1.0286751E+01  2.3605663E+01
 1.0298250E+01  2.3678175E+01
 1.0309751E+01  2.3674757E+01
 1.0321251E+01  2.3635286E+01
 1.0332750E+01  2.3565474E+01
 1.0344251E+01  2.3483023E+01
 1.0355750E+01  2.3392006E+01
 1.0367250E+01  2.3301008E+01
 1.0378751E+01  2.3268463E+01
 1.0390250E+01  2.3351866E+01
 1.0401751E+01  2.3421917E+01
 1.0413251E+01  2.3443272E+01
 1.0424750E+01  2.3358356E+01
 1.0436251E+01  2.3282169E+01
 1.0447750E+01  2.3209684E+01
 1.0459250E+01  2.3167831E+01
 1.0470751E+01  2.3173891E+01
 1.0482250E+01  2.3197245E+01
 1.0493751E+01  2.3213451E+01
 1.0505251E+01  2.3241703E+01
 1.0516750E+01  2.3191111E+01
 1.0528251E+01  2.3109678E+01
 1.0539750E+01  2.3021826E+01
 1.0551250E+01  2.2998007E+01
 1.0562751E+01  2.3016228E+01
 1.0574250E+01  2.3031740E+01
 1.0585751E+01  2.2991798E+01
 1.0597251E+01  2.2981768E+01
 1.0608750E+01  2.2939726E+01
 1.0620251E+01  2.2999809E+01
 1.0631750E+01  2.3049456E+01
 1.0643250E+01  2.3107248E+01
 1.0654751E+01  2.3108469E+01
 1.0666250E+01  2.3079168E+01
 1.0677751E+01  2.3008345E+01
 1.0689251E+01  2.2968369E+01
 1.0700750E+01  2.2931637E+01
 1.0712251E+01  2.2911728E+01
 1.0723750E+01  2.2864809E+01
 1.0735250E+01  2.2822025E+01
 1.0746751E+01  2.2795454E+01
 1.0758250E+01  2.2807945E+01
 1.0769751E+01  2.2783964E+01
 1.0781251E+01  2.2815922E+01
 1.0792750E+01  2.2783384E+01
 1.0804251E+01  2.2757437E+01
 1.0815750E+01  2.2697126E+01
 1.0827250E+01  2.2698061E+01
 1.0838751E+01  2.2724268E+01
 1.0850250E+01  2.2732418E+01
 1.0861751E+01  2.2700872E+01
 1.0873251E+01  2.2674534E+01
 1.0884750E+01  2.2582840E+01
 1.0896251E+01  2.2574898E+01
 1.0907750E+01  2.2599766E+01
 1.0919250E+01  2.2627745E+01
 1.0930751E+01  2.2604460E+01
 1.0942250E+01  2.2529295E+01
 1.0953751E+01  2.2557371E+01
 1.0965251E+01  2.2511452E+01
 1.0976750E+01  2.2502811E+01
 1.0988251E+01  2.2457003E+01
 1.0999750E+01  2.2458504E+01
 1.1011250E+01  2.2490755E+01
 1.1022751E+01  2.2473995E+01
 1.1034250E+01  2.2484135E+01
 1.1045751E+01  2.2411165E+01
 1.1057251E+01  2.2363884E+01
 1.1068750E+01  2.2346464E+01
 1.1080251E+01  2.2352093E+01
 1.1091750E+01  2.2372770E+01
 1.1103251E+01  2.2384239E+01
 1.1114751E+01  2.2420958E+01
 1.1126250E+01  2.2461761E+01
 1.1137751E+01  2.2416311E+01
 1.1149251E+01  2.2456995E+01
 1.1160750E+01  2.2427437E+01
 1.1172251E+01  2.2418999E+01
 1.1183750E+01  2.2317518E+01
 1.1195251E+01  2.2319921E+01
 1.1206751E+01  2.2364801E+01
 1.1218250E+01  2.2378077E+01
 1.1229751E+01  2.2345081E+01
 1.1241251E+01  2.2334324E+01
 1.1252750E+01  2.2389565E+01
 1.1264251E+01  2.2435953E+01
 1.1275750E+01  2.2507895E+01
 1.1287251E+01  2.2480070E+01
 1.1298751E+01  2.2500284E+01
 1.1310250E+01  2.2450207E+01
 1.1321751E+01  2.2464933E+01
 1.1333251E+01  2.2466440E+01
 1.1344750E+01  2.2453133E+01
 1.1356251E+01  2.2462307E+01
 1.1367750E+01  2.2498987E+01
 1.1379251E+01  2.2568985E+01
 1.1390751E+01  2.2618992E+01
 1.1402250E+01  2.2800222E+01
 1.1413751E+01  2.2831635E+01
 1.1425251E+01  2.2853851E+01
 1.1436750E+01  2.2825432E+01
 1.1448251E+01  2.2877871E+01
 1.1459750E+01  2.2919683E+01
 1.1471251E+01  2.2891428E+01
 1.1482751E+01  2.2921144E+01
 1.1494250E+01  2.2969791E+01
 1.1505751E+01  2.2989609E+01
 1.1517251E+01  2.3148510E+01
 1.1528750E+01  2.3547739E+01
 1.1540251E+01  2.3935566E+01
 1.1551750E+01  2.5037340E+01
 1.1563251E+01  2.5890877E+01
 1.1574751E+01  2.7044390E+01
 1.1586250E+01  2.8923779E+01
 1.1597751E+01  2.9226231E+01
 1.1609251E+01  2.9116083E+01
 1.1620750E+01  2.7650000E+01
 1.1632251E+01  2.6554783E+01
 1.1643750E+01  2.5602184E+01
 1.1655251E+01  2.4203014E+01
 1.1666751E+01  2.3732437E+01
 1.1678250E+01  2.3174482E+01
 1.1689751E+01  2.2831051E+01
 1.1701251E+01  2.2704775E+01
 1.1712750E+01  2.2639860E+01
 1.1724251E+01  2.2619171E+01
 1.1735750E+01  2.2615128E+01
 1.1747251E+01  2.2533436E+01
 1.1758751E+01  2.2515625E+01
 1.1770250E+01  2.2516870E+01
 1.1781751E+01  2.2635271E+01
 1.1793251E+01  2.2688881E+01
 1.1804750E+01  2.2789516E+01
 1.1816251E+01  2.2792679E+01
 1.1827750E+01  2.2756786E+01
 1.1839251E+01  2.2679632E+01
 1.1850751E+01  2.2594944E+01
 1.1862250E+01  2.2547020E+01
 1.1873751E+01  2.2513718E+01
 1.1885251E+01  2.2519960E+01
 1.1896750E+01  2.2591951E+01
 1.1908251E+01  2.2693457E+01
 1.1919750E+01  2.2800474E+01
 1.1931251E+01  2.2972076E+01
 1.1942751E+01  2.3169807E+01
 1.1954250E+01  2.3433893E+01
 1.1965751E+01  2.3623693E+01
 1.1977251E+01  2.3861961E+01
 1.1988750E+01  2.3970505E+01
 1.2000251E+01  2.3960947E+01
 1.2011750E+01  2.3794197E+01
 1.2023251E+01  2.3681328E+01
 1.2034751E+01  2.3579296E+01
 1.2046250E+01  2.3694889E+01
 1.2057751E+01  2.3834202E+01
 1.2069251E+01  2.4332050E+01
 1.2080750E+01  2.4750811E+01
 1.2092251E+01  2.5266258E+01
 1.2103750E+01  2.5389376E+01
 1.2115251E+01  2.5396147E+01
 1.2126751E+01  2.5123535E+01
 1.2138250E+01  2.4814646E+01
 1.2149751E+01  2.4250036E+01
 1.2161251E+01  2.3789015E+01
 1.2172750E+01  2.3341393E+01
 1.2184251E+01  2.3090647E+01
 1.2195750E+01  2.2896208E+01
 1.2207251E+01  2.2736126E+01
 1.2218751E+01  2.2644720E+01
 1.2230250E+01  2.2533001E+01
 1.2241751E+01  2.2498510E+01
 1.2253251E+01  2.2538750E+01
 1.2264750E+01  2.2611097E+01
 1.2276251E+01  2.2632168E+01
 1.2287750E+01  2.2627762E+01
 1.2299251E+01  2.2598965E+01
 1.2310751E+01  2.2612661E+01
 1.2322250E+01  2.2530119E+01
 1.2333751E+01  2.2557150E+01
 1.2345250E+01  2.2579384E+01
 1.2356750E+01  2.2587954E+01
 1.2368251E+01  2.2582985E+01
 1.2379750E+01  2.2527668E+01
 1.2391251E+01  2.2593657E+01
 1.2402751E+01  2.2580843E+01
 1.2414250E+01  2.2600964E+01
 1.2425751E+01  2.2612923E+01
 1.2437250E+01  2.2598125E+01
 1.2448750E+01  2.2610201E+01
 1.2460251E+01  2.2577377E+01
 1.2471750E+01  2.2577448E+01
 1.2483251E+01  2.2561876E+01
 1.2494751E+01  2.2558147E+01
 1.2506250E+01  2.2562662E+01
 1.2517751E+01  2.2594267E+01
 1.2529250E+01  2.2679455E+01
 1.2540751E+01  2.2717699E+01
 1.2552251E+01  2.2775032E+01
 1.2563750E+01  2.2729616E+01
 1.2575251E+01  2.2740131E+01
 1.2586751E+01  2.2748402E+01
 1.2598250E+01  2.2786240E+01
 1.2609751E+01  2.2793211E+01
 1.2621250E+01  2.2804611E+01
 1.2632751E+01  2.2846478E+01
 1.2644251E+01  2.2832510E+01
 1.2655750E+01  2.2831812E+01
 1.2667251E+01  2.2774702E+01
 1.2678751E+01  2.2799120E+01
 1.2690250E+01  2.2737894E+01
 1.2701751E+01  2.2738983E+01
 1.2713250E+01  2.2744080E+01
 1.2724751E+01  2.2787409E+01
 1.2736251E+01  2.2794285E+01
 1.2747750E+01  2.2765079E+01
 1.2759251E+01  2.2781660E+01
 1.2770751E+01  2.2768093E+01
 1.2782250E+01  2.2850067E+01
 1.2793751E+01  2.2890341E+01
 1.2805250E+01  2.2990988E+01
 1.2816751E+01  2.3100559E+01
 1.2828251E+01  2.3134403E+01
 1.2839750E+01  2.3159048E+01
 1.2851251E+01  2.3153231E+01
 1.2862751E+01  2.3200119E+01
 1.2874250E+01  2.3206547E+01
 1.2885751E+01  2.3235664E+01
 1.2897250E+01  2.3247738E+01
 1.2908751E+01  2.3329906E+01
 1.2920251E+01  2.3384729E+01
 1.2931750E+01  2.3502880E+01
 1.2943251E+01  2.3591576E+01
 1.2954751E+01  2.3659798E+01
 1.2966250E+01  2.3677443E+01
 1.2977751E+01  2.3727005E+01
 1.2989250E+01  2.3789007E+01
 1.3000751E+01  2.3916168E+01
 1.3012251E+01  2.3969267E+01
 1.3023750E+01  2.4010479E+01
 1.3035251E+01  2.4052940E+01
 1.3046751E+01  2.4162289E+01
 1.3058250E+01  2.4274981E+01
 1.3069751E+01  2.4376978E+01
 1.3081250E+01  2.4473173E+01
 1.3092751E+01  2.4602335E+01
 1.3104251E+01  2.4739246E+01
 1.3115750E+01  2.4880182E+01
 1.3127251E+01  2.4995529E+01
 1.3138751E+01  2.5086508E+01
 1.3150250E+01  2.5307173E+01
 1.3161751E+01  2.5479410E+01
 1.3173250E+01  2.5647358E+01
 1.3184751E+01  2.5769213E+01
 1.3196251E+01  2.5870649E+01
 1.3207750E+01  2.6004307E+01
 1.3219251E+01  2.6117754E+01
 1.3230751E+01  2.6210024E+01
 1.3242250E+01  2.6316580E+01
 1.3253751E+01  2.6285332E+01
 1.3265250E+01  2.6356289E+01
 1.3276751E+01  2.6440531E+01
 1.3288251E+01  2.6641130E+01
 1.3299750E+01  2.6831717E+01
 1.3311251E+01  2.6957956E+01
 1.3322751E+01  2.7071447E+01
 1.3334250E+01  2.7236418E+01
 1.3345751E+01  2.7372494E+01
 1.3357250E+01  2.7564703E+01
 1.3368751E+01  2.7674557E+01
 1.3380251E+01  2.7854746E+01
 1.3391750E+01  2.7950863E+01
 1.3403251E+01  2.8079561E+01
 1.3414751E+01  2.8219736E+01
 1.3426250E+01  2.8330788E+01
 1.3437751E+01  2.8459526E+01
 1.3449250E+01  2.8581610E+01
 1.3460751E+01  2.8750420E+01
 1.3472251E+01  2.8854425E+01
 1.3483750E+01  2.8907013E+01
 1.3495251E+01  2.8893988E+01
 1.3506751E+01  2.8979521E+01
 1.3518250E+01  2.9066370E+01
 1.3529751E+01  2.9203331E+01
 1.3541250E+01  2.9260807E+01
 1.3552751E+01  2.9345388E+01
 1.3564251E+01  2.9422226E+01
 1.3575750E+01  2.9504845E+01
 1.3587251E+01  2.9515574E+01
 1.3598751E+01  2.9509169E+01
 1.3610250E+01  2.9478491E+01
 1.3621751E+01  2.9450754E+01
 1.3633250E+01  2.9418629E+01
 1.3644751E+01  2.9411699E+01
 1.3656251E+01  2.9449102E+01
 1.3667750E+01  2.9486053E+01
 1.3679251E+01  2.9475183E+01
 1.3690751E+01  2.9462341E+01
 1.3702250E+01  2.9428215E+01
 1.3713751E+01  2.9444876E+01
 1.3725250E+01  2.9443617E+01
 1.3736751E+01  2.9416801E+01
 1.3748251E+01  2.9366385E+01
 1.3759750E+01  2.9286469E+01
 1.3771251E+01  2.9263845E+01
 1.3782751E+01  2.9222963E+01
 1.3794250E+01  2.9260324E+01
 1.3805751E+01  2.9256529E+01
 1.3817250E+01  2.9237074E+01
 1.3828751E+01  2.9243361E+01
 1.3840251E+01  2.9277832E+01
 1.3851750E+01  2.9375992E+01
 1.3863251E+01  2.9598576E+01
 1.3874751E+01  2.9928024E+01
 1.3886250E+01  3.0609053E+01
 1.3897751E+01  3.1827911E+01
 1.3909250E+01  3.3026096E+01
 1.3920751E+01  3.4621094E+01
 1.3932251E+01  3.6187012E+01
 1.3943750E+01  3.7320896E+01
 1.3955251E+01  3.7819946E+01
 1.3966751E+01  3.7146702E+01
 1.3978251E+01  3.6138443E+01
 1.3989751E+01  3.4160965E+01
 1.4001250E+01  3.2480877E+01
 1.4012751E+01  3.0834558E+01
 1.4024251E+01  2.9657995E+01
 1.4035750E+01  2.8791800E+01
 1.4047251E+01  2.8235003E+01
 1.4058751E+01  2.7907255E+01
 1.4070251E+01  2.7681583E+01
 1.4081751E+01  2.7483551E+01
 1.4093250E+01  2.7408604E+01
 1.4104751E+01  2.7315521E+01
 1.4116251E+01  2.7226393E+01
 1.4127750E+01  2.7143991E+01
 1.4139251E+01  2.7092119E+01
 1.4150751E+01  2.6999687E+01
 1.4162251E+01  2.6879791E+01
 1.4173751E+01  2.6738615E+01
 1.4185250E+01  2.6655960E+01
 1.4196751E+01  2.6610252E+01
 1.4208251E+01  2.6595539E+01
 1.4219750E+01  2.6616726E+01
 1.4231251E+01  2.6516989E+01
 1.4242751E+01  2.6436773E+01
 1.4254251E+01  2.6354063E+01
 1.4265751E+01  2.6356979E+01
 1.4277250E+01  2.6297400E+01
 1.4288751E+01  2.6240257E+01
 1.4300251E+01  2.6196970E+01
 1.4311750E+01  2.6202332E+01
 1.4323251E+01  2.6118727E+01
 1.4334751E+01  2.6085096E+01
 1.4346251E+01  2.6065880E+01
 1.4357751E+01  2.6117014E+01
 1.4369250E+01  2.6103384E+01
 1.4380751E+01  2.6100380E+01
 1.4392251E+01  2.6036106E+01
 1.4403750E+01  2.5950535E+01
 1.4415251E+01  2.5850912E+01
 1.4426751E+01  2.5752132E+01
 1.4438251E+01  2.5718721E+01
 1.4449751E+01  2.5700531E+01
 1.4461250E+01  2.5710699E+01
 1.4472751E+01  2.5706335E+01
 1.4484251E+01  2.5740091E+01
 1.4495750E+01  2.5764030E+01
 1.4507251E+01  2.5746241E+01
 1.4518751E+01  2.5657242E+01
 1.4530251E+01  2.5611700E+01
 1.4541751E+01  2.5547407E+01
 1.4553250E+01  2.5519220E+01
 1.4564751E+01  2.5452597E+01
 1.4576251E+01  2.5381800E+01
 1.4587750E+01  2.5297085E+01
 1.4599251E+01  2.5198420E+01
 1.4610751E+01  2.5179804E+01
 1.4622251E+01  2.5197989E+01
 1.4633751E+01  2.5192888E+01
 1.4645250E+01  2.5153812E+01
 1.4656751E+01  2.5137152E+01
 1.4668251E+01  2.5117445E+01
 1.4679750E+01  2.5103601E+01
 1.4691251E+01  2.5056208E+01
 1.4702751E+01  2.5075041E+01
 1.4714251E+01  2.5098713E+01
 1.4725751E+01  2.5124371E+01
 1.4737250E+01  2.5183661E+01
 1.4748751E+01  2.5198471E+01
 1.4760251E+01  2.5217554E+01
 1.4771750E+01  2.5206812E+01
 1.4783251E+01  2.5174397E+01
 1.4794751E+01  2.5158854E+01
 1.4806251E+01  2.5078480E+01
 1.4817751E+01  2.5061401E+01
 1.4829250E+01  2.5044466E+01
 1.4840751E+01  2.5066217E+01
 1.4852251E+01  2.5093889E+01
 1.4863750E+01  2.5076805E+01
 1.4875251E+01  2.5006617E+01
 1.4886751E+01  2.4915028E+01
 1.4898251E+01  2.4926441E+01
 1.4909751E+01  2.4949505E+01
 1.4921250E+01  2.4953663E+01
 1.4932751E+01  2.4867920E+01
 1.4944251E+01  2.4835978E+01
 1.4955750E+01  2.4814945E+01
 1.4967251E+01  2.4794872E+01
 1.4978751E+01  2.4766479E+01
 1.4990251E+01  2.4732071E+01
 1.5001751E+01  2.4769945E+01
 1.5013250E+01  2.4806036E+01
 1.5024751E+01  2.4859295E+01
 1.5036251E+01  2.4850790E+01
 1.5047750E+01  2.4857117E+01
 1.5059251E+01  2.4848324E+01
 1.5070751E+01  2.4854952E+01
 1.5082251E+01  2.4797613E+01
 1.5093751E+01  2.4811260E+01
 1.5105250E+01  2.4869234E+01
 1.5116751E+01  2.5008297E+01
 1.5128251E+01  2.5128227E+01
 1.5139750E+01  2.5410631E+01
 1.5151251E+01  2.5840019E+01
 1.5162751E+01  2.6248129E+01
 1.5174251E+01  2.7160185E+01
 1.5185751E+01  2.7571409E+01
 1.5197250E+01  2.7902845E+01
 1.5208751E+01  2.7919991E+01
 1.5220251E+01  2.7580648E+01
 1.5231750E+01  2.7125366E+01
 1.5243251E+01  2.6231670E+01
 1.5254751E+01  2.5864447E+01
 1.5266251E+01  2.5295593E+01
 1.5277751E+01  2.5040255E+01
 1.5289250E+01  2.4888437E+01
 1.5300751E+01  2.4825001E+01
 1.5312251E+01  2.4754391E+01
 1.5323750E+01  2.4730654E+01
 1.5335251E+01  2.4712950E+01
 1.5346751E+01  2.4698183E+01
 1.5358251E+01  2.4655840E+01
 1.5369751E+01  2.4568508E+01
 1.5381250E+01  2.4486225E+01
 1.5392751E+01  2.4443134E+01
 1.5404251E+01  2.4432671E+01
 1.5415751E+01  2.4416952E+01
 1.5427251E+01  2.4406183E+01
 1.5438751E+01  2.4412424E+01
 1.5450251E+01  2.4448238E+01
 1.5461751E+01  2.4512787E+01
 1.5473250E+01  2.4514078E+01
 1.5484751E+01  2.4505568E+01
 1.5496251E+01  2.4468220E+01
 1.5507751E+01  2.4463028E+01
 1.5519251E+01  2.4444778E+01
 1.5530751E+01  2.4446894E+01
 1.5542251E+01  2.4459206E+01
 1.5553751E+01  2.4468866E+01
 1.5565250E+01  2.4490398E+01
 1.5576751E+01  2.4485723E+01
 1.5588251E+01  2.4474302E+01
 1.5599751E+01  2.4428711E+01
 1.5611251E+01  2.4387529E+01
 1.5622751E+01  2.4357985E+01
 1.5634251E+01  2.4343155E+01
 1.5645751E+01  2.4457237E+01
 1.5657250E+01  2.4550749E+01
 1.5668751E+01  2.4612291E+01
 1.5680251E+01  2.4566383E+01
 1.5691751E+01  2.4532492E+01
 1.5703251E+01  2.4538637E+01
 1.5714751E+01  2.4511898E+01
 1.5726251E+01  2.4497124E+01
 1.5737751E+01  2.4452740E+01
 1.5749250E+01  2.4439505E+01
 1.5760751E+01  2.4427618E+01
 1.5772251E+01  2.4421957E+01
 1.5783751E+01  2.4422348E+01
 1.5795251E+01  2.4436237E+01
 1.5806751E+01  2.4515478E+01
 1.5818251E+01  2.4519794E+01
 1.5829751E+01  2.4527534E+01
 1.5841250E+01  2.4464388E+01
 1.5852751E+01  2.4501608E+01
 1.5864251E+01  2.4497538E+01
 1.5875751E+01  2.4565815E+01
 1.5887251E+01  2.4643780E+01
 1.5898750E+01  2.4727209E+01
 1.5910251E+01  2.4782574E+01
 1.5921751E+01  2.4747721E+01
 1.5933250E+01  2.4712585E+01
 1.5944751E+01  2.4608799E+01
 1.5956251E+01  2.4569902E+01
 1.5967751E+01  2.4588737E+01
 1.5979251E+01  2.4616251E+01
 1.5990750E+01  2.4643351E+01
 1.6002251E+01  2.4582005E+01
 1.6013750E+01  2.4548786E+01
 1.6025251E+01  2.4520695E+01
 1.6036751E+01  2.4584000E+01
 1.6048250E+01  2.4638020E+01
 1.6059752E+01  2.4661263E+01
 1.6071251E+01  2.4589176E+01
 1.6082750E+01  2.4610407E+01
 1.6094252E+01  2.4616430E+01
 1.6105751E+01  2.4703150E+01
 1.6117250E+01  2.4719009E+01
 1.6128750E+01  2.4690865E+01
 1.6140251E+01  2.4716808E+01
 1.6151751E+01  2.4694265E+01
 1.6163250E+01  2.4771814E+01
 1.6174751E+01  2.4731361E+01
 1.6186251E+01  2.4865841E+01
 1.6197750E+01  2.4852953E+01
 1.6209251E+01  2.5087015E+01
 1.6220751E+01  2.5122776E+01
 1.6232250E+01  2.5394859E+01
 1.6243752E+01  2.5505939E+01
 1.6255251E+01  2.5666397E+01
 1.6266750E+01  2.5845013E+01
 1.6278252E+01  2.5623549E+01
 1.6289751E+01  2.5742228E+01
 1.6301250E+01  2.5280388E+01
 1.6312750E+01  2.5429796E+01
 1.6324251E+01  2.5014481E+01
 1.6335751E+01  2.5000750E+01
 1.6347250E+01  2.4745361E+01
 1.6358751E+01  2.4686224E+01
 1.6370251E+01  2.4622206E+01
 1.6381750E+01  2.4579605E+01
 1.6393251E+01  2.4571810E+01
 1.6404751E+01  2.4552811E+01
 1.6416250E+01  2.4587147E+01
 1.6427752E+01  2.4615429E+01
 1.6439251E+01  2.4640144E+01
 1.6450750E+01  2.4667519E+01
 1.6462252E+01  2.4664089E+01
 1.6473751E+01  2.4641260E+01
 1.6485250E+01  2.4631638E+01
 1.6496750E+01  2.4646967E+01
 1.6508251E+01  2.4654837E+01
 1.6519751E+01  2.4614773E+01
 1.6531250E+01  2.4575798E+01
 1.6542751E+01  2.4552898E+01
 1.6554251E+01  2.4528969E+01
 1.6565750E+01  2.4529257E+01
 1.6577251E+01  2.4510891E+01
 1.6588751E+01  2.4529398E+01
 1.6600250E+01  2.4518124E+01
 1.6611752E+01  2.4521233E+01
 1.6623251E+01  2.4428843E+01
 1.6634750E+01  2.4432903E+01
 1.6646252E+01  2.4418335E+01
 1.6657751E+01  2.4489105E+01
 1.6669250E+01  2.4506479E+01
 1.6680750E+01  2.4537424E+01
 1.6692251E+01  2.4571098E+01
 1.6703751E+01  2.4533257E+01
 1.6715250E+01  2.4508684E+01
 1.6726751E+01  2.4451977E+01
 1.6738251E+01  2.4394417E+01
 1.6749750E+01  2.4424063E+01
 1.6761251E+01  2.4376434E+01
 1.6772751E+01  2.4421659E+01
 1.6784250E+01  2.4412804E+01
 1.6795752E+01  2.4452480E+01
 1.6807251E+01  2.4453760E+01
 1.6818750E+01  2.4421883E+01
 1.6830252E+01  2.4410654E+01
 1.6841751E+01  2.4361956E+01
 1.6853251E+01  2.4337252E+01
 1.6864750E+01  2.4300220E+01
 1.6876251E+01  2.4266823E+01
 1.6887751E+01  2.4289133E+01
 1.6899250E+01  2.4306658E+01
 1.6910751E+01  2.4341007E+01
 1.6922251E+01  2.4332510E+01
 1.6933750E+01  2.4325336E+01
 1.6945251E+01  2.4332851E+01
 1.6956751E+01  2.4305420E+01
 1.6968250E+01  2.4343676E+01
 1.6979752E+01  2.4315641E+01
 1.6991251E+01  2.4320015E+01
 1.7002750E+01  2.4272324E+01
 1.7014252E+01  2.4277540E+01
 1.7025751E+01  2.4263617E+01
 1.7037251E+01  2.4250111E+01
 1.7048750E+01  2.4238506E+01
 1.7060251E+01  2.4203577E+01
 1.7071751E+01  2.4211262E+01
 1.7083250E+01  2.4218073E+01
 1.7094751E+01  2.4236736E+01
 1.7106251E+01  2.4222094E+01
 1.7117750E+01  2.4166317E+01
 1.7129251E+01  2.4165047E+01
 1.7140751E+01  2.4160698E+01
 1.7152250E+01  2.4186735E+01
 1.7163752E+01  2.4188145E+01
 1.7175251E+01  2.4179125E+01
 1.7186750E+01  2.4132282E+01
 1.7198252E+01  2.4083626E+01
 1.7209751E+01  2.4044527E+01
 1.7221251E+01  2.4024158E+01
 1.7232750E+01  2.4060585E+01
 1.7244251E+01  2.4090912E+01
 1.7255751E+01  2.4068747E+01
 1.7267250E+01  2.4021294E+01
 1.7278751E+01  2.4006680E+01
 1.7290251E+01  2.4075312E+01
 1.7301750E+01  2.4146013E+01
 1.7313251E+01  2.4156918E+01
 1.7324751E+01  2.4108913E+01
 1.7336250E+01  2.4063658E+01
 1.7347752E+01  2.4032873E+01
 1.7359251E+01  2.3987040E+01
 1.7370750E+01  2.3917574E+01
 1.7382252E+01  2.3916744E+01
 1.7393751E+01  2.3940634E+01
 1.7405251E+01  2.4027821E+01
 1.7416750E+01  2.4055122E+01
 1.7428251E+01  2.4036812E+01
 1.7439751E+01  2.4021357E+01
 1.7451250E+01  2.4019070E+01
 1.7462751E+01  2.4016479E+01
 1.7474251E+01  2.3952456E+01
 1.7485750E+01  2.3974337E+01
 1.7497252E+01  2.3944880E+01
 1.7508751E+01  2.3907101E+01
 1.7520250E+01  2.3843098E+01
 1.7531752E+01  2.3812302E+01
 1.7543251E+01  2.3860487E+01
 1.7554750E+01  2.3830637E+01
 1.7566252E+01  2.3844841E+01
 1.7577751E+01  2.3841930E+01
 1.7589251E+01  2.3839252E+01
 1.7600750E+01  2.3856764E+01
 1.7612251E+01  2.3842354E+01
 1.7623751E+01  2.3867453E+01
 1.7635250E+01  2.3835188E+01
 1.7646751E+01  2.3830551E+01
 1.7658251E+01  2.3819668E+01
 1.7669750E+01  2.3807608E+01
 1.7681252E+01  2.3795877E+01
 1.7692751E+01  2.3793663E+01
 1.7704250E+01  2.3801191E+01
 1.7715752E+01  2.3815285E+01
 1.7727251E+01  2.3799032E+01
 1.7738750E+01  2.3740599E+01
 1.7750252E+01  2.3697851E+01
 1.7761751E+01  2.3667664E+01
 1.7773251E+01  2.3703167E+01
 1.7784750E+01  2.3713800E+01
 1.7796251E+01  2.3744352E+01
 1.7807751E+01  2.3691566E+01
 1.7819250E+01  2.3694521E+01
 1.7830751E+01  2.3691090E+01
 1.7842251E+01  2.3771942E+01
 1.7853750E+01  2.3799503E+01
 1.7865252E+01  2.3827116E+01
 1.7876751E+01  2.3797274E+01
 1.7888250E+01  2.3784134E+01
 1.7899752E+01  2.3794392E+01
 1.7911251E+01  2.3851934E+01
 1.7922750E+01  2.3923920E+01
 1.7934252E+01  2.3974815E+01
 1.7945751E+01  2.3985199E+01
 1.7957251E+01  2.4020506E+01
 1.7968750E+01  2.4038292E+01
 1.7980251E+01  2.4095621E+01
 1.7991751E+01  2.4186274E+01
 1.8003250E+01  2.4364910E+01
 1.8014751E+01  2.4568718E+01
 1.8026251E+01  2.4776743E+01
 1.8037750E+01  2.4995129E+01
 1.8049252E+01  2.5259821E+01
 1.8060751E+01  2.5532936E+01
 1.8072250E+01  2.5747162E+01
 1.8083752E+01  2.5979506E+01
 1.8095251E+01  2.6211180E+01
 1.8106750E+01  2.6233768E+01
 1.8118252E+01  2.6125538E+01
 1.8129751E+01  2.5873621E+01
 1.8141251E+01  2.5487722E+01
 1.8152750E+01  2.4955973E+01
 1.8164251E+01  2.4536423E+01
 1.8175751E+01  2.4285429E+01
 1.8187250E+01  2.4031929E+01
 1.8198751E+01  2.3881498E+01
 1.8210251E+01  2.3784019E+01
 1.8221750E+01  2.3720343E+01
 1.8233252E+01  2.3649645E+01
 1.8244751E+01  2.3644527E+01
 1.8256250E+01  2.3643818E+01
 1.8267752E+01  2.3643261E+01
 1.8279251E+01  2.3656208E+01
 1.8290751E+01  2.3642338E+01
 1.8302252E+01  2.3627153E+01
 1.8313751E+01  2.3632374E+01
 1.8325251E+01  2.3645414E+01
 1.8336750E+01  2.3681572E+01
 1.8348251E+01  2.3694435E+01
 1.8359751E+01  2.3686548E+01
 1.8371250E+01  2.3622656E+01
 1.8382751E+01  2.3606979E+01
 1.8394251E+01  2.3645580E+01
 1.8405750E+01  2.3669464E+01
 1.8417252E+01  2.3670105E+01
 1.8428751E+01  2.3581278E+01
 1.8440250E+01  2.3561785E+01
 1.8451752E+01  2.3534716E+01
 1.8463251E+01  2.3575665E+01
 1.8474751E+01  2.3612495E+01
 1.8486252E+01  2.3682091E+01
 1.8497751E+01  2.3732990E+01
 1.8509251E+01  2.3718885E+01
 1.8520750E+01  2.3674681E+01
 1.8532251E+01  2.3600191E+01
 1.8543751E+01  2.3570532E+01
 1.8555250E+01  2.3563936E+01
 1.8566751E+01  2.3541359E+01
 1.8578251E+01  2.3565485E+01
 1.8589750E+01  2.3585310E+01
 1.8601252E+01  2.3627552E+01
 1.8612751E+01  2.3571991E+01
 1.8624250E+01  2.3570065E+01
 1.8635752E+01  2.3558931E+01
 1.8647251E+01  2.3518961E+01
 1.8658751E+01  2.3460974E+01
 1.8670252E+01  2.3449665E+01
 1.8681751E+01  2.3449692E+01
 1.8693251E+01  2.3490379E+01
 1.8704750E+01  2.3483067E+01
 1.8716251E+01  2.3495583E+01
 1.8727751E+01  2.3477381E+01
 1.8739250E+01  2.3462639E+01
 1.8750751E+01  2.3466530E+01
 1.8762251E+01  2.3484644E+01
 1.8773750E+01  2.3476583E+01
 1.8785252E+01  2.3509722E+01
 1.8796751E+01  2.3534336E+01
 1.8808250E+01  2.3578011E+01
 1.8819752E+01  2.3574615E+01
 1.8831251E+01  2.3535490E+01
 1.8842751E+01  2.3521807E+01
 1.8854252E+01  2.3447447E+01
 1.8865751E+01  2.3450247E+01
 1.8877251E+01  2.3429487E+01
 1.8888750E+01  2.3467529E+01
 1.8900251E+01  2.3515520E+01
 1.8911751E+01  2.3561697E+01
 1.8923250E+01  2.3601086E+01
 1.8934752E+01  2.3583155E+01
 1.8946251E+01  2.3609440E+01
 1.8957750E+01  2.3596275E+01
 1.8969252E+01  2.3563791E+01
 1.8980751E+01  2.3517471E+01
 1.8992250E+01  2.3499699E+01
 1.9003752E+01  2.3499376E+01
 1.9015251E+01  2.3537777E+01
 1.9026751E+01  2.3584650E+01
 1.9038252E+01  2.3578150E+01
 1.9049751E+01  2.3521362E+01
 1.9061251E+01  2.3499235E+01
 1.9072750E+01  2.3527378E+01
 1.9084251E+01  2.3535917E+01
 1.9095751E+01  2.3533188E+01
 1.9107250E+01  2.3519512E+01
 1.9118752E+01  2.3442087E+01
 1.9130251E+01  2.3451742E+01
 1.9141750E+01  2.3475498E+01
 1.9153252E+01  2.3552704E+01
 1.9164751E+01  2.3506395E+01
 1.9176250E+01  2.3519154E+01
 1.9187752E+01  2.3498617E+01
 1.9199251E+01  2.3502964E+01
 1.9210751E+01  2.3491465E+01
 1.9222252E+01  2.3527586E+01
 1.9233751E+01  2.3526424E+01
 1.9245251E+01  2.3552998E+01
 1.9256750E+01  2.3567743E+01
 1.9268251E+01  2.3575073E+01
 1.9279751E+01  2.3531858E+01
 1.9291250E+01  2.3552319E+01
 1.9302752E+01  2.3565552E+01
 1.9314251E+01  2.3570131E+01
 1.9325750E+01  2.3619810E+01
 1.9337252E+01  2.3669214E+01
 1.9348751E+01  2.3670929E+01
 1.9360250E+01  2.3615585E+01
 1.9371752E+01  2.3613503E+01
 1.9383251E+01  2.3628973E+01
 1.9394751E+01  2.3695356E+01
 1.9406250E+01  2.3672121E+01
 1.9417751E+01  2.3678877E+01
 1.9429251E+01  2.3652533E+01
 1.9440750E+01  2.3656349E+01
 1.9452251E+01  2.3657949E+01
 1.9463751E+01  2.3666130E+01
 1.9475250E+01  2.3671808E+01
 1.9486752E+01  2.3653381E+01
 1.9498251E+01  2.3651310E+01
 1.9509750E+01  2.3686689E+01
 1.9521252E+01  2.3734888E+01
 1.9532751E+01  2.3812178E+01
 1.9544250E+01  2.3908546E+01
 1.9555752E+01  2.3927702E+01
 1.9567251E+01  2.3924225E+01
 1.9578751E+01  2.3956785E+01
 1.9590250E+01  2.3978453E+01
 1.9601751E+01  2.4037321E+01
 1.9613251E+01  2.4130398E+01
 1.9624750E+01  2.4294180E+01
 1.9636251E+01  2.4570707E+01
 1.9647751E+01  2.5010059E+01
 1.9659250E+01  2.5639381E+01
 1.9670752E+01  2.6681667E+01
 1.9682251E+01  2.7532602E+01
 1.9693750E+01  2.8362850E+01
 1.9705252E+01  2.8509027E+01
 1.9716751E+01  2.8457575E+01
 1.9728251E+01  2.7812796E+01
 1.9739752E+01  2.7053522E+01
 1.9751251E+01  2.6423235E+01
 1.9762751E+01  2.5886833E+01
 1.9774250E+01  2.5580826E+01
 1.9785751E+01  2.5484810E+01
 1.9797251E+01  2.5860449E+01
 1.9808750E+01  2.6290792E+01
 1.9820251E+01  2.7423178E+01
 1.9831751E+01  2.8510889E+01
 1.9843250E+01  2.9112370E+01
 1.9854752E+01  2.9287411E+01
 1.9866251E+01  2.8858896E+01
 1.9877750E+01  2.8470074E+01
 1.9889252E+01  2.7440407E+01
 1.9900751E+01  2.6863216E+01
 1.9912251E+01  2.5980944E+01
 1.9923752E+01  2.5254101E+01
 1.9935251E+01  2.4789005E+01
 1.9946751E+01  2.4356983E+01
 1.9958250E+01  2.4186502E+01
 1.9969751E+01  2.4103132E+01
 1.9981251E+01  2.4043507E+01
 1.9992750E+01  2.4002007E+01
 2.0004251E+01  2.3966579E+01
 2.0015751E+01  2.3959743E+01
 2.0027250E+01  2.3953518E+01
 2.0038752E+01  2.3947796E+01
 2.0050251E+01  2.3966274E+01
 2.0061750E+01  2.3922964E+01
 2.0073252E+01  2.3911476E+01
 2.0084751E+01  2.3891552E+01
 2.0096251E+01  2.3901482E+01
 2.0107752E+01  2.3836744E+01
 2.0119251E+01  2.3793564E+01
 2.0130751E+01  2.3753075E+01
 2.0142250E+01  2.3777723E+01
 2.0153751E+01  2.3799568E+01
 2.0165251E+01  2.3819912E+01
 2.0176750E+01  2.3811417E+01
 2.0188251E+01  2.3861958E+01
 2.0199751E+01  2.3864645E+01
 2.0211250E+01  2.3837101E+01
 2.0222752E+01  2.3795898E+01
 2.0234251E+01  2.3804937E+01
 2.0245750E+01  2.3777178E+01
 2.0257252E+01  2.3721869E+01
 2.0268751E+01  2.3677305E+01
 2.0280251E+01  2.3722296E+01
 2.0291752E+01  2.3803316E+01
 2.0303251E+01  2.3834326E+01
 2.0314751E+01  2.3831617E+01
 2.0326250E+01  2.3844524E+01
 2.0337751E+01  2.3869646E+01
 2.0349251E+01  2.3833939E+01
 2.0360750E+01  2.3827164E+01
 2.0372252E+01  2.3801870E+01
 2.0383751E+01  2.3800159E+01
 2.0395250E+01  2.3805216E+01
 2.0406752E+01  2.3840986E+01
 2.0418251E+01  2.3903587E+01
 2.0429750E+01  2.3920897E+01
 2.0441252E+01  2.3894232E+01
 2.0452751E+01  2.3870060E+01
 2.0464251E+01  2.3858236E+01
 2.0475752E+01  2.3824617E+01
 2.0487251E+01  2.3799509E+01
 2.0498751E+01  2.3827030E+01
 2.0510250E+01  2.3804134E+01
 2.0521751E+01  2.3795874E+01
 2.0533251E+01  2.3752050E+01
 2.0544750E+01  2.3766027E+01
 2.0556252E+01  2.3817940E+01
 2.0567751E+01  2.3842136E+01
 2.0579250E+01  2.3843449E+01
 2.0590752E+01  2.3854029E+01
 2.0602251E+01  2.3882204E+01
 2.0613750E+01  2.3904852E+01
 2.0625252E+01  2.3952988E+01
 2.0636751E+01  2.4011707E+01
 2.0648251E+01  2.4057310E+01
 2.0659752E+01  2.4115252E+01
 2.0671251E+01  2.4251385E+01
 2.0682751E+01  2.4436008E+01
 2.0694250E+01  2.4737673E+01
 2.0705751E+01  2.5179380E+01
 2.0717251E+01  2.5629246E+01
 2.0728750E+01  2.6143677E+01
 2.0740252E+01  2.6547188E+01
 2.0751751E+01  2.6752192E+01
 2.0763250E+01  2.6781738E+01
 2.0774752E+01  2.6541000E+01
 2.0786251E+01  2.6266462E+01
 2.0797750E+01  2.5772007E+01
 2.0809252E+01  2.5354271E+01
 2.0820751E+01  2.4895407E+01
 2.0832251E+01  2.4562326E+01
 2.0843752E+01  2.4336987E+01
 2.0855251E+01  2.4239136E+01
 2.0866751E+01  2.4216808E+01
 2.0878250E+01  2.4186543E+01
 2.0889751E+01  2.4136267E+01
 2.0901251E+01  2.4096329E+01
 2.0912750E+01  2.4094349E+01
 2.0924252E+01  2.4105589E+01
 2.0935751E+01  2.4145567E+01
 2.0947250E+01  2.4142990E+01
 2.0958752E+01  2.4086246E+01
 2.0970251E+01  2.4014879E+01
 2.0981750E+01  2.3967613E+01
 2.0993252E+01  2.3974171E+01
 2.1004751E+01  2.3975965E+01
 2.1016251E+01  2.3972099E+01
 2.1027752E+01  2.3979975E+01
 2.1039251E+01  2.3978746E+01
 2.1050751E+01  2.3979647E+01
 2.1062250E+01  2.3972982E+01
 2.1073751E+01  2.3999832E+01
 2.1085251E+01  2.4042570E+01
 2.1096750E+01  2.4036888E+01
 2.1108252E+01  2.4041359E+01
 2.1119751E+01  2.4031982E+01
 2.1131250E+01  2.4023705E+01
 2.1142752E+01  2.3968552E+01
 2.1154251E+01  2.3909616E+01
 2.1165751E+01  2.3919081E+01
 2.1177252E+01  2.3944130E+01
 2.1188751E+01  2.3945063E+01
 2.1200251E+01  2.3896763E+01
 2.1211752E+01  2.3885313E+01
 2.1223251E+01  2.3908730E+01
 2.1234751E+01  2.3930614E+01
 2.1246250E+01  2.3952192E+01
 2.1257751E+01  2.3957640E+01
 2.1269251E+01  2.3949795E+01
 2.1280750E+01  2.3929338E+01
 2.1292252E+01  2.3890024E+01
 2.1303751E+01  2.3868696E+01
 2.1315250E+01  2.3820734E+01
 2.1326752E+01  2.3828087E+01
 2.1338251E+01  2.3837643E+01
 2.1349751E+01  2.3871223E+01
 2.1361252E+01  2.3927139E+01
 2.1372751E+01  2.3924879E+01
 2.1384251E+01  2.3898239E+01
 2.1395752E+01  2.3854498E+01
 2.1407251E+01  2.3825771E+01
 2.1418751E+01  2.3843039E+01
 2.1430250E+01  2.3842123E+01
 2.1441751E+01  2.3841049E+01
 2.1453251E+01  2.3826496E+01
 2.1464750E+01  2.3834818E+01
 2.1476252E+01  2.3823214E+01
 2.1487751E+01  2.3854601E+01
 2.1499250E+01  2.3910982E+01
 2.1510752E+01  2.3947540E+01
 2.1522251E+01  2.3975540E+01
 2.1533751E+01  2.3968899E+01
 2.1545252E+01  2.3988499E+01
 2.1556751E+01  2.3984993E+01
 2.1568251E+01  2.3989162E+01
 2.1579752E+01  2.4018501E+01
 2.1591251E+01  2.4083847E+01
 2.1602751E+01  2.4154367E+01
 2.1614250E+01  2.4137814E+01
 2.1625751E+01  2.4120005E+01
 2.1637251E+01  2.4093094E+01
 2.1648750E+01  2.4046394E+01
 2.1660252E+01  2.4019878E+01
 2.1671751E+01  2.3995596E+01
 2.1683250E+01  2.3994497E+01
 2.1694752E+01  2.4004044E+01
 2.1706251E+01  2.4058338E+01
 2.1717751E+01  2.4086697E+01
 2.1729252E+01  2.4128052E+01
 2.1740751E+01  2.4166605E+01
 2.1752251E+01  2.4105854E+01
 2.1763752E+01  2.4062870E+01
 2.1775251E+01  2.4052355E+01
 2.1786751E+01  2.4091516E+01
 2.1798250E+01  2.4108679E+01
 2.1809752E+01  2.4090969E+01
 2.1821251E+01  2.4098522E+01
 2.1832750E+01  2.4060881E+01
 2.1844252E+01  2.4119070E+01
 2.1855751E+01  2.4193352E+01
 2.1867250E+01  2.4264399E+01
 2.1878752E+01  2.4324692E+01
 2.1890251E+01  2.4382927E+01
 2.1901751E+01  2.4392309E+01
 2.1913252E+01  2.4309175E+01
 2.1924751E+01  2.4201204E+01
 2.1936251E+01  2.4131990E+01
 2.1947752E+01  2.4092974E+01
 2.1959251E+01  2.4074181E+01
 2.1970751E+01  2.4065454E+01
 2.1982250E+01  2.4092817E+01
 2.1993752E+01  2.4113224E+01
 2.2005251E+01  2.4143045E+01
 2.2016750E+01  2.4160170E+01
 2.2028252E+01  2.4238453E+01
 2.2039751E+01  2.4257851E+01
 2.2051250E+01  2.4250635E+01
 2.2062752E+01  2.4229506E+01
 2.2074251E+01  2.4237144E+01
 2.2085751E+01  2.4263731E+01
 2.2097252E+01  2.4237383E+01
 2.2108751E+01  2.4276978E+01
 2.2120251E+01  2.4324829E+01
 2.2131752E+01  2.4353371E+01
 2.2143251E+01  2.4351946E+01
 2.2154751E+01  2.4304213E+01
 2.2166250E+01  2.4294174E+01
 2.2177752E+01  2.4284119E+01
 2.2189251E+01  2.4319244E+01
 2.2200750E+01  2.4349705E+01
 2.2212252E+01  2.4375889E+01
 2.2223751E+01  2.4384665E+01
 2.2235250E+01  2.4357250E+01
 2.2246752E+01  2.4392536E+01
 2.2258251E+01  2.4425501E+01
 2.2269751E+01  2.4475761E+01
 2.2281252E+01  2.4522324E+01
 2.2292751E+01  2.4534430E+01
 2.2304251E+01  2.4548155E+01
 2.2315752E+01  2.4502069E+01
 2.2327251E+01  2.4477259E+01
 2.2338751E+01  2.4423569E+01
 2.2350250E+01  2.4424782E+01
 2.2361752E+01  2.4442434E+01
 2.2373251E+01  2.4485415E+01
 2.2384750E+01  2.4524567E+01
 2.2396252E+01  2.4537220E+01
 2.2407751E+01  2.4519079E+01
 2.2419250E+01  2.4541981E+01
 2.2430752E+01  2.4589735E+01
 2.2442251E+01  2.4641239E+01
 2.2453751E+01  2.4665951E+01
 2.2465252E+01  2.4660389E+01
 2.2476751E+01  2.4598417E+01
 2.2488251E+01  2.4614178E+01
 2.2499752E+01  2.4661915E+01
 2.2511251E+01  2.4758503E+01
 2.2522751E+01  2.4775137E+01
 2.2534250E+01  2.4856401E+01
 2.2545752E+01  2.4925375E+01
 2.2557251E+01  2.4934515E+01
 2.2568750E+01  2.4849524E+01
 2.2580252E+01  2.4820026E+01
 2.2591751E+01  2.4827913E+01
 2.2603251E+01  2.4885036E+01
 2.2614752E+01  2.4953999E+01
 2.2626251E+01  2.5013332E+01
 2.2637751E+01  2.4991652E+01
 2.2649252E+01  2.5012632E+01
 2.2660751E+01  2.5010130E+01
 2.2672251E+01  2.5059715E+01
 2.2683752E+01  2.5086071E+01
 2.2695251E+01  2.5156052E+01
 2.2706751E+01  2.5177698E+01
 2.2718250E+01  2.5207901E+01
 2.2729752E+01  2.5244797E+01
 2.2741251E+01  2.5238878E+01
 2.2752750E+01  2.5308395E+01
 2.2764252E+01  2.5366732E+01
 2.2775751E+01  2.5361649E+01
 2.2787251E+01  2.5325813E+01
 2.2798752E+01  2.5367168E+01
 2.2810251E+01  2.5423172E+01
 2.2821751E+01  2.5406364E+01
 2.2833252E+01  2.5458437E+01
 2.2844751E+01  2.5526709E+01
 2.2856251E+01  2.5612068E+01
 2.2867750E+01  2.5663567E+01
 2.2879251E+01  2.5705832E+01
 2.2890751E+01  2.5779758E+01
 2.2902250E+01  2.5789270E+01
 2.2913752E+01  2.5870203E+01
 2.2925251E+01  2.5930172E+01
 2.2936750E+01  2.5991348E+01
 2.2948252E+01  2.6080660E+01
 2.2959751E+01  2.6236666E+01
 2.2971251E+01  2.6456240E+01
 2.2982752E+01  2.6556280E+01
 2.2994251E+01  2.6661140E+01
