F:\20151113_APS_34IDE\\Brian\Particle1\OCV\Data_0036.tif
2-Theta Angle (Degrees)
Intensity
       2000
 5.7500005E-03  0.0000000E+00
 1.7250001E-02  0.0000000E+00
 2.8750001E-02  0.0000000E+00
 4.0250003E-02  0.0000000E+00
 5.1750004E-02  0.0000000E+00
 6.3250005E-02  0.0000000E+00
 7.4750006E-02  0.0000000E+00
 8.6250007E-02  0.0000000E+00
 9.7750008E-02  0.0000000E+00
 1.0925001E-01  0.0000000E+00
 1.2075000E-01  0.0000000E+00
 1.3225001E-01  0.0000000E+00
 1.4375001E-01  0.0000000E+00
 1.5525001E-01  0.0000000E+00
 1.6675001E-01  0.0000000E+00
 1.7825001E-01  0.0000000E+00
 1.8975002E-01  0.0000000E+00
 2.0125002E-01  0.0000000E+00
 2.1275002E-01  0.0000000E+00
 2.2425000E-01  0.0000000E+00
 2.3575000E-01  0.0000000E+00
 2.4725001E-01  0.0000000E+00
 2.5875002E-01  0.0000000E+00
 2.7025002E-01  0.0000000E+00
 2.8175002E-01  0.0000000E+00
 2.9325002E-01  0.0000000E+00
 3.0475003E-01  0.0000000E+00
 3.1625003E-01  0.0000000E+00
 3.2775003E-01  0.0000000E+00
 3.3925003E-01  0.0000000E+00
 3.5075003E-01  0.0000000E+00
 3.6225003E-01  0.0000000E+00
 3.7375003E-01  0.0000000E+00
 3.8525003E-01  0.0000000E+00
 3.9675003E-01  0.0000000E+00
 4.0825003E-01  0.0000000E+00
 4.1975003E-01  0.0000000E+00
 4.3125004E-01  0.0000000E+00
 4.4275001E-01  0.0000000E+00
 4.5425001E-01  0.0000000E+00
 4.6575001E-01  0.0000000E+00
 4.7725001E-01  0.0000000E+00
 4.8875001E-01  0.0000000E+00
 5.0025004E-01  0.0000000E+00
 5.1175004E-01  0.0000000E+00
 5.2325004E-01  0.0000000E+00
 5.3475004E-01  0.0000000E+00
 5.4625005E-01  0.0000000E+00
 5.5775005E-01  0.0000000E+00
 5.6925005E-01  0.0000000E+00
 5.8075005E-01  0.0000000E+00
 5.9225005E-01  0.0000000E+00
 6.0375005E-01  0.0000000E+00
 6.1525005E-01  0.0000000E+00
 6.2675005E-01  0.0000000E+00
 6.3825005E-01  0.0000000E+00
 6.4975005E-01  0.0000000E+00
 6.6125005E-01  0.0000000E+00
 6.7275006E-01  0.0000000E+00
 6.8425006E-01  0.0000000E+00
 6.9575006E-01  0.0000000E+00
 7.0725006E-01  0.0000000E+00
 7.1875006E-01  0.0000000E+00
 7.3025006E-01  0.0000000E+00
 7.4175006E-01  0.0000000E+00
 7.5325006E-01  0.0000000E+00
 7.6475006E-01  0.0000000E+00
 7.7625006E-01  0.0000000E+00
 7.8775007E-01  0.0000000E+00
 7.9925007E-01  0.0000000E+00
 8.1075007E-01  0.0000000E+00
 8.2225007E-01  0.0000000E+00
 8.3375007E-01  0.0000000E+00
 8.4525007E-01  0.0000000E+00
 8.5675007E-01  0.0000000E+00
 8.6825007E-01  0.0000000E+00
 8.7975001E-01  0.0000000E+00
 8.9125001E-01  0.0000000E+00
 9.0275002E-01  0.0000000E+00
 9.1425002E-01  0.0000000E+00
 9.2575002E-01  0.0000000E+00
 9.3725002E-01  0.0000000E+00
 9.4875002E-01  0.0000000E+00
 9.6025002E-01  0.0000000E+00
 9.7175002E-01  0.0000000E+00
 9.8325002E-01  0.0000000E+00
 9.9475002E-01  0.0000000E+00
 1.0062500E+00  0.0000000E+00
 1.0177500E+00  0.0000000E+00
 1.0292500E+00  0.0000000E+00
 1.0407500E+00  0.0000000E+00
 1.0522500E+00  0.0000000E+00
 1.0637500E+00  0.0000000E+00
 1.0752500E+00  0.0000000E+00
 1.0867500E+00  0.0000000E+00
 1.0982500E+00  0.0000000E+00
 1.1097500E+00  0.0000000E+00
 1.1212500E+00  0.0000000E+00
 1.1327500E+00  0.0000000E+00
 1.1442500E+00  0.0000000E+00
 1.1557500E+00  0.0000000E+00
 1.1672500E+00  0.0000000E+00
 1.1787500E+00  0.0000000E+00
 1.1902500E+00  0.0000000E+00
 1.2017500E+00  0.0000000E+00
 1.2132500E+00  0.0000000E+00
 1.2247500E+00  0.0000000E+00
 1.2362500E+00  0.0000000E+00
 1.2477500E+00  0.0000000E+00
 1.2592500E+00  0.0000000E+00
 1.2707500E+00  0.0000000E+00
 1.2822500E+00  0.0000000E+00
 1.2937500E+00  0.0000000E+00
 1.3052500E+00  0.0000000E+00
 1.3167500E+00  0.0000000E+00
 1.3282501E+00  0.0000000E+00
 1.3397501E+00  0.0000000E+00
 1.3512501E+00  0.0000000E+00
 1.3627501E+00  0.0000000E+00
 1.3742501E+00  0.0000000E+00
 1.3857501E+00  0.0000000E+00
 1.3972501E+00  0.0000000E+00
 1.4087501E+00  0.0000000E+00
 1.4202501E+00  0.0000000E+00
 1.4317501E+00  0.0000000E+00
 1.4432501E+00  0.0000000E+00
 1.4547501E+00  0.0000000E+00
 1.4662501E+00  0.0000000E+00
 1.4777501E+00  0.0000000E+00
 1.4892501E+00  0.0000000E+00
 1.5007501E+00  0.0000000E+00
 1.5122501E+00  0.0000000E+00
 1.5237501E+00  0.0000000E+00
 1.5352501E+00  0.0000000E+00
 1.5467501E+00  0.0000000E+00
 1.5582501E+00  0.0000000E+00
 1.5697501E+00  0.0000000E+00
 1.5812501E+00  0.0000000E+00
 1.5927501E+00  0.0000000E+00
 1.6042501E+00  0.0000000E+00
 1.6157501E+00  0.0000000E+00
 1.6272501E+00  0.0000000E+00
 1.6387501E+00  0.0000000E+00
 1.6502501E+00  0.0000000E+00
 1.6617501E+00  0.0000000E+00
 1.6732501E+00  0.0000000E+00
 1.6847501E+00  0.0000000E+00
 1.6962501E+00  0.0000000E+00
 1.7077501E+00  0.0000000E+00
 1.7192501E+00  0.0000000E+00
 1.7307501E+00  0.0000000E+00
 1.7422501E+00  0.0000000E+00
 1.7537501E+00  0.0000000E+00
 1.7652501E+00  0.0000000E+00
 1.7767501E+00  0.0000000E+00
 1.7882501E+00  0.0000000E+00
 1.7997501E+00  0.0000000E+00
 1.8112501E+00  0.0000000E+00
 1.8227501E+00  0.0000000E+00
 1.8342501E+00  0.0000000E+00
 1.8457501E+00  0.0000000E+00
 1.8572501E+00  0.0000000E+00
 1.8687501E+00  0.0000000E+00
 1.8802501E+00  0.0000000E+00
 1.8917501E+00  0.0000000E+00
 1.9032501E+00  0.0000000E+00
 1.9147501E+00  0.0000000E+00
 1.9262501E+00  0.0000000E+00
 1.9377501E+00  0.0000000E+00
 1.9492501E+00  0.0000000E+00
 1.9607501E+00  0.0000000E+00
 1.9722501E+00  0.0000000E+00
 1.9837501E+00  0.0000000E+00
 1.9952501E+00  0.0000000E+00
 2.0067501E+00  0.0000000E+00
 2.0182500E+00  0.0000000E+00
 2.0297501E+00  0.0000000E+00
 2.0412500E+00  0.0000000E+00
 2.0527501E+00  0.0000000E+00
 2.0642500E+00  0.0000000E+00
 2.0757501E+00  0.0000000E+00
 2.0872500E+00  0.0000000E+00
 2.0987501E+00  0.0000000E+00
 2.1102500E+00  0.0000000E+00
 2.1217501E+00  0.0000000E+00
 2.1332500E+00  0.0000000E+00
 2.1447501E+00  0.0000000E+00
 2.1562500E+00  0.0000000E+00
 2.1677501E+00  0.0000000E+00
 2.1792500E+00  0.0000000E+00
 2.1907501E+00  0.0000000E+00
 2.2022500E+00  0.0000000E+00
 2.2137501E+00  0.0000000E+00
 2.2252500E+00  0.0000000E+00
 2.2367501E+00  0.0000000E+00
 2.2482500E+00  0.0000000E+00
 2.2597501E+00  0.0000000E+00
 2.2712500E+00  0.0000000E+00
 2.2827501E+00  0.0000000E+00
 2.2942500E+00  0.0000000E+00
 2.3057501E+00  0.0000000E+00
 2.3172500E+00  0.0000000E+00
 2.3287501E+00  0.0000000E+00
 2.3402500E+00  0.0000000E+00
 2.3517501E+00  0.0000000E+00
 2.3632500E+00  0.0000000E+00
 2.3747501E+00  0.0000000E+00
 2.3862500E+00  0.0000000E+00
 2.3977501E+00  0.0000000E+00
 2.4092500E+00  0.0000000E+00
 2.4207501E+00  0.0000000E+00
 2.4322500E+00  0.0000000E+00
 2.4437501E+00  0.0000000E+00
 2.4552500E+00  0.0000000E+00
 2.4667501E+00  0.0000000E+00
 2.4782500E+00  0.0000000E+00
 2.4897501E+00  0.0000000E+00
 2.5012500E+00  0.0000000E+00
 2.5127501E+00  0.0000000E+00
 2.5242500E+00  0.0000000E+00
 2.5357502E+00  0.0000000E+00
 2.5472500E+00  0.0000000E+00
 2.5587502E+00  0.0000000E+00
 2.5702500E+00  0.0000000E+00
 2.5817502E+00  0.0000000E+00
 2.5932500E+00  0.0000000E+00
 2.6047502E+00  0.0000000E+00
 2.6162500E+00  0.0000000E+00
 2.6277502E+00  0.0000000E+00
 2.6392500E+00  0.0000000E+00
 2.6507502E+00  0.0000000E+00
 2.6622500E+00  0.0000000E+00
 2.6737502E+00  0.0000000E+00
 2.6852500E+00  0.0000000E+00
 2.6967502E+00  0.0000000E+00
 2.7082500E+00  0.0000000E+00
 2.7197502E+00  0.0000000E+00
 2.7312500E+00  0.0000000E+00
 2.7427502E+00  0.0000000E+00
 2.7542500E+00  0.0000000E+00
 2.7657502E+00  0.0000000E+00
 2.7772501E+00  0.0000000E+00
 2.7887502E+00  0.0000000E+00
 2.8002501E+00  0.0000000E+00
 2.8117502E+00  0.0000000E+00
 2.8232501E+00  3.1841721E+01
 2.8347502E+00  3.3615837E+01
 2.8462501E+00  3.4422562E+01
 2.8577502E+00  3.5070538E+01
 2.8692501E+00  3.5419312E+01
 2.8807502E+00  3.5611691E+01
 2.8922501E+00  3.5625420E+01
 2.9037502E+00  3.5274376E+01
 2.9152501E+00  3.4979534E+01
 2.9267502E+00  3.4763771E+01
 2.9382501E+00  3.4895954E+01
 2.9497502E+00  3.4967560E+01
 2.9612501E+00  3.4539463E+01
 2.9727502E+00  3.3887527E+01
 2.9842501E+00  3.3643829E+01
 2.9957502E+00  3.3954140E+01
 3.0072501E+00  3.4477879E+01
 3.0187502E+00  3.4480679E+01
 3.0302501E+00  3.4438564E+01
 3.0417502E+00  3.4580414E+01
 3.0532501E+00  3.4660610E+01
 3.0647502E+00  3.5150417E+01
 3.0762501E+00  3.5203491E+01
 3.0877502E+00  3.5390736E+01
 3.0992501E+00  3.5515877E+01
 3.1107502E+00  3.5055962E+01
 3.1222501E+00  3.5139400E+01
 3.1337502E+00  3.4863117E+01
 3.1452501E+00  3.4938869E+01
 3.1567502E+00  3.4866726E+01
 3.1682501E+00  3.4773590E+01
 3.1797502E+00  3.4852310E+01
 3.1912501E+00  3.5075138E+01
 3.2027502E+00  3.5078693E+01
 3.2142501E+00  3.5412254E+01
 3.2257502E+00  3.5471733E+01
 3.2372501E+00  3.5122131E+01
 3.2487502E+00  3.4697197E+01
 3.2602501E+00  3.4522350E+01
 3.2717502E+00  3.4074379E+01
 3.2832501E+00  3.4066830E+01
 3.2947502E+00  3.3841595E+01
 3.3062501E+00  3.4296749E+01
 3.3177502E+00  3.4279118E+01
 3.3292501E+00  3.4507610E+01
 3.3407502E+00  3.4285423E+01
 3.3522501E+00  3.4385368E+01
 3.3637502E+00  3.4272198E+01
 3.3752501E+00  3.4607929E+01
 3.3867502E+00  3.4513226E+01
 3.3982501E+00  3.4557297E+01
 3.4097502E+00  3.4371529E+01
 3.4212501E+00  3.4141666E+01
 3.4327502E+00  3.3981853E+01
 3.4442501E+00  3.3697968E+01
 3.4557502E+00  3.3759560E+01
 3.4672501E+00  3.3685291E+01
 3.4787502E+00  3.3847355E+01
 3.4902501E+00  3.4057713E+01
 3.5017502E+00  3.3934185E+01
 3.5132501E+00  3.3670776E+01
 3.5247502E+00  3.3497345E+01
 3.5362501E+00  3.3451317E+01
 3.5477502E+00  3.3467701E+01
 3.5592501E+00  3.3420078E+01
 3.5707502E+00  3.3352009E+01
 3.5822501E+00  3.3491711E+01
 3.5937502E+00  3.3423306E+01
 3.6052501E+00  3.3347992E+01
 3.6167502E+00  3.3354794E+01
 3.6282501E+00  3.3270573E+01
 3.6397502E+00  3.3133179E+01
 3.6512501E+00  3.3168358E+01
 3.6627502E+00  3.3126911E+01
 3.6742501E+00  3.3265755E+01
 3.6857502E+00  3.3307434E+01
 3.6972501E+00  3.3257488E+01
 3.7087502E+00  3.3229618E+01
 3.7202501E+00  3.2932842E+01
 3.7317502E+00  3.2983761E+01
 3.7432501E+00  3.3046082E+01
 3.7547503E+00  3.3113338E+01
 3.7662501E+00  3.3086052E+01
 3.7777503E+00  3.2922264E+01
 3.7892501E+00  3.2649677E+01
 3.8007503E+00  3.2353172E+01
 3.8122501E+00  3.2215874E+01
 3.8237503E+00  3.2069916E+01
 3.8352501E+00  3.2065113E+01
 3.8467503E+00  3.2170654E+01
 3.8582501E+00  3.2182861E+01
 3.8697503E+00  3.2152466E+01
 3.8812501E+00  3.2078037E+01
 3.8927503E+00  3.2086269E+01
 3.9042501E+00  3.2154400E+01
 3.9157503E+00  3.2189442E+01
 3.9272501E+00  3.2294907E+01
 3.9387503E+00  3.2300671E+01
 3.9502501E+00  3.2167625E+01
 3.9617503E+00  3.2055920E+01
 3.9732502E+00  3.2270947E+01
 3.9847503E+00  3.2384052E+01
 3.9962502E+00  3.2493973E+01
 4.0077500E+00  3.2517731E+01
 4.0192504E+00  3.2489388E+01
 4.0307503E+00  3.2519409E+01
 4.0422502E+00  3.2573082E+01
 4.0537500E+00  3.2476631E+01
 4.0652504E+00  3.2421780E+01
 4.0767503E+00  3.1992636E+01
 4.0882502E+00  3.2107750E+01
 4.0997500E+00  3.1916300E+01
 4.1112504E+00  3.1883236E+01
 4.1227503E+00  3.1706726E+01
 4.1342502E+00  3.1764137E+01
 4.1457500E+00  3.1870813E+01
 4.1572504E+00  3.1775455E+01
 4.1687503E+00  3.1778652E+01
 4.1802502E+00  3.1745619E+01
 4.1917500E+00  3.1904301E+01
 4.2032504E+00  3.1881081E+01
 4.2147503E+00  3.1964825E+01
 4.2262502E+00  3.1920614E+01
 4.2377501E+00  3.1890926E+01
 4.2492504E+00  3.1839245E+01
 4.2607503E+00  3.1907341E+01
 4.2722502E+00  3.1971577E+01
 4.2837501E+00  3.2041241E+01
 4.2952504E+00  3.1988096E+01
 4.3067503E+00  3.2168186E+01
 4.3182502E+00  3.2241104E+01
 4.3297501E+00  3.2427231E+01
 4.3412504E+00  3.2453159E+01
 4.3527503E+00  3.2529655E+01
 4.3642502E+00  3.2367027E+01
 4.3757501E+00  3.2115864E+01
 4.3872504E+00  3.1888601E+01
 4.3987503E+00  3.1728027E+01
 4.4102502E+00  3.1772861E+01
 4.4217501E+00  3.1778496E+01
 4.4332504E+00  3.1784542E+01
 4.4447503E+00  3.1764748E+01
 4.4562502E+00  3.1721716E+01
 4.4677501E+00  3.1812649E+01
 4.4792504E+00  3.1978241E+01
 4.4907503E+00  3.2072990E+01
 4.5022502E+00  3.2196102E+01
 4.5137501E+00  3.2236340E+01
 4.5252504E+00  3.2205200E+01
 4.5367503E+00  3.2180359E+01
 4.5482502E+00  3.2086739E+01
 4.5597501E+00  3.2127316E+01
 4.5712504E+00  3.2225948E+01
 4.5827503E+00  3.2227623E+01
 4.5942502E+00  3.2398640E+01
 4.6057501E+00  3.2329014E+01
 4.6172504E+00  3.2510242E+01
 4.6287503E+00  3.2444172E+01
 4.6402502E+00  3.2500237E+01
 4.6517501E+00  3.2370617E+01
 4.6632504E+00  3.2338760E+01
 4.6747503E+00  3.2281872E+01
 4.6862502E+00  3.2363010E+01
 4.6977501E+00  3.2426159E+01
 4.7092505E+00  3.2481236E+01
 4.7207503E+00  3.2495594E+01
 4.7322502E+00  3.2416180E+01
 4.7437501E+00  3.2485703E+01
 4.7552505E+00  3.2465691E+01
 4.7667503E+00  3.2678768E+01
 4.7782502E+00  3.2638878E+01
 4.7897501E+00  3.2630653E+01
 4.8012505E+00  3.2405468E+01
 4.8127503E+00  3.2310673E+01
 4.8242502E+00  3.2258469E+01
 4.8357501E+00  3.2205589E+01
 4.8472505E+00  3.2329445E+01
 4.8587503E+00  3.2436977E+01
 4.8702502E+00  3.2469746E+01
 4.8817501E+00  3.2460583E+01
 4.8932505E+00  3.2484119E+01
 4.9047503E+00  3.2585350E+01
 4.9162502E+00  3.2780960E+01
 4.9277501E+00  3.2759037E+01
 4.9392505E+00  3.2852455E+01
 4.9507504E+00  3.2771263E+01
 4.9622502E+00  3.2700325E+01
 4.9737501E+00  3.2734612E+01
 4.9852505E+00  3.2792713E+01
 4.9967504E+00  3.2947472E+01
 5.0082502E+00  3.3022720E+01
 5.0197501E+00  3.3159306E+01
 5.0312505E+00  3.3328800E+01
 5.0427504E+00  3.3330059E+01
 5.0542502E+00  3.3414780E+01
 5.0657501E+00  3.3266304E+01
 5.0772505E+00  3.3269436E+01
 5.0887504E+00  3.3132015E+01
 5.1002502E+00  3.3145859E+01
 5.1117501E+00  3.3126556E+01
 5.1232505E+00  3.3159225E+01
 5.1347504E+00  3.3271908E+01
 5.1462502E+00  3.3443314E+01
 5.1577501E+00  3.3585659E+01
 5.1692505E+00  3.3614639E+01
 5.1807504E+00  3.3755619E+01
 5.1922503E+00  3.3849636E+01
 5.2037501E+00  3.3850418E+01
 5.2152505E+00  3.3786617E+01
 5.2267504E+00  3.3680538E+01
 5.2382503E+00  3.3630402E+01
 5.2497501E+00  3.3549961E+01
 5.2612505E+00  3.3505138E+01
 5.2727504E+00  3.3410675E+01
 5.2842503E+00  3.3395168E+01
 5.2957501E+00  3.3456211E+01
 5.3072500E+00  3.3483917E+01
 5.3187504E+00  3.3531570E+01
 5.3302503E+00  3.3626369E+01
 5.3417501E+00  3.3653919E+01
 5.3532500E+00  3.3799896E+01
 5.3647504E+00  3.3842163E+01
 5.3762503E+00  3.4113346E+01
 5.3877501E+00  3.4295044E+01
 5.3992500E+00  3.4323204E+01
 5.4107504E+00  3.4357849E+01
 5.4222503E+00  3.4368420E+01
 5.4337502E+00  3.4345280E+01
 5.4452500E+00  3.4424316E+01
 5.4567504E+00  3.4468937E+01
 5.4682503E+00  3.4587421E+01
 5.4797502E+00  3.4646877E+01
 5.4912500E+00  3.4659908E+01
 5.5027504E+00  3.4740562E+01
 5.5142503E+00  3.4739075E+01
 5.5257502E+00  3.4741817E+01
 5.5372500E+00  3.4726192E+01
 5.5487504E+00  3.4747643E+01
 5.5602503E+00  3.4852615E+01
 5.5717502E+00  3.4963650E+01
 5.5832500E+00  3.5041916E+01
 5.5947504E+00  3.5093315E+01
 5.6062503E+00  3.5136959E+01
 5.6177502E+00  3.5051956E+01
 5.6292500E+00  3.5016479E+01
 5.6407504E+00  3.4989227E+01
 5.6522503E+00  3.5149387E+01
 5.6637502E+00  3.5343746E+01
 5.6752501E+00  3.5491581E+01
 5.6867504E+00  3.5526299E+01
 5.6982503E+00  3.5571156E+01
 5.7097502E+00  3.5531624E+01
 5.7212501E+00  3.5558216E+01
 5.7327504E+00  3.5539101E+01
 5.7442503E+00  3.5506832E+01
 5.7557502E+00  3.5509426E+01
 5.7672501E+00  3.5514591E+01
 5.7787504E+00  3.5547050E+01
 5.7902503E+00  3.5690701E+01
 5.8017502E+00  3.5778698E+01
 5.8132501E+00  3.5898663E+01
 5.8247504E+00  3.6030319E+01
 5.8362503E+00  3.6250748E+01
 5.8477502E+00  3.6505844E+01
 5.8592501E+00  3.6759308E+01
 5.8707504E+00  3.7078945E+01
 5.8822503E+00  3.7680328E+01
 5.8937502E+00  3.8190567E+01
 5.9052501E+00  3.9897587E+01
 5.9167504E+00  4.1189018E+01
 5.9282503E+00  4.6173992E+01
 5.9397502E+00  4.9588055E+01
 5.9512501E+00  5.7550041E+01
 5.9627504E+00  5.9901306E+01
 5.9742503E+00  6.8568985E+01
 5.9857502E+00  6.5233528E+01
 5.9972501E+00  6.5792679E+01
 6.0087504E+00  5.7180477E+01
 6.0202503E+00  5.2960598E+01
 6.0317502E+00  4.7015137E+01
 6.0432501E+00  4.2837311E+01
 6.0547504E+00  4.0519928E+01
 6.0662503E+00  3.9292473E+01
 6.0777502E+00  3.8236561E+01
 6.0892501E+00  3.7900791E+01
 6.1007504E+00  3.7516094E+01
 6.1122503E+00  3.7290218E+01
 6.1237502E+00  3.7139732E+01
 6.1352501E+00  3.7022873E+01
 6.1467505E+00  3.6906509E+01
 6.1582503E+00  3.6882439E+01
 6.1697502E+00  3.6918900E+01
 6.1812501E+00  3.6994347E+01
 6.1927505E+00  3.7022549E+01
 6.2042503E+00  3.7131229E+01
 6.2157502E+00  3.7152851E+01
 6.2272501E+00  3.7304016E+01
 6.2387505E+00  3.7277199E+01
 6.2502503E+00  3.7347889E+01
 6.2617502E+00  3.7393795E+01
 6.2732501E+00  3.7611130E+01
 6.2847505E+00  3.7781170E+01
 6.2962503E+00  3.7776039E+01
 6.3077502E+00  3.7784805E+01
 6.3192501E+00  3.7745937E+01
 6.3307505E+00  3.7909374E+01
 6.3422503E+00  3.7939190E+01
 6.3537502E+00  3.8052868E+01
 6.3652501E+00  3.8124432E+01
 6.3767505E+00  3.8189602E+01
 6.3882504E+00  3.8245850E+01
 6.3997502E+00  3.8257801E+01
 6.4112501E+00  3.8367809E+01
 6.4227505E+00  3.8388634E+01
 6.4342504E+00  3.8448891E+01
 6.4457502E+00  3.8537548E+01
 6.4572501E+00  3.8588249E+01
 6.4687505E+00  3.8738007E+01
 6.4802504E+00  3.8752968E+01
 6.4917502E+00  3.8936485E+01
 6.5032501E+00  3.9082897E+01
 6.5147505E+00  3.9223778E+01
 6.5262504E+00  3.9281460E+01
 6.5377502E+00  3.9319363E+01
 6.5492501E+00  3.9293392E+01
 6.5607505E+00  3.9373192E+01
 6.5722504E+00  3.9351501E+01
 6.5837502E+00  3.9468937E+01
 6.5952501E+00  3.9418339E+01
 6.6067505E+00  3.9527145E+01
 6.6182504E+00  3.9569199E+01
 6.6297503E+00  3.9709923E+01
 6.6412501E+00  3.9757618E+01
 6.6527505E+00  3.9919708E+01
 6.6642504E+00  4.0115608E+01
 6.6757503E+00  4.0240456E+01
 6.6872501E+00  4.0292850E+01
 6.6987505E+00  4.0259506E+01
 6.7102504E+00  4.0406532E+01
 6.7217503E+00  4.0485645E+01
 6.7332501E+00  4.0653751E+01
 6.7447505E+00  4.0686501E+01
 6.7562504E+00  4.0794914E+01
 6.7677503E+00  4.0776180E+01
 6.7792501E+00  4.0804970E+01
 6.7907505E+00  4.0753052E+01
 6.8022504E+00  4.0786278E+01
 6.8137503E+00  4.0991421E+01
 6.8252501E+00  4.1076996E+01
 6.8367505E+00  4.1205894E+01
 6.8482504E+00  4.1194828E+01
 6.8597503E+00  4.1383556E+01
 6.8712502E+00  4.1476871E+01
 6.8827505E+00  4.1557236E+01
 6.8942504E+00  4.1671387E+01
 6.9057503E+00  4.1772709E+01
 6.9172502E+00  4.1920723E+01
 6.9287505E+00  4.1912598E+01
 6.9402504E+00  4.2068306E+01
 6.9517503E+00  4.2270699E+01
 6.9632502E+00  4.2505478E+01
 6.9747505E+00  4.2676708E+01
 6.9862504E+00  4.2710804E+01
 6.9977503E+00  4.2639656E+01
 7.0092502E+00  4.2530624E+01
 7.0207505E+00  4.2427811E+01
 7.0322504E+00  4.2468513E+01
 7.0437503E+00  4.2458927E+01
 7.0552502E+00  4.2602161E+01
 7.0667505E+00  4.2620861E+01
 7.0782504E+00  4.2745945E+01
 7.0897503E+00  4.2782471E+01
 7.1012502E+00  4.2822815E+01
 7.1127505E+00  4.2843220E+01
 7.1242504E+00  4.2850552E+01
 7.1357503E+00  4.2880314E+01
 7.1472502E+00  4.2917603E+01
 7.1587505E+00  4.2873100E+01
 7.1702504E+00  4.2900105E+01
 7.1817503E+00  4.2878933E+01
 7.1932502E+00  4.2980125E+01
 7.2047505E+00  4.3059429E+01
 7.2162504E+00  4.3062405E+01
 7.2277503E+00  4.3146488E+01
 7.2392502E+00  4.3198830E+01
 7.2507505E+00  4.3276829E+01
 7.2622504E+00  4.3361816E+01
 7.2737503E+00  4.3449932E+01
 7.2852502E+00  4.3533192E+01
 7.2967505E+00  4.3553291E+01
 7.3082504E+00  4.3551762E+01
 7.3197503E+00  4.3631939E+01
 7.3312502E+00  4.3746555E+01
 7.3427505E+00  4.3770069E+01
 7.3542504E+00  4.3803734E+01
 7.3657503E+00  4.3875710E+01
 7.3772502E+00  4.4007282E+01
 7.3887506E+00  4.4052750E+01
 7.4002504E+00  4.4054668E+01
 7.4117503E+00  4.4163025E+01
 7.4232502E+00  4.4238014E+01
 7.4347506E+00  4.4302597E+01
 7.4462504E+00  4.4233704E+01
 7.4577503E+00  4.4133705E+01
 7.4692502E+00  4.4048416E+01
 7.4807506E+00  4.3934395E+01
 7.4922504E+00  4.3936279E+01
 7.5037503E+00  4.3900555E+01
 7.5152502E+00  4.3948734E+01
 7.5267506E+00  4.3908382E+01
 7.5382504E+00  4.3952908E+01
 7.5497503E+00  4.3864208E+01
 7.5612502E+00  4.3945396E+01
 7.5727506E+00  4.3947697E+01
 7.5842505E+00  4.4053722E+01
 7.5957503E+00  4.4076862E+01
 7.6072502E+00  4.4143391E+01
 7.6187506E+00  4.4180126E+01
 7.6302505E+00  4.4128468E+01
 7.6417503E+00  4.4146538E+01
 7.6532502E+00  4.4095875E+01
 7.6647506E+00  4.4069489E+01
 7.6762505E+00  4.3916748E+01
 7.6877503E+00  4.3839951E+01
 7.6992502E+00  4.3863461E+01
 7.7107506E+00  4.3865818E+01
 7.7222505E+00  4.3904144E+01
 7.7337503E+00  4.3968929E+01
 7.7452502E+00  4.4052353E+01
 7.7567506E+00  4.4110847E+01
 7.7682505E+00  4.4110874E+01
 7.7797503E+00  4.4144180E+01
 7.7912502E+00  4.4099236E+01
 7.8027506E+00  4.4056919E+01
 7.8142505E+00  4.3946056E+01
 7.8257504E+00  4.3922344E+01
 7.8372502E+00  4.3922432E+01
 7.8487506E+00  4.3943336E+01
 7.8602505E+00  4.3914574E+01
 7.8717504E+00  4.3747543E+01
 7.8832502E+00  4.3606155E+01
 7.8947506E+00  4.3479748E+01
 7.9062505E+00  4.3488308E+01
 7.9177504E+00  4.3521633E+01
 7.9292502E+00  4.3550755E+01
 7.9407506E+00  4.3495758E+01
 7.9522505E+00  4.3488998E+01
 7.9637504E+00  4.3546932E+01
 7.9752502E+00  4.3581135E+01
 7.9867506E+00  4.3623837E+01
 7.9982505E+00  4.3491077E+01
 8.0097504E+00  4.3415585E+01
 8.0212507E+00  4.3356136E+01
 8.0327501E+00  4.3298950E+01
 8.0442505E+00  4.3187721E+01
 8.0557508E+00  4.3045944E+01
 8.0672503E+00  4.2849960E+01
 8.0787506E+00  4.2717186E+01
 8.0902500E+00  4.2597355E+01
 8.1017504E+00  4.2499615E+01
 8.1132507E+00  4.2418781E+01
 8.1247501E+00  4.2257713E+01
 8.1362505E+00  4.2199501E+01
 8.1477509E+00  4.2133919E+01
 8.1592503E+00  4.2140469E+01
 8.1707506E+00  4.2150398E+01
 8.1822500E+00  4.2024719E+01
 8.1937504E+00  4.2012726E+01
 8.2052507E+00  4.1819389E+01
 8.2167501E+00  4.1717022E+01
 8.2282505E+00  4.1486931E+01
 8.2397509E+00  4.1335918E+01
 8.2512503E+00  4.1145916E+01
 8.2627506E+00  4.1029839E+01
 8.2742500E+00  4.0886864E+01
 8.2857504E+00  4.0772518E+01
 8.2972507E+00  4.0597420E+01
 8.3087502E+00  4.0480373E+01
 8.3202505E+00  4.0362518E+01
 8.3317509E+00  4.0138115E+01
 8.3432503E+00  3.9935738E+01
 8.3547506E+00  3.9772472E+01
 8.3662500E+00  3.9693607E+01
 8.3777504E+00  3.9590446E+01
 8.3892508E+00  3.9497299E+01
 8.4007502E+00  3.9423313E+01
 8.4122505E+00  3.9245174E+01
 8.4237509E+00  3.9110470E+01
 8.4352503E+00  3.8920280E+01
 8.4467506E+00  3.8838573E+01
 8.4582500E+00  3.8613548E+01
 8.4697504E+00  3.8495224E+01
 8.4812508E+00  3.8300823E+01
 8.4927502E+00  3.8268051E+01
 8.5042505E+00  3.8049721E+01
 8.5157509E+00  3.7888973E+01
 8.5272503E+00  3.7582230E+01
 8.5387506E+00  3.7415115E+01
 8.5502501E+00  3.7228748E+01
 8.5617504E+00  3.7112343E+01
 8.5732508E+00  3.7028755E+01
 8.5847502E+00  3.6789345E+01
 8.5962505E+00  3.6564262E+01
 8.6077509E+00  3.6238888E+01
 8.6192503E+00  3.6080269E+01
 8.6307507E+00  3.5874222E+01
 8.6422501E+00  3.5731953E+01
 8.6537504E+00  3.5501312E+01
 8.6652508E+00  3.5349697E+01
 8.6767502E+00  3.5215244E+01
 8.6882505E+00  3.5197327E+01
 8.6997509E+00  3.5183445E+01
 8.7112503E+00  3.5060715E+01
 8.7227507E+00  3.4979042E+01
 8.7342501E+00  3.4687649E+01
 8.7457504E+00  3.4442886E+01
 8.7572508E+00  3.4149673E+01
 8.7687502E+00  3.3943275E+01
 8.7802505E+00  3.3740044E+01
 8.7917500E+00  3.3590046E+01
 8.8032503E+00  3.3444267E+01
 8.8147507E+00  3.3359802E+01
 8.8262501E+00  3.3185482E+01
 8.8377504E+00  3.3002983E+01
 8.8492508E+00  3.2790199E+01
 8.8607502E+00  3.2560555E+01
 8.8722506E+00  3.2440044E+01
 8.8837500E+00  3.2352921E+01
 8.8952503E+00  3.2262951E+01
 8.9067507E+00  3.2138760E+01
 8.9182501E+00  3.1982592E+01
 8.9297504E+00  3.1777544E+01
 8.9412508E+00  3.1556997E+01
 8.9527502E+00  3.1326885E+01
 8.9642506E+00  3.1203636E+01
 8.9757500E+00  3.1002979E+01
 8.9872503E+00  3.0927498E+01
 8.9987507E+00  3.0629210E+01
 9.0102501E+00  3.0528656E+01
 9.0217505E+00  3.0276491E+01
 9.0332508E+00  3.0159498E+01
 9.0447502E+00  3.0054394E+01
 9.0562506E+00  2.9933193E+01
 9.0677500E+00  2.9899332E+01
 9.0792503E+00  2.9773458E+01
 9.0907507E+00  2.9663490E+01
 9.1022501E+00  2.9584557E+01
 9.1137505E+00  2.9488806E+01
 9.1252508E+00  2.9452112E+01
 9.1367502E+00  2.9399794E+01
 9.1482506E+00  2.9364178E+01
 9.1597500E+00  2.9288059E+01
 9.1712503E+00  2.9153212E+01
 9.1827507E+00  2.8986727E+01
 9.1942501E+00  2.8844990E+01
 9.2057505E+00  2.8692902E+01
 9.2172508E+00  2.8533749E+01
 9.2287502E+00  2.8336559E+01
 9.2402506E+00  2.8218695E+01
 9.2517500E+00  2.8069252E+01
 9.2632504E+00  2.8030502E+01
 9.2747507E+00  2.7926065E+01
 9.2862501E+00  2.7865097E+01
 9.2977505E+00  2.7820360E+01
 9.3092508E+00  2.7786276E+01
 9.3207502E+00  2.7802511E+01
 9.3322506E+00  2.7749569E+01
 9.3437500E+00  2.7672148E+01
 9.3552504E+00  2.7544369E+01
 9.3667507E+00  2.7428179E+01
 9.3782501E+00  2.7304220E+01
 9.3897505E+00  2.7213951E+01
 9.4012508E+00  2.7071684E+01
 9.4127502E+00  2.7003239E+01
 9.4242506E+00  2.6892479E+01
 9.4357500E+00  2.6838722E+01
 9.4472504E+00  2.6724531E+01
 9.4587507E+00  2.6667635E+01
 9.4702501E+00  2.6644760E+01
 9.4817505E+00  2.6621803E+01
 9.4932508E+00  2.6592710E+01
 9.5047503E+00  2.6495060E+01
 9.5162506E+00  2.6434963E+01
 9.5277500E+00  2.6316294E+01
 9.5392504E+00  2.6229471E+01
 9.5507507E+00  2.6128084E+01
 9.5622501E+00  2.6102253E+01
 9.5737505E+00  2.5999647E+01
 9.5852509E+00  2.5917692E+01
 9.5967503E+00  2.5862226E+01
 9.6082506E+00  2.5815226E+01
 9.6197500E+00  2.5800085E+01
 9.6312504E+00  2.5708744E+01
 9.6427507E+00  2.5624245E+01
 9.6542501E+00  2.5554169E+01
 9.6657505E+00  2.5524063E+01
 9.6772509E+00  2.5495150E+01
 9.6887503E+00  2.5479229E+01
 9.7002506E+00  2.5448292E+01
 9.7117500E+00  2.5448116E+01
 9.7232504E+00  2.5358391E+01
 9.7347507E+00  2.5237362E+01
 9.7462502E+00  2.5177895E+01
 9.7577505E+00  2.5136246E+01
 9.7692509E+00  2.5100254E+01
 9.7807503E+00  2.5042650E+01
 9.7922506E+00  2.5031412E+01
 9.8037500E+00  2.5051491E+01
 9.8152504E+00  2.5010166E+01
 9.8267508E+00  2.4942879E+01
 9.8382502E+00  2.4885962E+01
 9.8497505E+00  2.4809309E+01
 9.8612509E+00  2.4741488E+01
 9.8727503E+00  2.4701061E+01
 9.8842506E+00  2.4646122E+01
 9.8957500E+00  2.4648916E+01
 9.9072504E+00  2.4629105E+01
 9.9187508E+00  2.4664942E+01
 9.9302502E+00  2.4672180E+01
 9.9417505E+00  2.4611094E+01
 9.9532509E+00  2.4550875E+01
 9.9647503E+00  2.4483831E+01
 9.9762506E+00  2.4423346E+01
 9.9877501E+00  2.4383114E+01
 9.9992504E+00  2.4337914E+01
 1.0010751E+01  2.4285395E+01
 1.0022250E+01  2.4201721E+01
 1.0033751E+01  2.4124014E+01
 1.0045251E+01  2.4096558E+01
 1.0056750E+01  2.4095404E+01
 1.0068251E+01  2.4117916E+01
 1.0079750E+01  2.4090616E+01
 1.0091250E+01  2.3987083E+01
 1.0102751E+01  2.3894108E+01
 1.0114250E+01  2.3780098E+01
 1.0125751E+01  2.3774841E+01
 1.0137251E+01  2.3727192E+01
 1.0148750E+01  2.3776699E+01
 1.0160251E+01  2.3826239E+01
 1.0171750E+01  2.3846718E+01
 1.0183250E+01  2.3822584E+01
 1.0194751E+01  2.3762190E+01
 1.0206250E+01  2.3694834E+01
 1.0217751E+01  2.3658190E+01
 1.0229251E+01  2.3615974E+01
 1.0240750E+01  2.3606039E+01
 1.0252251E+01  2.3542177E+01
 1.0263750E+01  2.3540352E+01
 1.0275250E+01  2.3555592E+01
 1.0286751E+01  2.3617186E+01
 1.0298250E+01  2.3674982E+01
 1.0309751E+01  2.3651323E+01
 1.0321251E+01  2.3592161E+01
 1.0332750E+01  2.3504738E+01
 1.0344251E+01  2.3489933E+01
 1.0355750E+01  2.3519077E+01
 1.0367250E+01  2.3545090E+01
 1.0378751E+01  2.3553686E+01
 1.0390250E+01  2.3642687E+01
 1.0401751E+01  2.3656975E+01
 1.0413251E+01  2.3685156E+01
 1.0424750E+01  2.3602966E+01
 1.0436251E+01  2.3510666E+01
 1.0447750E+01  2.3411695E+01
 1.0459250E+01  2.3370413E+01
 1.0470751E+01  2.3366955E+01
 1.0482250E+01  2.3401726E+01
 1.0493751E+01  2.3398863E+01
 1.0505251E+01  2.3397310E+01
 1.0516750E+01  2.3398127E+01
 1.0528251E+01  2.3331579E+01
 1.0539750E+01  2.3293415E+01
 1.0551250E+01  2.3238195E+01
 1.0562751E+01  2.3254135E+01
 1.0574250E+01  2.3213894E+01
 1.0585751E+01  2.3213200E+01
 1.0597251E+01  2.3187387E+01
 1.0608750E+01  2.3233072E+01
 1.0620251E+01  2.3257368E+01
 1.0631750E+01  2.3258064E+01
 1.0643250E+01  2.3260447E+01
 1.0654751E+01  2.3180473E+01
 1.0666250E+01  2.3152596E+01
 1.0677751E+01  2.3074821E+01
 1.0689251E+01  2.3018396E+01
 1.0700750E+01  2.2949234E+01
 1.0712251E+01  2.2964544E+01
 1.0723750E+01  2.2981356E+01
 1.0735250E+01  2.2984842E+01
 1.0746751E+01  2.2981537E+01
 1.0758250E+01  2.2961327E+01
 1.0769751E+01  2.3001734E+01
 1.0781251E+01  2.2958813E+01
 1.0792750E+01  2.2955448E+01
 1.0804251E+01  2.2937920E+01
 1.0815750E+01  2.2932667E+01
 1.0827250E+01  2.2934067E+01
 1.0838751E+01  2.2863392E+01
 1.0850250E+01  2.2785995E+01
 1.0861751E+01  2.2793613E+01
 1.0873251E+01  2.2805271E+01
 1.0884750E+01  2.2848513E+01
 1.0896251E+01  2.2801477E+01
 1.0907750E+01  2.2803011E+01
 1.0919250E+01  2.2818167E+01
 1.0930751E+01  2.2833075E+01
 1.0942250E+01  2.2789234E+01
 1.0953751E+01  2.2795696E+01
 1.0965251E+01  2.2746981E+01
 1.0976750E+01  2.2801649E+01
 1.0988251E+01  2.2779015E+01
 1.0999750E+01  2.2803307E+01
 1.1011250E+01  2.2755922E+01
 1.1022751E+01  2.2745584E+01
 1.1034250E+01  2.2745464E+01
 1.1045751E+01  2.2695072E+01
 1.1057251E+01  2.2568098E+01
 1.1068750E+01  2.2506277E+01
 1.1080251E+01  2.2481447E+01
 1.1091750E+01  2.2527550E+01
 1.1103251E+01  2.2584251E+01
 1.1114751E+01  2.2630987E+01
 1.1126250E+01  2.2699059E+01
 1.1137751E+01  2.2699955E+01
 1.1149251E+01  2.2745150E+01
 1.1160750E+01  2.2762142E+01
 1.1172251E+01  2.2788900E+01
 1.1183750E+01  2.2803923E+01
 1.1195251E+01  2.2807171E+01
 1.1206751E+01  2.2789234E+01
 1.1218250E+01  2.2727768E+01
 1.1229751E+01  2.2654119E+01
 1.1241251E+01  2.2620621E+01
 1.1252750E+01  2.2596054E+01
 1.1264251E+01  2.2612816E+01
 1.1275750E+01  2.2643173E+01
 1.1287251E+01  2.2610241E+01
 1.1298751E+01  2.2617844E+01
 1.1310250E+01  2.2599770E+01
 1.1321751E+01  2.2612051E+01
 1.1333251E+01  2.2584768E+01
 1.1344750E+01  2.2517187E+01
 1.1356251E+01  2.2510506E+01
 1.1367750E+01  2.2551481E+01
 1.1379251E+01  2.2600204E+01
 1.1390751E+01  2.2730148E+01
 1.1402250E+01  2.2891582E+01
 1.1413751E+01  2.3030348E+01
 1.1425251E+01  2.3110750E+01
 1.1436750E+01  2.3190077E+01
 1.1448251E+01  2.3289713E+01
 1.1459750E+01  2.3418139E+01
 1.1471251E+01  2.3496416E+01
 1.1482751E+01  2.3669971E+01
 1.1494250E+01  2.3909393E+01
 1.1505751E+01  2.4306404E+01
 1.1517251E+01  2.4975582E+01
 1.1528750E+01  2.6381475E+01
 1.1540251E+01  2.8369804E+01
 1.1551750E+01  3.1200594E+01
 1.1563251E+01  3.4589584E+01
 1.1574751E+01  3.8026630E+01
 1.1586250E+01  4.0079895E+01
 1.1597751E+01  4.0605053E+01
 1.1609251E+01  3.8980114E+01
 1.1620750E+01  3.6436104E+01
 1.1632251E+01  3.3175449E+01
 1.1643750E+01  2.9949572E+01
 1.1655251E+01  2.7524204E+01
 1.1666751E+01  2.5543821E+01
 1.1678250E+01  2.4556644E+01
 1.1689751E+01  2.3807281E+01
 1.1701251E+01  2.3415098E+01
 1.1712750E+01  2.3263659E+01
 1.1724251E+01  2.3161209E+01
 1.1735750E+01  2.3096304E+01
 1.1747251E+01  2.3052614E+01
 1.1758751E+01  2.3032906E+01
 1.1770250E+01  2.2974823E+01
 1.1781751E+01  2.2930468E+01
 1.1793251E+01  2.2865355E+01
 1.1804750E+01  2.2825626E+01
 1.1816251E+01  2.2827873E+01
 1.1827750E+01  2.2785557E+01
 1.1839251E+01  2.2728718E+01
 1.1850751E+01  2.2659300E+01
 1.1862250E+01  2.2632898E+01
 1.1873751E+01  2.2687185E+01
 1.1885251E+01  2.2726389E+01
 1.1896750E+01  2.2751066E+01
 1.1908251E+01  2.2743673E+01
 1.1919750E+01  2.2808172E+01
 1.1931251E+01  2.2925020E+01
 1.1942751E+01  2.3141726E+01
 1.1954250E+01  2.3349886E+01
 1.1965751E+01  2.3720663E+01
 1.1977251E+01  2.3966555E+01
 1.1988750E+01  2.4242645E+01
 1.2000251E+01  2.4234396E+01
 1.2011750E+01  2.4315741E+01
 1.2023251E+01  2.4217354E+01
 1.2034751E+01  2.4485559E+01
 1.2046250E+01  2.4827967E+01
 1.2057751E+01  2.5541447E+01
 1.2069251E+01  2.6374718E+01
 1.2080750E+01  2.7051283E+01
 1.2092251E+01  2.7513443E+01
 1.2103750E+01  2.7239056E+01
 1.2115251E+01  2.6651663E+01
 1.2126751E+01  2.5667065E+01
 1.2138250E+01  2.4843254E+01
 1.2149751E+01  2.4101460E+01
 1.2161251E+01  2.3583647E+01
 1.2172750E+01  2.3197170E+01
 1.2184251E+01  2.3060596E+01
 1.2195750E+01  2.2950426E+01
 1.2207251E+01  2.2964605E+01
 1.2218751E+01  2.2904558E+01
 1.2230250E+01  2.2867832E+01
 1.2241751E+01  2.2745300E+01
 1.2253251E+01  2.2672016E+01
 1.2264750E+01  2.2679392E+01
 1.2276251E+01  2.2693056E+01
 1.2287750E+01  2.2742310E+01
 1.2299251E+01  2.2690062E+01
 1.2310751E+01  2.2730289E+01
 1.2322250E+01  2.2652054E+01
 1.2333751E+01  2.2667833E+01
 1.2345250E+01  2.2618544E+01
 1.2356750E+01  2.2706804E+01
 1.2368251E+01  2.2710642E+01
 1.2379750E+01  2.2749729E+01
 1.2391251E+01  2.2675533E+01
 1.2402751E+01  2.2599398E+01
 1.2414250E+01  2.2553844E+01
 1.2425751E+01  2.2515249E+01
 1.2437250E+01  2.2600090E+01
 1.2448750E+01  2.2605537E+01
 1.2460251E+01  2.2666101E+01
 1.2471750E+01  2.2692087E+01
 1.2483251E+01  2.2688801E+01
 1.2494751E+01  2.2631987E+01
 1.2506250E+01  2.2565907E+01
 1.2517751E+01  2.2573231E+01
 1.2529250E+01  2.2697111E+01
 1.2540751E+01  2.2793787E+01
 1.2552251E+01  2.2891777E+01
 1.2563750E+01  2.2890776E+01
 1.2575251E+01  2.2864182E+01
 1.2586751E+01  2.2852171E+01
 1.2598250E+01  2.2875681E+01
 1.2609751E+01  2.2955654E+01
 1.2621250E+01  2.3002623E+01
 1.2632751E+01  2.3003920E+01
 1.2644251E+01  2.2977264E+01
 1.2655750E+01  2.2973635E+01
 1.2667251E+01  2.2939983E+01
 1.2678751E+01  2.2923971E+01
 1.2690250E+01  2.2888691E+01
 1.2701751E+01  2.2924036E+01
 1.2713250E+01  2.2987555E+01
 1.2724751E+01  2.2990803E+01
 1.2736251E+01  2.2975203E+01
 1.2747750E+01  2.2955030E+01
 1.2759251E+01  2.3023691E+01
 1.2770751E+01  2.3051575E+01
 1.2782250E+01  2.3106279E+01
 1.2793751E+01  2.3132460E+01
 1.2805250E+01  2.3178213E+01
 1.2816751E+01  2.3228432E+01
 1.2828251E+01  2.3271471E+01
 1.2839750E+01  2.3302507E+01
 1.2851251E+01  2.3329533E+01
 1.2862751E+01  2.3400738E+01
 1.2874250E+01  2.3455233E+01
 1.2885751E+01  2.3529821E+01
 1.2897250E+01  2.3576115E+01
 1.2908751E+01  2.3683266E+01
 1.2920251E+01  2.3727938E+01
 1.2931750E+01  2.3805185E+01
 1.2943251E+01  2.3830383E+01
 1.2954751E+01  2.3869822E+01
 1.2966250E+01  2.3919979E+01
 1.2977751E+01  2.4028366E+01
 1.2989250E+01  2.4078531E+01
 1.3000751E+01  2.4151739E+01
 1.3012251E+01  2.4216717E+01
 1.3023750E+01  2.4306166E+01
 1.3035251E+01  2.4358051E+01
 1.3046751E+01  2.4400352E+01
 1.3058250E+01  2.4468372E+01
 1.3069751E+01  2.4481401E+01
 1.3081250E+01  2.4544935E+01
 1.3092751E+01  2.4592253E+01
 1.3104251E+01  2.4739916E+01
 1.3115750E+01  2.4877317E+01
 1.3127251E+01  2.4999750E+01
 1.3138751E+01  2.5086372E+01
 1.3150250E+01  2.5159100E+01
 1.3161751E+01  2.5289078E+01
 1.3173250E+01  2.5395800E+01
 1.3184751E+01  2.5502710E+01
 1.3196251E+01  2.5588066E+01
 1.3207750E+01  2.5750198E+01
 1.3219251E+01  2.5942369E+01
 1.3230751E+01  2.6129749E+01
 1.3242250E+01  2.6268854E+01
 1.3253751E+01  2.6395103E+01
 1.3265250E+01  2.6489498E+01
 1.3276751E+01  2.6606997E+01
 1.3288251E+01  2.6733988E+01
 1.3299750E+01  2.6883833E+01
 1.3311251E+01  2.7006617E+01
 1.3322751E+01  2.7155466E+01
 1.3334250E+01  2.7315565E+01
 1.3345751E+01  2.7512114E+01
 1.3357250E+01  2.7685341E+01
 1.3368751E+01  2.7846371E+01
 1.3380251E+01  2.8015343E+01
 1.3391750E+01  2.8154711E+01
 1.3403251E+01  2.8316286E+01
 1.3414751E+01  2.8427664E+01
 1.3426250E+01  2.8579353E+01
 1.3437751E+01  2.8713213E+01
 1.3449250E+01  2.8804155E+01
 1.3460751E+01  2.8887411E+01
 1.3472251E+01  2.8940361E+01
 1.3483750E+01  2.9064310E+01
 1.3495251E+01  2.9132915E+01
 1.3506751E+01  2.9266495E+01
 1.3518250E+01  2.9386694E+01
 1.3529751E+01  2.9532339E+01
 1.3541250E+01  2.9635082E+01
 1.3552751E+01  2.9702963E+01
 1.3564251E+01  2.9752926E+01
 1.3575750E+01  2.9748652E+01
 1.3587251E+01  2.9776794E+01
 1.3598751E+01  2.9775324E+01
 1.3610250E+01  2.9751333E+01
 1.3621751E+01  2.9730318E+01
 1.3633250E+01  2.9701328E+01
 1.3644751E+01  2.9662558E+01
 1.3656251E+01  2.9676600E+01
 1.3667750E+01  2.9745890E+01
 1.3679251E+01  2.9846436E+01
 1.3690751E+01  2.9874924E+01
 1.3702250E+01  2.9862619E+01
 1.3713751E+01  2.9870033E+01
 1.3725250E+01  2.9848032E+01
 1.3736751E+01  2.9858820E+01
 1.3748251E+01  2.9849665E+01
 1.3759750E+01  2.9812281E+01
 1.3771251E+01  2.9787453E+01
 1.3782751E+01  2.9744602E+01
 1.3794250E+01  2.9715130E+01
 1.3805751E+01  2.9743826E+01
 1.3817250E+01  2.9716845E+01
 1.3828751E+01  2.9735296E+01
 1.3840251E+01  2.9899281E+01
 1.3851750E+01  2.9943996E+01
 1.3863251E+01  3.0385408E+01
 1.3874751E+01  3.0846048E+01
 1.3886250E+01  3.1431461E+01
 1.3897751E+01  3.3470291E+01
 1.3909250E+01  3.4648109E+01
 1.3920751E+01  3.7731827E+01
 1.3932251E+01  4.0648029E+01
 1.3943750E+01  4.2876686E+01
 1.3955251E+01  4.6672009E+01
 1.3966751E+01  4.6784409E+01
 1.3978251E+01  4.6326332E+01
 1.3989751E+01  4.4812611E+01
 1.4001250E+01  4.1820797E+01
 1.4012751E+01  4.0067055E+01
 1.4024251E+01  3.6270370E+01
 1.4035750E+01  3.4486862E+01
 1.4047251E+01  3.2582424E+01
 1.4058751E+01  3.0058010E+01
 1.4070251E+01  2.9653587E+01
 1.4081751E+01  2.8668863E+01
 1.4093250E+01  2.8374321E+01
 1.4104751E+01  2.8206074E+01
 1.4116251E+01  2.7963182E+01
 1.4127750E+01  2.7824396E+01
 1.4139251E+01  2.7649828E+01
 1.4150751E+01  2.7504885E+01
 1.4162251E+01  2.7440456E+01
 1.4173751E+01  2.7288826E+01
 1.4185250E+01  2.7190584E+01
 1.4196751E+01  2.7129213E+01
 1.4208251E+01  2.7077909E+01
 1.4219750E+01  2.7069782E+01
 1.4231251E+01  2.7008533E+01
 1.4242751E+01  2.6907824E+01
 1.4254251E+01  2.6826221E+01
 1.4265751E+01  2.6705986E+01
 1.4277250E+01  2.6634405E+01
 1.4288751E+01  2.6543837E+01
 1.4300251E+01  2.6469088E+01
 1.4311750E+01  2.6395464E+01
 1.4323251E+01  2.6363600E+01
 1.4334751E+01  2.6342670E+01
 1.4346251E+01  2.6353645E+01
 1.4357751E+01  2.6319504E+01
 1.4369250E+01  2.6297579E+01
 1.4380751E+01  2.6267157E+01
 1.4392251E+01  2.6214956E+01
 1.4403750E+01  2.6193205E+01
 1.4415251E+01  2.6156635E+01
 1.4426751E+01  2.6115473E+01
 1.4438251E+01  2.6098995E+01
 1.4449751E+01  2.6059778E+01
 1.4461250E+01  2.6017143E+01
 1.4472751E+01  2.5928192E+01
 1.4484251E+01  2.5865175E+01
 1.4495750E+01  2.5848661E+01
 1.4507251E+01  2.5895588E+01
 1.4518751E+01  2.5901979E+01
 1.4530251E+01  2.5936764E+01
 1.4541751E+01  2.5875021E+01
 1.4553250E+01  2.5805519E+01
 1.4564751E+01  2.5717588E+01
 1.4576251E+01  2.5682081E+01
 1.4587750E+01  2.5660503E+01
 1.4599251E+01  2.5641994E+01
 1.4610751E+01  2.5591705E+01
 1.4622251E+01  2.5512506E+01
 1.4633751E+01  2.5375425E+01
 1.4645250E+01  2.5325661E+01
 1.4656751E+01  2.5324820E+01
 1.4668251E+01  2.5394955E+01
 1.4679750E+01  2.5393908E+01
 1.4691251E+01  2.5439150E+01
 1.4702751E+01  2.5437380E+01
 1.4714251E+01  2.5437893E+01
 1.4725751E+01  2.5397594E+01
 1.4737250E+01  2.5337463E+01
 1.4748751E+01  2.5301117E+01
 1.4760251E+01  2.5241020E+01
 1.4771750E+01  2.5250435E+01
 1.4783251E+01  2.5215281E+01
 1.4794751E+01  2.5218243E+01
 1.4806251E+01  2.5189619E+01
 1.4817751E+01  2.5174139E+01
 1.4829250E+01  2.5114531E+01
 1.4840751E+01  2.5083290E+01
 1.4852251E+01  2.5072323E+01
 1.4863750E+01  2.5038277E+01
 1.4875251E+01  2.5010910E+01
 1.4886751E+01  2.4992968E+01
 1.4898251E+01  2.5028292E+01
 1.4909751E+01  2.5044641E+01
 1.4921250E+01  2.5052601E+01
 1.4932751E+01  2.5074493E+01
 1.4944251E+01  2.5052629E+01
 1.4955750E+01  2.4989115E+01
 1.4967251E+01  2.4927683E+01
 1.4978751E+01  2.4918465E+01
 1.4990251E+01  2.4961948E+01
 1.5001751E+01  2.4992723E+01
 1.5013250E+01  2.5043171E+01
 1.5024751E+01  2.5087727E+01
 1.5036251E+01  2.5074722E+01
 1.5047750E+01  2.5080381E+01
 1.5059251E+01  2.5099157E+01
 1.5070751E+01  2.5095476E+01
 1.5082251E+01  2.5077684E+01
 1.5093751E+01  2.5131201E+01
 1.5105250E+01  2.5286324E+01
 1.5116751E+01  2.5494383E+01
 1.5128251E+01  2.5773422E+01
 1.5139750E+01  2.6218590E+01
 1.5151251E+01  2.6993898E+01
 1.5162751E+01  2.7758631E+01
 1.5174251E+01  2.8764591E+01
 1.5185751E+01  2.9512379E+01
 1.5197250E+01  3.0081579E+01
 1.5208751E+01  3.0241179E+01
 1.5220251E+01  2.9555010E+01
 1.5231750E+01  2.8406837E+01
 1.5243251E+01  2.7027094E+01
 1.5254751E+01  2.6153389E+01
 1.5266251E+01  2.5602705E+01
 1.5277751E+01  2.5285776E+01
 1.5289250E+01  2.5107506E+01
 1.5300751E+01  2.5020679E+01
 1.5312251E+01  2.4943451E+01
 1.5323750E+01  2.4895025E+01
 1.5335251E+01  2.4883938E+01
 1.5346751E+01  2.4848682E+01
 1.5358251E+01  2.4809357E+01
 1.5369751E+01  2.4769110E+01
 1.5381250E+01  2.4729671E+01
 1.5392751E+01  2.4724539E+01
 1.5404251E+01  2.4707958E+01
 1.5415751E+01  2.4655689E+01
 1.5427251E+01  2.4659985E+01
 1.5438751E+01  2.4629955E+01
 1.5450251E+01  2.4639820E+01
 1.5461751E+01  2.4615276E+01
 1.5473250E+01  2.4562689E+01
 1.5484751E+01  2.4575241E+01
 1.5496251E+01  2.4551970E+01
 1.5507751E+01  2.4625563E+01
 1.5519251E+01  2.4640282E+01
 1.5530751E+01  2.4634638E+01
 1.5542251E+01  2.4575602E+01
 1.5553751E+01  2.4511866E+01
 1.5565250E+01  2.4537720E+01
 1.5576751E+01  2.4580050E+01
 1.5588251E+01  2.4601746E+01
 1.5599751E+01  2.4544285E+01
 1.5611251E+01  2.4517706E+01
 1.5622751E+01  2.4548952E+01
 1.5634251E+01  2.4575256E+01
 1.5645751E+01  2.4551277E+01
 1.5657250E+01  2.4532042E+01
 1.5668751E+01  2.4551109E+01
 1.5680251E+01  2.4571217E+01
 1.5691751E+01  2.4583130E+01
 1.5703251E+01  2.4631039E+01
 1.5714751E+01  2.4646128E+01
 1.5726251E+01  2.4675089E+01
 1.5737751E+01  2.4631735E+01
 1.5749250E+01  2.4619965E+01
 1.5760751E+01  2.4601715E+01
 1.5772251E+01  2.4617579E+01
 1.5783751E+01  2.4614882E+01
 1.5795251E+01  2.4637381E+01
 1.5806751E+01  2.4715601E+01
 1.5818251E+01  2.4760014E+01
 1.5829751E+01  2.4743938E+01
 1.5841250E+01  2.4751520E+01
 1.5852751E+01  2.4801249E+01
 1.5864251E+01  2.4785919E+01
 1.5875751E+01  2.4724890E+01
 1.5887251E+01  2.4638269E+01
 1.5898750E+01  2.4656740E+01
 1.5910251E+01  2.4698198E+01
 1.5921751E+01  2.4750172E+01
 1.5933250E+01  2.4766560E+01
 1.5944751E+01  2.4708029E+01
 1.5956251E+01  2.4709070E+01
 1.5967751E+01  2.4676962E+01
 1.5979251E+01  2.4779133E+01
 1.5990750E+01  2.4774046E+01
 1.6002251E+01  2.4807325E+01
 1.6013750E+01  2.4770281E+01
 1.6025251E+01  2.4769257E+01
 1.6036751E+01  2.4773998E+01
 1.6048250E+01  2.4771780E+01
 1.6059752E+01  2.4863764E+01
 1.6071251E+01  2.4855242E+01
 1.6082750E+01  2.4943775E+01
 1.6094252E+01  2.4904659E+01
 1.6105751E+01  2.5003775E+01
 1.6117250E+01  2.4946468E+01
 1.6128750E+01  2.4947546E+01
 1.6140251E+01  2.4940619E+01
 1.6151751E+01  2.4947178E+01
 1.6163250E+01  2.5042990E+01
 1.6174751E+01  2.4995827E+01
 1.6186251E+01  2.5342403E+01
 1.6197750E+01  2.5309965E+01
 1.6209251E+01  2.5997137E+01
 1.6220751E+01  2.5960443E+01
 1.6232250E+01  2.6607302E+01
 1.6243752E+01  2.6689331E+01
 1.6255251E+01  2.7020205E+01
 1.6266750E+01  2.7193634E+01
 1.6278252E+01  2.6755198E+01
 1.6289751E+01  2.6740538E+01
 1.6301250E+01  2.5807297E+01
 1.6312750E+01  2.5800245E+01
 1.6324251E+01  2.5127867E+01
 1.6335751E+01  2.5160835E+01
 1.6347250E+01  2.4855173E+01
 1.6358751E+01  2.4879303E+01
 1.6370251E+01  2.4769066E+01
 1.6381750E+01  2.4775431E+01
 1.6393251E+01  2.4807211E+01
 1.6404751E+01  2.4868626E+01
 1.6416250E+01  2.4981184E+01
 1.6427752E+01  2.4976690E+01
 1.6439251E+01  2.5000004E+01
 1.6450750E+01  2.4973242E+01
 1.6462252E+01  2.4921240E+01
 1.6473751E+01  2.4825151E+01
 1.6485250E+01  2.4726566E+01
 1.6496750E+01  2.4696907E+01
 1.6508251E+01  2.4684820E+01
 1.6519751E+01  2.4729879E+01
 1.6531250E+01  2.4735394E+01
 1.6542751E+01  2.4796249E+01
 1.6554251E+01  2.4718073E+01
 1.6565750E+01  2.4714552E+01
 1.6577251E+01  2.4687956E+01
 1.6588751E+01  2.4752737E+01
 1.6600250E+01  2.4747759E+01
 1.6611752E+01  2.4727205E+01
 1.6623251E+01  2.4624554E+01
 1.6634750E+01  2.4597918E+01
 1.6646252E+01  2.4579233E+01
 1.6657751E+01  2.4615322E+01
 1.6669250E+01  2.4672398E+01
 1.6680750E+01  2.4686247E+01
 1.6692251E+01  2.4696613E+01
 1.6703751E+01  2.4668514E+01
 1.6715250E+01  2.4664476E+01
 1.6726751E+01  2.4676876E+01
 1.6738251E+01  2.4637138E+01
 1.6749750E+01  2.4592354E+01
 1.6761251E+01  2.4536041E+01
 1.6772751E+01  2.4478283E+01
 1.6784250E+01  2.4460539E+01
 1.6795752E+01  2.4435169E+01
 1.6807251E+01  2.4433306E+01
 1.6818750E+01  2.4376921E+01
 1.6830252E+01  2.4367353E+01
 1.6841751E+01  2.4390976E+01
 1.6853251E+01  2.4427330E+01
 1.6864750E+01  2.4431129E+01
 1.6876251E+01  2.4424732E+01
 1.6887751E+01  2.4460861E+01
 1.6899250E+01  2.4504625E+01
 1.6910751E+01  2.4515635E+01
 1.6922251E+01  2.4475866E+01
 1.6933750E+01  2.4415121E+01
 1.6945251E+01  2.4353771E+01
 1.6956751E+01  2.4345551E+01
 1.6968250E+01  2.4350817E+01
 1.6979752E+01  2.4469118E+01
 1.6991251E+01  2.4494602E+01
 1.7002750E+01  2.4517622E+01
 1.7014252E+01  2.4498680E+01
 1.7025751E+01  2.4521748E+01
 1.7037251E+01  2.4453384E+01
 1.7048750E+01  2.4389584E+01
 1.7060251E+01  2.4293066E+01
 1.7071751E+01  2.4272120E+01
 1.7083250E+01  2.4232210E+01
 1.7094751E+01  2.4216360E+01
 1.7106251E+01  2.4238745E+01
 1.7117750E+01  2.4201336E+01
 1.7129251E+01  2.4213873E+01
 1.7140751E+01  2.4216110E+01
 1.7152250E+01  2.4282686E+01
 1.7163752E+01  2.4301388E+01
 1.7175251E+01  2.4307346E+01
 1.7186750E+01  2.4287958E+01
 1.7198252E+01  2.4275110E+01
 1.7209751E+01  2.4277903E+01
 1.7221251E+01  2.4290012E+01
 1.7232750E+01  2.4276699E+01
 1.7244251E+01  2.4258244E+01
 1.7255751E+01  2.4223141E+01
 1.7267250E+01  2.4211090E+01
 1.7278751E+01  2.4197454E+01
 1.7290251E+01  2.4176470E+01
 1.7301750E+01  2.4173380E+01
 1.7313251E+01  2.4138363E+01
 1.7324751E+01  2.4125013E+01
 1.7336250E+01  2.4091131E+01
 1.7347752E+01  2.4052059E+01
 1.7359251E+01  2.4031744E+01
 1.7370750E+01  2.4006731E+01
 1.7382252E+01  2.3987268E+01
 1.7393751E+01  2.3963793E+01
 1.7405251E+01  2.3968046E+01
 1.7416750E+01  2.3982182E+01
 1.7428251E+01  2.4050407E+01
 1.7439751E+01  2.4099001E+01
 1.7451250E+01  2.4150690E+01
 1.7462751E+01  2.4125229E+01
 1.7474251E+01  2.4139267E+01
 1.7485750E+01  2.4125010E+01
 1.7497252E+01  2.4091812E+01
 1.7508751E+01  2.4059536E+01
 1.7520250E+01  2.4010426E+01
 1.7531752E+01  2.3996586E+01
 1.7543251E+01  2.3992537E+01
 1.7554750E+01  2.3967442E+01
 1.7566252E+01  2.3934029E+01
 1.7577751E+01  2.3899799E+01
 1.7589251E+01  2.3869066E+01
 1.7600750E+01  2.3865055E+01
 1.7612251E+01  2.3875502E+01
 1.7623751E+01  2.3944157E+01
 1.7635250E+01  2.3979942E+01
 1.7646751E+01  2.4011755E+01
 1.7658251E+01  2.3986866E+01
 1.7669750E+01  2.3974361E+01
 1.7681252E+01  2.3930027E+01
 1.7692751E+01  2.3975973E+01
 1.7704250E+01  2.3997234E+01
 1.7715752E+01  2.4039249E+01
 1.7727251E+01  2.3982401E+01
 1.7738750E+01  2.3990648E+01
 1.7750252E+01  2.3997021E+01
 1.7761751E+01  2.3964556E+01
 1.7773251E+01  2.3932722E+01
 1.7784750E+01  2.3906414E+01
 1.7796251E+01  2.3987803E+01
 1.7807751E+01  2.4017607E+01
 1.7819250E+01  2.4034445E+01
 1.7830751E+01  2.4028269E+01
 1.7842251E+01  2.3977865E+01
 1.7853750E+01  2.3985188E+01
 1.7865252E+01  2.4002089E+01
 1.7876751E+01  2.4041040E+01
 1.7888250E+01  2.4024387E+01
 1.7899752E+01  2.3988087E+01
 1.7911251E+01  2.3998451E+01
 1.7922750E+01  2.4013348E+01
 1.7934252E+01  2.4043367E+01
 1.7945751E+01  2.4105524E+01
 1.7957251E+01  2.4153957E+01
 1.7968750E+01  2.4269295E+01
 1.7980251E+01  2.4453136E+01
 1.7991751E+01  2.4772533E+01
 1.8003250E+01  2.5209894E+01
 1.8014751E+01  2.5595083E+01
 1.8026251E+01  2.6095125E+01
 1.8037750E+01  2.6531113E+01
 1.8049252E+01  2.6971937E+01
 1.8060751E+01  2.7530123E+01
 1.8072250E+01  2.8239529E+01
 1.8083752E+01  2.8470318E+01
 1.8095251E+01  2.8379198E+01
 1.8106750E+01  2.8057371E+01
 1.8118252E+01  2.7740545E+01
 1.8129751E+01  2.6828869E+01
 1.8141251E+01  2.6293543E+01
 1.8152750E+01  2.5754301E+01
 1.8164251E+01  2.5269909E+01
 1.8175751E+01  2.4903076E+01
 1.8187250E+01  2.4575178E+01
 1.8198751E+01  2.4332323E+01
 1.8210251E+01  2.4136698E+01
 1.8221750E+01  2.4038424E+01
 1.8233252E+01  2.3928963E+01
 1.8244751E+01  2.3896635E+01
 1.8256250E+01  2.3875862E+01
 1.8267752E+01  2.3894594E+01
 1.8279251E+01  2.3869442E+01
 1.8290751E+01  2.3896605E+01
 1.8302252E+01  2.3874353E+01
 1.8313751E+01  2.3819069E+01
 1.8325251E+01  2.3736240E+01
 1.8336750E+01  2.3726027E+01
 1.8348251E+01  2.3746885E+01
 1.8359751E+01  2.3792074E+01
 1.8371250E+01  2.3788845E+01
 1.8382751E+01  2.3825438E+01
 1.8394251E+01  2.3863297E+01
 1.8405750E+01  2.3909256E+01
 1.8417252E+01  2.3905497E+01
 1.8428751E+01  2.3848927E+01
 1.8440250E+01  2.3794115E+01
 1.8451752E+01  2.3749237E+01
 1.8463251E+01  2.3741621E+01
 1.8474751E+01  2.3718630E+01
 1.8486252E+01  2.3682259E+01
 1.8497751E+01  2.3649775E+01
 1.8509251E+01  2.3636980E+01
 1.8520750E+01  2.3630255E+01
 1.8532251E+01  2.3623703E+01
 1.8543751E+01  2.3649658E+01
 1.8555250E+01  2.3720711E+01
 1.8566751E+01  2.3759768E+01
 1.8578251E+01  2.3812408E+01
 1.8589750E+01  2.3819653E+01
 1.8601252E+01  2.3821234E+01
 1.8612751E+01  2.3807388E+01
 1.8624250E+01  2.3778826E+01
 1.8635752E+01  2.3725458E+01
 1.8647251E+01  2.3654926E+01
 1.8658751E+01  2.3576668E+01
 1.8670252E+01  2.3545828E+01
 1.8681751E+01  2.3580765E+01
 1.8693251E+01  2.3672083E+01
 1.8704750E+01  2.3706581E+01
 1.8716251E+01  2.3694498E+01
 1.8727751E+01  2.3657948E+01
 1.8739250E+01  2.3653933E+01
 1.8750751E+01  2.3684731E+01
 1.8762251E+01  2.3704266E+01
 1.8773750E+01  2.3714010E+01
 1.8785252E+01  2.3730330E+01
 1.8796751E+01  2.3747837E+01
 1.8808250E+01  2.3718277E+01
 1.8819752E+01  2.3667122E+01
 1.8831251E+01  2.3619411E+01
 1.8842751E+01  2.3641216E+01
 1.8854252E+01  2.3636147E+01
 1.8865751E+01  2.3641874E+01
 1.8877251E+01  2.3619341E+01
 1.8888750E+01  2.3598293E+01
 1.8900251E+01  2.3578072E+01
 1.8911751E+01  2.3588457E+01
 1.8923250E+01  2.3638149E+01
 1.8934752E+01  2.3650980E+01
 1.8946251E+01  2.3683447E+01
 1.8957750E+01  2.3614824E+01
 1.8969252E+01  2.3534233E+01
 1.8980751E+01  2.3443611E+01
 1.8992250E+01  2.3369438E+01
 1.9003752E+01  2.3406485E+01
 1.9015251E+01  2.3464016E+01
 1.9026751E+01  2.3556402E+01
 1.9038252E+01  2.3545094E+01
 1.9049751E+01  2.3514694E+01
 1.9061251E+01  2.3510233E+01
 1.9072750E+01  2.3526581E+01
 1.9084251E+01  2.3564034E+01
 1.9095751E+01  2.3574839E+01
 1.9107250E+01  2.3593775E+01
 1.9118752E+01  2.3579638E+01
 1.9130251E+01  2.3612774E+01
 1.9141750E+01  2.3620405E+01
 1.9153252E+01  2.3695814E+01
 1.9164751E+01  2.3704678E+01
 1.9176250E+01  2.3690308E+01
 1.9187752E+01  2.3683882E+01
 1.9199251E+01  2.3703491E+01
 1.9210751E+01  2.3759361E+01
 1.9222252E+01  2.3791462E+01
 1.9233751E+01  2.3743021E+01
 1.9245251E+01  2.3693371E+01
 1.9256750E+01  2.3647663E+01
 1.9268251E+01  2.3632191E+01
 1.9279751E+01  2.3583185E+01
 1.9291250E+01  2.3572487E+01
 1.9302752E+01  2.3580297E+01
 1.9314251E+01  2.3643320E+01
 1.9325750E+01  2.3704943E+01
 1.9337252E+01  2.3774300E+01
 1.9348751E+01  2.3792097E+01
 1.9360250E+01  2.3765747E+01
 1.9371752E+01  2.3788385E+01
 1.9383251E+01  2.3781233E+01
 1.9394751E+01  2.3837545E+01
 1.9406250E+01  2.3824919E+01
 1.9417751E+01  2.3850952E+01
 1.9429251E+01  2.3825842E+01
 1.9440750E+01  2.3810465E+01
 1.9452251E+01  2.3769379E+01
 1.9463751E+01  2.3745577E+01
 1.9475250E+01  2.3781418E+01
 1.9486752E+01  2.3812656E+01
 1.9498251E+01  2.3845463E+01
 1.9509750E+01  2.3880489E+01
 1.9521252E+01  2.3959606E+01
 1.9532751E+01  2.4013491E+01
 1.9544250E+01  2.4050398E+01
 1.9555752E+01  2.4046860E+01
 1.9567251E+01  2.4014700E+01
 1.9578751E+01  2.3994068E+01
 1.9590250E+01  2.4041235E+01
 1.9601751E+01  2.4094370E+01
 1.9613251E+01  2.4180763E+01
 1.9624750E+01  2.4271801E+01
 1.9636251E+01  2.4462095E+01
 1.9647751E+01  2.4725426E+01
 1.9659250E+01  2.5112123E+01
 1.9670752E+01  2.5579882E+01
 1.9682251E+01  2.6249283E+01
 1.9693750E+01  2.6951847E+01
 1.9705252E+01  2.7748629E+01
 1.9716751E+01  2.8547499E+01
 1.9728251E+01  2.8913528E+01
 1.9739752E+01  2.9079058E+01
 1.9751251E+01  2.8856195E+01
 1.9762751E+01  2.8257881E+01
 1.9774250E+01  2.7736074E+01
 1.9785751E+01  2.7088480E+01
 1.9797251E+01  2.7088531E+01
 1.9808750E+01  2.7199516E+01
 1.9820251E+01  2.7750191E+01
 1.9831751E+01  2.8668798E+01
 1.9843250E+01  2.9651398E+01
 1.9854752E+01  3.0431721E+01
 1.9866251E+01  3.0613380E+01
 1.9877750E+01  3.0410957E+01
 1.9889252E+01  2.9454260E+01
 1.9900751E+01  2.8150740E+01
 1.9912251E+01  2.6997198E+01
 1.9923752E+01  2.5980513E+01
 1.9935251E+01  2.5286285E+01
 1.9946751E+01  2.4805588E+01
 1.9958250E+01  2.4505764E+01
 1.9969751E+01  2.4358475E+01
 1.9981251E+01  2.4227098E+01
 1.9992750E+01  2.4180603E+01
 2.0004251E+01  2.4130043E+01
 2.0015751E+01  2.4091291E+01
 2.0027250E+01  2.4046242E+01
 2.0038752E+01  2.3995880E+01
 2.0050251E+01  2.4006113E+01
 2.0061750E+01  2.3953833E+01
 2.0073252E+01  2.3953665E+01
 2.0084751E+01  2.3929462E+01
 2.0096251E+01  2.3988146E+01
 2.0107752E+01  2.4016924E+01
 2.0119251E+01  2.4005039E+01
 2.0130751E+01  2.3948400E+01
 2.0142250E+01  2.3922037E+01
 2.0153751E+01  2.3952517E+01
 2.0165251E+01  2.4000902E+01
 2.0176750E+01  2.3984982E+01
 2.0188251E+01  2.3949415E+01
 2.0199751E+01  2.3938593E+01
 2.0211250E+01  2.3953833E+01
 2.0222752E+01  2.3952639E+01
 2.0234251E+01  2.3955320E+01
 2.0245750E+01  2.3919971E+01
 2.0257252E+01  2.3899345E+01
 2.0268751E+01  2.3855574E+01
 2.0280251E+01  2.3847645E+01
 2.0291752E+01  2.3807184E+01
 2.0303251E+01  2.3778650E+01
 2.0314751E+01  2.3746309E+01
 2.0326250E+01  2.3712383E+01
 2.0337751E+01  2.3700300E+01
 2.0349251E+01  2.3716120E+01
 2.0360750E+01  2.3737589E+01
 2.0372252E+01  2.3734304E+01
 2.0383751E+01  2.3710289E+01
 2.0395250E+01  2.3749342E+01
 2.0406752E+01  2.3772144E+01
 2.0418251E+01  2.3839403E+01
 2.0429750E+01  2.3863333E+01
 2.0441252E+01  2.3885054E+01
 2.0452751E+01  2.3897940E+01
 2.0464251E+01  2.3900877E+01
 2.0475752E+01  2.3913239E+01
 2.0487251E+01  2.3897722E+01
 2.0498751E+01  2.3922848E+01
 2.0510250E+01  2.3898710E+01
 2.0521751E+01  2.3867367E+01
 2.0533251E+01  2.3853228E+01
 2.0544750E+01  2.3916742E+01
 2.0556252E+01  2.4003187E+01
 2.0567751E+01  2.4060329E+01
 2.0579250E+01  2.4032898E+01
 2.0590752E+01  2.4029909E+01
 2.0602251E+01  2.4074406E+01
 2.0613750E+01  2.4112963E+01
 2.0625252E+01  2.4149069E+01
 2.0636751E+01  2.4160301E+01
 2.0648251E+01  2.4167957E+01
 2.0659752E+01  2.4253628E+01
 2.0671251E+01  2.4505775E+01
 2.0682751E+01  2.4955711E+01
 2.0694250E+01  2.5509163E+01
 2.0705751E+01  2.6138454E+01
 2.0717251E+01  2.6526941E+01
 2.0728750E+01  2.6875265E+01
 2.0740252E+01  2.7037811E+01
 2.0751751E+01  2.7395252E+01
 2.0763250E+01  2.7667044E+01
 2.0774752E+01  2.7844898E+01
 2.0786251E+01  2.8077377E+01
 2.0797750E+01  2.7856878E+01
 2.0809252E+01  2.7349760E+01
 2.0820751E+01  2.6402599E+01
 2.0832251E+01  2.5630201E+01
 2.0843752E+01  2.4978615E+01
 2.0855251E+01  2.4624443E+01
 2.0866751E+01  2.4396305E+01
 2.0878250E+01  2.4293282E+01
 2.0889751E+01  2.4156387E+01
 2.0901251E+01  2.4138229E+01
 2.0912750E+01  2.4120979E+01
 2.0924252E+01  2.4158573E+01
 2.0935751E+01  2.4149591E+01
 2.0947250E+01  2.4106926E+01
 2.0958752E+01  2.4051014E+01
 2.0970251E+01  2.3984852E+01
 2.0981750E+01  2.4002987E+01
 2.0993252E+01  2.4021429E+01
 2.1004751E+01  2.4026184E+01
 2.1016251E+01  2.3998169E+01
 2.1027752E+01  2.3995037E+01
 2.1039251E+01  2.4033955E+01
 2.1050751E+01  2.4027359E+01
 2.1062250E+01  2.4044460E+01
 2.1073751E+01  2.4096182E+01
 2.1085251E+01  2.4098911E+01
 2.1096750E+01  2.4020039E+01
 2.1108252E+01  2.3948046E+01
 2.1119751E+01  2.3942501E+01
 2.1131250E+01  2.3988064E+01
 2.1142752E+01  2.3978893E+01
 2.1154251E+01  2.3966295E+01
 2.1165751E+01  2.3946327E+01
 2.1177252E+01  2.4005417E+01
 2.1188751E+01  2.4058214E+01
 2.1200251E+01  2.4083038E+01
 2.1211752E+01  2.4048311E+01
 2.1223251E+01  2.3946115E+01
 2.1234751E+01  2.3896530E+01
 2.1246250E+01  2.3899916E+01
 2.1257751E+01  2.3923777E+01
 2.1269251E+01  2.3892757E+01
 2.1280750E+01  2.3918314E+01
 2.1292252E+01  2.3966665E+01
 2.1303751E+01  2.4009220E+01
 2.1315250E+01  2.4017467E+01
 2.1326752E+01  2.4023201E+01
 2.1338251E+01  2.4001110E+01
 2.1349751E+01  2.4033112E+01
 2.1361252E+01  2.4057905E+01
 2.1372751E+01  2.4089848E+01
 2.1384251E+01  2.4019505E+01
 2.1395752E+01  2.4042269E+01
 2.1407251E+01  2.4001026E+01
 2.1418751E+01  2.4036015E+01
 2.1430250E+01  2.4017681E+01
 2.1441751E+01  2.4000534E+01
 2.1453251E+01  2.4030687E+01
 2.1464750E+01  2.4026171E+01
 2.1476252E+01  2.4022388E+01
 2.1487751E+01  2.4032156E+01
 2.1499250E+01  2.4049500E+01
 2.1510752E+01  2.4099352E+01
 2.1522251E+01  2.4106041E+01
 2.1533751E+01  2.4179083E+01
 2.1545252E+01  2.4172230E+01
 2.1556751E+01  2.4186506E+01
 2.1568251E+01  2.4180630E+01
 2.1579752E+01  2.4189701E+01
 2.1591251E+01  2.4216572E+01
 2.1602751E+01  2.4209736E+01
 2.1614250E+01  2.4194864E+01
 2.1625751E+01  2.4199512E+01
 2.1637251E+01  2.4187601E+01
 2.1648750E+01  2.4179810E+01
 2.1660252E+01  2.4212154E+01
 2.1671751E+01  2.4313305E+01
 2.1683250E+01  2.4327953E+01
 2.1694752E+01  2.4257645E+01
 2.1706251E+01  2.4184044E+01
 2.1717751E+01  2.4167156E+01
 2.1729252E+01  2.4205997E+01
 2.1740751E+01  2.4216507E+01
 2.1752251E+01  2.4233824E+01
 2.1763752E+01  2.4226408E+01
 2.1775251E+01  2.4224356E+01
 2.1786751E+01  2.4246811E+01
 2.1798250E+01  2.4266552E+01
 2.1809752E+01  2.4306791E+01
 2.1821251E+01  2.4301308E+01
 2.1832750E+01  2.4267935E+01
 2.1844252E+01  2.4262112E+01
 2.1855751E+01  2.4263033E+01
 2.1867250E+01  2.4295238E+01
 2.1878752E+01  2.4316490E+01
 2.1890251E+01  2.4313971E+01
 2.1901751E+01  2.4287146E+01
 2.1913252E+01  2.4267881E+01
 2.1924751E+01  2.4253632E+01
 2.1936251E+01  2.4276260E+01
 2.1947752E+01  2.4272638E+01
 2.1959251E+01  2.4322290E+01
 2.1970751E+01  2.4284801E+01
 2.1982250E+01  2.4316057E+01
 2.1993752E+01  2.4323902E+01
 2.2005251E+01  2.4359039E+01
 2.2016750E+01  2.4376451E+01
 2.2028252E+01  2.4393362E+01
 2.2039751E+01  2.4365534E+01
 2.2051250E+01  2.4356216E+01
 2.2062752E+01  2.4296471E+01
 2.2074251E+01  2.4291615E+01
 2.2085751E+01  2.4280756E+01
 2.2097252E+01  2.4337849E+01
 2.2108751E+01  2.4419519E+01
 2.2120251E+01  2.4502718E+01
 2.2131752E+01  2.4518778E+01
 2.2143251E+01  2.4474936E+01
 2.2154751E+01  2.4428656E+01
 2.2166250E+01  2.4422194E+01
 2.2177752E+01  2.4362600E+01
 2.2189251E+01  2.4387278E+01
 2.2200750E+01  2.4417927E+01
 2.2212252E+01  2.4476542E+01
 2.2223751E+01  2.4505022E+01
 2.2235250E+01  2.4552721E+01
 2.2246752E+01  2.4627979E+01
 2.2258251E+01  2.4627005E+01
 2.2269751E+01  2.4586424E+01
 2.2281252E+01  2.4588634E+01
 2.2292751E+01  2.4614498E+01
 2.2304251E+01  2.4655493E+01
 2.2315752E+01  2.4676674E+01
 2.2327251E+01  2.4703314E+01
 2.2338751E+01  2.4719017E+01
 2.2350250E+01  2.4692356E+01
 2.2361752E+01  2.4621241E+01
 2.2373251E+01  2.4574608E+01
 2.2384750E+01  2.4594315E+01
 2.2396252E+01  2.4601164E+01
 2.2407751E+01  2.4552298E+01
 2.2419250E+01  2.4526262E+01
 2.2430752E+01  2.4548351E+01
 2.2442251E+01  2.4618567E+01
 2.2453751E+01  2.4647129E+01
 2.2465252E+01  2.4644142E+01
 2.2476751E+01  2.4639593E+01
 2.2488251E+01  2.4685228E+01
 2.2499752E+01  2.4706099E+01
 2.2511251E+01  2.4721731E+01
 2.2522751E+01  2.4722738E+01
 2.2534250E+01  2.4740322E+01
 2.2545752E+01  2.4806170E+01
 2.2557251E+01  2.4818844E+01
 2.2568750E+01  2.4863831E+01
 2.2580252E+01  2.4893204E+01
 2.2591751E+01  2.4960907E+01
 2.2603251E+01  2.4944868E+01
 2.2614752E+01  2.4974274E+01
 2.2626251E+01  2.4984930E+01
 2.2637751E+01  2.5011612E+01
 2.2649252E+01  2.5012243E+01
 2.2660751E+01  2.5020510E+01
 2.2672251E+01  2.5025255E+01
 2.2683752E+01  2.5056694E+01
 2.2695251E+01  2.5119059E+01
 2.2706751E+01  2.5145880E+01
 2.2718250E+01  2.5186916E+01
 2.2729752E+01  2.5211462E+01
 2.2741251E+01  2.5283997E+01
 2.2752750E+01  2.5368240E+01
 2.2764252E+01  2.5450642E+01
 2.2775751E+01  2.5396395E+01
 2.2787251E+01  2.5371489E+01
 2.2798752E+01  2.5391998E+01
 2.2810251E+01  2.5454128E+01
 2.2821751E+01  2.5462791E+01
 2.2833252E+01  2.5497293E+01
 2.2844751E+01  2.5516891E+01
 2.2856251E+01  2.5556583E+01
 2.2867750E+01  2.5613697E+01
 2.2879251E+01  2.5680378E+01
 2.2890751E+01  2.5785095E+01
 2.2902250E+01  2.5854469E+01
 2.2913752E+01  2.5983625E+01
 2.2925251E+01  2.6033926E+01
 2.2936750E+01  2.6061399E+01
 2.2948252E+01  2.6106565E+01
 2.2959751E+01  2.6131927E+01
 2.2971251E+01  2.6276091E+01
 2.2982752E+01  2.6408091E+01
 2.2994251E+01  2.6544722E+01
